Wavelength	MM800006.asd
350	 5.37631707659877E-02 
351	 6.29007785930781E-02 
352	 5.97978470160143E-02 
353	 4.31250314338612E-02 
354	 5.10120824540327E-02 
355	 5.80813146342437E-02 
356	 5.89848431877546E-02 
357	 5.60134702095566E-02 
358	 5.81948006809816E-02 
359	 5.95227897287386E-02 
360	 5.88083936530865E-02 
361	 5.81967473401721E-02 
362	 0.056884828345521 
363	 5.58688413794316E-02 
364	 5.62118978553062E-02 
365	 5.92231922149456E-02 
366	 5.81973721042886E-02 
367	 5.65980744387156E-02 
368	 5.86226672410774E-02 
369	 5.93682651225035E-02 
370	 6.20028976063575E-02 
371	 6.47393546103331E-02 
372	 6.30866763265554E-02 
373	 6.25631437605333E-02 
374	 6.34559572363796E-02 
375	 6.49813144320977E-02 
376	 0.065934897680781 
377	 6.64279538476885E-02 
378	 6.67904122961548E-02 
379	 6.74810456774152E-02 
380	 6.91731486087339E-02 
381	 7.00142147602849E-02 
382	 0.070224620072233 
383	 7.14955503572429E-02 
384	 7.27468440453046E-02 
385	 7.24330403704633E-02 
386	 0.071263940756465 
387	 7.42528154849236E-02 
388	 7.82649311749245E-02 
389	 0.080401028768212 
390	 7.94235949917538E-02 
391	 8.13013086916571E-02 
392	 8.22166833392642E-02 
393	 8.28799703828736E-02 
394	 0.087611334596548 
395	 8.94600499460294E-02 
396	 9.05523224103711E-02 
397	 9.26544993381608E-02 
398	 0.093295610881917 
399	 9.49247127207495E-02 
400	 9.71536154909116E-02 
401	 9.88338752196083E-02 
402	 0.100975144024264 
403	 0.102962298296407 
404	 0.104405119080908 
405	 0.105314922414516 
406	 0.108554235399034 
407	 0.111797610451825 
408	 0.112930836091132 
409	 0.112765828695255 
410	 0.113390387864984 
411	 0.115068409094302 
412	 0.117033698071211 
413	 0.118523619974532 
414	 0.1193636059461 
415	 0.119874647703372 
416	 0.120879438720873 
417	 0.121519213397867 
418	 0.122257340577712 
419	 0.123379985776547 
420	 0.123498139843106 
421	 0.123354490160542 
422	 0.123402619208529 
423	 0.123808980572339 
424	 0.12414130420654 
425	 0.124132222744614 
426	 0.123876264592174 
427	 0.124122143635424 
428	 0.123542955700451 
429	 0.122945894599627 
430	 0.123261918756845 
431	 0.122428462282004 
432	 0.121370132930632 
433	 0.12080418195615 
434	 0.121050595870744 
435	 0.121393694579511 
436	 0.121622534316869 
437	 0.121750586992648 
438	 0.121968516960749 
439	 0.122949787058648 
440	 0.124218791342599 
441	 0.124917724792485 
442	 0.126305797535477 
443	 0.127695684467871 
444	 0.128732717148053 
445	 0.12983363310977 
446	 0.1309956412752 
447	 0.132326342878218 
448	 0.133835489862201 
449	 0.13505060298716 
450	 0.13635381623511 
451	 0.137808671957092 
452	 0.13918845135493 
453	 0.140492372251202 
454	 0.141569393855405 
455	 0.142443266976179 
456	 0.14362406017497 
457	 0.14466966600659 
458	 0.14554609790588 
459	 0.146409601456433 
460	 0.147378968339639 
461	 0.148160446387862 
462	 0.148748735022918 
463	 0.149589181227353 
464	 0.150251697420721 
465	 0.150918759861971 
466	 0.15175862758143 
467	 0.152183063554226 
468	 0.152686791427499 
469	 0.153275958157654 
470	 0.153578372020319 
471	 0.154069361701152 
472	 0.154611158790293 
473	 0.155053337430895 
474	 0.155438338994945 
475	 0.156009025961686 
476	 0.156610575046774 
477	 0.15696699189207 
478	 0.157352330736318 
479	 0.157752143896775 
480	 0.15812629665304 
481	 0.158430176980558 
482	 0.158893305235636 
483	 0.159383239898388 
484	 0.159732254842104 
485	 0.160061293434517 
486	 0.160465405482494 
487	 0.160896573841668 
488	 0.161208038299333 
489	 0.161701045158376 
490	 0.162163905335433 
491	 0.162471359834773 
492	 0.162944872326265 
493	 0.163305413768203 
494	 0.16355700923668 
495	 0.163852804064267 
496	 0.164391829859337 
497	 0.164867440917938 
498	 0.165200303584271 
499	 0.165725513020937 
500	 0.166032499995645 
501	 0.166261502650896 
502	 0.166643442258377 
503	 0.167061432960776 
504	 0.167385347176924 
505	 0.167651858833622 
506	 0.168038215043135 
507	 0.168364169844567 
508	 0.16876586018484 
509	 0.16929112781037 
510	 0.169595603985531 
511	 0.169872994623451 
512	 0.17020779351615 
513	 0.170605800898314 
514	 0.170911957714545 
515	 0.171147547104613 
516	 0.171417015278789 
517	 0.171952342679425 
518	 0.172290382498554 
519	 0.172506295263041 
520	 0.172825518390659 
521	 0.173231301305621 
522	 0.173585149943892 
523	 0.173852526927972 
524	 0.174116022606664 
525	 0.17454354479156 
526	 0.174905429330282 
527	 0.1750623014215 
528	 0.175457113490207 
529	 0.175830471172861 
530	 0.176104500646184 
531	 0.176338970161076 
532	 0.176697357773855 
533	 0.177079855357419 
534	 0.177406963424978 
535	 0.177718646116202 
536	 0.178045549419958 
537	 0.178414479393541 
538	 0.178821866348986 
539	 0.17909615706385 
540	 0.179389964925243 
541	 0.179757358813436 
542	 0.180087491130373 
543	 0.180443083289675 
544	 0.180870581409266 
545	 0.181349904150038 
546	 0.181608505882685 
547	 0.181934515746414 
548	 0.182404907366089 
549	 0.182900374594433 
550	 0.18334487738974 
551	 0.183765509980677 
552	 0.18421062947419 
553	 0.184732931924889 
554	 0.185194949825693 
555	 0.185628516328629 
556	 0.186143046599147 
557	 0.186659706616031 
558	 0.187165567894483 
559	 0.187673386484296 
560	 0.188226579939697 
561	 0.188806420570353 
562	 0.189470765217283 
563	 0.190278911679433 
564	 0.191171515573249 
565	 0.192072718470706 
566	 0.192910375687516 
567	 0.193622311154504 
568	 0.194397373739 
569	 0.195223029735274 
570	 0.196072118125907 
571	 0.197072734029895 
572	 0.198004434159097 
573	 0.198823639607005 
574	 0.199627600457132 
575	 0.200515953027394 
576	 0.201563024461132 
577	 0.202733718134774 
578	 0.20378078178641 
579	 0.204811379210782 
580	 0.205775023084241 
581	 0.206607828578177 
582	 0.207558038933038 
583	 0.208698885211631 
584	 0.210019695380382 
585	 0.211425643103151 
586	 0.212919428340026 
587	 0.214407382983558 
588	 0.215811362273585 
589	 0.217230038909819 
590	 0.21866641268476 
591	 0.220115048868904 
592	 0.221564315489921 
593	 0.222917304862877 
594	 0.224011512859715 
595	 0.224818225328813 
596	 0.225648013977622 
597	 0.226560966906004 
598	 0.22756391252289 
599	 0.228632140431389 
600	 0.229804430370684 
601	 0.231078001002781 
602	 0.232377241622779 
603	 0.233509158153101 
604	 0.234575116071969 
605	 0.235676154669377 
606	 0.23686895181075 
607	 0.237962562317433 
608	 0.238904656821828 
609	 0.239790870529422 
610	 0.240867737206818 
611	 0.241833937924733 
612	 0.24269281819621 
613	 0.243506175147837 
614	 0.24428613632534 
615	 0.244933479456736 
616	 0.245525233765443 
617	 0.246239325571222 
618	 0.24690275813363 
619	 0.247476246816021 
620	 0.247993807018801 
621	 0.248606032027779 
622	 0.249150938825463 
623	 0.249625800906668 
624	 0.250088964486946 
625	 0.250536318401208 
626	 0.251002918458608 
627	 0.251474606757497 
628	 0.251869918923031 
629	 0.252309353977474 
630	 0.252736968130077 
631	 0.253083922300904 
632	 0.253414402176939 
633	 0.253812906061791 
634	 0.254233494678731 
635	 0.254535235913116 
636	 0.254858556083194 
637	 0.255230946028155 
638	 0.255623871592584 
639	 0.255918645813921 
640	 0.256247140748016 
641	 0.256611383019283 
642	 0.256960849065644 
643	 0.257352918138581 
644	 0.25768328610052 
645	 0.257973088433683 
646	 0.258448156595018 
647	 0.258816383067749 
648	 0.259124813266494 
649	 0.259490793183158 
650	 0.259870716390634 
651	 0.260284917970992 
652	 0.260701500158705 
653	 0.261051384683332 
654	 0.261426690648621 
655	 0.261864541678455 
656	 0.262345946675548 
657	 0.262732841840014 
658	 0.263167894649157 
659	 0.263645595279301 
660	 0.264094227063808 
661	 0.264523264284126 
662	 0.26499654422899 
663	 0.265530076989561 
664	 0.266067902978119 
665	 0.266481456295482 
666	 0.266916819465715 
667	 0.26750998267591 
668	 0.267988353393286 
669	 0.268511042351493 
670	 0.269117780287644 
671	 0.269734982375252 
672	 0.270305173478429 
673	 0.270847213235791 
674	 0.27139332024486 
675	 0.271957116052429 
676	 0.272634315659959 
677	 0.273295997555678 
678	 0.273782418189705 
679	 0.27448101746113 
680	 0.275158801667734 
681	 0.275753548977756 
682	 0.276493774914641 
683	 0.277157116317484 
684	 0.277803606179215 
685	 0.278529410036981 
686	 0.279289452180138 
687	 0.280028603295575 
688	 0.28075199539656 
689	 0.281502636078698 
690	 0.282203741866178 
691	 0.282939198682011 
692	 0.283738955450562 
693	 0.28447432890448 
694	 0.285293505101629 
695	 0.286107093249092 
696	 0.286796694394642 
697	 0.287573965781365 
698	 0.288449408949734 
699	 0.289341860774579 
700	 0.290094841393843 
701	 0.29083061907501 
702	 0.291643768826494 
703	 0.292562459170545 
704	 0.293472236139818 
705	 0.294284842518991 
706	 0.295049860520838 
707	 0.295880243778384 
708	 0.296726068290939 
709	 0.297532552829536 
710	 0.298293843888699 
711	 0.299075825452718 
712	 0.29991973686057 
713	 0.300795890769399 
714	 0.301643035923547 
715	 0.3023712734137 
716	 0.303061231672216 
717	 0.30378646776657 
718	 0.304595895801441 
719	 0.305384164086063 
720	 0.306125762915094 
721	 0.306813301038283 
722	 0.307441954902616 
723	 0.308120954208443 
724	 0.308753663172615 
725	 0.309229559132909 
726	 0.309744691919412 
727	 0.310291100619034 
728	 0.310864615695725 
729	 0.311464050789538 
730	 0.311930831275273 
731	 0.312330763761695 
732	 0.312739258573146 
733	 0.313153739755156 
734	 0.313500850786358 
735	 0.313790018213399 
736	 0.31405671657189 
737	 0.314241443177193 
738	 0.314467944448453 
739	 0.314706060057071 
740	 0.314754076485648 
741	 0.314812455365772 
742	 0.314887903889024 
743	 0.314948911950559 
744	 0.314980604292397 
745	 0.314995414938327 
746	 0.314939723299204 
747	 0.314761725848907 
748	 0.314645563962564 
749	 0.314487220481021 
750	 0.31425335931541 
751	 0.314025898620154 
752	 0.313756157646831 
753	 0.313438851071983 
754	 0.313092181354537 
755	 0.312775628308493 
756	 0.312424135172012 
757	 0.312020998949816 
758	 0.311582397690967 
759	 0.311155537091837 
760	 0.310710645740337 
761	 0.310222247191038 
762	 0.309680973650952 
763	 0.309089030164742 
764	 0.308519413202067 
765	 0.308006764138462 
766	 0.307425272390709 
767	 0.30688442551896 
768	 0.306301764464826 
769	 0.305560732413504 
770	 0.305031493040546 
771	 0.304511490234156 
772	 0.303854597414895 
773	 0.30305520420827 
774	 0.302448066802039 
775	 0.301871278839108 
776	 0.30116041989256 
777	 0.300470635950453 
778	 0.29978746381308 
779	 0.299131244760137 
780	 0.298511746928041 
781	 0.297806954751793 
782	 0.297080699661795 
783	 0.296389388270895 
784	 0.295760336223339 
785	 0.295062937944784 
786	 0.294360700574397 
787	 0.293709505954395 
788	 0.293051349007563 
789	 0.292400711705615 
790	 0.29174681571493 
791	 0.2910711333646 
792	 0.290360966017477 
793	 0.289654111823705 
794	 0.288979828344551 
795	 0.288356134108968 
796	 0.287791016526605 
797	 0.287208632896397 
798	 0.286579244300961 
799	 0.285978100727177 
800	 0.28537244679202 
801	 0.284749846315754 
802	 0.284112796903526 
803	 0.28349655738586 
804	 0.282888460722295 
805	 0.282289999784709 
806	 0.281714913646814 
807	 0.281193825969578 
808	 0.280683704770216 
809	 0.28015305862253 
810	 0.279597015570995 
811	 0.279062410429404 
812	 0.278522600083659 
813	 0.277968344644274 
814	 0.277490306895928 
815	 0.276990230862599 
816	 0.276484004981857 
817	 0.276024714492109 
818	 0.275586614708562 
819	 0.275170530068189 
820	 0.274715737379676 
821	 0.274141353536491 
822	 0.273766185834521 
823	 0.273391492839223 
824	 0.272901322048003 
825	 0.272443745141334 
826	 0.272137730922416 
827	 0.271869557180822 
828	 0.271497361234301 
829	 0.271017084033618 
830	 0.270545153670039 
831	 0.270171343213857 
832	 0.2699234702213 
833	 0.269601509742128 
834	 0.269261289492571 
835	 0.268932982909813 
836	 0.268604634925236 
837	 0.268270909752563 
838	 0.267956029901037 
839	 0.267698149204112 
840	 0.267552522753749 
841	 0.267358383348998 
842	 0.267026280602145 
843	 0.2665954515351 
844	 0.266413316601411 
845	 0.266243223164767 
846	 0.266044459368037 
847	 0.26585843143553 
848	 0.265627485946068 
849	 0.265388162308752 
850	 0.265202567349123 
851	 0.265120203248665 
852	 0.264888161975629 
853	 0.264678024033046 
854	 0.264569158666989 
855	 0.264419742795202 
856	 0.264344171441972 
857	 0.264278766980125 
858	 0.264154392232349 
859	 0.263978639367722 
860	 0.263937260754228 
861	 0.26391939615386 
862	 0.263779577759829 
863	 0.263740645821926 
864	 0.2636891801995 
865	 0.263614034690994 
866	 0.263565276493016 
867	 0.263502202355467 
868	 0.2634674704829 
869	 0.263489445712504 
870	 0.263559843940161 
871	 0.263477978245316 
872	 0.263421359354291 
873	 0.263494993575072 
874	 0.263583071262761 
875	 0.263650635101683 
876	 0.26369219193547 
877	 0.263732849009106 
878	 0.263844944707042 
879	 0.263974579767462 
880	 0.264028620546109 
881	 0.263974741663022 
882	 0.264058862657676 
883	 0.264214668142648 
884	 0.264400050053539 
885	 0.264583437519911 
886	 0.264702716893814 
887	 0.264837908795146 
888	 0.264994765780816 
889	 0.265117390542747 
890	 0.265289566222979 
891	 0.265487991588423 
892	 0.265712980017411 
893	 0.266002352428007 
894	 0.266190864625812 
895	 0.266323234870292 
896	 0.266487703305279 
897	 0.266765133462331 
898	 0.266983268705265 
899	 0.267236032701161 
900	 0.26760691910679 
901	 0.267973032457958 
902	 0.268216802856469 
903	 0.268430669520829 
904	 0.26874236196538 
905	 0.269093409853772 
906	 0.269415534547003 
907	 0.269746789137869 
908	 0.270161389650823 
909	 0.270630694663612 
910	 0.271059923764955 
911	 0.271463362033973 
912	 0.271905446771081 
913	 0.27223768940919 
914	 0.272556027528309 
915	 0.272899851259848 
916	 0.273251063750579 
917	 0.273722661486635 
918	 0.274304932958512 
919	 0.274890799985873 
920	 0.275308171346864 
921	 0.275731634516429 
922	 0.276216117862541 
923	 0.276778742362391 
924	 0.277408078812613 
925	 0.277929324050168 
926	 0.278418058487222 
927	 0.278966117592849 
928	 0.27958058791003 
929	 0.280168841881113 
930	 0.280760942944023 
931	 0.281392040406614 
932	 0.282030644204733 
933	 0.282719854449392 
934	 0.283411794177816 
935	 0.284064569207426 
936	 0.284732550486867 
937	 0.285365918733696 
938	 0.28604815617573 
939	 0.286843277671748 
940	 0.28760493747325 
941	 0.288345634921868 
942	 0.289106631223431 
943	 0.289910526769821 
944	 0.290667058230234 
945	 0.291279832069946 
946	 0.291933030101945 
947	 0.292831975061421 
948	 0.293691034790625 
949	 0.294525000447305 
950	 0.295380047923191 
951	 0.296292034801513 
952	 0.297164042339824 
953	 0.29804989403764 
954	 0.2989883405434 
955	 0.299980287327604 
956	 0.30091115683161 
957	 0.301903985122117 
958	 0.302887552668936 
959	 0.30371879982265 
960	 0.304590385497849 
961	 0.305512128740963 
962	 0.306517446506224 
963	 0.307619032461401 
964	 0.308615955830251 
965	 0.309710274970561 
966	 0.310844902963247 
967	 0.311827557141998 
968	 0.312849208891935 
969	 0.313939818757602 
970	 0.315041066702149 
971	 0.316059292557161 
972	 0.317051520229582 
973	 0.318029626434541 
974	 0.319059251102915 
975	 0.320223327174959 
976	 0.321500375188487 
977	 0.32283150581949 
978	 0.324090549783612 
979	 0.32516778641767 
980	 0.326223442129292 
981	 0.32731705412252 
982	 0.328548792946195 
983	 0.329955545958018 
984	 0.331174559069254 
985	 0.33226589130769 
986	 0.333401170606822 
987	 0.33471873089318 
988	 0.335985792496921 
989	 0.337095863972352 
990	 0.33823371725736 
991	 0.339612018068524 
992	 0.340890682547422 
993	 0.342026027009022 
994	 0.343145820326538 
995	 0.344377856848244 
996	 0.345512470817899 
997	 0.346789312832125 
998	 0.348083088404327 
999	 0.349243946229722 
1000	 0.350585512827466 
1001	 0.355963366661846 
1002	 0.357097896084378 
1003	 0.358283625583958 
1004	 0.359498452103113 
1005	 0.360800404757677 
1006	 0.361988440043985 
1007	 0.363163483504816 
1008	 0.364296274301455 
1009	 0.365379743723303 
1010	 0.366521121672587 
1011	 0.367655310869721 
1012	 0.368814431977112 
1013	 0.369935784730048 
1014	 0.370973621236526 
1015	 0.372061102663577 
1016	 0.373158931478919 
1017	 0.374233060577142 
1018	 0.375291811768295 
1019	 0.376335861311645 
1020	 0.377364138223234 
1021	 0.378377115308927 
1022	 0.379386668233439 
1023	 0.380435516638317 
1024	 0.381511335722189 
1025	 0.382593201534091 
1026	 0.38367114010591 
1027	 0.384726117466635 
1028	 0.385730363669467 
1029	 0.386685281305311 
1030	 0.387638340475403 
1031	 0.388625377437285 
1032	 0.38962734433648 
1033	 0.390645549878723 
1034	 0.391695484700199 
1035	 0.392732056945978 
1036	 0.393732322312481 
1037	 0.394760535940511 
1038	 0.395721089971671 
1039	 0.396653647824581 
1040	 0.397643984242451 
1041	 0.398630100155177 
1042	 0.399676558590286 
1043	 0.400775877664589 
1044	 0.401802606327556 
1045	 0.402793791745973 
1046	 0.403766720349593 
1047	 0.404772746286299 
1048	 0.405734133678085 
1049	 0.406716128900112 
1050	 0.407721886778615 
1051	 0.408631465996956 
1052	 0.409541626756041 
1053	 0.41048369810876 
1054	 0.411382784650073 
1055	 0.412282980043512 
1056	 0.413221004215159 
1057	 0.41410274892899 
1058	 0.414914790973775 
1059	 0.415759558424302 
1060	 0.416623385855746 
1061	 0.417423169012861 
1062	 0.41818637286682 
1063	 0.419002074082289 
1064	 0.419795073127669 
1065	 0.420576668972414 
1066	 0.421372799123691 
1067	 0.422142090565544 
1068	 0.422843956347556 
1069	 0.423497702093839 
1070	 0.424179960547372 
1071	 0.42483180219497 
1072	 0.425530123319325 
1073	 0.426297641626775 
1074	 0.426987987992528 
1075	 0.427655429168375 
1076	 0.428293286315511 
1077	 0.428938241430633 
1078	 0.429555860371662 
1079	 0.430166208293208 
1080	 0.430807066295214 
1081	 0.431434574720611 
1082	 0.432047563433835 
1083	 0.432706867617601 
1084	 0.433432847262725 
1085	 0.434112034773362 
1086	 0.434780436222483 
1087	 0.435447942273697 
1088	 0.436110497442705 
1089	 0.436745291204223 
1090	 0.437395401602457 
1091	 0.438085423298454 
1092	 0.438762544052655 
1093	 0.439478842979478 
1094	 0.440201295669653 
1095	 0.440885131305811 
1096	 0.441640816188397 
1097	 0.442389212800529 
1098	 0.443122359408121 
1099	 0.44384820301005 
1100	 0.444624074774476 
1101	 0.445377551319933 
1102	 0.446180255613377 
1103	 0.447034296898091 
1104	 0.447914463531965 
1105	 0.44878663754465 
1106	 0.44969164748745 
1107	 0.450592936619149 
1108	 0.451494819407429 
1109	 0.452398465650251 
1110	 0.453284286968298 
1111	 0.454227043530291 
1112	 0.45521823879928 
1113	 0.456180722015647 
1114	 0.457152669172323 
1115	 0.458152668487657 
1116	 0.459146738144985 
1117	 0.460156417635667 
1118	 0.461199366220917 
1119	 0.462241485830704 
1120	 0.463297787955091 
1121	 0.46434778603699 
1122	 0.465406622775581 
1123	 0.46651074309481 
1124	 0.467583353720269 
1125	 0.468649759476295 
1126	 0.469707589236435 
1127	 0.470744108014367 
1128	 0.471802316450641 
1129	 0.472857813368194 
1130	 0.473916897337447 
1131	 0.475000863088915 
1132	 0.476072707937376 
1133	 0.477132344495649 
1134	 0.478195655641728 
1135	 0.479252345575951 
1136	 0.480317227361477 
1137	 0.481407527552548 
1138	 0.482487729184015 
1139	 0.483544888020161 
1140	 0.48461319393231 
1141	 0.485644781159146 
1142	 0.486635860029115 
1143	 0.487632666248538 
1144	 0.488614813145704 
1145	 0.489600301509512 
1146	 0.490589721344011 
1147	 0.491556674608613 
1148	 0.492512672928701 
1149	 0.493470784671699 
1150	 0.49442184450332 
1151	 0.495361418431853 
1152	 0.496276044926473 
1153	 0.497156666373631 
1154	 0.49805079238149 
1155	 0.498910689778336 
1156	 0.499791692172502 
1157	 0.500711324983625 
1158	 0.501578882259189 
1159	 0.502426311879207 
1160	 0.503260647107132 
1161	 0.504059887061451 
1162	 0.504875842445878 
1163	 0.505712894346913 
1164	 0.506501590218173 
1165	 0.507260743712902 
1166	 0.508039033958472 
1167	 0.508773260695344 
1168	 0.509486723640697 
1169	 0.510200334340743 
1170	 0.510909810559458 
1171	 0.511616070006148 
1172	 0.512306283524084 
1173	 0.513007779143504 
1174	 0.513718208929223 
1175	 0.514421377335815 
1176	 0.515149371239816 
1177	 0.515824866481145 
1178	 0.516470738851408 
1179	 0.517117813901134 
1180	 0.517730211714601 
1181	 0.518345366637383 
1182	 0.518965809052302 
1183	 0.519583503269708 
1184	 0.520190376773321 
1185	 0.520790686783665 
1186	 0.521371485232996 
1187	 0.521945423666749 
1188	 0.522507530954252 
1189	 0.523056792697873 
1190	 0.523584443852998 
1191	 0.524091550954705 
1192	 0.524606011265903 
1193	 0.525091236787656 
1194	 0.52559935332332 
1195	 0.526136810634174 
1196	 0.526651769432964 
1197	 0.527160717163071 
1198	 0.52766618419156 
1199	 0.528165593718161 
1200	 0.528660872472604 
1201	 0.529136377706025 
1202	 0.5296036446024 
1203	 0.530064054044142 
1204	 0.530502151093824 
1205	 0.530948964873421 
1206	 0.531404645832489 
1207	 0.531842280967718 
1208	 0.532265150931312 
1209	 0.532693157616096 
1210	 0.533122018537274 
1211	 0.533537683437017 
1212	 0.533942293850219 
1213	 0.534354210123349 
1214	 0.534768691175643 
1215	 0.53516804988048 
1216	 0.535562452224531 
1217	 0.535964862583916 
1218	 0.536345970776623 
1219	 0.536713198877347 
1220	 0.537062950119491 
1221	 0.537386854575947 
1222	 0.537737769840053 
1223	 0.538078932667689 
1224	 0.538430199667033 
1225	 0.538820698805407 
1226	 0.539174402236212 
1227	 0.539510155124656 
1228	 0.539839536679919 
1229	 0.540141903263491 
1230	 0.540462489985547 
1231	 0.540788913797673 
1232	 0.541109118817557 
1233	 0.541430505976989 
1234	 0.5417597727942 
1235	 0.542086776285436 
1236	 0.542417225858089 
1237	 0.542727254652626 
1238	 0.543043135296254 
1239	 0.543335363732875 
1240	 0.543591377167638 
1241	 0.543865910912754 
1242	 0.544140668352142 
1243	 0.544412753451936 
1244	 0.54468800494112 
1245	 0.544959122772741 
1246	 0.545216412174336 
1247	 0.545488830959916 
1248	 0.545781039506578 
1249	 0.546053984543887 
1250	 0.546320005817608 
1251	 0.546588672432014 
1252	 0.546841835015944 
1253	 0.547083873808017 
1254	 0.547300436652685 
1255	 0.547500068802529 
1256	 0.547702362576633 
1257	 0.547864184754886 
1258	 0.548064525291105 
1259	 0.548295175187183 
1260	 0.548507754471003 
1261	 0.548725471420215 
1262	 0.548936106167411 
1263	 0.549134627274386 
1264	 0.549339968116219 
1265	 0.549547719929238 
1266	 0.549754522903471 
1267	 0.549962676395888 
1268	 0.550158566577327 
1269	 0.550393684322877 
1270	 0.550641735585342 
1271	 0.550900563316607 
1272	 0.551195059023722 
1273	 0.551470994435591 
1274	 0.551732653057209 
1275	 0.552019093826022 
1276	 0.552331905222049 
1277	 0.552620681697775 
1278	 0.552918292051866 
1279	 0.553197812069279 
1280	 0.553461788867464 
1281	 0.553711018913141 
1282	 0.55396114459681 
1283	 0.554184036883011 
1284	 0.554385051867348 
1285	 0.554558983861258 
1286	 0.554737083020796 
1287	 0.554907768734725 
1288	 0.555037613984621 
1289	 0.555158201224278 
1290	 0.555234940862217 
1291	 0.555264262638777 
1292	 0.555279574228932 
1293	 0.555279211256913 
1294	 0.555237775101241 
1295	 0.555166099803148 
1296	 0.555060166797795 
1297	 0.554897925197402 
1298	 0.554746922712894 
1299	 0.554587016128722 
1300	 0.554396146244543 
1301	 0.554174550649466 
1302	 0.553961966005509 
1303	 0.553733246076853 
1304	 0.553494188149775 
1305	 0.553246282614946 
1306	 0.55301143005756 
1307	 0.552749761285858 
1308	 0.552474128648056 
1309	 0.552253306855283 
1310	 0.552076368101714 
1311	 0.55187416155006 
1312	 0.551685836300573 
1313	 0.55150489130034 
1314	 0.551288467817522 
1315	 0.551141919621898 
1316	 0.551043246081037 
1317	 0.550951503595946 
1318	 0.550887476150511 
1319	 0.550845417706995 
1320	 0.550806961818425 
1321	 0.550807906288907 
1322	 0.550845366466684 
1323	 0.550904921702371 
1324	 0.55097536043118 
1325	 0.551083297573381 
1326	 0.551207842085653 
1327	 0.551359784929039 
1328	 0.551537632866616 
1329	 0.551727322156348 
1330	 0.55195810713583 
1331	 0.552218452759972 
1332	 0.552496175463966 
1333	 0.552817830644125 
1334	 0.553127494576005 
1335	 0.553430676738168 
1336	 0.553764207283718 
1337	 0.554123617163115 
1338	 0.554477597606357 
1339	 0.554851085580766 
1340	 0.555218863122451 
1341	 0.555579439360475 
1342	 0.555949016869403 
1343	 0.556322652356822 
1344	 0.556705862418553 
1345	 0.557096291275144 
1346	 0.557482531559634 
1347	 0.557892421099321 
1348	 0.558294414221492 
1349	 0.558685194706439 
1350	 0.559095146117805 
1351	 0.559510678303006 
1352	 0.559937005452196 
1353	 0.560345226060536 
1354	 0.560772149355097 
1355	 0.561155499258835 
1356	 0.561508462614484 
1357	 0.56186523899658 
1358	 0.56219270198697 
1359	 0.562546947255461 
1360	 0.562902243182625 
1361	 0.563257966050326 
1362	 0.563639546055147 
1363	 0.564001184095276 
1364	 0.56436074976382 
1365	 0.564705556446889 
1366	 0.565042371484808 
1367	 0.565353933282824 
1368	 0.565660912322359 
1369	 0.565959694254497 
1370	 0.566275235172956 
1371	 0.56658210911929 
1372	 0.566865402810924 
1373	 0.567150646615138 
1374	 0.567415345648228 
1375	 0.567655552926526 
1376	 0.567892678166319 
1377	 0.568142469791995 
1378	 0.568341221840246 
1379	 0.568516363466824 
1380	 0.568659758371862 
1381	 0.568751026528586 
1382	 0.568856669265514 
1383	 0.568949634295252 
1384	 0.569032138633742 
1385	 0.569137916766587 
1386	 0.569178561832274 
1387	 0.569167159829778 
1388	 0.569156174004679 
1389	 0.569109299665167 
1390	 0.569056417256873 
1391	 0.569020822206587 
1392	 0.56896624485516 
1393	 0.568879481383005 
1394	 0.568767550348635 
1395	 0.568617551724233 
1396	 0.568456382530157 
1397	 0.568298704251246 
1398	 0.568130419154662 
1399	 0.56796275088759 
1400	 0.567789775981815 
1401	 0.567626297745235 
1402	 0.567456726647168 
1403	 0.567303592436315 
1404	 0.567168119727644 
1405	 0.567026800545809 
1406	 0.566894625729396 
1407	 0.566749570991627 
1408	 0.566586461963109 
1409	 0.566445239073933 
1410	 0.566283520520149 
1411	 0.566176589912025 
1412	 0.566089362833203 
1413	 0.566045703580959 
1414	 0.566063079636533 
1415	 0.566100598459736 
1416	 0.566185583687763 
1417	 0.566266491907798 
1418	 0.566344355184196 
1419	 0.566445388405886 
1420	 0.56651416607975 
1421	 0.566576154870037 
1422	 0.566636512442264 
1423	 0.566660163346392 
1424	 0.566660576680794 
1425	 0.566634815156516 
1426	 0.566619799172714 
1427	 0.566561194250098 
1428	 0.566549194335829 
1429	 0.566579216356006 
1430	 0.566572241340888 
1431	 0.566560483366404 
1432	 0.566552656764429 
1433	 0.566538444376543 
1434	 0.56651309352281 
1435	 0.566496450656047 
1436	 0.566458564543851 
1437	 0.566389170367995 
1438	 0.566330404590719 
1439	 0.566265426523941 
1440	 0.566208193109519 
1441	 0.566155341530722 
1442	 0.566095232697407 
1443	 0.566034386579897 
1444	 0.565978015860122 
1445	 0.5659435191174 
1446	 0.565906460469467 
1447	 0.565865490089334 
1448	 0.565825844259191 
1449	 0.565735950285332 
1450	 0.565635883231749 
1451	 0.565544155991115 
1452	 0.565438558493514 
1453	 0.565343842873075 
1454	 0.565261608101147 
1455	 0.565165871904171 
1456	 0.565063071639484 
1457	 0.564963784148156 
1458	 0.564860042134533 
1459	 0.564764794947653 
1460	 0.564671778305553 
1461	 0.564583080291029 
1462	 0.564490058822616 
1463	 0.564414738698003 
1464	 0.564353739233254 
1465	 0.564292412776329 
1466	 0.564250055357338 
1467	 0.564201509768249 
1468	 0.564131865118675 
1469	 0.564090776191962 
1470	 0.564067261610773 
1471	 0.564037667036221 
1472	 0.564031253877072 
1473	 0.564051158539258 
1474	 0.56409315731693 
1475	 0.564163656148316 
1476	 0.564260404938551 
1477	 0.564382667734018 
1478	 0.564514307060253 
1479	 0.564654178198015 
1480	 0.56482845033784 
1481	 0.565019587728379 
1482	 0.565189805488824 
1483	 0.565370836232116 
1484	 0.565535600671968 
1485	 0.56567284787637 
1486	 0.565830875759787 
1487	 0.566004227695335 
1488	 0.566157941339557 
1489	 0.566308213636572 
1490	 0.566450220886802 
1491	 0.566577318153904 
1492	 0.566710572785504 
1493	 0.56685119082271 
1494	 0.566977585768342 
1495	 0.567099357665313 
1496	 0.567206371706533 
1497	 0.5672907674616 
1498	 0.567384404673487 
1499	 0.567468691237195 
1500	 0.567565819726492 
1501	 0.567675457159622 
1502	 0.567780654596304 
1503	 0.56788639514993 
1504	 0.567995917762801 
1505	 0.56811291502562 
1506	 0.568199753904328 
1507	 0.568298923922183 
1508	 0.568398377797207 
1509	 0.568446397095525 
1510	 0.568506536635251 
1511	 0.56857234176976 
1512	 0.568624487107133 
1513	 0.568725496743063 
1514	 0.568870924669486 
1515	 0.569006786875813 
1516	 0.569123783954257 
1517	 0.56921691320455 
1518	 0.569298942240867 
1519	 0.569346569956389 
1520	 0.569351543550162 
1521	 0.569379560121362 
1522	 0.569373226974155 
1523	 0.56941645643615 
1524	 0.569492698833716 
1525	 0.569567339456658 
1526	 0.56966833204196 
1527	 0.569752750820728 
1528	 0.569834200578009 
1529	 0.569907814453016 
1530	 0.569989548312721 
1531	 0.570046635729572 
1532	 0.570087625083192 
1533	 0.570123180687103 
1534	 0.570125428654451 
1535	 0.570152867231044 
1536	 0.570186111441058 
1537	 0.570222828185472 
1538	 0.570263731208501 
1539	 0.570322794722339 
1540	 0.570385001750712 
1541	 0.570465178115308 
1542	 0.570595728449003 
1543	 0.570682326246069 
1544	 0.570756728354899 
1545	 0.570827120162625 
1546	 0.570869576165469 
1547	 0.570907389297539 
1548	 0.570980327859532 
1549	 0.571064524198074 
1550	 0.571167041736326 
1551	 0.571271157669575 
1552	 0.571370762080016 
1553	 0.571469335327183 
1554	 0.571550964937381 
1555	 0.571615053922783 
1556	 0.57164813080511 
1557	 0.571670558463311 
1558	 0.571685427143579 
1559	 0.571706161322006 
1560	 0.571756753745146 
1561	 0.571833025729827 
1562	 0.571901197446598 
1563	 0.571977457484751 
1564	 0.5720672145698 
1565	 0.572162235349756 
1566	 0.572258319336021 
1567	 0.572384018118765 
1568	 0.572480915587214 
1569	 0.572573105552393 
1570	 0.572632556688456 
1571	 0.572663679502528 
1572	 0.572709370928673 
1573	 0.57272270908248 
1574	 0.572769079074559 
1575	 0.572836316521652 
1576	 0.572907738798801 
1577	 0.573008660450188 
1578	 0.573070830047485 
1579	 0.573125861674583 
1580	 0.573171384660351 
1581	 0.573176374880258 
1582	 0.573211926678842 
1583	 0.573263800834487 
1584	 0.57331150681482 
1585	 0.573355147870791 
1586	 0.573417956786126 
1587	 0.573494421111545 
1588	 0.573565092585681 
1589	 0.573666906176061 
1590	 0.573726361069444 
1591	 0.573745386528708 
1592	 0.573795225610466 
1593	 0.573822322926403 
1594	 0.57388349945857 
1595	 0.573994169028742 
1596	 0.574076582892008 
1597	 0.574178473727726 
1598	 0.574244546679661 
1599	 0.574261022796309 
1600	 0.574311050437247 
1601	 0.574358678902955 
1602	 0.574408753433185 
1603	 0.574484857940884 
1604	 0.574546046644561 
1605	 0.574594792797259 
1606	 0.574643805704462 
1607	 0.574688193083643 
1608	 0.574741464728342 
1609	 0.574779143076699 
1610	 0.574809857174542 
1611	 0.574870760120532 
1612	 0.574928744778501 
1613	 0.574985949773783 
1614	 0.575080700246358 
1615	 0.575165710154947 
1616	 0.575235101825171 
1617	 0.575311942121495 
1618	 0.575382440750175 
1619	 0.575467594946627 
1620	 0.575546115450689 
1621	 0.575624534433359 
1622	 0.575725015256381 
1623	 0.575779023696056 
1624	 0.575795138599858 
1625	 0.575854486973826 
1626	 0.575915072383901 
1627	 0.575964047102555 
1628	 0.576035642117677 
1629	 0.576078731516945 
1630	 0.576093125110613 
1631	 0.576115139881986 
1632	 0.576133709400795 
1633	 0.576161359480577 
1634	 0.576176848500031 
1635	 0.576214613676983 
1636	 0.57626944163978 
1637	 0.576331663704921 
1638	 0.5764011749547 
1639	 0.576478795896092 
1640	 0.576571380502708 
1641	 0.576664097790993 
1642	 0.576760339472941 
1643	 0.576863613532001 
1644	 0.576983496492543 
1645	 0.577081259524664 
1646	 0.577178901113213 
1647	 0.577262936075795 
1648	 0.577326840301851 
1649	 0.57739953416918 
1650	 0.577473096171605 
1651	 0.57753628792417 
1652	 0.577587030092787 
1653	 0.577655774163594 
1654	 0.577722686752311 
1655	 0.577799285853814 
1656	 0.577895894662609 
1657	 0.577980449549416 
1658	 0.578067669955973 
1659	 0.578139529537217 
1660	 0.578203412865187 
1661	 0.578266974070249 
1662	 0.578328631473354 
1663	 0.578368444730505 
1664	 0.578395022967142 
1665	 0.578426087834381 
1666	 0.578422352794564 
1667	 0.578463829931142 
1668	 0.57852615646648 
1669	 0.578604256301006 
1670	 0.578720920607624 
1671	 0.578807099206833 
1672	 0.578897101463573 
1673	 0.578978398660049 
1674	 0.579046830619354 
1675	 0.57910677864752 
1676	 0.579163399394807 
1677	 0.579215382739053 
1678	 0.579240166483368 
1679	 0.579293929840605 
1680	 0.579370130409302 
1681	 0.579426555272426 
1682	 0.579483607038172 
1683	 0.579540102933087 
1684	 0.579562791209906 
1685	 0.579644660489744 
1686	 0.579765062605885 
1687	 0.579874067535954 
1688	 0.580018921547917 
1689	 0.580137582979185 
1690	 0.580242316329587 
1691	 0.58034226030817 
1692	 0.580433682641001 
1693	 0.580529688393304 
1694	 0.580618289830914 
1695	 0.580710379241476 
1696	 0.580817132397743 
1697	 0.580898588476007 
1698	 0.580962316483863 
1699	 0.581031498136151 
1700	 0.58110356750045 
1701	 0.581148102980788 
1702	 0.58117463384839 
1703	 0.581214294017687 
1704	 0.581219770647908 
1705	 0.581270274477983 
1706	 0.581379534014361 
1707	 0.581421991851692 
1708	 0.58144663323808 
1709	 0.581474595191579 
1710	 0.581442767006868 
1711	 0.581485573540803 
1712	 0.581563753964831 
1713	 0.581662682623046 
1714	 0.581806422563558 
1715	 0.581936887109917 
1716	 0.582102678191227 
1717	 0.582216297828163 
1718	 0.582317981721964 
1719	 0.582391761379642 
1720	 0.582422928530215 
1721	 0.58246292890442 
1722	 0.582481905831204 
1723	 0.582521253398327 
1724	 0.582573553271346 
1725	 0.582600183032391 
1726	 0.58263421754403 
1727	 0.582638067862946 
1728	 0.58261442623573 
1729	 0.582575846365049 
1730	 0.582509028490145 
1731	 0.582456459662544 
1732	 0.58237829108901 
1733	 0.582344902789382 
1734	 0.58235000211481 
1735	 0.582329760256774 
1736	 0.582308194725639 
1737	 0.582305230050345 
1738	 0.582286416193268 
1739	 0.582305692778626 
1740	 0.582375954217963 
1741	 0.582399835109831 
1742	 0.582423628236299 
1743	 0.582437363823707 
1744	 0.582430560326811 
1745	 0.58241499744848 
1746	 0.582390678421637 
1747	 0.582355605171808 
1748	 0.582344119667203 
1749	 0.58237494860331 
1750	 0.582388730057298 
1751	 0.582388641129882 
1752	 0.582412064647853 
1753	 0.582413738549049 
1754	 0.582403830675484 
1755	 0.582435440186942 
1756	 0.58245758994527 
1757	 0.582453165744007 
1758	 0.582483195635482 
1759	 0.582534921780709 
1760	 0.582562898553098 
1761	 0.582622963460403 
1762	 0.582726746625673 
1763	 0.582800149551395 
1764	 0.582819434496805 
1765	 0.582826655093362 
1766	 0.582844494475291 
1767	 0.582837403380112 
1768	 0.58286069998426 
1769	 0.582912454620603 
1770	 0.582922187738183 
1771	 0.582964292330304 
1772	 0.58302571544512 
1773	 0.583057421018699 
1774	 0.583101205119411 
1775	 0.583119412024976 
1776	 0.583138633611357 
1777	 0.583210180252516 
1778	 0.583275252086934 
1779	 0.58331092360277 
1780	 0.583328540833302 
1781	 0.583340524773861 
1782	 0.583373506860037 
1783	 0.583484836166257 
1784	 0.583557069765724 
1785	 0.583631902398064 
1786	 0.583682190940425 
1787	 0.583670318384828 
1788	 0.583721455844592 
1789	 0.583804463902402 
1790	 0.58386646953685 
1791	 0.583967470213295 
1792	 0.584033840394428 
1793	 0.58406880526895 
1794	 0.584110749952933 
1795	 0.584153413911548 
1796	 0.584172749312869 
1797	 0.584157098654471 
1798	 0.584160209529171 
1799	 0.584143781259339 
1800	 0.58416863616512 
1801	 0.57854517733936 
1802	 0.578604128008544 
1803	 0.578653077796026 
1804	 0.578697506622194 
1805	 0.57879955799423 
1806	 0.578893018413962 
1807	 0.578929092011899 
1808	 0.578986224562768 
1809	 0.579087698664366 
1810	 0.579117947806724 
1811	 0.579091646986488 
1812	 0.579107960441187 
1813	 0.579096147510011 
1814	 0.579041355776214 
1815	 0.579028026413096 
1816	 0.579047159831947 
1817	 0.579062076803003 
1818	 0.579104697546151 
1819	 0.579115361172404 
1820	 0.579144980415305 
1821	 0.579108201437361 
1822	 0.579018425478509 
1823	 0.578935480972925 
1824	 0.578826107701487 
1825	 0.578702840021732 
1826	 0.578552593244775 
1827	 0.578377704829866 
1828	 0.578216393890823 
1829	 0.578030793973059 
1830	 0.577850981070045 
1831	 0.577681479460191 
1832	 0.577520040299297 
1833	 0.577329931184007 
1834	 0.577152397811894 
1835	 0.577024230494756 
1836	 0.576880256382294 
1837	 0.576721403618485 
1838	 0.576574109952659 
1839	 0.576414153180663 
1840	 0.576224835716566 
1841	 0.576057634647832 
1842	 0.57592749286969 
1843	 0.575804617421934 
1844	 0.575715966460157 
1845	 0.575646710085343 
1846	 0.575594513608421 
1847	 0.575556379906959 
1848	 0.575513571289439 
1849	 0.575489188596759 
1850	 0.575492234644828 
1851	 0.575521316936893 
1852	 0.575540379272465 
1853	 0.575585801092372 
1854	 0.575678827718545 
1855	 0.575761053038419 
1856	 0.57589558725367 
1857	 0.57608734834757 
1858	 0.576244766011228 
1859	 0.576377347940512 
1860	 0.576493718924587 
1861	 0.576592784568142 
1862	 0.576650959018439 
1863	 0.57669406703365 
1864	 0.576735127141117 
1865	 0.576773452362066 
1866	 0.576779094794763 
1867	 0.57677408910941 
1868	 0.576824348494979 
1869	 0.576913699081716 
1870	 0.576992940334128 
1871	 0.57705693284724 
1872	 0.577146003685767 
1873	 0.577201386592575 
1874	 0.577173153645734 
1875	 0.577181007506423 
1876	 0.577191576679429 
1877	 0.577141994710535 
1878	 0.577115967469272 
1879	 0.577013591423317 
1880	 0.576870962836012 
1881	 0.576673456717974 
1882	 0.576479385378694 
1883	 0.57624325897554 
1884	 0.576018094248407 
1885	 0.575772205110626 
1886	 0.57544016305013 
1887	 0.575067797529703 
1888	 0.574667165368315 
1889	 0.57425567134099 
1890	 0.573840878856549 
1891	 0.573413602200812 
1892	 0.572968808597413 
1893	 0.57252383856328 
1894	 0.572058332172087 
1895	 0.571614867319412 
1896	 0.57115243229375 
1897	 0.570710152996467 
1898	 0.570285032070492 
1899	 0.569868257959107 
1900	 0.569506909251854 
1901	 0.569199338174672 
1902	 0.568904692423281 
1903	 0.568652324486009 
1904	 0.568398437513813 
1905	 0.568173071556373 
1906	 0.567942011030111 
1907	 0.567690169362575 
1908	 0.567442123883815 
1909	 0.567199332140079 
1910	 0.566939861828486 
1911	 0.566729381022154 
1912	 0.566540757802499 
1913	 0.56632154793735 
1914	 0.566091457842678 
1915	 0.565875166594585 
1916	 0.565652530751654 
1917	 0.56542136728849 
1918	 0.565193782596443 
1919	 0.564974437007113 
1920	 0.564751395480292 
1921	 0.564513547253124 
1922	 0.564287847275102 
1923	 0.564070253640253 
1924	 0.563854499623995 
1925	 0.563604118312014 
1926	 0.563428008725219 
1927	 0.563303668052167 
1928	 0.563157029621958 
1929	 0.563025709712894 
1930	 0.562919619346473 
1931	 0.562800277032624 
1932	 0.562701017483231 
1933	 0.562662978674226 
1934	 0.562628799172534 
1935	 0.562616555606518 
1936	 0.56262660803686 
1937	 0.562657151911209 
1938	 0.562717579843608 
1939	 0.56277538335391 
1940	 0.562855539530456 
1941	 0.562907996767522 
1942	 0.562986253046177 
1943	 0.563066905501616 
1944	 0.56312708183581 
1945	 0.563207450968012 
1946	 0.56328976177817 
1947	 0.563379804326398 
1948	 0.563457093236032 
1949	 0.563533241538748 
1950	 0.563613298110398 
1951	 0.563686263054725 
1952	 0.563750171914564 
1953	 0.563842313100032 
1954	 0.563942448995661 
1955	 0.564029166475686 
1956	 0.564110160460742 
1957	 0.564201654923064 
1958	 0.564281250514571 
1959	 0.564395094335963 
1960	 0.564532712966581 
1961	 0.564672688468166 
1962	 0.564837205104183 
1963	 0.564994692762034 
1964	 0.565156781533498 
1965	 0.565311309908224 
1966	 0.565483793608424 
1967	 0.565638289467993 
1968	 0.565767845084327 
1969	 0.565857714773548 
1970	 0.565998970234129 
1971	 0.566145321160556 
1972	 0.566285094531823 
1973	 0.566443577082332 
1974	 0.566615152235176 
1975	 0.566776736071382 
1976	 0.566948358444153 
1977	 0.567157297341752 
1978	 0.567330058916098 
1979	 0.567483848159407 
1980	 0.5676371354718 
1981	 0.567821432030372 
1982	 0.568033026604313 
1983	 0.568236624907681 
1984	 0.568462039092409 
1985	 0.568672291283481 
1986	 0.568876621976439 
1987	 0.569076249792269 
1988	 0.569284357034712 
1989	 0.569463062560901 
1990	 0.569641295591945 
1991	 0.569817661013549 
1992	 0.569999801082401 
1993	 0.570172430767609 
1994	 0.570375487289942 
1995	 0.570593079922068 
1996	 0.570809751696128 
1997	 0.57104718300273 
1998	 0.571282726263939 
1999	 0.571527910531466 
2000	 0.571758893980289 
2001	 0.57201127941315 
2002	 0.572217798526276 
2003	 0.572389385771673 
2004	 0.572580439519903 
2005	 0.572767062206489 
2006	 0.572941102855085 
2007	 0.573122353537326 
2008	 0.573296279336794 
2009	 0.573495137992264 
2010	 0.573698288480701 
2011	 0.57391824270543 
2012	 0.574164644402379 
2013	 0.574418530471561 
2014	 0.57469206093658 
2015	 0.574952461742761 
2016	 0.575233221127237 
2017	 0.575504209948025 
2018	 0.575760064117877 
2019	 0.575991891697651 
2020	 0.576244600794772 
2021	 0.576485827372732 
2022	 0.57675253976615 
2023	 0.577048450430935 
2024	 0.577331862898304 
2025	 0.577634428950336 
2026	 0.577909066580575 
2027	 0.578171788796202 
2028	 0.578416561927382 
2029	 0.578668367707772 
2030	 0.578904360255304 
2031	 0.579158306979126 
2032	 0.57942447484461 
2033	 0.579680396887505 
2034	 0.579937815272402 
2035	 0.580189549636083 
2036	 0.580457465885472 
2037	 0.580683748532593 
2038	 0.580896992470254 
2039	 0.581087277340406 
2040	 0.581243155746207 
2041	 0.581375199591815 
2042	 0.581513256828643 
2043	 0.581673695118492 
2044	 0.581830311997041 
2045	 0.581986260873925 
2046	 0.5821618002967 
2047	 0.582354548977686 
2048	 0.5825339830117 
2049	 0.582744313142646 
2050	 0.582911569170858 
2051	 0.583042510220929 
2052	 0.583183586646068 
2053	 0.583311251372959 
2054	 0.58343387034112 
2055	 0.58356109235987 
2056	 0.583679218626682 
2057	 0.583784044999527 
2058	 0.583872530583271 
2059	 0.583964462360746 
2060	 0.584028257699564 
2061	 0.584140257032073 
2062	 0.584270219615751 
2063	 0.58440312248681 
2064	 0.584575122553749 
2065	 0.584723984191373 
2066	 0.584863424097215 
2067	 0.585002004478233 
2068	 0.585129178184563 
2069	 0.585279641437239 
2070	 0.585403120007503 
2071	 0.585507934391616 
2072	 0.585638848769405 
2073	 0.585776937918161 
2074	 0.585900542356322 
2075	 0.586036927089288 
2076	 0.586157418951443 
2077	 0.586249506703594 
2078	 0.586357263611497 
2079	 0.586488182528638 
2080	 0.586589519576084 
2081	 0.586654354431172 
2082	 0.586751668075091 
2083	 0.586844393944226 
2084	 0.58695061027987 
2085	 0.587067105489032 
2086	 0.587215476966735 
2087	 0.587348074053291 
2088	 0.58746967429035 
2089	 0.587610335040199 
2090	 0.587769441568651 
2091	 0.587917531713133 
2092	 0.588071243529867 
2093	 0.588219343015665 
2094	 0.588368099433585 
2095	 0.588505590648528 
2096	 0.588624003070428 
2097	 0.588760999088741 
2098	 0.58890508386557 
2099	 0.589037272655947 
2100	 0.58918269094801 
2101	 0.58935730385942 
2102	 0.589490303870266 
2103	 0.58959299461662 
2104	 0.589727495815996 
2105	 0.589827193501181 
2106	 0.589999605203581 
2107	 0.590226408341384 
2108	 0.590451435969634 
2109	 0.590737293449441 
2110	 0.590981546380361 
2111	 0.591209174617993 
2112	 0.591440107488967 
2113	 0.591639402253107 
2114	 0.591870498284135 
2115	 0.59211788577529 
2116	 0.592395520788715 
2117	 0.592635298593049 
2118	 0.592888942986088 
2119	 0.593108236852785 
2120	 0.593285225371875 
2121	 0.59348455197786 
2122	 0.593680572494505 
2123	 0.59387746472992 
2124	 0.594084133689787 
2125	 0.594273294251876 
2126	 0.594463760958965 
2127	 0.594634637027941 
2128	 0.594801942468148 
2129	 0.594936004647752 
2130	 0.595041522951416 
2131	 0.595143419467568 
2132	 0.59520153922991 
2133	 0.595217972802286 
2134	 0.595236157165232 
2135	 0.595253457361534 
2136	 0.595204088137793 
2137	 0.595113825967228 
2138	 0.595018420270108 
2139	 0.594873017820001 
2140	 0.594720489969264 
2141	 0.594570091478097 
2142	 0.59439102681112 
2143	 0.594190264455217 
2144	 0.593951661248672 
2145	 0.593671894871115 
2146	 0.593396781006483 
2147	 0.593081627227594 
2148	 0.592769342360927 
2149	 0.592461843720314 
2150	 0.592195725949288 
2151	 0.59183668254808 
2152	 0.591430054474581 
2153	 0.591026379878517 
2154	 0.590572719323811 
2155	 0.59012795967708 
2156	 0.589707571898665 
2157	 0.589236278578023 
2158	 0.588729880285858 
2159	 0.588205588172393 
2160	 0.587643722449642 
2161	 0.587082890393792 
2162	 0.586483431754565 
2163	 0.585910296867565 
2164	 0.585356892903126 
2165	 0.58479638549281 
2166	 0.584206983834173 
2167	 0.583617728577867 
2168	 0.583009491209968 
2169	 0.582350111875698 
2170	 0.581738524924072 
2171	 0.581158020914086 
2172	 0.580545959424877 
2173	 0.579927046345586 
2174	 0.579313835970555 
2175	 0.578670625599151 
2176	 0.578062365004145 
2177	 0.577491313033467 
2178	 0.576897775017255 
2179	 0.576315129595967 
2180	 0.575719075854275 
2181	 0.575109054354567 
2182	 0.57449194270415 
2183	 0.573882708895764 
2184	 0.573225906494862 
2185	 0.572604984839094 
2186	 0.571978414061562 
2187	 0.571370319413274 
2188	 0.570759143310727 
2189	 0.57020460206037 
2190	 0.569672016205861 
2191	 0.56916029952639 
2192	 0.568687590274553 
2193	 0.568242408337344 
2194	 0.567795665852069 
2195	 0.567414855446404 
2196	 0.567136296913784 
2197	 0.566804902381271 
2198	 0.566486498130659 
2199	 0.566166998579061 
2200	 0.565826612749425 
2201	 0.56549557990085 
2202	 0.565174601033054 
2203	 0.564846553265365 
2204	 0.564576923835553 
2205	 0.564308351530442 
2206	 0.564099423451475 
2207	 0.563952169130073 
2208	 0.563827726204552 
2209	 0.563739182347974 
2210	 0.563667066108059 
2211	 0.563641016829426 
2212	 0.563619051560531 
2213	 0.563626769953235 
2214	 0.563612838736023 
2215	 0.563612553142361 
2216	 0.563602940570696 
2217	 0.563613600771208 
2218	 0.563559159634036 
2219	 0.563475823934315 
2220	 0.563377319393379 
2221	 0.563236718845174 
2222	 0.563061135385128 
2223	 0.562888381205774 
2224	 0.562692274523856 
2225	 0.562457386881352 
2226	 0.562156139653186 
2227	 0.561907467637366 
2228	 0.561660054745787 
2229	 0.561401792676239 
2230	 0.561165318656319 
2231	 0.560888363129 
2232	 0.560560085601225 
2233	 0.560279065526651 
2234	 0.560010058896512 
2235	 0.559729684350588 
2236	 0.559497436889364 
2237	 0.559195081454838 
2238	 0.558850442990713 
2239	 0.558492405102564 
2240	 0.558081179313645 
2241	 0.557682614388227 
2242	 0.557273850661693 
2243	 0.556864438835877 
2244	 0.556458804013904 
2245	 0.556059554398043 
2246	 0.555577786664293 
2247	 0.555087224319241 
2248	 0.554611325768497 
2249	 0.55407371437294 
2250	 0.55363948680345 
2251	 0.553276013384868 
2252	 0.552877261879375 
2253	 0.552500778826309 
2254	 0.552130555828682 
2255	 0.551741111012443 
2256	 0.551401241701034 
2257	 0.551094752954227 
2258	 0.550801026334953 
2259	 0.550505276877496 
2260	 0.550278354291172 
2261	 0.550065835003369 
2262	 0.549942010514319 
2263	 0.54989903109445 
2264	 0.549897737117711 
2265	 0.549977765542027 
2266	 0.550078927559924 
2267	 0.550225143423086 
2268	 0.550404588368492 
2269	 0.550632763098267 
2270	 0.550876406281542 
2271	 0.551156249042711 
2272	 0.551413312113051 
2273	 0.55169152483637 
2274	 0.552020140679037 
2275	 0.55238365053842 
2276	 0.552792535612221 
2277	 0.553216545666716 
2278	 0.553681533442296 
2279	 0.554151008395518 
2280	 0.55463066860128 
2281	 0.555147824732605 
2282	 0.55571883180134 
2283	 0.556253392476045 
2284	 0.556826834467103 
2285	 0.557336750513439 
2286	 0.557803389990422 
2287	 0.558252538905316 
2288	 0.558643111921961 
2289	 0.559079074786291 
2290	 0.559495229024155 
2291	 0.559955872024723 
2292	 0.560471420467727 
2293	 0.560966226057521 
2294	 0.56150468309756 
2295	 0.561991171030056 
2296	 0.56245777402643 
2297	 0.562888875368939 
2298	 0.563299766184449 
2299	 0.563685765034673 
2300	 0.564071633049267 
2301	 0.564479553128932 
2302	 0.564888582245927 
2303	 0.565303953417431 
2304	 0.565695726409238 
2305	 0.56610791581735 
2306	 0.566547100016101 
2307	 0.567020751548866 
2308	 0.567423857772757 
2309	 0.567831500926259 
2310	 0.568215750184564 
2311	 0.568522790437735 
2312	 0.568884822702736 
2313	 0.569292373303807 
2314	 0.569648314312852 
2315	 0.57000347506299 
2316	 0.570320953991096 
2317	 0.570551412930768 
2318	 0.570887554588972 
2319	 0.571258803640789 
2320	 0.57160419881547 
2321	 0.57202105530945 
2322	 0.572389967054724 
2323	 0.572707280973354 
2324	 0.573034155446292 
2325	 0.573335621969466 
2326	 0.573675311775191 
2327	 0.574037880530512 
2328	 0.574375831230515 
2329	 0.574732809861011 
2330	 0.575099220799165 
2331	 0.575424352627615 
2332	 0.575747263866072 
2333	 0.576030045407988 
2334	 0.576285896082323 
2335	 0.576486054061876 
2336	 0.576632799480392 
2337	 0.576835975369392 
2338	 0.577052927745488 
2339	 0.577232081848709 
2340	 0.57740948986908 
2341	 0.577547957093439 
2342	 0.577663488147084 
2343	 0.57783112835515 
2344	 0.577959865018786 
2345	 0.578001571612689 
2346	 0.577971105886507 
2347	 0.577945594277707 
2348	 0.577848965337957 
2349	 0.577774544389935 
2350	 0.57769735180812 
2351	 0.577614926938082 
2352	 0.577510697441402 
2353	 0.577412406499598 
2354	 0.577326268730534 
2355	 0.577244963859469 
2356	 0.577169142012257 
2357	 0.577048454410624 
2358	 0.576886520625363 
2359	 0.576775245581907 
2360	 0.576675555048122 
2361	 0.576557908764407 
2362	 0.576491249628965 
2363	 0.57637915198732 
2364	 0.576179855416111 
2365	 0.576037029552444 
2366	 0.575926214804074 
2367	 0.575797008111376 
2368	 0.575727777384135 
2369	 0.575573076309193 
2370	 0.575374944276193 
2371	 0.575131150278171 
2372	 0.574841501610267 
2373	 0.574442775776907 
2374	 0.574094627128209 
2375	 0.573758735413013 
2376	 0.573480902828303 
2377	 0.573264312046569 
2378	 0.572948160781465 
2379	 0.572661637803953 
2380	 0.572344390853678 
2381	 0.572023035561923 
2382	 0.57178352277906 
2383	 0.571524791584258 
2384	 0.571291266586359 
2385	 0.570975123340968 
2386	 0.570586414386144 
2387	 0.570270880470808 
2388	 0.569839467918324 
2389	 0.569428086998766 
2390	 0.569159373357779 
2391	 0.568811041279315 
2392	 0.56841211573409 
2393	 0.567990616349765 
2394	 0.567558465320063 
2395	 0.567092227147708 
2396	 0.566647081578334 
2397	 0.566217398234399 
2398	 0.565732146535788 
2399	 0.565300845990661 
2400	 0.564965986972388 
2401	 0.564659786598574 
2402	 0.564282428727594 
2403	 0.56387114333939 
2404	 0.563467019543371 
2405	 0.563091078117124 
2406	 0.562709732309355 
2407	 0.562347000536065 
2408	 0.561928280985467 
2409	 0.561488174898018 
2410	 0.561267616958106 
2411	 0.561054666919811 
2412	 0.560884122478723 
2413	 0.560728473205355 
2414	 0.56036421582846 
2415	 0.559992153867882 
2416	 0.559589753657042 
2417	 0.55907765311876 
2418	 0.558624353431472 
2419	 0.558133127227739 
2420	 0.557782100493335 
2421	 0.557537852577151 
2422	 0.557269873553024 
2423	 0.557056567898597 
2424	 0.55686404421746 
2425	 0.556664033372242 
2426	 0.556491219817905 
2427	 0.556489110437697 
2428	 0.556304372256792 
2429	 0.555981742042602 
2430	 0.555685042628827 
2431	 0.555315428579941 
2432	 0.554884197289962 
2433	 0.554400948555838 
2434	 0.554008373631173 
2435	 0.553565232810969 
2436	 0.553322063489672 
2437	 0.553309392076236 
2438	 0.553098027354348 
2439	 0.552839892344866 
2440	 0.552608341194433 
2441	 0.552308261115918 
2442	 0.552051477887993 
2443	 0.551922185958457 
2444	 0.551672306638763 
2445	 0.551271226887397 
2446	 0.551008651695408 
2447	 0.550773487997236 
2448	 0.550497641883334 
2449	 0.550302134037551 
2450	 0.550040589143594 
2451	 0.549718275176599 
2452	 0.549388574039153 
2453	 0.548976252112701 
2454	 0.548694155613226 
2455	 0.548527109353656 
2456	 0.548334217796521 
2457	 0.54823862426147 
2458	 0.548026102294658 
2459	 0.547658564771471 
2460	 0.547328831201279 
2461	 0.546925068803926 
2462	 0.546651153626946 
2463	 0.546466915198079 
2464	 0.546275522972431 
2465	 0.546204588951614 
2466	 0.546129944682257 
2467	 0.546089319384415 
2468	 0.546023060387176 
2469	 0.545925460234955 
2470	 0.545644057025999 
2471	 0.545421976157395 
2472	 0.545146357813555 
2473	 0.544931061898915 
2474	 0.544925951836223 
2475	 0.544718980858441 
2476	 0.544415662149427 
2477	 0.544188570888573 
2478	 0.543862686545695 
2479	 0.543701176977328 
2480	 0.543480751293675 
2481	 0.543125211789725 
2482	 0.542872461768894 
2483	 0.542600128033586 
2484	 0.542314844221228 
2485	 0.542212756174563 
2486	 0.542216748844966 
2487	 0.541942647237542 
2488	 0.541625749243131 
2489	 0.54137170132861 
2490	 0.54102415864145 
2491	 0.540715469027223 
2492	 0.540495770543725 
2493	 0.540352669263692 
2494	 0.540078015859849 
2495	 0.539834205414062 
2496	 0.539713740369015 
2497	 0.539437145266066 
2498	 0.538884300914016 
2499	 0.538365059536669 
2500	 0.538150041669352 
