Wavelength	MM900009.asd
350	 6.38801557328017E-02 
351	 6.20143210626771E-02 
352	 5.85269063655748E-02 
353	 5.46917679263532E-02 
354	 5.18870583785795E-02 
355	 6.20080452514516E-02 
356	 6.92435237827691E-02 
357	 6.10385752754284E-02 
358	 0.065486019618644 
359	 6.10078755848439E-02 
360	 0.053159151786247 
361	 6.20956300071056E-02 
362	 6.13822249981901E-02 
363	 5.93660813373842E-02 
364	 6.11477309924538E-02 
365	 5.97565763943882E-02 
366	 5.98638008477483E-02 
367	 6.13142445525593E-02 
368	 6.24677080799625E-02 
369	 6.10737059439915E-02 
370	 6.25264740047136E-02 
371	 6.47701001805611E-02 
372	 6.16817767219057E-02 
373	 6.38228137887553E-02 
374	 6.68445086708298E-02 
375	 6.69414071804103E-02 
376	 6.43717362783093E-02 
377	 6.30033454867043E-02 
378	 6.29053752667671E-02 
379	 6.32118828383931E-02 
380	 0.065370025070064 
381	 6.35178909786853E-02 
382	 6.05785062507286E-02 
383	 6.51118737007157E-02 
384	 6.70034873956086E-02 
385	 6.79660062921047E-02 
386	 6.92889782197147E-02 
387	 6.79253978726368E-02 
388	 0.068105326999485 
389	 6.88668482766032E-02 
390	 6.84153691881108E-02 
391	 6.97307993374178E-02 
392	 6.94819755836324E-02 
393	 6.86294375805732E-02 
394	 7.14368053946598E-02 
395	 0.071832905743862 
396	 0.07106902003857 
397	 0.071156181372199 
398	 7.32996822953095E-02 
399	 0.073787384685525 
400	 7.36774336547582E-02 
401	 7.50701776061811E-02 
402	 7.50468430638024E-02 
403	 7.51767785053118E-02 
404	 7.56859597165791E-02 
405	 7.52715313685463E-02 
406	 7.65464337090681E-02 
407	 0.07794130818031 
408	 7.81380992111644E-02 
409	 7.85615298826271E-02 
410	 7.86186236975482E-02 
411	 7.86069486097968E-02 
412	 7.90947667750272E-02 
413	 0.079526133829439 
414	 7.98940139433102E-02 
415	 8.03749805929073E-02 
416	 8.13474775841421E-02 
417	 8.09598654694843E-02 
418	 8.05401246156455E-02 
419	 8.13960160835154E-02 
420	 0.082167003991546 
421	 8.21415102490178E-02 
422	 8.18792548988919E-02 
423	 8.25591366078464E-02 
424	 8.26406240838226E-02 
425	 8.25644842662282E-02 
426	 8.26804787294839E-02 
427	 8.27398963685259E-02 
428	 8.23968983225739E-02 
429	 8.21939814137218E-02 
430	 8.26356835351153E-02 
431	 8.25262847965144E-02 
432	 0.082378881570963 
433	 8.23356766436365E-02 
434	 8.21182773567153E-02 
435	 8.21175186281444E-02 
436	 0.082209775142311 
437	 8.21640823000178E-02 
438	 0.081633015551916 
439	 8.17887480175166E-02 
440	 8.23580533574164E-02 
441	 8.24242592866594E-02 
442	 8.23441354898765E-02 
443	 8.23851956243775E-02 
444	 8.26095471476574E-02 
445	 8.27917207467749E-02 
446	 8.30214817465795E-02 
447	 8.32901949175315E-02 
448	 8.35492246585925E-02 
449	 0.083670489349662 
450	 8.39289434582252E-02 
451	 8.44105513711255E-02 
452	 0.084993421599695 
453	 8.49497097436251E-02 
454	 8.48593932320752E-02 
455	 8.52172243750965E-02 
456	 8.58018900723954E-02 
457	 8.59545860928523E-02 
458	 8.59168538255197E-02 
459	 8.62555976113635E-02 
460	 8.64523265086935E-02 
461	 8.64982507424011E-02 
462	 8.65055002766358E-02 
463	 8.66867690952694E-02 
464	 8.68224601914374E-02 
465	 8.70124408871864E-02 
466	 8.73327890546589E-02 
467	 8.74234960067335E-02 
468	 8.74189576366897E-02 
469	 8.74378505893573E-02 
470	 8.75651784210598E-02 
471	 8.77448164487483E-02 
472	 8.78360902125396E-02 
473	 8.77429730936358E-02 
474	 8.74171620456377E-02 
475	 8.76416943018838E-02 
476	 0.088022504419341 
477	 8.78166030097891E-02 
478	 8.79893969444916E-02 
479	 8.82020746777074E-02 
480	 8.83057419173418E-02 
481	 8.85728273364631E-02 
482	 0.088732688783637 
483	 8.87749370482752E-02 
484	 8.87852810561077E-02 
485	 0.088936775759276 
486	 8.89097581584533E-02 
487	 8.87149682367388E-02 
488	 8.86453931720153E-02 
489	 8.87774857093616E-02 
490	 8.89873386359985E-02 
491	 8.91438112972209E-02 
492	 0.089215203628919 
493	 8.90939850273268E-02 
494	 8.90169181766089E-02 
495	 8.92857183280342E-02 
496	 8.93416194004458E-02 
497	 8.93460852732145E-02 
498	 0.089390839401333 
499	 8.93584382004678E-02 
500	 8.92607353779359E-02 
501	 8.92802694393868E-02 
502	 8.95233617908107E-02 
503	 8.95691495113108E-02 
504	 8.94782310753477E-02 
505	 8.93913648141924E-02 
506	 8.94906455291412E-02 
507	 8.96307079356341E-02 
508	 8.97620266091785E-02 
509	 8.98375897499088E-02 
510	 0.089759631177302 
511	 0.089613390242097 
512	 8.95771037724783E-02 
513	 8.98055794765926E-02 
514	 8.97940341736054E-02 
515	 8.97265493030465E-02 
516	 8.97569232355093E-02 
517	 8.98578569264777E-02 
518	 8.98913039192423E-02 
519	 8.99030422859972E-02 
520	 8.99742082538875E-02 
521	 9.00014183982959E-02 
522	 9.00918986530787E-02 
523	 9.01954727726608E-02 
524	 9.00944832025006E-02 
525	 9.00112311638907E-02 
526	 9.00084268741559E-02 
527	 9.00844050997242E-02 
528	 9.01779082408351E-02 
529	 9.01946066664424E-02 
530	 9.02040593918485E-02 
531	 9.03566433368339E-02 
532	 9.03784343100581E-02 
533	 9.03707287753879E-02 
534	 9.04318384188004E-02 
535	 9.05552697367112E-02 
536	 9.05951086987111E-02 
537	 9.06256130512364E-02 
538	 9.07634400834004E-02 
539	 0.090745598822442 
540	 9.07646560954903E-02 
541	 9.08802145131251E-02 
542	 9.09300765032744E-02 
543	 9.10048244031843E-02 
544	 9.10753857108925E-02 
545	 9.11153608020941E-02 
546	 9.12352802828358E-02 
547	 9.13598408617527E-02 
548	 9.14659202419764E-02 
549	 9.15795820214737E-02 
550	 9.17160628263489E-02 
551	 9.18240679668192E-02 
552	 9.18935993090851E-02 
553	 9.20602740210047E-02 
554	 9.21850623298195E-02 
555	 0.092274468835275 
556	 9.24065898391481E-02 
557	 9.25598561688326E-02 
558	 9.26927015200632E-02 
559	 9.28326091578566E-02 
560	 9.31423453829586E-02 
561	 9.33794884972476E-02 
562	 9.36356339994284E-02 
563	 9.40667188204151E-02 
564	 9.45084598631074E-02 
565	 9.49308625975908E-02 
566	 9.53278013194532E-02 
567	 9.57114618908507E-02 
568	 9.61673610770583E-02 
569	 0.096530761216281 
570	 9.66965607355572E-02 
571	 9.69443776917322E-02 
572	 9.72745896774684E-02 
573	 9.76942305556662E-02 
574	 9.82020668403355E-02 
575	 9.86860131079041E-02 
576	 9.91519207527424E-02 
577	 9.96410592390853E-02 
578	 0.100221094959749 
579	 0.100885566301075 
580	 0.10165889180627 
581	 0.102552954600418 
582	 0.103438259312575 
583	 0.104245323168566 
584	 0.104994631655074 
585	 0.105821175433415 
586	 0.106763177211632 
587	 0.107703875843886 
588	 0.108536660147021 
589	 0.10943034056077 
590	 0.110320321412238 
591	 0.111182768807137 
592	 0.112034545736447 
593	 0.112702973665664 
594	 0.113332992378491 
595	 0.114071262592937 
596	 0.114900283890488 
597	 0.115785043658486 
598	 0.116717915128782 
599	 0.117705269383063 
600	 0.11869411301243 
601	 0.119658277073368 
602	 0.120578063936478 
603	 0.121437298726735 
604	 0.122304369014307 
605	 0.123170229021758 
606	 0.124005111089555 
607	 0.12484527025527 
608	 0.125634033560884 
609	 0.126358784594331 
610	 0.127064591548292 
611	 0.127757835605934 
612	 0.128431314981663 
613	 0.129080356219981 
614	 0.12974458337412 
615	 0.130331766789258 
616	 0.130849183886312 
617	 0.131372507342643 
618	 0.131925297399174 
619	 0.132395228821873 
620	 0.132758464219269 
621	 0.13322338387689 
622	 0.133694067607838 
623	 0.134108934922679 
624	 0.134443265886584 
625	 0.134852681615215 
626	 0.135246079133903 
627	 0.13558835955128 
628	 0.135943807530217 
629	 0.136303820174801 
630	 0.13664895231467 
631	 0.13696458234498 
632	 0.137271410541336 
633	 0.137551968127952 
634	 0.137828713129146 
635	 0.138152578102347 
636	 0.138474038630305 
637	 0.13878166553319 
638	 0.139066707013378 
639	 0.139303150723301 
640	 0.1395703010748 
641	 0.13987968365934 
642	 0.140204516176731 
643	 0.14051591720925 
644	 0.140779986673647 
645	 0.141012467552874 
646	 0.14129769276311 
647	 0.141613572888688 
648	 0.141925893043158 
649	 0.142214997139743 
650	 0.142548813779991 
651	 0.142875634415703 
652	 0.143192668692176 
653	 0.143541909281523 
654	 0.143923829625656 
655	 0.14426809029189 
656	 0.144557949195993 
657	 0.14494450506116 
658	 0.145309652763878 
659	 0.145659985923129 
660	 0.146053979198192 
661	 0.14647747416731 
662	 0.146861311274423 
663	 0.147212448414301 
664	 0.147654505840871 
665	 0.148089918042878 
666	 0.148505578349636 
667	 0.148922894430317 
668	 0.149398965927707 
669	 0.149871074641405 
670	 0.150334836892947 
671	 0.150834242680236 
672	 0.151346511763841 
673	 0.151870284695251 
674	 0.152397946225587 
675	 0.152899806689005 
676	 0.153387681789192 
677	 0.153897529206377 
678	 0.154467115939696 
679	 0.155059881583891 
680	 0.155648635851364 
681	 0.156230701485911 
682	 0.156833912687097 
683	 0.157418527149974 
684	 0.158020125412824 
685	 0.158668808658642 
686	 0.1592968126287 
687	 0.160007991538092 
688	 0.160738941675503 
689	 0.161324909714164 
690	 0.161929462544685 
691	 0.16260607579113 
692	 0.163351708587497 
693	 0.164096327324268 
694	 0.164765437968338 
695	 0.165436644623042 
696	 0.166213314221859 
697	 0.166983547647166 
698	 0.167728074636374 
699	 0.16846611842418 
700	 0.169249670784264 
701	 0.170026062412275 
702	 0.170784645323869 
703	 0.171537580067144 
704	 0.172334647147022 
705	 0.173141577014229 
706	 0.173947365668853 
707	 0.174746366386448 
708	 0.175471380021679 
709	 0.176209994545419 
710	 0.177005512214738 
711	 0.177816439880819 
712	 0.178601898672283 
713	 0.17935571750065 
714	 0.180100215575331 
715	 0.180912038256942 
716	 0.181676506881341 
717	 0.182397872364382 
718	 0.183158940950769 
719	 0.183839582667153 
720	 0.184518303727197 
721	 0.185244769251952 
722	 0.185971125676072 
723	 0.186578929173803 
724	 0.18712984454796 
725	 0.187733209773949 
726	 0.188366208394762 
727	 0.188964438825844 
728	 0.189508346911532 
729	 0.190022677003866 
730	 0.19050843651558 
731	 0.190970852531423 
732	 0.191412889146362 
733	 0.19183347711068 
734	 0.192220430815688 
735	 0.192566566843612 
736	 0.192870106724337 
737	 0.193146155577379 
738	 0.193377189419662 
739	 0.193573713775339 
740	 0.193777017761215 
741	 0.193967098534358 
742	 0.194060601676668 
743	 0.194041851925645 
744	 0.194118236217987 
745	 0.194095145090899 
746	 0.194029202010209 
747	 0.194062809878558 
748	 0.194038259998499 
749	 0.193949983092327 
750	 0.193809940303399 
751	 0.193634691309859 
752	 0.19343725224541 
753	 0.193215586270038 
754	 0.19296099680634 
755	 0.192650595666937 
756	 0.192382411543176 
757	 0.192120410780022 
758	 0.191770706286749 
759	 0.191377797167147 
760	 0.190979159017626 
761	 0.190589144513752 
762	 0.190193783577562 
763	 0.189750801127339 
764	 0.189286649402575 
765	 0.188824511997232 
766	 0.188320355071386 
767	 0.187819734835099 
768	 0.187329223880876 
769	 0.186834343109734 
770	 0.186334688022555 
771	 0.185824267765533 
772	 0.1852944160733 
773	 0.184735003720866 
774	 0.184146539266388 
775	 0.183567341905761 
776	 0.183012644123613 
777	 0.182405401719875 
778	 0.181859918481791 
779	 0.181338966945291 
780	 0.180752822401403 
781	 0.180169038378758 
782	 0.179593462015613 
783	 0.17902407362845 
784	 0.178457498635214 
785	 0.177920050196162 
786	 0.177358014955633 
787	 0.176757239447382 
788	 0.176235496573749 
789	 0.17569025448479 
790	 0.175129655539102 
791	 0.174587827870197 
792	 0.174005468142593 
793	 0.173458544104841 
794	 0.172965550684525 
795	 0.172483285569665 
796	 0.171916493701564 
797	 0.171366923702477 
798	 0.170887731240986 
799	 0.17038685527034 
800	 0.169884560292325 
801	 0.169364169040904 
802	 0.168829113185479 
803	 0.168392388299258 
804	 0.167970547112747 
805	 0.167519010852433 
806	 0.167035813933863 
807	 0.166618801679409 
808	 0.166186056236675 
809	 0.165715898003271 
810	 0.165287459544569 
811	 0.164869295464729 
812	 0.164442858604428 
813	 0.164017285330721 
814	 0.163673947707121 
815	 0.163321957810796 
816	 0.162935147717262 
817	 0.162526135400034 
818	 0.162143841619684 
819	 0.16178837185737 
820	 0.161455988721115 
821	 0.161139551204219 
822	 0.160810902837214 
823	 0.160453021221871 
824	 0.16009468924574 
825	 0.159832109754916 
826	 0.159574826627808 
827	 0.159281266278457 
828	 0.15896396380987 
829	 0.15876459677943 
830	 0.158491653851716 
831	 0.158183991910079 
832	 0.157970107481301 
833	 0.157771843487454 
834	 0.157478389687458 
835	 0.157172737261038 
836	 0.157087754953121 
837	 0.156929905508449 
838	 0.156706868407085 
839	 0.156489260497872 
840	 0.156365207015405 
841	 0.156200453653034 
842	 0.156014054710448 
843	 0.155847776779932 
844	 0.155671480068142 
845	 0.15549719514286 
846	 0.155350997761907 
847	 0.155254772539355 
848	 0.155171950127861 
849	 0.155092365852845 
850	 0.154999062530717 
851	 0.154873031320044 
852	 0.154737692378299 
853	 0.154613287296702 
854	 0.15454548434563 
855	 0.154611215093475 
856	 0.154591367218516 
857	 0.154501814747442 
858	 0.154408594853821 
859	 0.15434271921534 
860	 0.154293708340921 
861	 0.154265789438387 
862	 0.154268769363331 
863	 0.154325435908261 
864	 0.154342773413891 
865	 0.154326664079449 
866	 0.154341997327131 
867	 0.154372352732859 
868	 0.154418092897672 
869	 0.154448311654581 
870	 0.15441519474166 
871	 0.154477503495386 
872	 0.154597877048054 
873	 0.154720807430143 
874	 0.15482130882715 
875	 0.154896015017479 
876	 0.154942859272633 
877	 0.154993842903181 
878	 0.15517529853096 
879	 0.155263948897874 
880	 0.155323671520206 
881	 0.155479233596758 
882	 0.155648685426453 
883	 0.155781102032485 
884	 0.155923568545888 
885	 0.156146913277013 
886	 0.156303496440567 
887	 0.156463833707825 
888	 0.156645691838705 
889	 0.15681457091659 
890	 0.157023275598047 
891	 0.157244941192361 
892	 0.157465297104553 
893	 0.157698978364955 
894	 0.157962245565446 
895	 0.158206290486026 
896	 0.158427689202628 
897	 0.158725280195119 
898	 0.158980522929306 
899	 0.159204244444942 
900	 0.159452409250064 
901	 0.15980350356523 
902	 0.160151578140757 
903	 0.160482056504724 
904	 0.16080964305402 
905	 0.161126098293366 
906	 0.161433921278757 
907	 0.161747762709514 
908	 0.162088177482001 
909	 0.162474824608566 
910	 0.162878116714087 
911	 0.163275151216916 
912	 0.163659065678626 
913	 0.164078873483587 
914	 0.164492342358603 
915	 0.164900537103284 
916	 0.165344169632988 
917	 0.16577660880055 
918	 0.166251260765136 
919	 0.166750062289924 
920	 0.167170359723336 
921	 0.16757712924209 
922	 0.168072720881167 
923	 0.168665680827715 
924	 0.169226400281241 
925	 0.169761896981962 
926	 0.17031876637968 
927	 0.170881924888901 
928	 0.171304832372609 
929	 0.171899205702467 
930	 0.172548202526952 
931	 0.173126121553413 
932	 0.173760932335382 
933	 0.174350403292926 
934	 0.174937369898514 
935	 0.175575111148361 
936	 0.176223970636397 
937	 0.176829331669504 
938	 0.177471380857379 
939	 0.178222277695069 
940	 0.178970606295669 
941	 0.179655374748218 
942	 0.180339350391597 
943	 0.181095690314677 
944	 0.18180614667855 
945	 0.182614254278709 
946	 0.18344317881229 
947	 0.184163818022932 
948	 0.184911543305063 
949	 0.185699984818036 
950	 0.186546194080997 
951	 0.187438094788521 
952	 0.188227631122033 
953	 0.189003274300833 
954	 0.18986054194872 
955	 0.190831939273914 
956	 0.191669289237982 
957	 0.192573573125766 
958	 0.193545251601568 
959	 0.194461962121029 
960	 0.195355711413751 
961	 0.196329490298067 
962	 0.197326423071271 
963	 0.198219866893024 
964	 0.199143902011868 
965	 0.200137164603764 
966	 0.201154043718353 
967	 0.202129315522718 
968	 0.203198410086798 
969	 0.204198433683989 
970	 0.205173447198184 
971	 0.206278692823634 
972	 0.207362977714246 
973	 0.208393876053366 
974	 0.209428057929902 
975	 0.210569417085841 
976	 0.211880884702295 
977	 0.21301395034672 
978	 0.213983247539335 
979	 0.215045464185855 
980	 0.216232745201683 
981	 0.217435694241922 
982	 0.218584227308004 
983	 0.219687614227637 
984	 0.220951192213683 
985	 0.222174564067143 
986	 0.223287308024061 
987	 0.22435347998845 
988	 0.225574946299209 
989	 0.226789381316142 
990	 0.227962410460374 
991	 0.229152348347622 
992	 0.230452359874451 
993	 0.231667614481334 
994	 0.232852670389927 
995	 0.234124429852897 
996	 0.235345305187615 
997	 0.236557269138698 
998	 0.237736937597435 
999	 0.238874434733405 
1000	 0.240090447159407 
1001	 0.247962305794938 
1002	 0.249214836339199 
1003	 0.250420551804883 
1004	 0.251631456889772 
1005	 0.252819844982757 
1006	 0.254044544188471 
1007	 0.255279034141868 
1008	 0.256536334027036 
1009	 0.257762602677209 
1010	 0.25893695424769 
1011	 0.26018340572036 
1012	 0.261430511108256 
1013	 0.262647530139116 
1014	 0.263863150737933 
1015	 0.265012619896618 
1016	 0.266125683669392 
1017	 0.267281066035878 
1018	 0.268450727921167 
1019	 0.269653647424731 
1020	 0.270803334215773 
1021	 0.2719446232281 
1022	 0.27308869104841 
1023	 0.274150795164281 
1024	 0.275226849848467 
1025	 0.276354011173786 
1026	 0.27739500510494 
1027	 0.278411151958363 
1028	 0.279466942380479 
1029	 0.280493196435349 
1030	 0.281554645456548 
1031	 0.282598146338758 
1032	 0.283669313114944 
1033	 0.284699342207465 
1034	 0.285736074758567 
1035	 0.286739216458231 
1036	 0.287737216043774 
1037	 0.288744984395784 
1038	 0.28967998045936 
1039	 0.29060182385833 
1040	 0.291573545102511 
1041	 0.292561256375858 
1042	 0.293549476176114 
1043	 0.29447617066308 
1044	 0.295415195646794 
1045	 0.296320018269288 
1046	 0.297257592787155 
1047	 0.298213511080183 
1048	 0.29926228888591 
1049	 0.300283177809667 
1050	 0.301232277666634 
1051	 0.302251329494705 
1052	 0.303196968413215 
1053	 0.304118072233733 
1054	 0.305132109653052 
1055	 0.306095974587564 
1056	 0.307081925739993 
1057	 0.308092982537397 
1058	 0.309152456736503 
1059	 0.310166065515793 
1060	 0.31117080856057 
1061	 0.312184560979505 
1062	 0.313161278607764 
1063	 0.31418962686269 
1064	 0.315244343693822 
1065	 0.316308899460993 
1066	 0.317384484427913 
1067	 0.318426847770633 
1068	 0.319503855497127 
1069	 0.320577543135898 
1070	 0.321630821548927 
1071	 0.322680935562531 
1072	 0.323742321668727 
1073	 0.324780895919331 
1074	 0.325832544378241 
1075	 0.326891074123917 
1076	 0.327950265998945 
1077	 0.329023215110397 
1078	 0.330062216425598 
1079	 0.331139706739776 
1080	 0.332266300211539 
1081	 0.333383132825401 
1082	 0.334502899661062 
1083	 0.33560698618944 
1084	 0.336694541602633 
1085	 0.337783598262052 
1086	 0.338870587529228 
1087	 0.339931567512058 
1088	 0.340960074782042 
1089	 0.342036784581823 
1090	 0.343063251514659 
1091	 0.344084357447794 
1092	 0.345191871988118 
1093	 0.346249460201498 
1094	 0.347313442679834 
1095	 0.348405186729133 
1096	 0.349448724537385 
1097	 0.35050043262063 
1098	 0.351543979590505 
1099	 0.352581993610774 
1100	 0.353631901838194 
1101	 0.35469541262393 
1102	 0.355718828988704 
1103	 0.356730799780685 
1104	 0.357738755299174 
1105	 0.358747679399851 
1106	 0.359812275964408 
1107	 0.360866842860847 
1108	 0.361943656511235 
1109	 0.363006192537454 
1110	 0.364019726911358 
1111	 0.365079457123507 
1112	 0.366182076713588 
1113	 0.367244708858046 
1114	 0.368296471267034 
1115	 0.369363811673602 
1116	 0.370427537149052 
1117	 0.371485357043541 
1118	 0.372553174041728 
1119	 0.373606036985113 
1120	 0.374671358683394 
1121	 0.375727188759085 
1122	 0.376792729199862 
1123	 0.377898961827727 
1124	 0.3789935184431 
1125	 0.380092815579982 
1126	 0.381190056112151 
1127	 0.382287044624706 
1128	 0.383384044302504 
1129	 0.384479824320841 
1130	 0.385567689798546 
1131	 0.386666096583851 
1132	 0.387757478891292 
1133	 0.388821065415236 
1134	 0.389904963439497 
1135	 0.391000346259375 
1136	 0.392076612739224 
1137	 0.393185658589009 
1138	 0.394321290997512 
1139	 0.395453635981761 
1140	 0.396615858619287 
1141	 0.397739968432191 
1142	 0.398853657392404 
1143	 0.399964878330765 
1144	 0.401051702092639 
1145	 0.402153300858085 
1146	 0.403255874752119 
1147	 0.404361061889384 
1148	 0.40547013545903 
1149	 0.406583559938849 
1150	 0.407700955811289 
1151	 0.408825402018761 
1152	 0.409952254851593 
1153	 0.411049754917301 
1154	 0.412143154933233 
1155	 0.413217987486228 
1156	 0.414311606058087 
1157	 0.415397901630579 
1158	 0.416500724018472 
1159	 0.417633473069692 
1160	 0.4187336550752 
1161	 0.419819086829108 
1162	 0.420914569827915 
1163	 0.42199876276283 
1164	 0.423093849981997 
1165	 0.42420423775492 
1166	 0.425322624032073 
1167	 0.426426922693154 
1168	 0.42748653577548 
1169	 0.428537278977101 
1170	 0.429549536144879 
1171	 0.430597477243624 
1172	 0.431656427856654 
1173	 0.432692405273621 
1174	 0.433733003594868 
1175	 0.434766453338057 
1176	 0.435783665353769 
1177	 0.436794059350943 
1178	 0.437811832958657 
1179	 0.4388173672107 
1180	 0.439799722510042 
1181	 0.440784624996395 
1182	 0.44177038301099 
1183	 0.442760173688903 
1184	 0.443732961130927 
1185	 0.444708168104937 
1186	 0.445648989388624 
1187	 0.446574175333799 
1188	 0.447482441445246 
1189	 0.448345649482255 
1190	 0.449243259170134 
1191	 0.450153348260009 
1192	 0.451047181040159 
1193	 0.451964798113768 
1194	 0.452843096072458 
1195	 0.453688825546013 
1196	 0.454532217635471 
1197	 0.455361011144098 
1198	 0.456178883457019 
1199	 0.456986908211313 
1200	 0.457791056668282 
1201	 0.458575013792514 
1202	 0.459342942367965 
1203	 0.46010328265721 
1204	 0.460848918198594 
1205	 0.461591459082634 
1206	 0.462321750517389 
1207	 0.463055066390825 
1208	 0.46379721861594 
1209	 0.464513446256413 
1210	 0.465222956209292 
1211	 0.465917534643317 
1212	 0.466582564944262 
1213	 0.467252570060906 
1214	 0.467915507787865 
1215	 0.468579210361387 
1216	 0.469241567553682 
1217	 0.469908126094698 
1218	 0.470554900694383 
1219	 0.471205441878285 
1220	 0.471822968667231 
1221	 0.472415341546782 
1222	 0.47300560541361 
1223	 0.473588059721786 
1224	 0.474146560559777 
1225	 0.474680512679155 
1226	 0.475222555717031 
1227	 0.475750694962145 
1228	 0.476274276611496 
1229	 0.476813875251063 
1230	 0.477329225974926 
1231	 0.477812479809615 
1232	 0.478304749759005 
1233	 0.478794474884494 
1234	 0.479283079359829 
1235	 0.479755466149653 
1236	 0.480224516796216 
1237	 0.480686984746796 
1238	 0.481132530853322 
1239	 0.481581453518095 
1240	 0.48204524870109 
1241	 0.482478051369546 
1242	 0.482886010343312 
1243	 0.483301368940934 
1244	 0.483698564828752 
1245	 0.484105801532454 
1246	 0.484536542864181 
1247	 0.484939591090178 
1248	 0.485334891248805 
1249	 0.485717068117226 
1250	 0.486079167058964 
1251	 0.48642846617526 
1252	 0.486779228230309 
1253	 0.487110442044731 
1254	 0.487475019814647 
1255	 0.487867865977841 
1256	 0.488219413468941 
1257	 0.488585210494845 
1258	 0.4889118034014 
1259	 0.489174959987453 
1260	 0.489478003681113 
1261	 0.489798760320643 
1262	 0.490097068100223 
1263	 0.490405291735555 
1264	 0.490689243099874 
1265	 0.490935382561105 
1266	 0.491192716221535 
1267	 0.491452650775389 
1268	 0.491693053692732 
1269	 0.491950834934141 
1270	 0.49221375866034 
1271	 0.492478768618906 
1272	 0.492755650029214 
1273	 0.493015972381324 
1274	 0.493266398356149 
1275	 0.493525372226143 
1276	 0.493774339697652 
1277	 0.494036342092685 
1278	 0.494314323090205 
1279	 0.494584465089583 
1280	 0.494840991643219 
1281	 0.495121340124114 
1282	 0.495415388685081 
1283	 0.49570870431625 
1284	 0.496015833829013 
1285	 0.496326483586054 
1286	 0.496626787520051 
1287	 0.496938739540201 
1288	 0.497256178974391 
1289	 0.497578723165587 
1290	 0.497913775670408 
1291	 0.498258467580297 
1292	 0.498603648814303 
1293	 0.498955836721983 
1294	 0.499318971966053 
1295	 0.49968961945327 
1296	 0.500058507835032 
1297	 0.500449636015393 
1298	 0.500817852735949 
1299	 0.501174340207295 
1300	 0.501528494728807 
1301	 0.501873042288968 
1302	 0.5022121716499 
1303	 0.502549273156507 
1304	 0.50287486711006 
1305	 0.503198634966692 
1306	 0.503498778572492 
1307	 0.503763435976029 
1308	 0.504034984061435 
1309	 0.504297233071399 
1310	 0.504534052126102 
1311	 0.504790318916876 
1312	 0.505062443035951 
1313	 0.505305493275797 
1314	 0.505543323396124 
1315	 0.505765095275746 
1316	 0.505980821323482 
1317	 0.506166321455483 
1318	 0.506330140551075 
1319	 0.506482451285151 
1320	 0.506589749100339 
1321	 0.506716793116519 
1322	 0.506845412419082 
1323	 0.506976539525373 
1324	 0.507108991846131 
1325	 0.507234405258159 
1326	 0.507329265648413 
1327	 0.507408833849699 
1328	 0.507465301648264 
1329	 0.507506339101591 
1330	 0.507563617124473 
1331	 0.507639562987121 
1332	 0.507671488967783 
1333	 0.507680125857164 
1334	 0.507705397511613 
1335	 0.507700817398161 
1336	 0.507718481152792 
1337	 0.507775615100282 
1338	 0.507802332957243 
1339	 0.507806794174896 
1340	 0.507824631986065 
1341	 0.507839217754002 
1342	 0.507855230028351 
1343	 0.507873558611968 
1344	 0.507898912383848 
1345	 0.507920312125937 
1346	 0.507945200540788 
1347	 0.507991420879757 
1348	 0.508034066796156 
1349	 0.508081453690876 
1350	 0.508133031207713 
1351	 0.508164056973614 
1352	 0.508180496530483 
1353	 0.508203938144859 
1354	 0.508209139826519 
1355	 0.508244028234872 
1356	 0.508286609598823 
1357	 0.508344110253798 
1358	 0.508438586810824 
1359	 0.508497493083368 
1360	 0.508558275339632 
1361	 0.508600904555635 
1362	 0.508618065734433 
1363	 0.508635933388746 
1364	 0.508654946647556 
1365	 0.508656655445604 
1366	 0.508644795026134 
1367	 0.508620743038644 
1368	 0.508601503512183 
1369	 0.508593524631105 
1370	 0.508583819165707 
1371	 0.508546859860419 
1372	 0.508481061205096 
1373	 0.508413793279413 
1374	 0.508355565492451 
1375	 0.508284020323206 
1376	 0.508244396151084 
1377	 0.508226601381488 
1378	 0.508200435632472 
1379	 0.508186712490802 
1380	 0.508178867431283 
1381	 0.508180714332595 
1382	 0.508161624894427 
1383	 0.508151775607833 
1384	 0.508117684012741 
1385	 0.508055857215584 
1386	 0.507995823531028 
1387	 0.507930592470334 
1388	 0.507854973842147 
1389	 0.507764624150306 
1390	 0.507686438915768 
1391	 0.507572461205794 
1392	 0.507464764419809 
1393	 0.507369789241482 
1394	 0.507247652759628 
1395	 0.507117207939042 
1396	 0.506984195729209 
1397	 0.506857650314351 
1398	 0.506718427327634 
1399	 0.506581708195816 
1400	 0.506456484626046 
1401	 0.506331165494545 
1402	 0.506190709510762 
1403	 0.506067913231638 
1404	 0.505969987759519 
1405	 0.505847722831977 
1406	 0.505710733892507 
1407	 0.505587524832237 
1408	 0.505451361039953 
1409	 0.505341632103158 
1410	 0.505242021786055 
1411	 0.505163006671464 
1412	 0.505093500985138 
1413	 0.505057999848751 
1414	 0.505039063248825 
1415	 0.505018193425903 
1416	 0.505023231244481 
1417	 0.505036734599824 
1418	 0.505055342016918 
1419	 0.505083733739613 
1420	 0.505078452172833 
1421	 0.505060231368583 
1422	 0.505058749637857 
1423	 0.505048554053806 
1424	 0.505041988138265 
1425	 0.505048905592966 
1426	 0.505056076995241 
1427	 0.505053280361647 
1428	 0.505061727594234 
1429	 0.505082533351015 
1430	 0.505096717012785 
1431	 0.505109646432016 
1432	 0.505125582196162 
1433	 0.505154925301938 
1434	 0.505168813118308 
1435	 0.505172260544915 
1436	 0.50517170010298 
1437	 0.505155851920565 
1438	 0.505153460589277 
1439	 0.505147001437159 
1440	 0.505159132347709 
1441	 0.505190725707212 
1442	 0.505208050852788 
1443	 0.505209848346675 
1444	 0.505208553265119 
1445	 0.50520031305972 
1446	 0.505193277396623 
1447	 0.505202376358129 
1448	 0.505210068449972 
1449	 0.505198932812845 
1450	 0.505184199993986 
1451	 0.505175959632997 
1452	 0.505168166038882 
1453	 0.50515355833217 
1454	 0.505143098865095 
1455	 0.505121324465332 
1456	 0.505074718421595 
1457	 0.505060440337097 
1458	 0.505064491537455 
1459	 0.505057586077943 
1460	 0.505064894457081 
1461	 0.505057210832749 
1462	 0.505027701633483 
1463	 0.505017388361975 
1464	 0.505006906556507 
1465	 0.50500842381434 
1466	 0.505019540572777 
1467	 0.505038048132818 
1468	 0.505057763816625 
1469	 0.505103340697874 
1470	 0.505169459543503 
1471	 0.505235219775993 
1472	 0.505334837756685 
1473	 0.505444798527733 
1474	 0.50554851766243 
1475	 0.505671407985139 
1476	 0.505786788804404 
1477	 0.50589519302667 
1478	 0.506015567848112 
1479	 0.506146314013468 
1480	 0.506278458507151 
1481	 0.506420084730565 
1482	 0.506564412744928 
1483	 0.506708717607294 
1484	 0.50686495955019 
1485	 0.507037083756733 
1486	 0.507192069153294 
1487	 0.507353600810409 
1488	 0.507499788219737 
1489	 0.507623844945957 
1490	 0.507771773063749 
1491	 0.507921645982509 
1492	 0.508072920650341 
1493	 0.508248326872788 
1494	 0.508394038025865 
1495	 0.508522643295621 
1496	 0.508658057555668 
1497	 0.508778134243231 
1498	 0.508903508245462 
1499	 0.509026282022303 
1500	 0.509165906166831 
1501	 0.509330958267515 
1502	 0.509467814213659 
1503	 0.509615115373688 
1504	 0.509734131176728 
1505	 0.509802722549516 
1506	 0.509871914195841 
1507	 0.509954026256052 
1508	 0.51004112098237 
1509	 0.51014308031984 
1510	 0.51024393009935 
1511	 0.510345482577045 
1512	 0.510447034369547 
1513	 0.510546542052864 
1514	 0.510650774571466 
1515	 0.510769194414762 
1516	 0.5108798101161 
1517	 0.510999733286953 
1518	 0.511149636958981 
1519	 0.511257402231489 
1520	 0.511349417214972 
1521	 0.51143487448247 
1522	 0.51148544197768 
1523	 0.511566539805163 
1524	 0.511660828321108 
1525	 0.511741367128575 
1526	 0.511822750190716 
1527	 0.511906804758757 
1528	 0.511975586427315 
1529	 0.512066758075255 
1530	 0.512190887162627 
1531	 0.512289790056141 
1532	 0.512378373306295 
1533	 0.512470027140928 
1534	 0.512545078526021 
1535	 0.512634281956167 
1536	 0.512735607977841 
1537	 0.512840835271901 
1538	 0.512956764708996 
1539	 0.513062817049466 
1540	 0.513178309911493 
1541	 0.513274002125299 
1542	 0.513336792143207 
1543	 0.513427522093359 
1544	 0.513519891983074 
1545	 0.513618736189996 
1546	 0.513735210347735 
1547	 0.513860562640848 
1548	 0.513973418205852 
1549	 0.514094484596106 
1550	 0.514213285032665 
1551	 0.514307150201972 
1552	 0.514375552817934 
1553	 0.514438563930457 
1554	 0.514479734528076 
1555	 0.514541061451299 
1556	 0.514634430788125 
1557	 0.514710099432585 
1558	 0.514829916964183 
1559	 0.514952450362268 
1560	 0.515050241364319 
1561	 0.515154989086841 
1562	 0.515222836797744 
1563	 0.515266907281507 
1564	 0.515285410915808 
1565	 0.515262041481241 
1566	 0.515269261703891 
1567	 0.515251714297879 
1568	 0.515274441034213 
1569	 0.515328019726793 
1570	 0.515379911434656 
1571	 0.515451589141614 
1572	 0.515510305570239 
1573	 0.515564908405895 
1574	 0.515637116756907 
1575	 0.515704778462798 
1576	 0.51578760023043 
1577	 0.515905771500555 
1578	 0.515990237138734 
1579	 0.516065400756645 
1580	 0.51613971962106 
1581	 0.516211348423822 
1582	 0.516263582188287 
1583	 0.516307923095518 
1584	 0.516345591255734 
1585	 0.516338759978755 
1586	 0.516373732464623 
1587	 0.516430342559561 
1588	 0.516483206005277 
1589	 0.516553241772626 
1590	 0.516625598632437 
1591	 0.516700228847342 
1592	 0.516771466563248 
1593	 0.516859163653182 
1594	 0.516926276132133 
1595	 0.516982482603525 
1596	 0.517029525912759 
1597	 0.517064870474981 
1598	 0.517091722479669 
1599	 0.517095024364229 
1600	 0.517115182183269 
1601	 0.517124839399715 
1602	 0.517159374582882 
1603	 0.517226621301524 
1604	 0.517278923201671 
1605	 0.517337128779808 
1606	 0.517392521865995 
1607	 0.517445708600096 
1608	 0.51748497997325 
1609	 0.517536601560006 
1610	 0.517597326659405 
1611	 0.517631269054138 
1612	 0.517669748077034 
1613	 0.517713272131809 
1614	 0.517733292139383 
1615	 0.517773330719343 
1616	 0.517829074973514 
1617	 0.517890259950064 
1618	 0.517973654755362 
1619	 0.518057279809828 
1620	 0.518135018661792 
1621	 0.518196733628523 
1622	 0.518249229224093 
1623	 0.518286633179716 
1624	 0.518306232606191 
1625	 0.518333572911775 
1626	 0.518352469020223 
1627	 0.518369472342973 
1628	 0.51838570483672 
1629	 0.518403300517923 
1630	 0.518411375123549 
1631	 0.518431499364403 
1632	 0.518459280468042 
1633	 0.518492948786273 
1634	 0.518529830324616 
1635	 0.518575359919178 
1636	 0.518623445787415 
1637	 0.518690948639524 
1638	 0.518785188851223 
1639	 0.518842965339249 
1640	 0.518909644564059 
1641	 0.518948897824843 
1642	 0.518946855090119 
1643	 0.518967772203415 
1644	 0.518976897605506 
1645	 0.519021200697016 
1646	 0.519081820794072 
1647	 0.519144914644015 
1648	 0.519240626471869 
1649	 0.519309567496883 
1650	 0.519368481035329 
1651	 0.519424872180648 
1652	 0.519479536093515 
1653	 0.519522454691547 
1654	 0.519546473322368 
1655	 0.519591298201914 
1656	 0.519646112796941 
1657	 0.519680294072361 
1658	 0.519719960398551 
1659	 0.519745454517849 
1660	 0.519734201485704 
1661	 0.519759324182057 
1662	 0.519808005372165 
1663	 0.519837159109647 
1664	 0.519868962070014 
1665	 0.519899167933713 
1666	 0.519912452429066 
1667	 0.5199437548941 
1668	 0.519999921686162 
1669	 0.520026648570513 
1670	 0.520031970527087 
1671	 0.520064049681338 
1672	 0.520091217734424 
1673	 0.520130020598199 
1674	 0.520208628515129 
1675	 0.520245746147261 
1676	 0.520250208657149 
1677	 0.520283689103204 
1678	 0.520319956076249 
1679	 0.52035068406418 
1680	 0.520402442811893 
1681	 0.520428967688008 
1682	 0.520423761444528 
1683	 0.52044196949358 
1684	 0.520463044293577 
1685	 0.520490377245968 
1686	 0.520529626138898 
1687	 0.52056398570357 
1688	 0.520588589326301 
1689	 0.520639365385908 
1690	 0.520701809773817 
1691	 0.520768483498819 
1692	 0.520869648293587 
1693	 0.520934279230485 
1694	 0.520981888586046 
1695	 0.521032730490865 
1696	 0.521075859557892 
1697	 0.521104918656213 
1698	 0.521136864567898 
1699	 0.521144278982844 
1700	 0.5210936796244 
1701	 0.521117708954096 
1702	 0.521165267518149 
1703	 0.521215169861946 
1704	 0.521313634758483 
1705	 0.521389866749038 
1706	 0.521455189517917 
1707	 0.521518095323641 
1708	 0.521607552941534 
1709	 0.521640596594124 
1710	 0.521629474434923 
1711	 0.521633643590323 
1712	 0.521602850956197 
1713	 0.521608981990993 
1714	 0.521647281349566 
1715	 0.521655253071631 
1716	 0.521657357920237 
1717	 0.521664838885293 
1718	 0.521661036699316 
1719	 0.5216593347005 
1720	 0.521655867496896 
1721	 0.521678165339111 
1722	 0.521707106842935 
1723	 0.521732069143226 
1724	 0.521797155971023 
1725	 0.521809025800395 
1726	 0.521789574757759 
1727	 0.521768784486 
1728	 0.521726919477523 
1729	 0.521688429876383 
1730	 0.52163795347441 
1731	 0.521591405542986 
1732	 0.521541500230409 
1733	 0.521499613850871 
1734	 0.521468402276481 
1735	 0.521415462701478 
1736	 0.52136254889828 
1737	 0.521294463811733 
1738	 0.521189763814251 
1739	 0.521129465024462 
1740	 0.521078637395155 
1741	 0.521051258900666 
1742	 0.521062220749189 
1743	 0.521032066806491 
1744	 0.521005814016959 
1745	 0.520957090401244 
1746	 0.52087623238211 
1747	 0.520836856432232 
1748	 0.520769370327213 
1749	 0.520700032705981 
1750	 0.520642828564952 
1751	 0.520552871173869 
1752	 0.520487701182928 
1753	 0.520460754834611 
1754	 0.5204233601251 
1755	 0.520438740584477 
1756	 0.520471594016011 
1757	 0.520455993578133 
1758	 0.520438789960364 
1759	 0.52040053279703 
1760	 0.520322253775943 
1761	 0.520243977273569 
1762	 0.520184762390171 
1763	 0.520152200123159 
1764	 0.520109824834591 
1765	 0.520066901220058 
1766	 0.52002957772206 
1767	 0.519931980269756 
1768	 0.519842810512047 
1769	 0.519834581728825 
1770	 0.519821346600396 
1771	 0.519790443416713 
1772	 0.519768521450454 
1773	 0.519716001517807 
1774	 0.519683170594366 
1775	 0.519724792114993 
1776	 0.519768630631272 
1777	 0.519753727513429 
1778	 0.519742424855522 
1779	 0.519713481526174 
1780	 0.519692089107516 
1781	 0.519748861733015 
1782	 0.519764317702217 
1783	 0.519786345838934 
1784	 0.519774984235464 
1785	 0.519699494094833 
1786	 0.519672909842544 
1787	 0.519656367845554 
1788	 0.519639450767749 
1789	 0.519647868076789 
1790	 0.519659744671158 
1791	 0.519666141303454 
1792	 0.519683048188732 
1793	 0.519711288259044 
1794	 0.519726656420805 
1795	 0.519738877289893 
1796	 0.519738823964701 
1797	 0.519759827665769 
1798	 0.519740241438619 
1799	 0.519665447482497 
1800	 0.51963594794734 
1801	 0.533495406412328 
1802	 0.533525349415707 
1803	 0.533554255136531 
1804	 0.533592766689153 
1805	 0.533636061454306 
1806	 0.533633824551831 
1807	 0.533609416898472 
1808	 0.533586808480578 
1809	 0.533526394041945 
1810	 0.533513455005347 
1811	 0.533523024588666 
1812	 0.53352488549187 
1813	 0.53352898465409 
1814	 0.533539347292643 
1815	 0.533576788061796 
1816	 0.533602179217922 
1817	 0.533637770424691 
1818	 0.533720092989875 
1819	 0.533754698928528 
1820	 0.533763129119135 
1821	 0.533783148557582 
1822	 0.533775664468707 
1823	 0.533732052276064 
1824	 0.533698232583338 
1825	 0.533655777650021 
1826	 0.533592926330509 
1827	 0.533543371069725 
1828	 0.533490386231665 
1829	 0.5334276816381 
1830	 0.533358153780905 
1831	 0.533284016647462 
1832	 0.533222736924151 
1833	 0.533163482514331 
1834	 0.533084539682598 
1835	 0.53300666399898 
1836	 0.532931531277081 
1837	 0.532865545339928 
1838	 0.532819369327202 
1839	 0.532764725496621 
1840	 0.532731487998631 
1841	 0.53268193432317 
1842	 0.532595107690173 
1843	 0.532504899601077 
1844	 0.532409352009991 
1845	 0.532348096897934 
1846	 0.532371977169923 
1847	 0.532400420101134 
1848	 0.532431353050001 
1849	 0.532474090677106 
1850	 0.532486979799246 
1851	 0.53246715614274 
1852	 0.532431030860145 
1853	 0.53238720669006 
1854	 0.532334586254372 
1855	 0.532283445137755 
1856	 0.532248541561506 
1857	 0.532226943469059 
1858	 0.532200943412833 
1859	 0.532163864757498 
1860	 0.532103712882295 
1861	 0.532022631007597 
1862	 0.531921015744006 
1863	 0.53180879301962 
1864	 0.531669585564956 
1865	 0.53149298170746 
1866	 0.531349083748825 
1867	 0.531254107375249 
1868	 0.531167058219102 
1869	 0.531087101283486 
1870	 0.531009382513325 
1871	 0.530861424621156 
1872	 0.530668297282612 
1873	 0.530412319618186 
1874	 0.530109148561856 
1875	 0.529716111662098 
1876	 0.529322675919247 
1877	 0.528928219193623 
1878	 0.528495621049224 
1879	 0.528072426551663 
1880	 0.527616339292035 
1881	 0.527123660627985 
1882	 0.526612252274748 
1883	 0.526094007887416 
1884	 0.52553111982887 
1885	 0.524928889604901 
1886	 0.524257854088359 
1887	 0.523537652213952 
1888	 0.522748462672862 
1889	 0.521896627006155 
1890	 0.52101321290935 
1891	 0.520147461060471 
1892	 0.519255472210201 
1893	 0.518383556017697 
1894	 0.517527764558006 
1895	 0.516662076559164 
1896	 0.515787826354235 
1897	 0.514915227052405 
1898	 0.514048597562356 
1899	 0.513220936067628 
1900	 0.512416558989266 
1901	 0.511637790725867 
1902	 0.5108781751405 
1903	 0.510162667492636 
1904	 0.5094368129358 
1905	 0.50871963125787 
1906	 0.508002316186999 
1907	 0.507319264200158 
1908	 0.506681909018162 
1909	 0.506083169828896 
1910	 0.505549736239098 
1911	 0.505042656935082 
1912	 0.504558290673918 
1913	 0.504105654892281 
1914	 0.503692438180949 
1915	 0.503287777569102 
1916	 0.502900766045484 
1917	 0.502545155301489 
1918	 0.502218423663184 
1919	 0.501904077959938 
1920	 0.501631036117534 
1921	 0.501361208160349 
1922	 0.501090538652422 
1923	 0.500852368673093 
1924	 0.500642627652403 
1925	 0.500451741306232 
1926	 0.500292659072081 
1927	 0.500163338908131 
1928	 0.500068118577124 
1929	 0.499987393827487 
1930	 0.499952275016826 
1931	 0.499951388454052 
1932	 0.499952931200926 
1933	 0.499955904405705 
1934	 0.499961738430093 
1935	 0.500000371482859 
1936	 0.500036145315883 
1937	 0.500122829178602 
1938	 0.500277912232473 
1939	 0.500410920865966 
1940	 0.50054671427113 
1941	 0.50071802159317 
1942	 0.500891282397429 
1943	 0.501054038627704 
1944	 0.501256105646651 
1945	 0.501468929516059 
1946	 0.501692381860337 
1947	 0.501924043479881 
1948	 0.502165334397509 
1949	 0.502423982790792 
1950	 0.502690955859767 
1951	 0.502966756844074 
1952	 0.503249401081804 
1953	 0.503538186737526 
1954	 0.503824546632861 
1955	 0.504086606946419 
1956	 0.504350994217622 
1957	 0.504639513502103 
1958	 0.504932366670031 
1959	 0.505236009521046 
1960	 0.505571196622652 
1961	 0.505897592393549 
1962	 0.506221863598754 
1963	 0.50655710654722 
1964	 0.506913841275647 
1965	 0.507248200800368 
1966	 0.507581428321054 
1967	 0.507880737794687 
1968	 0.508180029301143 
1969	 0.508447021046817 
1970	 0.508742994179103 
1971	 0.509043941956997 
1972	 0.509356435436736 
1973	 0.509679151075934 
1974	 0.510002521427284 
1975	 0.510325559679974 
1976	 0.510657673859373 
1977	 0.511034092085132 
1978	 0.511409353518907 
1979	 0.511770811957059 
1980	 0.512142723501636 
1981	 0.512503314351158 
1982	 0.512839484737715 
1983	 0.513177438385732 
1984	 0.513508656671642 
1985	 0.513867637472141 
1986	 0.514225058091205 
1987	 0.514592194717731 
1988	 0.515006545891547 
1989	 0.515384685215348 
1990	 0.515740936124089 
1991	 0.516101531492553 
1992	 0.516462287754919 
1993	 0.516815012201293 
1994	 0.51717636158947 
1995	 0.517535611635524 
1996	 0.517905583157405 
1997	 0.518282519399866 
1998	 0.518669891317758 
1999	 0.51907551117482 
2000	 0.519472731517308 
2001	 0.519897209881919 
2002	 0.520274840812327 
2003	 0.520615575496262 
2004	 0.52098275834235 
2005	 0.521353531261567 
2006	 0.521730356945255 
2007	 0.522073594018232 
2008	 0.522423135816411 
2009	 0.522750785256023 
2010	 0.523003125320363 
2011	 0.52331918011198 
2012	 0.523682409737472 
2013	 0.524021100925641 
2014	 0.524346400608777 
2015	 0.524719565808736 
2016	 0.525069250967548 
2017	 0.525403644717039 
2018	 0.525755700165274 
2019	 0.526123707927211 
2020	 0.526486225128595 
2021	 0.526863019931182 
2022	 0.527213451843418 
2023	 0.527548887933386 
2024	 0.527893533547477 
2025	 0.528242390635852 
2026	 0.528559375215637 
2027	 0.528852757900331 
2028	 0.529170588911784 
2029	 0.529477577738588 
2030	 0.529748290527223 
2031	 0.530052452706477 
2032	 0.530395280997313 
2033	 0.530697667044875 
2034	 0.530970926906258 
2035	 0.531276399973019 
2036	 0.53159412826499 
2037	 0.531897624401156 
2038	 0.532230763659279 
2039	 0.532522030357869 
2040	 0.532787220610817 
2041	 0.53302495524046 
2042	 0.53328215437502 
2043	 0.533518502501061 
2044	 0.53375454967051 
2045	 0.533979289347122 
2046	 0.534233301276556 
2047	 0.534491660761271 
2048	 0.534751301953589 
2049	 0.535043982289266 
2050	 0.535305685438123 
2051	 0.535544835532001 
2052	 0.535786926881229 
2053	 0.53603813505099 
2054	 0.536269416480301 
2055	 0.536490083403697 
2056	 0.536684710997539 
2057	 0.536905471310342 
2058	 0.537104058649224 
2059	 0.537349383168445 
2060	 0.53765737618762 
2061	 0.537898342195967 
2062	 0.538131431117065 
2063	 0.538353671493234 
2064	 0.538523291613437 
2065	 0.538723843277674 
2066	 0.538946638278898 
2067	 0.539158366322275 
2068	 0.539362273864327 
2069	 0.539576050752262 
2070	 0.539787555117586 
2071	 0.539997312962675 
2072	 0.540207106333105 
2073	 0.540413717901889 
2074	 0.54063347861293 
2075	 0.540864691612182 
2076	 0.541080414985262 
2077	 0.541303586515771 
2078	 0.54151886914439 
2079	 0.541709869487458 
2080	 0.541917110856981 
2081	 0.542126104495611 
2082	 0.542344247328808 
2083	 0.542572298871685 
2084	 0.542810030503542 
2085	 0.543024207732516 
2086	 0.543241645150511 
2087	 0.543446331402081 
2088	 0.543625900126982 
2089	 0.543818445442009 
2090	 0.544018918319232 
2091	 0.544207518868461 
2092	 0.544380187839956 
2093	 0.544567840240263 
2094	 0.54474763246723 
2095	 0.544948050223601 
2096	 0.545178255215871 
2097	 0.545392250764267 
2098	 0.545624478291412 
2099	 0.545824340182524 
2100	 0.546033179079195 
2101	 0.546227142547795 
2102	 0.546436281901889 
2103	 0.546641264061441 
2104	 0.546873138277583 
2105	 0.547112792772913 
2106	 0.54736931191895 
2107	 0.547658903538357 
2108	 0.547934663218783 
2109	 0.548227895074261 
2110	 0.548501119138707 
2111	 0.548756924075738 
2112	 0.549022245289285 
2113	 0.549312641006351 
2114	 0.549541627314543 
2115	 0.549793930960678 
2116	 0.55005708580497 
2117	 0.550297272964916 
2118	 0.550511116366528 
2119	 0.55075137995616 
2120	 0.550983269840629 
2121	 0.55123911839061 
2122	 0.551518576776373 
2123	 0.551791462741954 
2124	 0.552122217974119 
2125	 0.552364111851141 
2126	 0.552538524893391 
2127	 0.552746777684201 
2128	 0.552911133939572 
2129	 0.553088549981162 
2130	 0.553307703528273 
2131	 0.553526607983365 
2132	 0.553676668061416 
2133	 0.553783085356322 
2134	 0.553886218452315 
2135	 0.553974226022799 
2136	 0.554001509818435 
2137	 0.553968114965277 
2138	 0.553973760778429 
2139	 0.553966826872104 
2140	 0.553919193755289 
2141	 0.55389204986773 
2142	 0.553823296987226 
2143	 0.553677872415106 
2144	 0.553537474497771 
2145	 0.553426337410192 
2146	 0.553255719493914 
2147	 0.553030665836562 
2148	 0.552787642265993 
2149	 0.552533535626303 
2150	 0.552230962986787 
2151	 0.551965414449713 
2152	 0.551724422882211 
2153	 0.551434681179079 
2154	 0.551141691106019 
2155	 0.550819060278889 
2156	 0.550440409948809 
2157	 0.550086684520927 
2158	 0.549736725943892 
2159	 0.5493731877276 
2160	 0.549013051552657 
2161	 0.548632654716654 
2162	 0.548254118709458 
2163	 0.54783613628289 
2164	 0.547380302488255 
2165	 0.546912701690869 
2166	 0.546461591285992 
2167	 0.545983091691466 
2168	 0.545536199809974 
2169	 0.545116981880309 
2170	 0.544688967845063 
2171	 0.54424757653256 
2172	 0.543837603638309 
2173	 0.543458866728161 
2174	 0.543062040497213 
2175	 0.542670239416612 
2176	 0.54228218971623 
2177	 0.541892258601333 
2178	 0.541496660157587 
2179	 0.541156234536096 
2180	 0.540731219537992 
2181	 0.54021430352754 
2182	 0.539744399000536 
2183	 0.539266661702839 
2184	 0.538746460475518 
2185	 0.538279091626232 
2186	 0.53785385836542 
2187	 0.537432204914824 
2188	 0.537006314954673 
2189	 0.536615263365345 
2190	 0.536264264568669 
2191	 0.535913864344697 
2192	 0.535588325049142 
2193	 0.535243547484949 
2194	 0.534913832302417 
2195	 0.534564241685133 
2196	 0.534168431407385 
2197	 0.533820911347952 
2198	 0.533471367305924 
2199	 0.533162630380066 
2200	 0.532917525090927 
2201	 0.532656599960896 
2202	 0.532414484479874 
2203	 0.532159647826595 
2204	 0.531939467795081 
2205	 0.531716282299347 
2206	 0.531529803269774 
2207	 0.531392694615604 
2208	 0.531234512153215 
2209	 0.531086251850989 
2210	 0.530929319505834 
2211	 0.530768983938291 
2212	 0.530616446815166 
2213	 0.530465046792027 
2214	 0.530316457541431 
2215	 0.530191962753639 
2216	 0.530029651349828 
2217	 0.529829209843624 
2218	 0.529664145640936 
2219	 0.529521467686151 
2220	 0.529341195565561 
2221	 0.529159489465654 
2222	 0.528967966756617 
2223	 0.528788519112707 
2224	 0.528586768028196 
2225	 0.528376810574022 
2226	 0.528203544613184 
2227	 0.527967812252929 
2228	 0.527655208841347 
2229	 0.527402009671004 
2230	 0.527183264067199 
2231	 0.526905871268974 
2232	 0.526632634835383 
2233	 0.526310628891357 
2234	 0.525899542930486 
2235	 0.525549602490414 
2236	 0.525193268218001 
2237	 0.524864013927778 
2238	 0.524549663187846 
2239	 0.524271173443728 
2240	 0.524021838795397 
2241	 0.523783377522236 
2242	 0.52359257372649 
2243	 0.523393475670734 
2244	 0.52321837886383 
2245	 0.522993678067259 
2246	 0.522810708165676 
2247	 0.522622501778681 
2248	 0.52245830690157 
2249	 0.522307414275962 
2250	 0.522172305501415 
2251	 0.522060787072393 
2252	 0.521943370660289 
2253	 0.521818296114944 
2254	 0.521734851326929 
2255	 0.521660885209096 
2256	 0.52162164162521 
2257	 0.521614835682028 
2258	 0.521640451842252 
2259	 0.521707260908282 
2260	 0.521770411026646 
2261	 0.521884490039968 
2262	 0.521965354925932 
2263	 0.522030259300747 
2264	 0.522099294249708 
2265	 0.522173048991543 
2266	 0.522225635080072 
2267	 0.522286323775185 
2268	 0.522313473955087 
2269	 0.522310266329355 
2270	 0.522282727755474 
2271	 0.522246588077415 
2272	 0.522220395611234 
2273	 0.522262265576263 
2274	 0.522325983306263 
2275	 0.522387637239745 
2276	 0.522487574004756 
2277	 0.522577816637294 
2278	 0.522646475123141 
2279	 0.522755869551498 
2280	 0.522919252071678 
2281	 0.523023934299609 
2282	 0.523115405948778 
2283	 0.523213697661474 
2284	 0.523284179602653 
2285	 0.523365912203687 
2286	 0.523428108294406 
2287	 0.523559062535395 
2288	 0.523695848971695 
2289	 0.523892917826888 
2290	 0.524184598165247 
2291	 0.524457530206517 
2292	 0.524762528212279 
2293	 0.525055479986739 
2294	 0.525358052022221 
2295	 0.525656486909687 
2296	 0.525951890207436 
2297	 0.526236417331809 
2298	 0.526555063595582 
2299	 0.526849976359125 
2300	 0.527155304241325 
2301	 0.527448699411957 
2302	 0.527671023482713 
2303	 0.527912596656341 
2304	 0.528152852796093 
2305	 0.528403970111884 
2306	 0.52868191564354 
2307	 0.529006573972205 
2308	 0.529299643453372 
2309	 0.529602835324263 
2310	 0.529873825059145 
2311	 0.530129774919073 
2312	 0.530383219662781 
2313	 0.530593884810162 
2314	 0.530858218975285 
2315	 0.531162104169257 
2316	 0.531428806093165 
2317	 0.53168723195074 
2318	 0.531965515687558 
2319	 0.532238488570148 
2320	 0.532500017411849 
2321	 0.532758372193645 
2322	 0.533067643253817 
2323	 0.533383749468919 
2324	 0.533714157877618 
2325	 0.534077922903761 
2326	 0.534466597131302 
2327	 0.534892702453556 
2328	 0.53526702918555 
2329	 0.5356901605659 
2330	 0.536145312732643 
2331	 0.536420682130115 
2332	 0.536678941079102 
2333	 0.536976486932031 
2334	 0.53719915338268 
2335	 0.537465684455525 
2336	 0.537790628908465 
2337	 0.537992021678014 
2338	 0.538195303566941 
2339	 0.538464461490714 
2340	 0.538658914186337 
2341	 0.538861910810274 
2342	 0.539003863731997 
2343	 0.539052213174378 
2344	 0.539115340267073 
2345	 0.539173411540521 
2346	 0.539222989263583 
2347	 0.539275854591095 
2348	 0.539330672612864 
2349	 0.539364254963859 
2350	 0.539386236941866 
2351	 0.539383024531153 
2352	 0.539354359700956 
2353	 0.539323325344335 
2354	 0.539286210265032 
2355	 0.539240537811356 
2356	 0.539204800961912 
2357	 0.539116168016157 
2358	 0.539019234435983 
2359	 0.53882756459648 
2360	 0.538513191775708 
2361	 0.538281645099525 
2362	 0.537976573714566 
2363	 0.537780030701229 
2364	 0.537730465479971 
2365	 0.537596787933511 
2366	 0.537514562339849 
2367	 0.537337383266609 
2368	 0.537015973021316 
2369	 0.536788336607737 
2370	 0.536584162924935 
2371	 0.536339908786208 
2372	 0.536098122820541 
2373	 0.53585072061715 
2374	 0.535590147692214 
2375	 0.535350393861176 
2376	 0.535118448700638 
2377	 0.534938672933191 
2378	 0.534755666531333 
2379	 0.534457210135069 
2380	 0.534212984943761 
2381	 0.534024236583663 
2382	 0.533756643094645 
2383	 0.533512968340912 
2384	 0.533282086131944 
2385	 0.533009203276977 
2386	 0.532718584358288 
2387	 0.532406366496208 
2388	 0.53209310147993 
2389	 0.531806096326443 
2390	 0.531455694717567 
2391	 0.531140555124602 
2392	 0.530853194816359 
2393	 0.530483900909569 
2394	 0.530159610486245 
2395	 0.529811481879662 
2396	 0.529468552050142 
2397	 0.529106191137313 
2398	 0.5286637407818 
2399	 0.528292736287208 
2400	 0.527946526662744 
2401	 0.527566841500313 
2402	 0.527234532509873 
2403	 0.526908861583277 
2404	 0.526491585294661 
2405	 0.526065083573331 
2406	 0.525726999778785 
2407	 0.525367590943883 
2408	 0.525046643893863 
2409	 0.52484729669029 
2410	 0.524589148990975 
2411	 0.524332234253002 
2412	 0.524059296357165 
2413	 0.523796446128046 
2414	 0.523513223681595 
2415	 0.523108375480047 
2416	 0.52276419061874 
2417	 0.522364159671761 
2418	 0.522015937277548 
2419	 0.521797713242182 
2420	 0.521486864560131 
2421	 0.52116571681935 
2422	 0.520823156482549 
2423	 0.520332877913219 
2424	 0.519971575213544 
2425	 0.519672800385437 
2426	 0.519367287962516 
2427	 0.519114818381463 
2428	 0.518911179396703 
2429	 0.518737936191696 
2430	 0.518586456785759 
2431	 0.518534359310762 
2432	 0.518362674086983 
2433	 0.51808237248665 
2434	 0.517874910872716 
2435	 0.517762916086967 
2436	 0.51748968716909 
2437	 0.517170546372562 
2438	 0.516886750887864 
2439	 0.516361709865534 
2440	 0.516035848477447 
2441	 0.51589988671402 
2442	 0.515716561435799 
2443	 0.515593214475655 
2444	 0.515447007097343 
2445	 0.515333483308649 
2446	 0.515178640517469 
2447	 0.515033363069336 
2448	 0.514861558402506 
2449	 0.514564969163886 
2450	 0.514289478171672 
2451	 0.513981315503658 
2452	 0.513749804772137 
2453	 0.513688058318609 
2454	 0.51347669061167 
2455	 0.513175404230902 
2456	 0.512965939900599 
2457	 0.512680406471292 
2458	 0.512457661624313 
2459	 0.512384966941991 
2460	 0.512183109293553 
2461	 0.511855450383572 
2462	 0.51169020034083 
2463	 0.511644827475577 
2464	 0.511465369845916 
2465	 0.511295623428913 
2466	 0.510988934123317 
2467	 0.510504581833942 
2468	 0.510113452603304 
2469	 0.509705833860534 
2470	 0.509526488442471 
2471	 0.509272011715271 
2472	 0.509056319528534 
2473	 0.50893192493761 
2474	 0.508982789944762 
2475	 0.508968949425759 
2476	 0.508854890021062 
2477	 0.508610307557778 
2478	 0.508008819088265 
2479	 0.507416640251002 
2480	 0.507048646046286 
2481	 0.506790806830577 
2482	 0.506605689005575 
2483	 0.506486519733598 
2484	 0.506186568085529 
2485	 0.505699427256226 
2486	 0.505328075257082 
2487	 0.504915100205871 
2488	 0.504768019982447 
2489	 0.50493260533957 
2490	 0.504973105269427 
2491	 0.505193744558362 
2492	 0.505270320385117 
2493	 0.505205197512998 
2494	 0.50507871115737 
2495	 0.5045822941969 
2496	 0.504333827458167 
2497	 0.504055146499344 
2498	 0.503611157985237 
2499	 0.503463246561265 
2500	 0.503288914789034 
