Wavelength	LMW_1700002.asd
350	 0.059636509240999 
351	 5.57400798642275E-02 
352	 4.97152549665254E-02 
353	 4.86119765495202E-02 
354	 0.052744585213149 
355	 5.41693788215042E-02 
356	 5.11354697120545E-02 
357	 4.69183932129163E-02 
358	 5.69717264862484E-02 
359	 5.88608377341808E-02 
360	 5.36279143344754E-02 
361	 5.62045581304562E-02 
362	 5.06368208973889E-02 
363	 0.050241579213185 
364	 5.75543255192295E-02 
365	 5.31922836707133E-02 
366	 4.91230204238404E-02 
367	 5.03844175181903E-02 
368	 0.056818451672333 
369	 5.72597252406195E-02 
370	 5.58090928830938E-02 
371	 5.51727555072409E-02 
372	 5.65019702810769E-02 
373	 5.86945491540078E-02 
374	 5.94248253772401E-02 
375	 0.05885581865171 
376	 6.18164100941794E-02 
377	 6.05564582793529E-02 
378	 5.90301989662994E-02 
379	 6.21938094446384E-02 
380	 6.37897938325846E-02 
381	 6.53535920485057E-02 
382	 6.63855109975231E-02 
383	 6.50097345198483E-02 
384	 6.37080760074029E-02 
385	 6.38254734380627E-02 
386	 6.52778232508107E-02 
387	 6.58956929211754E-02 
388	 6.49392852227133E-02 
389	 6.37154277330555E-02 
390	 6.40142229040403E-02 
391	 0.066040233236543 
392	 6.86155947091025E-02 
393	 7.07651274673078E-02 
394	 7.18646180813198E-02 
395	 7.17974073477314E-02 
396	 0.071067549437498 
397	 0.070904265456326 
398	 7.43303114741396E-02 
399	 7.52570301772041E-02 
400	 7.56733454102419E-02 
401	 7.89445780420285E-02 
402	 7.79517464467102E-02 
403	 7.72271989136733E-02 
404	 7.81234695605911E-02 
405	 0.078153740122851 
406	 7.80766946638643E-02 
407	 7.82755315531793E-02 
408	 7.88231266714907E-02 
409	 7.91208302806777E-02 
410	 7.98871522783257E-02 
411	 8.06862988761699E-02 
412	 8.08161396949909E-02 
413	 8.19749135245505E-02 
414	 8.19297374828544E-02 
415	 8.08958876144914E-02 
416	 8.25665541983694E-02 
417	 8.34334062021655E-02 
418	 8.33523507323745E-02 
419	 8.31745807769183E-02 
420	 8.41745744963099E-02 
421	 8.45555519183899E-02 
422	 8.45762958610219E-02 
423	 8.56323170336604E-02 
424	 8.57736013758899E-02 
425	 8.57567854366821E-02 
426	 0.086163636834633 
427	 8.66215090704539E-02 
428	 8.73981268263387E-02 
429	 8.81370231635511E-02 
430	 8.83954313888214E-02 
431	 8.82680004597475E-02 
432	 8.82344312906406E-02 
433	 0.088551141258667 
434	 8.92104508568542E-02 
435	 8.90542728655434E-02 
436	 8.90092652260833E-02 
437	 8.97055324899265E-02 
438	 8.99511197414178E-02 
439	 8.98167736537996E-02 
440	 8.98405336780474E-02 
441	 9.06036591555259E-02 
442	 9.08897885556866E-02 
443	 9.10774940796092E-02 
444	 9.14039763054064E-02 
445	 9.16478940978179E-02 
446	 9.17988486339065E-02 
447	 0.092046943762732 
448	 9.24894712962439E-02 
449	 9.25718010541343E-02 
450	 9.26831852964912E-02 
451	 9.30137988977394E-02 
452	 9.35267875209809E-02 
453	 9.37225877622786E-02 
454	 9.36558364419179E-02 
455	 9.35847909462491E-02 
456	 9.40113369271446E-02 
457	 9.43709661508453E-02 
458	 9.46721911470867E-02 
459	 9.51153944036062E-02 
460	 9.52668345350438E-02 
461	 9.53185250293231E-02 
462	 9.54698303218473E-02 
463	 9.58552767595938E-02 
464	 9.59464067366864E-02 
465	 9.60013568396288E-02 
466	 9.63606154008881E-02 
467	 9.67531758746404E-02 
468	 9.71670168355758E-02 
469	 9.74496789979153E-02 
470	 9.73919246454872E-02 
471	 9.77709237148063E-02 
472	 9.81095037602705E-02 
473	 9.80893109536043E-02 
474	 9.82649415795488E-02 
475	 9.84798155845914E-02 
476	 9.86141475168053E-02 
477	 9.86320620886842E-02 
478	 0.099060963730398 
479	 9.94316531370694E-02 
480	 9.96697774994222E-02 
481	 0.100377370508947 
482	 0.100568358172555 
483	 0.1006031729508 
484	 0.100969406408538 
485	 0.101045927555202 
486	 0.101087843785075 
487	 0.101228902026368 
488	 0.101472341500298 
489	 0.10166946901943 
490	 0.101846997730191 
491	 0.102055478550144 
492	 0.102345413645117 
493	 0.102425122434092 
494	 0.102481370928403 
495	 0.102839444228278 
496	 0.102968158748549 
497	 0.103088159413251 
498	 0.103364415966101 
499	 0.103793761182847 
500	 0.103814818341341 
501	 0.103701783985646 
502	 0.103867567456009 
503	 0.104117155972494 
504	 0.104385092176773 
505	 0.104579531757435 
506	 0.104602010450861 
507	 0.104794237678807 
508	 0.105101315746872 
509	 0.105385939853343 
510	 0.105523271405409 
511	 0.10558034610832 
512	 0.105650412758061 
513	 0.10582285236396 
514	 0.106017643745007 
515	 0.106126352051671 
516	 0.106161537238608 
517	 0.106340287534969 
518	 0.106579570322776 
519	 0.10671600112504 
520	 0.106658448022111 
521	 0.106828702511087 
522	 0.107036225938779 
523	 0.107177698645232 
524	 0.107279251188546 
525	 0.107401939782874 
526	 0.107504489413665 
527	 0.107571329606308 
528	 0.107749965837198 
529	 0.107923483841152 
530	 0.108045863498708 
531	 0.108122927448561 
532	 0.108142631363918 
533	 0.108280419121928 
534	 0.108567695014272 
535	 0.108705651164305 
536	 0.108702927305547 
537	 0.108693993632911 
538	 0.108835510901855 
539	 0.108996402459237 
540	 0.109077921246727 
541	 0.109110679126714 
542	 0.109288917981066 
543	 0.109463556473922 
544	 0.109636707969861 
545	 0.109823876863471 
546	 0.109935425186459 
547	 0.109985234560852 
548	 0.110027899554512 
549	 0.110142080870213 
550	 0.11024164824883 
551	 0.110295647141952 
552	 0.110335912687447 
553	 0.110546418501391 
554	 0.110646040930693 
555	 0.110683869523276 
556	 0.110862566654061 
557	 0.111055938615652 
558	 0.111242265335971 
559	 0.111406195799182 
560	 0.111523851938807 
561	 0.111576034518081 
562	 0.111638632803646 
563	 0.111793749754151 
564	 0.111982119106989 
565	 0.112021828985388 
566	 0.111913197424236 
567	 0.11186355074091 
568	 0.111959704739742 
569	 0.112117635247489 
570	 0.11224843880216 
571	 0.112422416491367 
572	 0.112600121271992 
573	 0.112751422336855 
574	 0.112856901767649 
575	 0.112930967520478 
576	 0.113016756603975 
577	 0.113105844598917 
578	 0.113058784113487 
579	 0.113024711440683 
580	 0.112988506396825 
581	 0.112887407012737 
582	 0.112839570348673 
583	 0.112832631924802 
584	 0.11288239395544 
585	 0.113065518776281 
586	 0.113239642609113 
587	 0.1133951862421 
588	 0.113550737148056 
589	 0.113650343083053 
590	 0.113802756198094 
591	 0.11398847312971 
592	 0.114074882685617 
593	 0.114171430071525 
594	 0.11433243698466 
595	 0.114519546117477 
596	 0.114475311959555 
597	 0.114403858772709 
598	 0.114340597879116 
599	 0.114241832604927 
600	 0.114214538144446 
601	 0.11423533275181 
602	 0.114265317891481 
603	 0.114262373708509 
604	 0.114313561671201 
605	 0.114419163292113 
606	 0.114532251418028 
607	 0.114533433871988 
608	 0.114605949002922 
609	 0.114788392635086 
610	 0.114935566438634 
611	 0.114999544964091 
612	 0.115035877202887 
613	 0.11509518862294 
614	 0.11510422170996 
615	 0.115097205559255 
616	 0.115116070978958 
617	 0.115199479950515 
618	 0.115290845006226 
619	 0.115343406211752 
620	 0.115354815584962 
621	 0.115412304282473 
622	 0.115460337798524 
623	 0.115497368779296 
624	 0.115546700413802 
625	 0.115655876969245 
626	 0.115730354445377 
627	 0.115754041932954 
628	 0.11582814407649 
629	 0.115865186044655 
630	 0.115901157883983 
631	 0.115975836777204 
632	 0.116009325463453 
633	 0.116044947701504 
634	 0.116107812405751 
635	 0.116202175510761 
636	 0.116286019806867 
637	 0.116339182411301 
638	 0.116365010631187 
639	 0.116406314871405 
640	 0.116480980037309 
641	 0.116562477678095 
642	 0.116616774717188 
643	 0.116753709280181 
644	 0.116812323271743 
645	 0.116783274081497 
646	 0.116913084658447 
647	 0.11699302431825 
648	 0.117021069610134 
649	 0.117053810630483 
650	 0.1171258275761 
651	 0.117204946389453 
652	 0.117283498037541 
653	 0.117373758080379 
654	 0.117417112158855 
655	 0.11743403273661 
656	 0.117459901273751 
657	 0.11752796123386 
658	 0.117615658767132 
659	 0.117693559719927 
660	 0.117735437299085 
661	 0.117763616248411 
662	 0.117853048010129 
663	 0.117993488400148 
664	 0.118047633754842 
665	 0.118070472229046 
666	 0.118118137251895 
667	 0.118212396981364 
668	 0.118221539474057 
669	 0.118261595371444 
670	 0.118346476844918 
671	 0.118403618649644 
672	 0.118491636845914 
673	 0.11855657230684 
674	 0.118575793699856 
675	 0.118638858514694 
676	 0.118761228643918 
677	 0.118847017882 
678	 0.11879735706949 
679	 0.11887466157088 
680	 0.118947703560248 
681	 0.11897139527042 
682	 0.119056821935701 
683	 0.119110813645809 
684	 0.119155680391671 
685	 0.119222864735006 
686	 0.119269399215514 
687	 0.119276787092114 
688	 0.119293495035651 
689	 0.119397696474549 
690	 0.119416604244192 
691	 0.119454664006438 
692	 0.119554209241049 
693	 0.119545072858372 
694	 0.119592920808315 
695	 0.119650852773997 
696	 0.119636547404186 
697	 0.119721688871262 
698	 0.119801683173384 
699	 0.119826315035689 
700	 0.11982195518838 
701	 0.119851045489307 
702	 0.119903785672396 
703	 0.119940161392985 
704	 0.119871532080404 
705	 0.119903337815297 
706	 0.119992865042877 
707	 0.119988750346219 
708	 0.120035794179834 
709	 0.12009229988665 
710	 0.120119684550166 
711	 0.120110397621797 
712	 0.120130262419306 
713	 0.120162334962959 
714	 0.120174600448745 
715	 0.120175145232785 
716	 0.120190442903013 
717	 0.120213342039727 
718	 0.120216445807064 
719	 0.120246760911498 
720	 0.12029742310232 
721	 0.120336566122079 
722	 0.120293957984391 
723	 0.120293337622741 
724	 0.120334979259509 
725	 0.120367499539353 
726	 0.120319885615851 
727	 0.120304890187233 
728	 0.12033905153998 
729	 0.120343762743617 
730	 0.120351817919274 
731	 0.120347690924578 
732	 0.120329619821164 
733	 0.120350515624185 
734	 0.120344399604969 
735	 0.120321699406832 
736	 0.120317110599494 
737	 0.120299358460815 
738	 0.120296161811575 
739	 0.120305549550401 
740	 0.12029069561986 
741	 0.120292017985844 
742	 0.120295310268513 
743	 0.120279951912461 
744	 0.120236585513966 
745	 0.120202993763771 
746	 0.120204902763704 
747	 0.120244187320058 
748	 0.120217182557442 
749	 0.120192168555757 
750	 0.120192601856248 
751	 0.120169281645275 
752	 0.120126375761466 
753	 0.120104933279926 
754	 0.120122593123214 
755	 0.120101988877498 
756	 0.120092910313357 
757	 0.120092004088979 
758	 0.120074816694547 
759	 0.120081185236475 
760	 0.120049589145364 
761	 0.119988694391001 
762	 0.120002686326213 
763	 0.120007121183438 
764	 0.119994978094523 
765	 0.119981362969454 
766	 0.119995276388282 
767	 0.119973789522195 
768	 0.119940743254229 
769	 0.119950686082833 
770	 0.11992977930134 
771	 0.119915829902524 
772	 0.119913486849282 
773	 0.119878233606481 
774	 0.119881143547458 
775	 0.119870684521962 
776	 0.119812401238747 
777	 0.119794534288609 
778	 0.11977080745584 
779	 0.119758190624809 
780	 0.11978490688944 
781	 0.119764271250342 
782	 0.119757007371559 
783	 0.119761433152784 
784	 0.119704733573305 
785	 0.119706612327243 
786	 0.119721302005064 
787	 0.119698737045968 
788	 0.119652627049941 
789	 0.119645628248256 
790	 0.119647526448377 
791	 0.119612669779056 
792	 0.119633984661733 
793	 0.119582657293754 
794	 0.11948959106768 
795	 0.11951687249533 
796	 0.119535773583612 
797	 0.11951569060849 
798	 0.119476062907933 
799	 0.119499164615523 
800	 0.119502041638322 
801	 0.119469746768019 
802	 0.11941631577776 
803	 0.119375803386729 
804	 0.119338465040621 
805	 0.119322374671727 
806	 0.119349474534344 
807	 0.11932722829427 
808	 0.119283194759608 
809	 0.119252142754476 
810	 0.119257296265414 
811	 0.119254966180195 
812	 0.119249979661181 
813	 0.119249137637274 
814	 0.119236100156973 
815	 0.119180897451241 
816	 0.119136994938781 
817	 0.11916462535128 
818	 0.119160699962362 
819	 0.119137622330227 
820	 0.119101898631744 
821	 0.1190540469691 
822	 0.119040809660132 
823	 0.119038703874449 
824	 0.119029336532388 
825	 0.119022151278718 
826	 0.119000260740643 
827	 0.1189670921051 
828	 0.118938380537365 
829	 0.118950531593779 
830	 0.118949145584906 
831	 0.118936850868975 
832	 0.11893129077108 
833	 0.118846175251859 
834	 0.118804276946048 
835	 0.118826370060924 
836	 0.118827164627363 
837	 0.118844862041297 
838	 0.118862885665553 
839	 0.118844053906021 
840	 0.118728220618858 
841	 0.118696271517873 
842	 0.118726962155721 
843	 0.118744131504941 
844	 0.118695016125506 
845	 0.11869118328832 
846	 0.118710162471394 
847	 0.118682076508159 
848	 0.118667183265906 
849	 0.11865220569613 
850	 0.118639463468846 
851	 0.118643244172271 
852	 0.11862375387867 
853	 0.118602085497218 
854	 0.118593505427173 
855	 0.118591286485094 
856	 0.118558134509415 
857	 0.118542906327763 
858	 0.118577805549551 
859	 0.118603466295809 
860	 0.118609280820441 
861	 0.11856169554961 
862	 0.118467291584014 
863	 0.118515670441933 
864	 0.118553553622191 
865	 0.118540350075483 
866	 0.118516264503896 
867	 0.118494880472566 
868	 0.118501971084001 
869	 0.11853253567478 
870	 0.118547401707984 
871	 0.118475213081457 
872	 0.118443398298814 
873	 0.118489897343849 
874	 0.11845890944632 
875	 0.118481061447567 
876	 0.118495011180431 
877	 0.118445245399257 
878	 0.118408960326597 
879	 0.11842613930676 
880	 0.11845321310683 
881	 0.118438830818889 
882	 0.118446391411814 
883	 0.118445967320474 
884	 0.118408341861572 
885	 0.118329485471756 
886	 0.118332197804133 
887	 0.118356576799105 
888	 0.118356583782883 
889	 0.118325712740361 
890	 0.118396357287502 
891	 0.11840618051865 
892	 0.118324246662198 
893	 0.118322724011561 
894	 0.1183392141279 
895	 0.118352093031997 
896	 0.118352780593737 
897	 0.118345700849506 
898	 0.118371828372388 
899	 0.118382082874123 
900	 0.11834462996352 
901	 0.118333941924303 
902	 0.118367974078077 
903	 0.1183610407878 
904	 0.118258382327934 
905	 0.118252889910691 
906	 0.118300345918461 
907	 0.118359328028913 
908	 0.118399312739314 
909	 0.118447820154054 
910	 0.118435250888457 
911	 0.118396491268306 
912	 0.11841405164173 
913	 0.118361616515146 
914	 0.118393925811078 
915	 0.118460264382831 
916	 0.118350404046123 
917	 0.118313675514611 
918	 0.118375535627572 
919	 0.118440397528083 
920	 0.118338587979997 
921	 0.118319934502395 
922	 0.118373689004871 
923	 0.118436780771394 
924	 0.118445165315768 
925	 0.118438551722668 
926	 0.118454704636409 
927	 0.118489747235037 
928	 0.118467929952482 
929	 0.118421889522004 
930	 0.118388761505641 
931	 0.118392568820381 
932	 0.118422898104431 
933	 0.118483652344083 
934	 0.118488024843185 
935	 0.118408221963964 
936	 0.11845801070936 
937	 0.118425797799596 
938	 0.118382950457266 
939	 0.118442166166417 
940	 0.118517313454126 
941	 0.118573016275103 
942	 0.118621825108195 
943	 0.118662959246845 
944	 0.118551261864522 
945	 0.118458670877401 
946	 0.118471032562394 
947	 0.118570580392403 
948	 0.118532980701858 
949	 0.118491665372903 
950	 0.118494477383459 
951	 0.118530392021332 
952	 0.11858281085571 
953	 0.118598567040197 
954	 0.118596972076202 
955	 0.118614828058829 
956	 0.118533950517405 
957	 0.11848928937509 
958	 0.118529648534237 
959	 0.118630976390353 
960	 0.118782645424457 
961	 0.118785321715865 
962	 0.118672215408282 
963	 0.118621205306462 
964	 0.118625836964872 
965	 0.118662297006047 
966	 0.118680050868739 
967	 0.118641719218004 
968	 0.118673655188936 
969	 0.118618067768916 
970	 0.118567777600446 
971	 0.118706591620516 
972	 0.11862263833912 
973	 0.118585010215632 
974	 0.118666838306909 
975	 0.11875914962529 
976	 0.118760802992736 
977	 0.11872032118318 
978	 0.118681046494404 
979	 0.118664980896246 
980	 0.118644527258098 
981	 0.118675272438203 
982	 0.118718991127282 
983	 0.118696116479643 
984	 0.118649766086207 
985	 0.118600676692034 
986	 0.118587982535141 
987	 0.118645052483541 
988	 0.118761920760027 
989	 0.118692113183574 
990	 0.118543977197937 
991	 0.118541512178951 
992	 0.118473137617545 
993	 0.118601912356517 
994	 0.118774566913565 
995	 0.118747761609177 
996	 0.118756633021269 
997	 0.118816331281471 
998	 0.118806030239642 
999	 0.118682243810052 
1000	 0.118845751201847 
1001	 0.117450133926119 
1002	 0.117549847582518 
1003	 0.117533654803958 
1004	 0.117527076134294 
1005	 0.117517409669218 
1006	 0.11750877535232 
1007	 0.117461060887584 
1008	 0.117443563316739 
1009	 0.117465341572114 
1010	 0.117537257554232 
1011	 0.117590327119757 
1012	 0.11758921179724 
1013	 0.117592781606634 
1014	 0.11756435185921 
1015	 0.117463428487063 
1016	 0.117472810997876 
1017	 0.117493959863234 
1018	 0.117570997332561 
1019	 0.117534141834249 
1020	 0.117523463687732 
1021	 0.117530003547774 
1022	 0.117503781102395 
1023	 0.11754656646645 
1024	 0.117628663673358 
1025	 0.117653364221086 
1026	 0.117613880729314 
1027	 0.117578516791674 
1028	 0.117549668660711 
1029	 0.117481188023316 
1030	 0.117454670616842 
1031	 0.117477641694352 
1032	 0.1175359491224 
1033	 0.11757924639237 
1034	 0.117658408166829 
1035	 0.117736103256965 
1036	 0.117709092081261 
1037	 0.117632592500671 
1038	 0.117568743583081 
1039	 0.117545503590511 
1040	 0.11753794391881 
1041	 0.117518248329146 
1042	 0.117543215113189 
1043	 0.117525246517869 
1044	 0.117513062120273 
1045	 0.117476994815279 
1046	 0.117527399372075 
1047	 0.117562822069504 
1048	 0.117607780168559 
1049	 0.117678872072889 
1050	 0.117704769959566 
1051	 0.117715529382473 
1052	 0.117727598478091 
1053	 0.117723643579712 
1054	 0.117722429142098 
1055	 0.117682349822072 
1056	 0.117635921920188 
1057	 0.117645091127355 
1058	 0.117685998739509 
1059	 0.117715271962244 
1060	 0.117793102259889 
1061	 0.117839131501988 
1062	 0.11783872179805 
1063	 0.117872504461599 
1064	 0.117874868245383 
1065	 0.117880895521424 
1066	 0.117857065460369 
1067	 0.117799005014612 
1068	 0.117821792951683 
1069	 0.117868608095711 
1070	 0.117885434376989 
1071	 0.117941826520023 
1072	 0.117947652174346 
1073	 0.117867359787494 
1074	 0.117860091881244 
1075	 0.117880266230645 
1076	 0.117913487069642 
1077	 0.117936733828207 
1078	 0.117926861242609 
1079	 0.117880545650074 
1080	 0.117835376181799 
1081	 0.117807142809554 
1082	 0.117799338510021 
1083	 0.117795187867402 
1084	 0.117812768069239 
1085	 0.117806497694605 
1086	 0.117799870292932 
1087	 0.117777049763053 
1088	 0.117731517794955 
1089	 0.117707631827194 
1090	 0.117681915177158 
1091	 0.117672211707049 
1092	 0.117671001323023 
1093	 0.117682617142672 
1094	 0.117678444815528 
1095	 0.117653253478995 
1096	 0.117635107320602 
1097	 0.117587220189301 
1098	 0.117571605731273 
1099	 0.117570351658458 
1100	 0.117568005418464 
1101	 0.117575916806887 
1102	 0.117592432301321 
1103	 0.117615656961405 
1104	 0.117622946334642 
1105	 0.117647496887751 
1106	 0.117686908849881 
1107	 0.117699949623291 
1108	 0.117732102822823 
1109	 0.117768378565859 
1110	 0.117772234026458 
1111	 0.117795125434172 
1112	 0.117825555790579 
1113	 0.117844975237766 
1114	 0.117862733815167 
1115	 0.117887496552616 
1116	 0.117897030313159 
1117	 0.117919641678724 
1118	 0.117944059155304 
1119	 0.117994129182985 
1120	 0.118062964370763 
1121	 0.118128541073294 
1122	 0.118139080394261 
1123	 0.118161469176298 
1124	 0.118201591911449 
1125	 0.118214897744544 
1126	 0.118254300645926 
1127	 0.118347461676109 
1128	 0.118393246633567 
1129	 0.118405646995657 
1130	 0.118441424329994 
1131	 0.118488493352151 
1132	 0.11852252621155 
1133	 0.118543395469582 
1134	 0.118578525205314 
1135	 0.118619937516276 
1136	 0.118652748052511 
1137	 0.118693686881855 
1138	 0.118730743484609 
1139	 0.118755549708738 
1140	 0.118753612123383 
1141	 0.118789568632377 
1142	 0.11884493163837 
1143	 0.118879805232876 
1144	 0.11892419171582 
1145	 0.118954904383628 
1146	 0.118954972730382 
1147	 0.118981663360756 
1148	 0.119032622067577 
1149	 0.119064981354296 
1150	 0.119095311324238 
1151	 0.119126438693454 
1152	 0.119138149177361 
1153	 0.119144389625022 
1154	 0.119169868381448 
1155	 0.119208572813777 
1156	 0.119231972366595 
1157	 0.119264328483671 
1158	 0.119280976000695 
1159	 0.119275672339723 
1160	 0.119285682181661 
1161	 0.119292180284938 
1162	 0.11931114923449 
1163	 0.119341345460929 
1164	 0.119368400219521 
1165	 0.119401731272733 
1166	 0.119438236829498 
1167	 0.119451622304319 
1168	 0.119472234006392 
1169	 0.119506133112472 
1170	 0.119546451742881 
1171	 0.11957665892434 
1172	 0.119623665990058 
1173	 0.119647373954222 
1174	 0.119645185598333 
1175	 0.119657540049333 
1176	 0.119669957677739 
1177	 0.119686497384705 
1178	 0.119698101420877 
1179	 0.119723768016649 
1180	 0.119763658344988 
1181	 0.119795322975188 
1182	 0.119827072861539 
1183	 0.119872158576045 
1184	 0.119903871028415 
1185	 0.119928400282509 
1186	 0.119953038520789 
1187	 0.119967456598238 
1188	 0.120003288777477 
1189	 0.120052751412163 
1190	 0.120086585239683 
1191	 0.120132153950017 
1192	 0.120162242625349 
1193	 0.120164820068981 
1194	 0.120185427699617 
1195	 0.120213165693834 
1196	 0.120239972076845 
1197	 0.120264868104257 
1198	 0.120298792778308 
1199	 0.120337482651925 
1200	 0.120382835013686 
1201	 0.120418245152276 
1202	 0.120456761198341 
1203	 0.120493589642451 
1204	 0.120526715398334 
1205	 0.120553196667632 
1206	 0.120579355065719 
1207	 0.120604831583021 
1208	 0.120617366712285 
1209	 0.120638549444185 
1210	 0.120670559561536 
1211	 0.120695611220461 
1212	 0.120710020006883 
1213	 0.1207361281076 
1214	 0.120765527369953 
1215	 0.120798558378126 
1216	 0.120836670186276 
1217	 0.120886917927624 
1218	 0.120925394482651 
1219	 0.120963358428853 
1220	 0.120997438146199 
1221	 0.121021251282154 
1222	 0.121058702597026 
1223	 0.121108143524964 
1224	 0.121141152956407 
1225	 0.121170407395354 
1226	 0.12120293568985 
1227	 0.121226648020515 
1228	 0.121251682443919 
1229	 0.121280776367465 
1230	 0.121311835133337 
1231	 0.121340261736013 
1232	 0.121367999144748 
1233	 0.121397301866679 
1234	 0.121433242302022 
1235	 0.121465434176313 
1236	 0.121489656832312 
1237	 0.12152609313032 
1238	 0.121578167723606 
1239	 0.12161009290152 
1240	 0.121639678637382 
1241	 0.121663180288921 
1242	 0.121666283572552 
1243	 0.121684074855925 
1244	 0.121703960233292 
1245	 0.121730482168865 
1246	 0.121767991912831 
1247	 0.121799301637192 
1248	 0.121828536741839 
1249	 0.121864217192638 
1250	 0.121903637763368 
1251	 0.12193317652371 
1252	 0.121971786341313 
1253	 0.122027887127405 
1254	 0.122053219026056 
1255	 0.122057141942425 
1256	 0.122084006920763 
1257	 0.122110388255934 
1258	 0.122129494667104 
1259	 0.122159988923744 
1260	 0.122184384608454 
1261	 0.122184317899205 
1262	 0.122202920960592 
1263	 0.12224853091269 
1264	 0.12227233934429 
1265	 0.122280844484369 
1266	 0.122302582019388 
1267	 0.122323814924104 
1268	 0.122337979683658 
1269	 0.122366741598188 
1270	 0.122415826044116 
1271	 0.122441519316047 
1272	 0.122452624540387 
1273	 0.122487049392896 
1274	 0.122523636819288 
1275	 0.122563339375272 
1276	 0.122620092642797 
1277	 0.122671832225474 
1278	 0.122719914754037 
1279	 0.122768283657515 
1280	 0.122823282486626 
1281	 0.122872312670401 
1282	 0.122909890498034 
1283	 0.122958388732023 
1284	 0.123013801772824 
1285	 0.123065247770297 
1286	 0.123126714612099 
1287	 0.123187761535886 
1288	 0.12324947680246 
1289	 0.123315359181149 
1290	 0.12337332448263 
1291	 0.123436009371012 
1292	 0.123476991948213 
1293	 0.123499683604271 
1294	 0.123534415457122 
1295	 0.123562567298378 
1296	 0.123590357491446 
1297	 0.123620938560372 
1298	 0.1236525060354 
1299	 0.123681601316249 
1300	 0.123706837024252 
1301	 0.123739174090765 
1302	 0.123762715830364 
1303	 0.123776516512211 
1304	 0.123789829051529 
1305	 0.123787782294539 
1306	 0.123793959079671 
1307	 0.123795784686819 
1308	 0.123779472300566 
1309	 0.123776576431939 
1310	 0.123777845344591 
1311	 0.123780400941804 
1312	 0.12378993850222 
1313	 0.123791250582655 
1314	 0.123784125499468 
1315	 0.123787867987121 
1316	 0.123795431971683 
1317	 0.123800480754597 
1318	 0.123816009693707 
1319	 0.123823554509654 
1320	 0.123821856687854 
1321	 0.123819766322608 
1322	 0.123811429347049 
1323	 0.123811136076037 
1324	 0.123819162564491 
1325	 0.123823744274368 
1326	 0.123841468801659 
1327	 0.123880882053578 
1328	 0.12391045522937 
1329	 0.123947003951363 
1330	 0.123978811248655 
1331	 0.124002870699067 
1332	 0.124037296937579 
1333	 0.124082240732913 
1334	 0.124115590777691 
1335	 0.12414507982906 
1336	 0.124184208815543 
1337	 0.124222487648724 
1338	 0.124256512714457 
1339	 0.124291266843443 
1340	 0.124336910156289 
1341	 0.124381217770596 
1342	 0.124428873132323 
1343	 0.124494705327147 
1344	 0.124549105001133 
1345	 0.12458966991611 
1346	 0.124632367606128 
1347	 0.124684115493839 
1348	 0.124737191028654 
1349	 0.124790044131307 
1350	 0.124849565396964 
1351	 0.124908594659241 
1352	 0.124962650809874 
1353	 0.1250262260388 
1354	 0.12510767753642 
1355	 0.12516553625486 
1356	 0.125209379085459 
1357	 0.125265322784141 
1358	 0.125309011587734 
1359	 0.125370015994219 
1360	 0.125457314830918 
1361	 0.125522155794409 
1362	 0.125589307220122 
1363	 0.125642377493033 
1364	 0.125670287230287 
1365	 0.125711910001026 
1366	 0.125763723409115 
1367	 0.125795079450458 
1368	 0.125817852981357 
1369	 0.125852597884727 
1370	 0.125877823348924 
1371	 0.125893845171252 
1372	 0.125925239599617 
1373	 0.125956838052511 
1374	 0.125981380792818 
1375	 0.126002166058817 
1376	 0.126022050047676 
1377	 0.126039641955272 
1378	 0.126055106231671 
1379	 0.126062832490306 
1380	 0.126078658366271 
1381	 0.126097195032751 
1382	 0.126112664411017 
1383	 0.126136749994437 
1384	 0.126150943862402 
1385	 0.126156262758862 
1386	 0.126165715630624 
1387	 0.126181240208963 
1388	 0.126178935276986 
1389	 0.126169069807247 
1390	 0.126152420888746 
1391	 0.126133226344399 
1392	 0.126118099239607 
1393	 0.126099642335764 
1394	 0.12606878610733 
1395	 0.126030751365578 
1396	 0.125985254943794 
1397	 0.125937051575085 
1398	 0.125895383684926 
1399	 0.125833887882286 
1400	 0.125745541293167 
1401	 0.125686478312894 
1402	 0.125643188454813 
1403	 0.125571710869213 
1404	 0.125501882057373 
1405	 0.125424280025591 
1406	 0.125305974679861 
1407	 0.125226971836519 
1408	 0.125170805927476 
1409	 0.125112647259059 
1410	 0.12505619085355 
1411	 0.125017252695432 
1412	 0.12498311655829 
1413	 0.124972091662024 
1414	 0.124970938329256 
1415	 0.124972596476219 
1416	 0.124970278525291 
1417	 0.124967895044462 
1418	 0.124967781685859 
1419	 0.124969365130328 
1420	 0.124985698877003 
1421	 0.124994364742121 
1422	 0.124995021890303 
1423	 0.125007210892871 
1424	 0.125021862631538 
1425	 0.12503278328354 
1426	 0.125054906989382 
1427	 0.125098079475601 
1428	 0.125118739394377 
1429	 0.125132839125052 
1430	 0.125143140615534 
1431	 0.125133628452191 
1432	 0.125142219733052 
1433	 0.125151476030392 
1434	 0.125178704607647 
1435	 0.125233660998964 
1436	 0.125265794397803 
1437	 0.125293844848788 
1438	 0.125324422051324 
1439	 0.125338978183551 
1440	 0.125368308392909 
1441	 0.125411803619548 
1442	 0.125456242784438 
1443	 0.125491232627517 
1444	 0.12551240898694 
1445	 0.125538480803283 
1446	 0.125567202827721 
1447	 0.125588967395513 
1448	 0.125629154437974 
1449	 0.125672697772468 
1450	 0.125698925368855 
1451	 0.125734521467311 
1452	 0.125777484813415 
1453	 0.125815768278846 
1454	 0.125851495878631 
1455	 0.125888402783616 
1456	 0.125927527567077 
1457	 0.125962404813882 
1458	 0.125999106123983 
1459	 0.126027828386833 
1460	 0.12604708632793 
1461	 0.126072515944104 
1462	 0.126092452857757 
1463	 0.126116809520115 
1464	 0.126146300785773 
1465	 0.12617772789438 
1466	 0.12621761050407 
1467	 0.126246149512847 
1468	 0.126266192135783 
1469	 0.126296140136437 
1470	 0.126323908019026 
1471	 0.126352543386649 
1472	 0.126381796602544 
1473	 0.12641798294904 
1474	 0.126457077323595 
1475	 0.126482799476963 
1476	 0.126509734642727 
1477	 0.126535553799626 
1478	 0.126549746114082 
1479	 0.126568422336805 
1480	 0.126607602554873 
1481	 0.126647069499396 
1482	 0.126681048596814 
1483	 0.12671653024501 
1484	 0.126748879186733 
1485	 0.126768929340418 
1486	 0.126815564549486 
1487	 0.12688655322277 
1488	 0.126922772668851 
1489	 0.126955248294534 
1490	 0.126984285308181 
1491	 0.126983121417166 
1492	 0.127008736118592 
1493	 0.127056003466649 
1494	 0.12709024535836 
1495	 0.127126774730908 
1496	 0.127154060760107 
1497	 0.127173477273495 
1498	 0.127197046637368 
1499	 0.127211121256714 
1500	 0.127233951027373 
1501	 0.127266455968907 
1502	 0.127294133793458 
1503	 0.127320036704763 
1504	 0.127353812296155 
1505	 0.127381157954914 
1506	 0.127407594785182 
1507	 0.127433344531874 
1508	 0.127444349470522 
1509	 0.127443489834678 
1510	 0.127451013034446 
1511	 0.127478519292897 
1512	 0.127512666006548 
1513	 0.127546147971527 
1514	 0.127568570775756 
1515	 0.127585501564655 
1516	 0.12761151492631 
1517	 0.127628206315412 
1518	 0.127650231473202 
1519	 0.127668988398258 
1520	 0.127668827161912 
1521	 0.127685610173241 
1522	 0.127724601305366 
1523	 0.12773944927531 
1524	 0.127741091909562 
1525	 0.127759970681995 
1526	 0.127776292053796 
1527	 0.127793130379533 
1528	 0.127825108299223 
1529	 0.127846158827022 
1530	 0.127854606560111 
1531	 0.127865984558133 
1532	 0.127883585873383 
1533	 0.127891456017237 
1534	 0.127881455965598 
1535	 0.127894658045374 
1536	 0.127918067793497 
1537	 0.127938635357249 
1538	 0.127977063812692 
1539	 0.128002282232006 
1540	 0.128014053914754 
1541	 0.12802698495332 
1542	 0.128042817482839 
1543	 0.128050832254171 
1544	 0.12804569754722 
1545	 0.12805506311063 
1546	 0.128076464689417 
1547	 0.128079502207907 
1548	 0.128083949194726 
1549	 0.12808743799155 
1550	 0.128075777523626 
1551	 0.128071088196057 
1552	 0.128093670960868 
1553	 0.128120806462813 
1554	 0.128136074795806 
1555	 0.128145198172431 
1556	 0.128146493422671 
1557	 0.128144947251408 
1558	 0.128149455284718 
1559	 0.128158557424906 
1560	 0.128172821159268 
1561	 0.12819107042177 
1562	 0.128204307932952 
1563	 0.128220685539561 
1564	 0.128238260813132 
1565	 0.128253986083214 
1566	 0.128266111977155 
1567	 0.128282518531093 
1568	 0.128296204716488 
1569	 0.128301913555444 
1570	 0.12830818247098 
1571	 0.128321061950611 
1572	 0.128324090598948 
1573	 0.128313509207046 
1574	 0.128314226492732 
1575	 0.128315026051539 
1576	 0.128318556338119 
1577	 0.128325485198076 
1578	 0.128339699322265 
1579	 0.128365967114199 
1580	 0.128377591026554 
1581	 0.128390979618356 
1582	 0.128395030801236 
1583	 0.128380855316334 
1584	 0.12837736654944 
1585	 0.128371842552201 
1586	 0.128377618010598 
1587	 0.128395605953772 
1588	 0.128400507909475 
1589	 0.128403850244139 
1590	 0.128412641731975 
1591	 0.128412984915855 
1592	 0.128422740590018 
1593	 0.128454078298885 
1594	 0.128465342356364 
1595	 0.128458447969137 
1596	 0.128465630365884 
1597	 0.128469578312395 
1598	 0.128480536098117 
1599	 0.128512329142165 
1600	 0.128530406843628 
1601	 0.128541975015439 
1602	 0.12855068328083 
1603	 0.128555727484994 
1604	 0.128556488492869 
1605	 0.12855394640106 
1606	 0.128548205522217 
1607	 0.128531660354817 
1608	 0.128515009143736 
1609	 0.128526158694364 
1610	 0.128542479012068 
1611	 0.128550864860969 
1612	 0.128560435546823 
1613	 0.12855974153729 
1614	 0.128545614508926 
1615	 0.12855685350668 
1616	 0.128585896831063 
1617	 0.128593173903194 
1618	 0.12859900689611 
1619	 0.128619350704435 
1620	 0.12862319054258 
1621	 0.128637019224452 
1622	 0.12866483756472 
1623	 0.128678471216633 
1624	 0.128685098680453 
1625	 0.12868601469798 
1626	 0.12867893098882 
1627	 0.128679648806865 
1628	 0.128674385017687 
1629	 0.128681362817912 
1630	 0.12870258183698 
1631	 0.12870847012666 
1632	 0.128710842732388 
1633	 0.128714527863221 
1634	 0.128711656838246 
1635	 0.128715023637835 
1636	 0.128720864438072 
1637	 0.128730003262711 
1638	 0.128748834444807 
1639	 0.128746966596989 
1640	 0.128736926131186 
1641	 0.128734620981126 
1642	 0.128712176069024 
1643	 0.128719995007211 
1644	 0.128756073976724 
1645	 0.128771476783867 
1646	 0.128791183760428 
1647	 0.128801965265889 
1648	 0.128803684162239 
1649	 0.128803109545661 
1650	 0.128800156983056 
1651	 0.128793400024146 
1652	 0.128776348283884 
1653	 0.12876661580807 
1654	 0.128754369447855 
1655	 0.128752631438362 
1656	 0.12875697075286 
1657	 0.128763641506058 
1658	 0.128781884263569 
1659	 0.128789890000332 
1660	 0.128797107652265 
1661	 0.128798949498211 
1662	 0.128786503609115 
1663	 0.12879473673663 
1664	 0.128812437911851 
1665	 0.128824421095932 
1666	 0.1288487797105 
1667	 0.128862281030868 
1668	 0.128862209847674 
1669	 0.128871567272069 
1670	 0.12888758405234 
1671	 0.128896509777765 
1672	 0.128905876699867 
1673	 0.128908814031282 
1674	 0.128906052219071 
1675	 0.128901669337203 
1676	 0.128888788069748 
1677	 0.128885354151576 
1678	 0.128881510129048 
1679	 0.128883427100419 
1680	 0.12889145297052 
1681	 0.128902187803859 
1682	 0.128927701625979 
1683	 0.12892986907458 
1684	 0.128916738890977 
1685	 0.128920823730612 
1686	 0.128916800684539 
1687	 0.128919694950053 
1688	 0.12894000518086 
1689	 0.128955850120511 
1690	 0.128966185680963 
1691	 0.128978273322203 
1692	 0.129009170275809 
1693	 0.129011656690479 
1694	 0.128989399264536 
1695	 0.12898319758007 
1696	 0.128969867701186 
1697	 0.128959551943011 
1698	 0.12896455580551 
1699	 0.128953363233189 
1700	 0.128920318914919 
1701	 0.128913509729374 
1702	 0.128909618401565 
1703	 0.128916166292015 
1704	 0.128952290940328 
1705	 0.128964304663898 
1706	 0.128971725741712 
1707	 0.128973207197128 
1708	 0.128956567561447 
1709	 0.128953351058036 
1710	 0.12894896166614 
1711	 0.128957552798832 
1712	 0.128983848215934 
1713	 0.128993573068522 
1714	 0.129002170059412 
1715	 0.129010420931284 
1716	 0.129009132160625 
1717	 0.129012622182244 
1718	 0.129021984685165 
1719	 0.129027873413329 
1720	 0.129028676604886 
1721	 0.129034945422634 
1722	 0.129061607536782 
1723	 0.129047323038211 
1724	 0.129001346692123 
1725	 0.128979313818595 
1726	 0.128944649593261 
1727	 0.128917227825467 
1728	 0.12890751692186 
1729	 0.128902088748508 
1730	 0.128890065861365 
1731	 0.128886239115331 
1732	 0.128905205294562 
1733	 0.128903236001589 
1734	 0.128888382148958 
1735	 0.128871856193918 
1736	 0.128852966150302 
1737	 0.12882974415206 
1738	 0.12879720286596 
1739	 0.128775396297331 
1740	 0.12875143951397 
1741	 0.128740431187856 
1742	 0.128745430844973 
1743	 0.128732325758476 
1744	 0.128713302166339 
1745	 0.128707280031118 
1746	 0.128692793577143 
1747	 0.128692141296476 
1748	 0.128713285556451 
1749	 0.128712661444988 
1750	 0.128716432205076 
1751	 0.12870219437109 
1752	 0.128679374481758 
1753	 0.128678348305087 
1754	 0.128660296107207 
1755	 0.128638599456011 
1756	 0.128633138947637 
1757	 0.128631897680659 
1758	 0.128626107982594 
1759	 0.128615639249881 
1760	 0.128606302420227 
1761	 0.128604455793375 
1762	 0.128597870325008 
1763	 0.128580364098674 
1764	 0.12858294046016 
1765	 0.128573034757745 
1766	 0.128557148733856 
1767	 0.128572437451116 
1768	 0.128573790608036 
1769	 0.128564113257379 
1770	 0.128557133900016 
1771	 0.128559441382529 
1772	 0.128577631756749 
1773	 0.128590782046527 
1774	 0.12859417857009 
1775	 0.128589035419362 
1776	 0.128586891020679 
1777	 0.128580278569947 
1778	 0.128570943191793 
1779	 0.128563044796018 
1780	 0.128535280932815 
1781	 0.128514321466505 
1782	 0.12852329169796 
1783	 0.128549377521579 
1784	 0.128555658128041 
1785	 0.12855408671483 
1786	 0.128549308346073 
1787	 0.128525982578447 
1788	 0.128518685335675 
1789	 0.128520085571928 
1790	 0.128520891856325 
1791	 0.128524097083191 
1792	 0.128541809965951 
1793	 0.128580161440933 
1794	 0.128593105680264 
1795	 0.128603214961284 
1796	 0.128607038980888 
1797	 0.12857655616222 
1798	 0.128577267477118 
1799	 0.128600600532547 
1800	 0.128619853378827 
1801	 0.126108628822905 
1802	 0.126160003996407 
1803	 0.126183673300103 
1804	 0.126150776453684 
1805	 0.126145524197724 
1806	 0.126161192586049 
1807	 0.126151685598202 
1808	 0.126164978560528 
1809	 0.126222751462249 
1810	 0.126248971525383 
1811	 0.126246852612795 
1812	 0.126276061133767 
1813	 0.126332448884616 
1814	 0.126349534435868 
1815	 0.126349338024435 
1816	 0.126381133213431 
1817	 0.126396269173832 
1818	 0.126377263506769 
1819	 0.126395974922162 
1820	 0.126448233469924 
1821	 0.126464857056067 
1822	 0.126472860007454 
1823	 0.126504479906705 
1824	 0.126505131817519 
1825	 0.126478843758689 
1826	 0.126481855188163 
1827	 0.126515173604968 
1828	 0.126540626149913 
1829	 0.126588766549178 
1830	 0.126627226552274 
1831	 0.126673739644282 
1832	 0.126676863266142 
1833	 0.126704051324583 
1834	 0.126709507544643 
1835	 0.126712861725393 
1836	 0.126755717673515 
1837	 0.126761315816492 
1838	 0.126759551338291 
1839	 0.126765823615667 
1840	 0.12678217080012 
1841	 0.126748906844179 
1842	 0.126733753600316 
1843	 0.126747778047957 
1844	 0.126735524671547 
1845	 0.126745896324417 
1846	 0.126763345543827 
1847	 0.126746630648763 
1848	 0.126754070086935 
1849	 0.126784734587572 
1850	 0.12678483020888 
1851	 0.126766539104212 
1852	 0.126769007120873 
1853	 0.126772548562486 
1854	 0.126739513054826 
1855	 0.126734763926251 
1856	 0.1267255587173 
1857	 0.126680252512637 
1858	 0.126652257116685 
1859	 0.126638208937358 
1860	 0.126614685288275 
1861	 0.12659477810344 
1862	 0.126585459252629 
1863	 0.126569076818576 
1864	 0.1265346865397 
1865	 0.126489113139238 
1866	 0.126447934986497 
1867	 0.126412041930404 
1868	 0.126371381389645 
1869	 0.126337720888256 
1870	 0.126331321964151 
1871	 0.126297017574427 
1872	 0.126260340971139 
1873	 0.126171585572985 
1874	 0.126076105370411 
1875	 0.125959042529539 
1876	 0.125820713852969 
1877	 0.125722095100522 
1878	 0.125636183784741 
1879	 0.125532930945042 
1880	 0.125418077722775 
1881	 0.125298657955519 
1882	 0.125161902940533 
1883	 0.125007612923519 
1884	 0.124848208139643 
1885	 0.124678595844133 
1886	 0.124500215553433 
1887	 0.124306917606543 
1888	 0.124114338415338 
1889	 0.123926842737976 
1890	 0.1237126198464 
1891	 0.123489963962189 
1892	 0.123262924489647 
1893	 0.123010586327094 
1894	 0.122723701154228 
1895	 0.12246358409966 
1896	 0.122186730432498 
1897	 0.121894554660284 
1898	 0.121617993156081 
1899	 0.121321823094321 
1900	 0.121017593362887 
1901	 0.12073664159909 
1902	 0.120466970681128 
1903	 0.120220202632581 
1904	 0.119960409879649 
1905	 0.119708602552426 
1906	 0.119451059975621 
1907	 0.119190593169322 
1908	 0.118949219783316 
1909	 0.118706462638502 
1910	 0.118482094882982 
1911	 0.118274410509717 
1912	 0.118038825004167 
1913	 0.117834373381873 
1914	 0.117653662897567 
1915	 0.11747256254037 
1916	 0.117290007500645 
1917	 0.117143767888012 
1918	 0.116997858799835 
1919	 0.11686745915176 
1920	 0.11674601355827 
1921	 0.116617237964526 
1922	 0.116505837608004 
1923	 0.116389242486338 
1924	 0.11627922099665 
1925	 0.116170677415922 
1926	 0.116081701502107 
1927	 0.115998784350596 
1928	 0.115930566714738 
1929	 0.115864849704433 
1930	 0.115823038222388 
1931	 0.115778585023963 
1932	 0.115731456464645 
1933	 0.115706521289334 
1934	 0.1156752487313 
1935	 0.11566845225171 
1936	 0.11568570947584 
1937	 0.115691595564081 
1938	 0.115702866305543 
1939	 0.115730201425188 
1940	 0.115757613009078 
1941	 0.115793992787379 
1942	 0.115851573412525 
1943	 0.115892951667259 
1944	 0.115922609710636 
1945	 0.115939705962264 
1946	 0.115985194548221 
1947	 0.116039808463566 
1948	 0.116107431908684 
1949	 0.116204152368416 
1950	 0.116288188397011 
1951	 0.116378819502946 
1952	 0.116458014265837 
1953	 0.116528918988286 
1954	 0.116602610759892 
1955	 0.116660365744436 
1956	 0.11674140630862 
1957	 0.116821124209624 
1958	 0.116919572556072 
1959	 0.116987702448407 
1960	 0.117034538669282 
1961	 0.117095908351473 
1962	 0.117154538605022 
1963	 0.117210714972104 
1964	 0.117264052417356 
1965	 0.11733970398589 
1966	 0.117421777594648 
1967	 0.117483430782954 
1968	 0.117552644263964 
1969	 0.117641067578643 
1970	 0.117717605483296 
1971	 0.117778768561101 
1972	 0.117847795762689 
1973	 0.117919592610677 
1974	 0.117994404805372 
1975	 0.118065814234975 
1976	 0.11814424104373 
1977	 0.118216558903612 
1978	 0.118321803660774 
1979	 0.11842394590933 
1980	 0.118505700249376 
1981	 0.118584206967826 
1982	 0.118648964386203 
1983	 0.118732303150481 
1984	 0.118825950318487 
1985	 0.118898340010472 
1986	 0.118965610432286 
1987	 0.119043928116927 
1988	 0.119101257435423 
1989	 0.119176698786308 
1990	 0.11927977316614 
1991	 0.11937338605753 
1992	 0.119462912416303 
1993	 0.119553941074378 
1994	 0.119627639123104 
1995	 0.119683957835941 
1996	 0.119759785621372 
1997	 0.119827878409575 
1998	 0.119900278662333 
1999	 0.119993977655662 
2000	 0.120076327153361 
2001	 0.120145545256729 
2002	 0.120221063910019 
2003	 0.120317179967433 
2004	 0.120389572231667 
2005	 0.120465568413427 
2006	 0.120547083947914 
2007	 0.120620306891495 
2008	 0.120679167378 
2009	 0.120747683380382 
2010	 0.120811998694919 
2011	 0.120884965242149 
2012	 0.120954267065041 
2013	 0.121042217398336 
2014	 0.121155211608784 
2015	 0.121254595864982 
2016	 0.121353280152025 
2017	 0.121475568062471 
2018	 0.121591962186698 
2019	 0.121709271218191 
2020	 0.121825917238354 
2021	 0.121957616605011 
2022	 0.122067041760192 
2023	 0.122153679407432 
2024	 0.122255663816007 
2025	 0.122354280503063 
2026	 0.122458245441394 
2027	 0.122565915893205 
2028	 0.12268886629926 
2029	 0.12279906943472 
2030	 0.122901907108754 
2031	 0.123010857983381 
2032	 0.123119586652073 
2033	 0.123233486471325 
2034	 0.123356477895945 
2035	 0.123471140373924 
2036	 0.123587864062013 
2037	 0.123696183488899 
2038	 0.123800790566309 
2039	 0.123897742484194 
2040	 0.12397989975154 
2041	 0.124072091947255 
2042	 0.124170912012425 
2043	 0.124256855335645 
2044	 0.124333074024458 
2045	 0.124401939208509 
2046	 0.124477932888168 
2047	 0.124538545873656 
2048	 0.124613552582925 
2049	 0.124713832380873 
2050	 0.124792535659277 
2051	 0.124852163238436 
2052	 0.12492551274274 
2053	 0.125001060258521 
2054	 0.125074919840492 
2055	 0.12515246849767 
2056	 0.125237995035223 
2057	 0.125310803725297 
2058	 0.125376901234379 
2059	 0.125436615823284 
2060	 0.125477952692272 
2061	 0.125547693725473 
2062	 0.125629125393363 
2063	 0.125702052941564 
2064	 0.125802265159837 
2065	 0.12587249030893 
2066	 0.12590529663603 
2067	 0.125960084625874 
2068	 0.126015995994587 
2069	 0.126069915211513 
2070	 0.126139133564982 
2071	 0.126233902654914 
2072	 0.126293483190887 
2073	 0.126345167998294 
2074	 0.126394585677968 
2075	 0.126413170921851 
2076	 0.126463937260645 
2077	 0.126530007779054 
2078	 0.126597672753163 
2079	 0.126683056345749 
2080	 0.126759104265969 
2081	 0.126848815041993 
2082	 0.126913315410941 
2083	 0.12695736960677 
2084	 0.127004756796427 
2085	 0.127049496090886 
2086	 0.127074271708621 
2087	 0.127118884288008 
2088	 0.127169719494777 
2089	 0.127230718346267 
2090	 0.127297584958057 
2091	 0.127370937525005 
2092	 0.127470293329796 
2093	 0.127545033892651 
2094	 0.127612766814531 
2095	 0.127677681948107 
2096	 0.127726161768424 
2097	 0.127782114766251 
2098	 0.127839935793009 
2099	 0.127890672078692 
2100	 0.127966803591933 
2101	 0.128060668076197 
2102	 0.128136567093235 
2103	 0.128227666157833 
2104	 0.128299435987225 
2105	 0.12834419595144 
2106	 0.128407219482689 
2107	 0.128482809582463 
2108	 0.128541080778605 
2109	 0.128575866555556 
2110	 0.128643013984949 
2111	 0.128717148316073 
2112	 0.128795593474358 
2113	 0.128907644896227 
2114	 0.129006924318491 
2115	 0.129095415077644 
2116	 0.129174212985974 
2117	 0.129248705868873 
2118	 0.129314631459025 
2119	 0.129383359176282 
2120	 0.129441768195528 
2121	 0.129508419174984 
2122	 0.12958273065059 
2123	 0.129650640761769 
2124	 0.129721173723749 
2125	 0.129783485171509 
2126	 0.129836465296333 
2127	 0.129894484135099 
2128	 0.12995309741526 
2129	 0.13000669975171 
2130	 0.130084045122821 
2131	 0.130115466375996 
2132	 0.130148202033031 
2133	 0.130164404598821 
2134	 0.130187966303868 
2135	 0.130197591085598 
2136	 0.130219280762773 
2137	 0.130263413304299 
2138	 0.130270013979239 
2139	 0.130266712806233 
2140	 0.130249678242071 
2141	 0.130198079477214 
2142	 0.130159302921434 
2143	 0.130110434958156 
2144	 0.130073148715906 
2145	 0.130037214918568 
2146	 0.130008851982199 
2147	 0.129991606307281 
2148	 0.129987723424144 
2149	 0.129953421326721 
2150	 0.129907923975747 
2151	 0.129870343138547 
2152	 0.129816633444948 
2153	 0.129771511921936 
2154	 0.129756568722765 
2155	 0.129695409272309 
2156	 0.129595903327507 
2157	 0.129520747636603 
2158	 0.129434070804501 
2159	 0.129351426821907 
2160	 0.129297642122842 
2161	 0.129213831438447 
2162	 0.12910814772767 
2163	 0.129001753639452 
2164	 0.128881304648113 
2165	 0.128759656967714 
2166	 0.128637725226965 
2167	 0.128502041904683 
2168	 0.128397228093006 
2169	 0.128303208714669 
2170	 0.128212899447831 
2171	 0.128143417735671 
2172	 0.128068196986857 
2173	 0.127988036151182 
2174	 0.127917904340347 
2175	 0.127867215843773 
2176	 0.127799178898517 
2177	 0.127735651040576 
2178	 0.127653753667625 
2179	 0.127532228873072 
2180	 0.127445591565377 
2181	 0.127384300794746 
2182	 0.127300652684324 
2183	 0.127227417136496 
2184	 0.127150879647026 
2185	 0.127050935565824 
2186	 0.126907767156144 
2187	 0.126801780371963 
2188	 0.126691152978355 
2189	 0.126611683619792 
2190	 0.126548725987824 
2191	 0.12650346105122 
2192	 0.126495440233019 
2193	 0.126469764293476 
2194	 0.126463464353138 
2195	 0.126430485950449 
2196	 0.126375801912188 
2197	 0.126328261696664 
2198	 0.126267054720216 
2199	 0.12621588485291 
2200	 0.126159385644511 
2201	 0.126124382587247 
2202	 0.126112316865598 
2203	 0.126087291419932 
2204	 0.126075718544974 
2205	 0.12608405431323 
2206	 0.126078623653141 
2207	 0.126073422916576 
2208	 0.126057840034777 
2209	 0.12603482918322 
2210	 0.126019584237084 
2211	 0.125996486001168 
2212	 0.125981134759268 
2213	 0.125974504027504 
2214	 0.125967266421461 
2215	 0.125949693901895 
2216	 0.125952989379649 
2217	 0.125971743751999 
2218	 0.125992677402237 
2219	 0.126050146061574 
2220	 0.126067516969167 
2221	 0.126064522054477 
2222	 0.126061591440506 
2223	 0.126027846316595 
2224	 0.125976095979137 
2225	 0.12597327859491 
2226	 0.125983836135221 
2227	 0.126010410535021 
2228	 0.126080262077924 
2229	 0.126119776138281 
2230	 0.12615808573647 
2231	 0.126189213291882 
2232	 0.12620247818932 
2233	 0.126237238017149 
2234	 0.126284400481652 
2235	 0.126320394645542 
2236	 0.126365514613583 
2237	 0.126397326675172 
2238	 0.126413083860842 
2239	 0.126434397388022 
2240	 0.126441343334782 
2241	 0.126474909361377 
2242	 0.126547330895915 
2243	 0.126576445040344 
2244	 0.126595706629778 
2245	 0.12661522227175 
2246	 0.126608770164376 
2247	 0.126583416940412 
2248	 0.126598394812655 
2249	 0.126642152965624 
2250	 0.126679099623479 
2251	 0.126729731392098 
2252	 0.126773719774629 
2253	 0.126816029750861 
2254	 0.126862367477211 
2255	 0.126915378476401 
2256	 0.126956392012296 
2257	 0.127013270860685 
2258	 0.127034170442351 
2259	 0.127001147249838 
2260	 0.127016417286184 
2261	 0.127042725529614 
2262	 0.127064507913718 
2263	 0.127115295678071 
2264	 0.12715752625486 
2265	 0.127173503373558 
2266	 0.127204292569448 
2267	 0.127271731949771 
2268	 0.127308087186942 
2269	 0.127331494444793 
2270	 0.127346843556136 
2271	 0.127339414899651 
2272	 0.12732461529075 
2273	 0.127351466942901 
2274	 0.127378070392051 
2275	 0.12739899346418 
2276	 0.12743864503672 
2277	 0.127453878748073 
2278	 0.127440026908357 
2279	 0.127458565234477 
2280	 0.127493944385625 
2281	 0.127510131263776 
2282	 0.127514834815321 
2283	 0.127553136179404 
2284	 0.127591528395582 
2285	 0.127648214908003 
2286	 0.127767310611177 
2287	 0.127822015731054 
2288	 0.127850950229111 
2289	 0.127872765319983 
2290	 0.127844349688099 
2291	 0.127858248707933 
2292	 0.127890543168242 
2293	 0.127918063235149 
2294	 0.127968983435013 
2295	 0.128001503646069 
2296	 0.12803776353855 
2297	 0.128035997235059 
2298	 0.128038068028809 
2299	 0.128024023663 
2300	 0.127994339935385 
2301	 0.128036131646031 
2302	 0.128014959695837 
2303	 0.127995496466998 
2304	 0.128046402198588 
2305	 0.128017332302334 
2306	 0.128016747994333 
2307	 0.128068522634861 
2308	 0.128056852813417 
2309	 0.127988295095735 
2310	 0.12795439192972 
2311	 0.127907760943314 
2312	 0.127882498986377 
2313	 0.127873797257097 
2314	 0.127867860336446 
2315	 0.127871199927265 
2316	 0.127879389617135 
2317	 0.127903654699168 
2318	 0.127904692050111 
2319	 0.127892587974632 
2320	 0.127895767675 
2321	 0.127897729924944 
2322	 0.127891846492608 
2323	 0.127914506557671 
2324	 0.127896975976882 
2325	 0.127808569330038 
2326	 0.127800004536687 
2327	 0.127820174459105 
2328	 0.127830533905621 
2329	 0.12791437660121 
2330	 0.127938904860871 
2331	 0.127900793912096 
2332	 0.127917514579035 
2333	 0.12794866194645 
2334	 0.1279897378261 
2335	 0.128052092949034 
2336	 0.128088608956634 
2337	 0.128056597908211 
2338	 0.12801421193458 
2339	 0.127997964358415 
2340	 0.12796266097277 
2341	 0.127975443685083 
2342	 0.128001262630989 
2343	 0.12800559296574 
2344	 0.128025760552882 
2345	 0.128008374429353 
2346	 0.12796624858776 
2347	 0.127918224419719 
2348	 0.127844808438388 
2349	 0.127786495451027 
2350	 0.127721857189968 
2351	 0.127672896432095 
2352	 0.127615997113046 
2353	 0.127595561694511 
2354	 0.127610241822757 
2355	 0.127615450723704 
2356	 0.127668398714586 
2357	 0.127636166595749 
2358	 0.127566501988595 
2359	 0.127486403683081 
2360	 0.127313211122891 
2361	 0.127246555459166 
2362	 0.127253228637816 
2363	 0.127179658903886 
2364	 0.127099357183144 
2365	 0.127045946581698 
2366	 0.126953693275133 
2367	 0.126880932066655 
2368	 0.126878322542562 
2369	 0.126836581994638 
2370	 0.126759650739056 
2371	 0.126663253165167 
2372	 0.126610925599812 
2373	 0.126579988015269 
2374	 0.126540575679467 
2375	 0.126530642647064 
2376	 0.126469901813026 
2377	 0.126395188090179 
2378	 0.126331833963319 
2379	 0.126226235480592 
2380	 0.126236691560406 
2381	 0.126237490378699 
2382	 0.126080280624165 
2383	 0.125986931795847 
2384	 0.125891715955182 
2385	 0.125720623634903 
2386	 0.125736599511155 
2387	 0.125780993907016 
2388	 0.125665644514371 
2389	 0.125574713611651 
2390	 0.125491728927177 
2391	 0.125368627358812 
2392	 0.125288472663156 
2393	 0.12523845742653 
2394	 0.12515227296163 
2395	 0.125091362872792 
2396	 0.125103920551334 
2397	 0.125116684858023 
2398	 0.1250848074325 
2399	 0.124980303537727 
2400	 0.124869908866635 
2401	 0.124797189249672 
2402	 0.124660727926402 
2403	 0.124570352959233 
2404	 0.124524466266195 
2405	 0.124402870339545 
2406	 0.124403151514127 
2407	 0.124401997944591 
2408	 0.124249433154337 
2409	 0.124166436547436 
2410	 0.1241272424936 
2411	 0.124017706690482 
2412	 0.123959425364845 
2413	 0.123956876037608 
2414	 0.123792748353161 
2415	 0.123619678209531 
2416	 0.123513837114463 
2417	 0.12341920587113 
2418	 0.123334788699622 
2419	 0.123291593745446 
2420	 0.123245381206156 
2421	 0.123231972665984 
2422	 0.123167062477335 
2423	 0.123113241979578 
2424	 0.123063939259558 
2425	 0.122946696248205 
2426	 0.122882893344749 
2427	 0.122862988305006 
2428	 0.12282075331626 
2429	 0.122812226565639 
2430	 0.122764428173208 
2431	 0.122687321295294 
2432	 0.1225708092213 
2433	 0.122402435002234 
2434	 0.122285283407802 
2435	 0.122117898131203 
2436	 0.122038099554044 
2437	 0.122061312640549 
2438	 0.122019415245508 
2439	 0.12203350473964 
2440	 0.121988128843288 
2441	 0.121834246781973 
2442	 0.121799303058509 
2443	 0.121781465168901 
2444	 0.121761528164056 
2445	 0.121885635869931 
2446	 0.121834770397433 
2447	 0.12168405001722 
2448	 0.121551893266644 
2449	 0.121296323910565 
2450	 0.121121411808837 
2451	 0.120989929755754 
2452	 0.120859606587918 
2453	 0.120799098056924 
2454	 0.120703632075209 
2455	 0.120502647227557 
2456	 0.120422018465441 
2457	 0.120423656271762 
2458	 0.120342800694669 
2459	 0.120350790751986 
2460	 0.120216627073096 
2461	 0.119931192574122 
2462	 0.119852189092749 
2463	 0.119775081767599 
2464	 0.119784691906921 
2465	 0.119922656390593 
2466	 0.119865118287086 
2467	 0.119803849194367 
2468	 0.119708264593828 
2469	 0.119596805525378 
2470	 0.11955082613581 
2471	 0.119293444206873 
2472	 0.119106658094782 
2473	 0.118984368029102 
2474	 0.119011938163292 
2475	 0.119129813370918 
2476	 0.119250956314402 
2477	 0.119288620039274 
2478	 0.11924442525704 
2479	 0.119147200897735 
2480	 0.119187071185215 
2481	 0.119353234304264 
2482	 0.119301238042873 
2483	 0.11936372465286 
2484	 0.119276109868638 
2485	 0.11880343835211 
2486	 0.118558764295808 
2487	 0.118211198714075 
2488	 0.117973583373497 
2489	 0.118089347744299 
2490	 0.117990101609282 
2491	 0.118111146327637 
2492	 0.118243462689552 
2493	 0.118326611191442 
2494	 0.118539870901 
2495	 0.118371791658835 
2496	 0.1184061291034 
2497	 0.118351767626364 
2498	 0.118004342362986 
2499	 0.117867763505104 
2500	 0.117776013307966 
