Wavelength	LMW_1400003.asd
350	 6.44941575030217E-02 
351	 6.55248983969077E-02 
352	 6.53362056116678E-02 
353	 6.49727234520444E-02 
354	 7.35553222045214E-02 
355	 7.52269466122682E-02 
356	 0.072304344002981 
357	 7.18750695593323E-02 
358	 8.07388051768958E-02 
359	 8.17350448411004E-02 
360	 7.50319664204752E-02 
361	 7.20632429775972E-02 
362	 7.24874080232779E-02 
363	 7.17686929319548E-02 
364	 6.91543528826244E-02 
365	 7.06763863305933E-02 
366	 0.070974035051237 
367	 7.08529071240086E-02 
368	 7.15086932305598E-02 
369	 6.83658037206886E-02 
370	 6.80834874492783E-02 
371	 7.02724814848051E-02 
372	 6.99546567739366E-02 
373	 7.01807525625465E-02 
374	 7.06996192250344E-02 
375	 7.14347920995833E-02 
376	 7.35628966211132E-02 
377	 7.27539029894231E-02 
378	 7.02910179197489E-02 
379	 6.90358127173399E-02 
380	 7.04221493443824E-02 
381	 7.03329233287791E-02 
382	 0.06900547055053 
383	 6.99316632024018E-02 
384	 7.24659795600293E-02 
385	 7.29005583234859E-02 
386	 7.02830448840354E-02 
387	 6.93857927557981E-02 
388	 6.99332631722865E-02 
389	 0.070820960139559 
390	 7.06286034481207E-02 
391	 6.81715491847036E-02 
392	 6.79751368375282E-02 
393	 7.06218219055157E-02 
394	 7.30964858869353E-02 
395	 7.27653298559134E-02 
396	 7.16781516281096E-02 
397	 7.16221434710737E-02 
398	 7.19482504102879E-02 
399	 7.30242931126072E-02 
400	 7.38571368761221E-02 
401	 0.073330655076732 
402	 7.23954136304199E-02 
403	 7.20874825046392E-02 
404	 7.24770337353315E-02 
405	 0.072704105296672 
406	 7.33119759430995E-02 
407	 7.38236995336235E-02 
408	 7.35773573107642E-02 
409	 7.16643889683873E-02 
410	 7.03856874871727E-02 
411	 7.03785608381966E-02 
412	 0.071336548805412 
413	 7.30909932226905E-02 
414	 7.33691126099254E-02 
415	 7.22707255738153E-02 
416	 7.30269000825484E-02 
417	 7.28369395995481E-02 
418	 7.24631421802093E-02 
419	 7.29073719397234E-02 
420	 0.073095931541644 
421	 7.27049481542095E-02 
422	 7.25255129626813E-02 
423	 7.37417381948064E-02 
424	 7.36893954342486E-02 
425	 7.30463362567361E-02 
426	 7.26939167747832E-02 
427	 7.31032939546419E-02 
428	 7.32657039238362E-02 
429	 7.32995258235031E-02 
430	 7.35689570346056E-02 
431	 7.36890494803987E-02 
432	 0.073644118957456 
433	 7.37103704174764E-02 
434	 7.43650035299479E-02 
435	 7.42818730226211E-02 
436	 7.42804263741616E-02 
437	 7.48552916349841E-02 
438	 7.44641215101374E-02 
439	 7.44220645796506E-02 
440	 0.074790491821657 
441	 7.50158858008154E-02 
442	 7.50558458821537E-02 
443	 7.53501002457172E-02 
444	 7.57945206023666E-02 
445	 0.075378691043432 
446	 7.53847158653396E-02 
447	 7.57851304511724E-02 
448	 7.61742272895807E-02 
449	 7.62993586099776E-02 
450	 7.65554909991251E-02 
451	 7.69229338304451E-02 
452	 7.70337254200239E-02 
453	 7.71018115285803E-02 
454	 7.70432402296039E-02 
455	 7.69624118345663E-02 
456	 7.76094347863907E-02 
457	 7.79585943953732E-02 
458	 7.79513997113758E-02 
459	 7.79933995658612E-02 
460	 0.078275219356741 
461	 7.85338413428879E-02 
462	 7.86438946010011E-02 
463	 7.87230065314714E-02 
464	 7.91991395476788E-02 
465	 7.95242437395715E-02 
466	 7.92891618815525E-02 
467	 7.97753937247022E-02 
468	 8.03255449337335E-02 
469	 8.05817503275146E-02 
470	 8.05170089150498E-02 
471	 8.07340331133403E-02 
472	 8.10704299104268E-02 
473	 8.13059271231336E-02 
474	 8.13998372901911E-02 
475	 8.15714008966386E-02 
476	 8.18664560685059E-02 
477	 0.082220131446026 
478	 8.24318488903593E-02 
479	 8.26192826682664E-02 
480	 8.28670076240775E-02 
481	 8.31720047211605E-02 
482	 8.35230343117832E-02 
483	 8.38195129596984E-02 
484	 0.084007249694834 
485	 8.43482358733421E-02 
486	 8.43786099564963E-02 
487	 0.084228385171752 
488	 8.44932807430652E-02 
489	 8.47471211921452E-02 
490	 8.50345529566496E-02 
491	 8.53935636547075E-02 
492	 8.56699941667853E-02 
493	 0.085756732008439 
494	 8.58069490374449E-02 
495	 8.60670163497434E-02 
496	 8.64291084932686E-02 
497	 8.66414809900359E-02 
498	 8.67080427026295E-02 
499	 8.70380176509312E-02 
500	 8.70205904166336E-02 
501	 8.69195832331285E-02 
502	 8.71336517559098E-02 
503	 8.74683172052802E-02 
504	 8.76553086297948E-02 
505	 8.77109554795997E-02 
506	 8.78989852601759E-02 
507	 8.80149162231126E-02 
508	 8.81252237826001E-02 
509	 8.82869702563407E-02 
510	 8.84006829281962E-02 
511	 8.84697511842418E-02 
512	 0.088564356622532 
513	 8.87562215122565E-02 
514	 8.87508642392601E-02 
515	 8.88571226467152E-02 
516	 0.089184105639093 
517	 8.94167351297571E-02 
518	 8.93604187459047E-02 
519	 8.93086617666854E-02 
520	 8.95807624278685E-02 
521	 8.96721341667911E-02 
522	 8.97555286902573E-02 
523	 8.98796662636223E-02 
524	 8.99275374283959E-02 
525	 8.99923006505322E-02 
526	 9.00472632386497E-02 
527	 9.00694553122721E-02 
528	 9.01236345250884E-02 
529	 9.02461893606397E-02 
530	 9.03784498182153E-02 
531	 0.090421801470579 
532	 9.06082620542904E-02 
533	 9.08106026387954E-02 
534	 9.09192726762164E-02 
535	 9.09565279466844E-02 
536	 9.10101086519509E-02 
537	 9.11217417846119E-02 
538	 9.12851369984241E-02 
539	 9.13424759092481E-02 
540	 9.13838326392348E-02 
541	 9.14607430090734E-02 
542	 9.15453924125325E-02 
543	 9.16862786416752E-02 
544	 9.17481856367809E-02 
545	 9.16515109099838E-02 
546	 9.17284191212498E-02 
547	 9.18439449063618E-02 
548	 9.19338244489712E-02 
549	 9.20097562879014E-02 
550	 9.21530925855968E-02 
551	 9.23057538548127E-02 
552	 9.24176589073309E-02 
553	 9.25362573279904E-02 
554	 9.25800293745458E-02 
555	 9.26050843455517E-02 
556	 9.27205525525644E-02 
557	 9.27979004830499E-02 
558	 9.28588412411066E-02 
559	 9.29328273291761E-02 
560	 9.30348603567914E-02 
561	 9.31174316976157E-02 
562	 9.32040228118905E-02 
563	 9.33286797085047E-02 
564	 9.34423433933234E-02 
565	 9.35236730802289E-02 
566	 9.35791478349903E-02 
567	 9.36435967859549E-02 
568	 9.37351377399001E-02 
569	 9.38139414856958E-02 
570	 9.38518461571952E-02 
571	 9.39045924076648E-02 
572	 0.094006900479499 
573	 9.40875509439551E-02 
574	 0.094024312007088 
575	 9.40722852644395E-02 
576	 9.41746745552848E-02 
577	 9.42502194471462E-02 
578	 9.42675044292384E-02 
579	 9.43411614235509E-02 
580	 9.44240768696986E-02 
581	 9.44283559698068E-02 
582	 9.45340272135869E-02 
583	 9.45845726774581E-02 
584	 9.45245695616305E-02 
585	 9.44777007622916E-02 
586	 9.45229878402784E-02 
587	 9.45830901871678E-02 
588	 9.45834951259018E-02 
589	 9.47091918822795E-02 
590	 9.47751401606451E-02 
591	 9.47563574331325E-02 
592	 9.47787826803604E-02 
593	 9.47426900749972E-02 
594	 0.094678172865923 
595	 9.46254380869359E-02 
596	 9.45747777235472E-02 
597	 9.46036814210501E-02 
598	 9.46960770545108E-02 
599	 9.47853971985911E-02 
600	 9.48789344874655E-02 
601	 9.49496247949584E-02 
602	 9.49804210085333E-02 
603	 0.094969835176164 
604	 9.50059986714553E-02 
605	 9.50819499819178E-02 
606	 9.51557353596768E-02 
607	 9.52120595469765E-02 
608	 9.52930247175108E-02 
609	 9.53904086424877E-02 
610	 0.095436441163405 
611	 9.54470656198458E-02 
612	 9.54588660432379E-02 
613	 9.54977549186485E-02 
614	 9.55342559777027E-02 
615	 9.55681442902018E-02 
616	 9.55879398899003E-02 
617	 9.55814978319641E-02 
618	 9.56359718240564E-02 
619	 0.095637110277008 
620	 9.55578278116174E-02 
621	 9.56296565733192E-02 
622	 9.56803841473274E-02 
623	 9.57083262640656E-02 
624	 9.57649470588176E-02 
625	 0.095788794356082 
626	 9.58027405455221E-02 
627	 9.58345410398323E-02 
628	 9.59097391183959E-02 
629	 9.59593538758929E-02 
630	 9.59944466956553E-02 
631	 9.60379759338258E-02 
632	 9.60598196211536E-02 
633	 9.61038087909583E-02 
634	 9.61702825949124E-02 
635	 9.62243336485167E-02 
636	 9.62868870232479E-02 
637	 9.63407061936545E-02 
638	 9.63755679772221E-02 
639	 9.64153457443073E-02 
640	 9.64195097197463E-02 
641	 9.64567379582221E-02 
642	 9.66121218231591E-02 
643	 0.09668923839156 
644	 9.67365226315869E-02 
645	 9.67764469856263E-02 
646	 9.67556766200789E-02 
647	 9.67796674484724E-02 
648	 9.68511954746864E-02 
649	 9.69404717163775E-02 
650	 9.70331034612151E-02 
651	 9.71070941974572E-02 
652	 9.71515297788607E-02 
653	 9.71722767022426E-02 
654	 9.72933429764187E-02 
655	 9.74067243460163E-02 
656	 9.74315200045262E-02 
657	 9.74548818327617E-02 
658	 9.75330351103008E-02 
659	 9.76287475014312E-02 
660	 9.76708248967381E-02 
661	 9.77387759885091E-02 
662	 9.78077160285708E-02 
663	 9.78644047870973E-02 
664	 9.79264813122817E-02 
665	 9.79951548074667E-02 
666	 9.80424290409513E-02 
667	 9.80559433423647E-02 
668	 9.81185155436962E-02 
669	 9.82077974683809E-02 
670	 9.82788651035844E-02 
671	 9.82817386301281E-02 
672	 0.098362735610014 
673	 9.84554546634237E-02 
674	 9.85010002847373E-02 
675	 9.85471776992048E-02 
676	 9.85981722264064E-02 
677	 9.86553208028466E-02 
678	 9.87145709048237E-02 
679	 9.87536306662639E-02 
680	 9.88207240493975E-02 
681	 9.89178691594608E-02 
682	 9.89807618496711E-02 
683	 9.90108710595237E-02 
684	 0.099055984792762 
685	 9.91436797440444E-02 
686	 9.91813133455966E-02 
687	 9.92067646400735E-02 
688	 0.099258368128086 
689	 0.099360481746767 
690	 9.93860051458519E-02 
691	 9.93851461617417E-02 
692	 9.94071222962418E-02 
693	 9.94484932607588E-02 
694	 9.94486361028712E-02 
695	 9.94581459960653E-02 
696	 9.95399487048986E-02 
697	 9.95825535919768E-02 
698	 9.96018462499597E-02 
699	 9.96250765185483E-02 
700	 9.96810427000781E-02 
701	 9.97308010400228E-02 
702	 9.97717022242475E-02 
703	 9.98032970297607E-02 
704	 9.98052695247311E-02 
705	 9.98103030952903E-02 
706	 9.98244278609682E-02 
707	 0.099841369317209 
708	 9.98833133225432E-02 
709	 9.99223793446761E-02 
710	 9.99431784494655E-02 
711	 9.99557517353352E-02 
712	 0.099968123205842 
713	 0.099971235425855 
714	 9.99614370355027E-02 
715	 9.99744029677505E-02 
716	 9.99955226990152E-02 
717	 0.10000223894087 
718	 9.99743567912137E-02 
719	 9.99813183568835E-02 
720	 9.99941917607071E-02 
721	 9.99868428543952E-02 
722	 9.99654098839762E-02 
723	 9.99578210088985E-02 
724	 9.99585383180201E-02 
725	 9.99514918761265E-02 
726	 9.99387543320193E-02 
727	 9.99087082917974E-02 
728	 9.98762382989769E-02 
729	 9.98765230358895E-02 
730	 9.98437710005537E-02 
731	 9.98008175286967E-02 
732	 9.97694829549397E-02 
733	 9.97276854519719E-02 
734	 9.96923904685856E-02 
735	 9.96679486138501E-02 
736	 9.96480337640582E-02 
737	 9.95970023875357E-02 
738	 9.95524298796699E-02 
739	 9.95198677391983E-02 
740	 9.94657292213779E-02 
741	 9.94437985134891E-02 
742	 9.94205611275911E-02 
743	 9.93606396645493E-02 
744	 9.92658345801016E-02 
745	 9.92293187234511E-02 
746	 9.92392791056189E-02 
747	 9.92262810334678E-02 
748	 9.91312528667155E-02 
749	 9.90385212583033E-02 
750	 9.89906991292695E-02 
751	 9.89624833008105E-02 
752	 9.89272803449131E-02 
753	 9.88681690318128E-02 
754	 9.87947049057727E-02 
755	 9.87863005974133E-02 
756	 9.87354097914516E-02 
757	 9.86612305844588E-02 
758	 0.098636058809625 
759	 9.85964356678715E-02 
760	 9.85288727758245E-02 
761	 9.84566136690207E-02 
762	 9.84401930809704E-02 
763	 0.098405825270684 
764	 9.83498384234666E-02 
765	 9.82904158164293E-02 
766	 9.82597106395113E-02 
767	 9.82085406842522E-02 
768	 9.81328811385685E-02 
769	 9.80569138099718E-02 
770	 9.80207859210597E-02 
771	 9.79686332696555E-02 
772	 9.78941457364316E-02 
773	 9.78589055888102E-02 
774	 9.78224702232145E-02 
775	 9.77656780385519E-02 
776	 9.76916473322532E-02 
777	 9.76536056622015E-02 
778	 9.75902051134586E-02 
779	 9.75162237871291E-02 
780	 9.74763617596576E-02 
781	 9.74649998741407E-02 
782	 9.74311126435196E-02 
783	 9.73650615851101E-02 
784	 0.097304154626873 
785	 0.097236986078762 
786	 9.71489973470797E-02 
787	 9.70536737172286E-02 
788	 9.70381418674127E-02 
789	 9.70039064289424E-02 
790	 9.69376959618751E-02 
791	 9.68587074691115E-02 
792	 9.67627840749602E-02 
793	 9.67083089260354E-02 
794	 9.66950810375072E-02 
795	 0.09666776825149 
796	 9.65827725801539E-02 
797	 9.64818419940083E-02 
798	 9.64098138908032E-02 
799	 9.63908507413137E-02 
800	 9.63521739957378E-02 
801	 9.62740562463482E-02 
802	 9.61718748812667E-02 
803	 9.61128606341504E-02 
804	 0.096086563822687 
805	 9.60494929827463E-02 
806	 0.095955929009618 
807	 9.59188148905706E-02 
808	 9.58753579101979E-02 
809	 9.57894243974884E-02 
810	 9.56862336596848E-02 
811	 9.56316806196024E-02 
812	 0.095591534493425 
813	 9.55288714185216E-02 
814	 9.54690941809096E-02 
815	 9.54030769386311E-02 
816	 0.095334005957819 
817	 9.52738644064597E-02 
818	 9.52567975225713E-02 
819	 9.52064908056342E-02 
820	 9.51201597294098E-02 
821	 9.50588985844208E-02 
822	 9.49858034178988E-02 
823	 0.094907873815532 
824	 9.48462961841664E-02 
825	 9.48360105754537E-02 
826	 0.094775331425553 
827	 9.46796401799745E-02 
828	 9.45993605342532E-02 
829	 9.45830413721458E-02 
830	 9.45483229058629E-02 
831	 9.44849388979113E-02 
832	 9.44240235102256E-02 
833	 0.094399812886623 
834	 9.43673406911799E-02 
835	 9.42951651859506E-02 
836	 0.094182567706598 
837	 9.41698393947162E-02 
838	 9.41837006069952E-02 
839	 9.41513711409365E-02 
840	 9.40663752356072E-02 
841	 9.39672866813967E-02 
842	 9.38901795136007E-02 
843	 9.38515922934579E-02 
844	 9.38162574544472E-02 
845	 0.093800364729332 
846	 9.37546673558245E-02 
847	 9.36380350530944E-02 
848	 9.36251826339332E-02 
849	 9.35914603058943E-02 
850	 9.35247565726587E-02 
851	 9.35105748476107E-02 
852	 9.34238908294785E-02 
853	 9.33498128658311E-02 
854	 9.33255343590481E-02 
855	 9.32772530079335E-02 
856	 0.09325314457655 
857	 9.32398842792875E-02 
858	 9.32094818701474E-02 
859	 9.31261696741905E-02 
860	 9.30970675596343E-02 
861	 9.30749302238509E-02 
862	 9.29920538752646E-02 
863	 9.29530181615996E-02 
864	 9.29415583601482E-02 
865	 9.29215609608936E-02 
866	 9.28584166640405E-02 
867	 9.28073265326305E-02 
868	 9.27398872508737E-02 
869	 9.26763431755905E-02 
870	 9.26820051460907E-02 
871	 9.26469211137394E-02 
872	 9.26390523697376E-02 
873	 9.26664431649483E-02 
874	 9.25983296526308E-02 
875	 9.25363383157017E-02 
876	 0.092467552244023 
877	 9.23896928324907E-02 
878	 9.24029292700696E-02 
879	 0.092434873532226 
880	 9.24301649207466E-02 
881	 9.23674782318531E-02 
882	 9.23302667876889E-02 
883	 0.092295661578908 
884	 9.22545405602451E-02 
885	 9.22133610956799E-02 
886	 9.22227768204845E-02 
887	 9.21801067016235E-02 
888	 9.21092719035179E-02 
889	 9.21287747032518E-02 
890	 9.20863793131196E-02 
891	 9.20414095331368E-02 
892	 9.20117251944247E-02 
893	 9.19361479693496E-02 
894	 9.19143897329214E-02 
895	 9.19347839224434E-02 
896	 9.19630358715913E-02 
897	 9.19691213349018E-02 
898	 9.19411949285422E-02 
899	 9.19276409425032E-02 
900	 9.19505625829228E-02 
901	 9.19195839892793E-02 
902	 9.18802497803611E-02 
903	 9.18685138778622E-02 
904	 9.18846389670562E-02 
905	 9.18130817439904E-02 
906	 9.17250441363038E-02 
907	 9.16843761347122E-02 
908	 9.17192547619303E-02 
909	 9.17294455808312E-02 
910	 9.16908310783505E-02 
911	 9.16475682386997E-02 
912	 9.16642257301801E-02 
913	 9.16298173108459E-02 
914	 9.16199516097854E-02 
915	 9.16514385326478E-02 
916	 9.16733362684297E-02 
917	 9.16596416231827E-02 
918	 9.16220639602824E-02 
919	 9.15710139586007E-02 
920	 9.15115018240902E-02 
921	 9.15019455563166E-02 
922	 9.15198088473582E-02 
923	 9.15436609485066E-02 
924	 9.15755370317055E-02 
925	 9.15555189610552E-02 
926	 9.15211245193946E-02 
927	 9.14907760419072E-02 
928	 9.14071428038869E-02 
929	 9.14346447013796E-02 
930	 9.14577079397621E-02 
931	 9.13952428227339E-02 
932	 9.14141110825942E-02 
933	 0.091453189807573 
934	 9.14401337781533E-02 
935	 9.13591783067877E-02 
936	 9.13645466551895E-02 
937	 9.13522875969434E-02 
938	 0.091331140904401 
939	 9.13304331819713E-02 
940	 9.13130074219056E-02 
941	 9.13344676228726E-02 
942	 9.13839632155582E-02 
943	 9.14167609909343E-02 
944	 9.13815006197048E-02 
945	 9.13002086078588E-02 
946	 9.12448673919556E-02 
947	 9.12716396447681E-02 
948	 9.12792458265922E-02 
949	 0.09126926865574 
950	 9.12694499652636E-02 
951	 0.09128982313837 
952	 9.11820607975077E-02 
953	 9.11824804580264E-02 
954	 9.12743263134254E-02 
955	 9.12959594417645E-02 
956	 0.091218448059329 
957	 9.12238708448539E-02 
958	 9.12591556973964E-02 
959	 9.11739190866348E-02 
960	 9.11928149852433E-02 
961	 9.11817290141421E-02 
962	 9.11803443923265E-02 
963	 9.12938019853297E-02 
964	 0.091239720938998 
965	 9.12122741413684E-02 
966	 9.12418281738454E-02 
967	 9.12399445150597E-02 
968	 9.12766732698648E-02 
969	 9.12236513512152E-02 
970	 9.10864426018238E-02 
971	 9.09788423674613E-02 
972	 9.09905517973851E-02 
973	 9.10523134068829E-02 
974	 9.10767842578987E-02 
975	 9.10264889151063E-02 
976	 9.11508565049338E-02 
977	 9.11400646514182E-02 
978	 9.10498245489858E-02 
979	 9.11255991937852E-02 
980	 9.10945327935812E-02 
981	 9.10351476612119E-02 
982	 9.10065871057987E-02 
983	 9.10281648806035E-02 
984	 9.10721729680722E-02 
985	 9.10114378409975E-02 
986	 9.08960993020604E-02 
987	 9.08694238175056E-02 
988	 9.09692966191536E-02 
989	 9.09702493644672E-02 
990	 9.09091879107675E-02 
991	 9.09437550652831E-02 
992	 0.091069671130365 
993	 9.10077843394075E-02 
994	 0.090893408511845 
995	 9.09476493706639E-02 
996	 9.08795444650894E-02 
997	 9.08389391938671E-02 
998	 9.09003335960145E-02 
999	 0.091024703927411 
1000	 9.09201971572388E-02 
1001	 0.087578144612048 
1002	 8.74758534447956E-02 
1003	 8.74266730591199E-02 
1004	 8.74288668849168E-02 
1005	 8.75020554607224E-02 
1006	 0.087496196129929 
1007	 8.74964319687155E-02 
1008	 8.75137943402544E-02 
1009	 8.74831527440594E-02 
1010	 8.74024942746768E-02 
1011	 8.73795501653049E-02 
1012	 8.73940622924439E-02 
1013	 8.73499088089993E-02 
1014	 8.73142065461762E-02 
1015	 8.72935131524236E-02 
1016	 8.72441592361375E-02 
1017	 8.72310522271835E-02 
1018	 8.72407307643174E-02 
1019	 8.72456445433797E-02 
1020	 8.72122299370156E-02 
1021	 0.087208294769473 
1022	 8.71723016339975E-02 
1023	 8.71161498540512E-02 
1024	 8.71122528588482E-02 
1025	 8.70971104373958E-02 
1026	 8.70654420552525E-02 
1027	 8.70488946543234E-02 
1028	 8.70184261532578E-02 
1029	 8.69788795950989E-02 
1030	 8.69291752832935E-02 
1031	 8.68896574460816E-02 
1032	 8.68474236329197E-02 
1033	 8.68227771434973E-02 
1034	 8.67855792567915E-02 
1035	 0.086786406329701 
1036	 8.68027817011231E-02 
1037	 8.67627489081209E-02 
1038	 8.67470057680322E-02 
1039	 8.67286607760913E-02 
1040	 8.66615130448475E-02 
1041	 8.66455969516799E-02 
1042	 8.66652598740336E-02 
1043	 8.66850674649917E-02 
1044	 8.66734754943994E-02 
1045	 8.66647186806263E-02 
1046	 8.66057409721715E-02 
1047	 8.65646431155945E-02 
1048	 8.65437447800481E-02 
1049	 0.086499452037167 
1050	 8.65575546998626E-02 
1051	 8.66007608224843E-02 
1052	 8.65291044824757E-02 
1053	 8.65573427551273E-02 
1054	 8.65548853838245E-02 
1055	 8.64816997383252E-02 
1056	 0.086515779408007 
1057	 8.65279970587007E-02 
1058	 8.65112676928461E-02 
1059	 8.65281532543931E-02 
1060	 8.65887041436611E-02 
1061	 8.66179365903538E-02 
1062	 8.66446111567645E-02 
1063	 8.66613090023049E-02 
1064	 8.66877798486667E-02 
1065	 8.67165430780752E-02 
1066	 8.67043764610644E-02 
1067	 8.67167298542807E-02 
1068	 8.67349534837438E-02 
1069	 8.66958995704599E-02 
1070	 8.66859031741255E-02 
1071	 8.66975180754824E-02 
1072	 8.67122369697362E-02 
1073	 8.67415736514814E-02 
1074	 0.086740971460326 
1075	 8.67437050328618E-02 
1076	 8.67030256913469E-02 
1077	 8.66646523400012E-02 
1078	 8.66796605764797E-02 
1079	 8.67028940629657E-02 
1080	 8.67403586704184E-02 
1081	 8.67772219584361E-02 
1082	 8.67637297263962E-02 
1083	 8.67553466497849E-02 
1084	 8.67238858131186E-02 
1085	 8.67272786499651E-02 
1086	 8.67573541394049E-02 
1087	 8.67586099849512E-02 
1088	 8.67619334019259E-02 
1089	 8.67757772620836E-02 
1090	 8.67410775888781E-02 
1091	 8.66671561560922E-02 
1092	 8.66506516191618E-02 
1093	 8.66559516614018E-02 
1094	 0.086645618229123 
1095	 8.66394225737509E-02 
1096	 8.66610184255348E-02 
1097	 0.086653185003913 
1098	 8.66432783623787E-02 
1099	 8.66435661438072E-02 
1100	 8.66441930912442E-02 
1101	 8.66298413016203E-02 
1102	 8.66180685706171E-02 
1103	 8.66142139891212E-02 
1104	 8.66034399741924E-02 
1105	 8.66029533095549E-02 
1106	 0.086581822607721 
1107	 8.65943657847427E-02 
1108	 8.66216967399094E-02 
1109	 8.66054860142661E-02 
1110	 8.65860048511831E-02 
1111	 8.65516184971136E-02 
1112	 8.64704491301233E-02 
1113	 8.64400928140337E-02 
1114	 8.64319972106524E-02 
1115	 8.64135431872314E-02 
1116	 0.086405481869503 
1117	 8.64059715117329E-02 
1118	 8.64083671304769E-02 
1119	 8.64007897838317E-02 
1120	 8.64258006747494E-02 
1121	 8.64309189404862E-02 
1122	 0.086411739856511 
1123	 8.64094729513155E-02 
1124	 8.64072367246155E-02 
1125	 8.64171803136196E-02 
1126	 8.64035954307357E-02 
1127	 8.63676235371632E-02 
1128	 8.63584540235228E-02 
1129	 8.63496831928875E-02 
1130	 8.63345177634113E-02 
1131	 8.63436770947821E-02 
1132	 8.63373583260708E-02 
1133	 8.62963224879283E-02 
1134	 8.62827260298722E-02 
1135	 0.086279837609042 
1136	 8.62936647871172E-02 
1137	 8.62974812492613E-02 
1138	 8.62927832729153E-02 
1139	 8.62942995917099E-02 
1140	 8.62879859552207E-02 
1141	 8.62889290833534E-02 
1142	 8.63034018388007E-02 
1143	 8.63038356079733E-02 
1144	 8.62912637325259E-02 
1145	 0.086293093234 
1146	 8.63017910770494E-02 
1147	 0.086305094011799 
1148	 8.63164547987344E-02 
1149	 8.63169398701097E-02 
1150	 8.63091838480942E-02 
1151	 8.63007522144913E-02 
1152	 8.62636845028071E-02 
1153	 8.62424340456131E-02 
1154	 8.62484168232459E-02 
1155	 0.08626892331624 
1156	 0.086276580375392 
1157	 8.63146991797413E-02 
1158	 8.63252761828135E-02 
1159	 8.63001802021983E-02 
1160	 8.63006433016708E-02 
1161	 8.63170129245235E-02 
1162	 0.086321735851452 
1163	 8.63212443249376E-02 
1164	 8.63295981012638E-02 
1165	 8.63354448626697E-02 
1166	 8.63475831549813E-02 
1167	 8.63697914755422E-02 
1168	 0.086377739115557 
1169	 8.63880579542158E-02 
1170	 8.63866401334347E-02 
1171	 8.64040092522923E-02 
1172	 8.64373444701173E-02 
1173	 8.64520186020725E-02 
1174	 8.64655111495861E-02 
1175	 8.64804254749149E-02 
1176	 8.64805604986999E-02 
1177	 8.64898004645405E-02 
1178	 8.65158639196595E-02 
1179	 8.65301018230869E-02 
1180	 8.65239719150145E-02 
1181	 8.65402287513591E-02 
1182	 8.65763154021121E-02 
1183	 8.65942478647983E-02 
1184	 8.66161463865354E-02 
1185	 8.66477121494134E-02 
1186	 0.08667467441001 
1187	 8.66885657783114E-02 
1188	 8.67150053040346E-02 
1189	 0.086757819379147 
1190	 8.67870835140883E-02 
1191	 8.68124636489905E-02 
1192	 8.68357547057324E-02 
1193	 8.68462605343125E-02 
1194	 8.68704734491637E-02 
1195	 8.68999764922279E-02 
1196	 8.69292880317698E-02 
1197	 8.69711095705888E-02 
1198	 8.70057961691263E-02 
1199	 8.70374720739983E-02 
1200	 8.70621174584313E-02 
1201	 8.70964016724887E-02 
1202	 8.71327432577911E-02 
1203	 8.71673927823457E-02 
1204	 8.72105966248583E-02 
1205	 8.72403246375212E-02 
1206	 8.72558034014096E-02 
1207	 8.72856081927743E-02 
1208	 8.73182489276588E-02 
1209	 8.73483551515101E-02 
1210	 8.73883862063246E-02 
1211	 8.74200005382607E-02 
1212	 8.74391237133247E-02 
1213	 8.74657582209111E-02 
1214	 8.74910934404389E-02 
1215	 0.087522481492772 
1216	 8.75580332989139E-02 
1217	 8.76034285938775E-02 
1218	 8.76339840768548E-02 
1219	 8.76639750257409E-02 
1220	 8.76900058407795E-02 
1221	 8.77071774314621E-02 
1222	 8.77245299206973E-02 
1223	 8.77354956306367E-02 
1224	 8.77587701848393E-02 
1225	 8.77783879750195E-02 
1226	 8.78092356468212E-02 
1227	 0.087865174537862 
1228	 0.08790220734983 
1229	 8.79283339053428E-02 
1230	 8.79631043411356E-02 
1231	 8.79907240475268E-02 
1232	 8.80259752893217E-02 
1233	 8.80671823517352E-02 
1234	 8.81230921931415E-02 
1235	 8.81628151522408E-02 
1236	 0.088200631445846 
1237	 8.82355694878075E-02 
1238	 8.82651536529533E-02 
1239	 8.82925549583584E-02 
1240	 8.83113519031539E-02 
1241	 8.83430620436573E-02 
1242	 8.83761053728465E-02 
1243	 8.84118468392458E-02 
1244	 8.84644233423888E-02 
1245	 8.85031696694442E-02 
1246	 0.088528301341985 
1247	 0.088562927665912 
1248	 8.85954743668134E-02 
1249	 8.86346087211517E-02 
1250	 8.86746224814018E-02 
1251	 8.87291463575359E-02 
1252	 8.87622096365143E-02 
1253	 8.87823196836715E-02 
1254	 8.88173031671429E-02 
1255	 8.88494274883228E-02 
1256	 8.88821365717686E-02 
1257	 8.89294553077201E-02 
1258	 8.89629112818663E-02 
1259	 8.89834683056493E-02 
1260	 8.90092767211839E-02 
1261	 8.90332078963698E-02 
1262	 0.089060356755073 
1263	 8.90804524134258E-02 
1264	 8.91132717504043E-02 
1265	 0.089166637488258 
1266	 8.92042871533565E-02 
1267	 0.089234179960594 
1268	 8.92781787801507E-02 
1269	 8.93086485835694E-02 
1270	 8.93210285957331E-02 
1271	 8.93489431802466E-02 
1272	 8.93802043309805E-02 
1273	 8.94164169733063E-02 
1274	 8.94590702532216E-02 
1275	 8.95019143766096E-02 
1276	 8.95458143471864E-02 
1277	 8.95962259603486E-02 
1278	 8.96460665589457E-02 
1279	 8.97060842554582E-02 
1280	 8.97856001892914E-02 
1281	 8.98517372940289E-02 
1282	 8.99130400497221E-02 
1283	 8.99778567254424E-02 
1284	 9.00300632109143E-02 
1285	 9.01000233057253E-02 
1286	 9.01813450867755E-02 
1287	 9.02582953343272E-02 
1288	 0.090328951353939 
1289	 9.03936182964682E-02 
1290	 9.04705054243009E-02 
1291	 0.090556483893151 
1292	 9.06217428644186E-02 
1293	 9.06789639997814E-02 
1294	 9.07509996577071E-02 
1295	 0.090813031785546 
1296	 9.08789141974812E-02 
1297	 9.09689710657808E-02 
1298	 9.10428972750904E-02 
1299	 9.10892615224078E-02 
1300	 9.11588209355078E-02 
1301	 9.12565955956323E-02 
1302	 9.13259561378158E-02 
1303	 9.13921873342827E-02 
1304	 9.14483477501775E-02 
1305	 9.14771767975377E-02 
1306	 9.15105634808186E-02 
1307	 9.15583047755871E-02 
1308	 9.16024181686862E-02 
1309	 9.16548520431808E-02 
1310	 9.17226659121866E-02 
1311	 9.17712728688053E-02 
1312	 9.18182615641469E-02 
1313	 9.18557349101555E-02 
1314	 9.18723753030764E-02 
1315	 9.19099522646793E-02 
1316	 9.19583126327329E-02 
1317	 9.19945834354718E-02 
1318	 9.20377965949152E-02 
1319	 9.20666062399262E-02 
1320	 9.20748358816549E-02 
1321	 0.09209567202205 
1322	 9.21164422671695E-02 
1323	 9.21415233418612E-02 
1324	 9.21811324098439E-02 
1325	 9.21930381849473E-02 
1326	 9.22053768805352E-02 
1327	 0.092240536812833 
1328	 9.22662983057967E-02 
1329	 9.23054922942796E-02 
1330	 9.23371380379503E-02 
1331	 9.23685702028353E-02 
1332	 9.23986193269453E-02 
1333	 9.24267343454669E-02 
1334	 9.24519954160593E-02 
1335	 0.092478771559598 
1336	 9.25026466751413E-02 
1337	 9.25249176215162E-02 
1338	 0.09254588797972 
1339	 9.25683614508099E-02 
1340	 9.25828393861076E-02 
1341	 9.25818790075006E-02 
1342	 9.25939499232798E-02 
1343	 0.092605166754889 
1344	 9.26239895481653E-02 
1345	 9.26649401953473E-02 
1346	 9.26819572798488E-02 
1347	 9.26779220783874E-02 
1348	 9.26755889376565E-02 
1349	 9.26506754555837E-02 
1350	 9.26369194780789E-02 
1351	 9.26324899441153E-02 
1352	 0.092647334792797 
1353	 9.26307812077546E-02 
1354	 9.26055046932952E-02 
1355	 9.25857233169205E-02 
1356	 9.25400258552917E-02 
1357	 9.25244595438426E-02 
1358	 9.25265397131264E-02 
1359	 9.25307499679641E-02 
1360	 9.25445069449027E-02 
1361	 9.25634482544929E-02 
1362	 9.25892186478478E-02 
1363	 0.092620531383728 
1364	 9.26594430026989E-02 
1365	 9.26981290401872E-02 
1366	 9.27296986196905E-02 
1367	 9.27920570169374E-02 
1368	 9.28521685835597E-02 
1369	 9.29005750591495E-02 
1370	 9.29658457375115E-02 
1371	 9.30125448468915E-02 
1372	 9.30542318177639E-02 
1373	 9.31069680885199E-02 
1374	 9.31444453471447E-02 
1375	 9.31863023656971E-02 
1376	 9.31984133864588E-02 
1377	 9.31907776715888E-02 
1378	 9.31768957711474E-02 
1379	 9.31289519940769E-02 
1380	 9.31085367049777E-02 
1381	 9.30810577009764E-02 
1382	 9.30836642124824E-02 
1383	 9.31138855742025E-02 
1384	 9.31389654388464E-02 
1385	 9.31814802792943E-02 
1386	 9.32197014308796E-02 
1387	 9.32585026461059E-02 
1388	 9.32930471838876E-02 
1389	 9.33289623676365E-02 
1390	 9.33673564005285E-02 
1391	 9.33878164570225E-02 
1392	 9.34089945529828E-02 
1393	 9.34198139035529E-02 
1394	 9.34148754829852E-02 
1395	 0.093422382648359 
1396	 0.093430683067953 
1397	 9.34460401942031E-02 
1398	 9.34759077676663E-02 
1399	 0.093491438638807 
1400	 9.35062221231476E-02 
1401	 9.35149404210901E-02 
1402	 9.35092143476767E-02 
1403	 0.09352201338368 
1404	 9.35317935950099E-02 
1405	 9.35571068980783E-02 
1406	 9.36065874782958E-02 
1407	 9.36397613878524E-02 
1408	 9.36780566332004E-02 
1409	 9.37119762178031E-02 
1410	 9.37268723465554E-02 
1411	 0.093758800036931 
1412	 9.38076958730802E-02 
1413	 9.38373752567719E-02 
1414	 9.38747528368664E-02 
1415	 9.39185432718183E-02 
1416	 9.39434001197484E-02 
1417	 9.39766885165074E-02 
1418	 9.40175225075256E-02 
1419	 0.094063688518373 
1420	 9.41175620130102E-02 
1421	 9.41786065907415E-02 
1422	 9.42451706636507E-02 
1423	 9.42896728863321E-02 
1424	 9.43175373489589E-02 
1425	 9.43196660132749E-02 
1426	 9.43517768323921E-02 
1427	 9.43732726685007E-02 
1428	 0.094412444739696 
1429	 9.44836528467707E-02 
1430	 9.45311551352306E-02 
1431	 9.45707034668359E-02 
1432	 9.46112088003137E-02 
1433	 9.46514975751306E-02 
1434	 9.46884743430908E-02 
1435	 9.47114949487456E-02 
1436	 9.47482006188336E-02 
1437	 9.47980448960261E-02 
1438	 9.48373189123755E-02 
1439	 9.48752818187068E-02 
1440	 9.49175217033511E-02 
1441	 9.49594906007183E-02 
1442	 9.49921360951496E-02 
1443	 9.50224743028899E-02 
1444	 9.50551606347053E-02 
1445	 9.50929113924265E-02 
1446	 9.51182388145586E-02 
1447	 9.51504038446992E-02 
1448	 9.52001100384953E-02 
1449	 9.52342868731282E-02 
1450	 9.52618243163971E-02 
1451	 9.52948853884108E-02 
1452	 9.53284873046824E-02 
1453	 0.095367598200949 
1454	 9.54121661605987E-02 
1455	 9.54490575610569E-02 
1456	 9.54913127938932E-02 
1457	 9.55215946083474E-02 
1458	 9.55394373650299E-02 
1459	 9.55652359096679E-02 
1460	 9.55808171146953E-02 
1461	 9.56147738389067E-02 
1462	 9.56668719978831E-02 
1463	 9.57031159962162E-02 
1464	 9.57467097722242E-02 
1465	 9.57817008288094E-02 
1466	 9.58008170672187E-02 
1467	 9.58243584907096E-02 
1468	 9.58393207381834E-02 
1469	 9.58689174164772E-02 
1470	 9.59074386060552E-02 
1471	 9.59465051869003E-02 
1472	 9.59784539025626E-02 
1473	 9.60129731031574E-02 
1474	 9.60353125898357E-02 
1475	 9.60422015114917E-02 
1476	 9.60607766313141E-02 
1477	 9.61051455575775E-02 
1478	 0.096154729489703 
1479	 9.61920320702783E-02 
1480	 9.62281335568203E-02 
1481	 9.62537866925541E-02 
1482	 9.62764062127293E-02 
1483	 9.62838323061733E-02 
1484	 9.63077397266602E-02 
1485	 9.63388906414522E-02 
1486	 9.63607755750849E-02 
1487	 9.63788258400469E-02 
1488	 9.64039992958734E-02 
1489	 9.64289261169713E-02 
1490	 9.64559495430724E-02 
1491	 0.096493731858824 
1492	 9.65214769146428E-02 
1493	 0.096538325851393 
1494	 9.65648638456532E-02 
1495	 9.65980380132653E-02 
1496	 9.66226292638956E-02 
1497	 9.66495333701569E-02 
1498	 9.66703007294717E-02 
1499	 9.66777737360145E-02 
1500	 9.66920942136238E-02 
1501	 9.67042866657769E-02 
1502	 9.67235963311178E-02 
1503	 9.67420298321703E-02 
1504	 9.67802314132331E-02 
1505	 9.68075118439704E-02 
1506	 9.68263388071398E-02 
1507	 9.68494839898325E-02 
1508	 9.68609213754357E-02 
1509	 9.68733062843613E-02 
1510	 9.69000728604349E-02 
1511	 9.69239851759607E-02 
1512	 9.69345269414116E-02 
1513	 9.69479191656484E-02 
1514	 9.69690089094893E-02 
1515	 9.69974996854895E-02 
1516	 0.097018572925932 
1517	 9.70369469471771E-02 
1518	 9.70632454922165E-02 
1519	 9.70734665558597E-02 
1520	 9.70647943991012E-02 
1521	 9.70701686565463E-02 
1522	 9.70725776596799E-02 
1523	 9.70833243344942E-02 
1524	 9.71050268352765E-02 
1525	 9.71192767066172E-02 
1526	 9.71329075951163E-02 
1527	 9.71477583945691E-02 
1528	 9.71600455108317E-02 
1529	 9.71748682645359E-02 
1530	 9.71954530227204E-02 
1531	 9.72104536096772E-02 
1532	 0.097225186197723 
1533	 9.72328661121602E-02 
1534	 9.72295205102839E-02 
1535	 9.72384848091691E-02 
1536	 9.72482990661805E-02 
1537	 9.72603319958164E-02 
1538	 0.097285363914233 
1539	 0.097300062943895 
1540	 0.097301381679046 
1541	 9.73137512090102E-02 
1542	 9.73364482070751E-02 
1543	 9.73503091775648E-02 
1544	 9.73670038635072E-02 
1545	 9.73807280058315E-02 
1546	 0.097388830201488 
1547	 9.73855728170316E-02 
1548	 9.73951902066656E-02 
1549	 0.097407753450513 
1550	 9.74332960152823E-02 
1551	 9.74559433403085E-02 
1552	 0.097468990189334 
1553	 9.74864887187475E-02 
1554	 9.75012624193619E-02 
1555	 9.75186900918872E-02 
1556	 0.097527949341547 
1557	 9.75295654091502E-02 
1558	 0.097532565840694 
1559	 9.75297525468735E-02 
1560	 9.75278992801543E-02 
1561	 0.097530378617158 
1562	 9.75386244548252E-02 
1563	 9.75423860783018E-02 
1564	 9.75538283912673E-02 
1565	 9.75874331215591E-02 
1566	 9.75986486596532E-02 
1567	 9.75900673237391E-02 
1568	 9.75993588287009E-02 
1569	 0.097618626953671 
1570	 9.76155522789809E-02 
1571	 9.76091716743182E-02 
1572	 9.76074497297305E-02 
1573	 9.75810918824166E-02 
1574	 0.097582940308186 
1575	 9.76173590718517E-02 
1576	 9.76219983061426E-02 
1577	 9.76167400836203E-02 
1578	 9.76207868042253E-02 
1579	 9.76098394424397E-02 
1580	 9.76163814607047E-02 
1581	 9.76512057782302E-02 
1582	 9.76591436756338E-02 
1583	 9.76586306768125E-02 
1584	 9.76576154772982E-02 
1585	 9.76375632894623E-02 
1586	 9.76326975870743E-02 
1587	 9.76282151174394E-02 
1588	 9.76375993494891E-02 
1589	 9.76717856386243E-02 
1590	 9.76842860576507E-02 
1591	 9.77004148872456E-02 
1592	 9.77065690715737E-02 
1593	 9.76871495282079E-02 
1594	 9.76782655673213E-02 
1595	 9.76744928629506E-02 
1596	 9.76682485230665E-02 
1597	 9.76656511430396E-02 
1598	 9.76562350928942E-02 
1599	 9.76332017993631E-02 
1600	 9.76245136916753E-02 
1601	 9.76127149136817E-02 
1602	 9.76147071661051E-02 
1603	 0.097641323699012 
1604	 0.097657188915765 
1605	 9.76770250489914E-02 
1606	 9.76928998968375E-02 
1607	 9.77107544079682E-02 
1608	 9.77113294841558E-02 
1609	 0.097703049602139 
1610	 9.77039279221975E-02 
1611	 9.77125185352646E-02 
1612	 9.77120113448753E-02 
1613	 0.097722709307999 
1614	 0.097742430972377 
1615	 0.097737648292359 
1616	 9.77385298414982E-02 
1617	 0.09775152103425 
1618	 9.77517345222833E-02 
1619	 0.097757858992554 
1620	 9.77658823900161E-02 
1621	 0.097760475252024 
1622	 0.097740672376732 
1623	 9.77347651159956E-02 
1624	 9.77244822205354E-02 
1625	 9.77279978046093E-02 
1626	 0.097747647385218 
1627	 9.77517394601534E-02 
1628	 9.77552509391781E-02 
1629	 9.77552350059358E-02 
1630	 9.77440339550874E-02 
1631	 9.77458552550267E-02 
1632	 9.77562757586753E-02 
1633	 9.77572958730717E-02 
1634	 0.097756808874962 
1635	 9.77609234863524E-02 
1636	 9.77649871477269E-02 
1637	 9.77629996590193E-02 
1638	 9.77580067930121E-02 
1639	 9.77648021562445E-02 
1640	 9.77700471987155E-02 
1641	 9.77764444858787E-02 
1642	 9.78021290337307E-02 
1643	 9.78059954970926E-02 
1644	 9.77922795460135E-02 
1645	 0.097787556347806 
1646	 9.77753052244975E-02 
1647	 9.77783309823454E-02 
1648	 9.77938797539044E-02 
1649	 9.77969460026034E-02 
1650	 9.78073029158305E-02 
1651	 9.78052293641531E-02 
1652	 9.77865359333257E-02 
1653	 9.77768189996406E-02 
1654	 9.77650523594853E-02 
1655	 0.097759892626778 
1656	 9.77578077022823E-02 
1657	 9.77576720790634E-02 
1658	 9.77644877247238E-02 
1659	 9.77667070725545E-02 
1660	 9.77678572206318E-02 
1661	 9.77694093592092E-02 
1662	 9.77688320842389E-02 
1663	 9.77720408643283E-02 
1664	 9.77802156590788E-02 
1665	 9.77812121862577E-02 
1666	 9.77832555740833E-02 
1667	 9.77786657726493E-02 
1668	 9.77629003743851E-02 
1669	 9.77560205969873E-02 
1670	 9.77453665915261E-02 
1671	 9.77465965893623E-02 
1672	 9.77577878736869E-02 
1673	 9.77673556442109E-02 
1674	 9.77920962857444E-02 
1675	 9.77947527415671E-02 
1676	 9.77840622491641E-02 
1677	 9.77790026842699E-02 
1678	 9.77601847942591E-02 
1679	 9.77558623758562E-02 
1680	 9.77624685537538E-02 
1681	 9.77671406715562E-02 
1682	 9.77771995072374E-02 
1683	 9.77811460780506E-02 
1684	 9.77815231418556E-02 
1685	 9.77880951541133E-02 
1686	 9.77953482412403E-02 
1687	 9.78010710276467E-02 
1688	 9.78132308030477E-02 
1689	 9.78180866600031E-02 
1690	 9.78184578201119E-02 
1691	 9.78158179733004E-02 
1692	 9.78056789638397E-02 
1693	 9.78045727450607E-02 
1694	 0.097800062942205 
1695	 9.78056330109555E-02 
1696	 9.78311502314606E-02 
1697	 0.097834823191956 
1698	 9.78311328469546E-02 
1699	 9.78274830559365E-02 
1700	 9.78026226975206E-02 
1701	 9.78035412997572E-02 
1702	 9.78254806209033E-02 
1703	 9.78332338332795E-02 
1704	 9.78465207587119E-02 
1705	 9.78531890673659E-02 
1706	 9.78416917671472E-02 
1707	 9.78494088140899E-02 
1708	 9.78780837690903E-02 
1709	 9.78820851915521E-02 
1710	 9.78845940200616E-02 
1711	 9.78775682416242E-02 
1712	 9.78439635621445E-02 
1713	 9.78313575063633E-02 
1714	 9.78265093779435E-02 
1715	 9.78196761313886E-02 
1716	 9.78080070228891E-02 
1717	 9.78162433949709E-02 
1718	 9.78424320619407E-02 
1719	 9.78544334896969E-02 
1720	 9.78809722047602E-02 
1721	 9.78866604184869E-02 
1722	 9.78725165988376E-02 
1723	 9.78581051419594E-02 
1724	 9.78351307498016E-02 
1725	 9.78234838693834E-02 
1726	 9.78004817357403E-02 
1727	 9.78015462763921E-02 
1728	 9.78394828002686E-02 
1729	 9.78242192035405E-02 
1730	 9.77853869885379E-02 
1731	 9.77697969294605E-02 
1732	 9.77305717987054E-02 
1733	 9.77159444897652E-02 
1734	 9.77382531827996E-02 
1735	 9.77399237793066E-02 
1736	 9.77285208708756E-02 
1737	 0.097724618108938 
1738	 9.77296812370695E-02 
1739	 9.77232481653147E-02 
1740	 9.77117160518386E-02 
1741	 9.76953326132356E-02 
1742	 9.76684541154929E-02 
1743	 9.76601932616567E-02 
1744	 9.76551090653329E-02 
1745	 0.097645950953908 
1746	 9.76436208353888E-02 
1747	 9.76527105014586E-02 
1748	 0.097666829427412 
1749	 9.76990858561231E-02 
1750	 9.77032279473923E-02 
1751	 9.76868306762979E-02 
1752	 9.76598689643051E-02 
1753	 9.76213538839717E-02 
1754	 9.76053504635059E-02 
1755	 9.75977205077358E-02 
1756	 9.75863020934871E-02 
1757	 0.097581860431041 
1758	 9.75711569524192E-02 
1759	 9.75586527235393E-02 
1760	 9.75577603581028E-02 
1761	 0.09756436749809 
1762	 9.75762936210778E-02 
1763	 9.75666622155091E-02 
1764	 9.75442464568556E-02 
1765	 0.097552514859395 
1766	 9.75717286285099E-02 
1767	 9.75836146310161E-02 
1768	 9.75952644661623E-02 
1769	 9.76039003708003E-02 
1770	 9.75858289230732E-02 
1771	 9.75790101720051E-02 
1772	 9.76068212700326E-02 
1773	 9.75887211537597E-02 
1774	 9.75553332046857E-02 
1775	 9.75427378733617E-02 
1776	 9.75183781032511E-02 
1777	 9.75167436230253E-02 
1778	 9.75248792872787E-02 
1779	 9.75107702441105E-02 
1780	 9.74957485674549E-02 
1781	 9.74766642902543E-02 
1782	 9.74765428230833E-02 
1783	 9.75188393342354E-02 
1784	 9.75336243517205E-02 
1785	 9.75571870449124E-02 
1786	 9.75583755523434E-02 
1787	 9.75266596885371E-02 
1788	 9.75156791219699E-02 
1789	 9.75016654056043E-02 
1790	 9.74922564191063E-02 
1791	 9.74951520023989E-02 
1792	 9.74873955251231E-02 
1793	 0.097481882332614 
1794	 9.74692668210032E-02 
1795	 9.74309119474733E-02 
1796	 9.74273225480728E-02 
1797	 9.74488724734795E-02 
1798	 9.74490719089763E-02 
1799	 9.74714617926443E-02 
1800	 0.097465226369292 
1801	 9.46761903031224E-02 
1802	 0.09476161388505 
1803	 0.094826515680431 
1804	 9.49538404554804E-02 
1805	 9.50427674670896E-02 
1806	 9.51269405183475E-02 
1807	 9.52504071567286E-02 
1808	 9.53342995924178E-02 
1809	 9.53927965930585E-02 
1810	 9.54360445132631E-02 
1811	 9.54597250042679E-02 
1812	 9.54903132092381E-02 
1813	 9.54916752830278E-02 
1814	 9.55164764989156E-02 
1815	 9.55588819319231E-02 
1816	 9.55698440189809E-02 
1817	 9.55834109927363E-02 
1818	 9.55951459170389E-02 
1819	 9.56002904158836E-02 
1820	 9.55968968994233E-02 
1821	 9.55929780764808E-02 
1822	 9.55873042853609E-02 
1823	 9.55903270416119E-02 
1824	 9.56035055818551E-02 
1825	 9.56426224564084E-02 
1826	 0.095693938716051 
1827	 0.095698886337029 
1828	 9.56998611586887E-02 
1829	 9.56782551208216E-02 
1830	 0.095667167616768 
1831	 9.56352703369867E-02 
1832	 0.095643787558878 
1833	 0.095649727673598 
1834	 9.56368079476548E-02 
1835	 9.56338331969951E-02 
1836	 9.56466822531348E-02 
1837	 0.095653581680454 
1838	 9.56777970607638E-02 
1839	 9.57005196714196E-02 
1840	 0.095726776284685 
1841	 9.57349811495817E-02 
1842	 9.57730438368561E-02 
1843	 9.58086807232148E-02 
1844	 0.095842151964159 
1845	 9.58815571308823E-02 
1846	 9.59011189060224E-02 
1847	 9.59401354627487E-02 
1848	 9.59888405322941E-02 
1849	 9.60041196948715E-02 
1850	 9.60341092108395E-02 
1851	 9.60707182407439E-02 
1852	 9.61139161534681E-02 
1853	 0.09612864795116 
1854	 9.61634015280675E-02 
1855	 9.62147228655263E-02 
1856	 9.62381904887435E-02 
1857	 9.62508444561571E-02 
1858	 0.096267219900313 
1859	 9.62957356617803E-02 
1860	 9.63089260146085E-02 
1861	 9.63073855028197E-02 
1862	 9.63146141839217E-02 
1863	 9.63327933954171E-02 
1864	 9.62789281009953E-02 
1865	 9.62035049697506E-02 
1866	 9.61401145106371E-02 
1867	 9.60706611971671E-02 
1868	 9.60051993504903E-02 
1869	 9.59706033519694E-02 
1870	 9.59787839451337E-02 
1871	 9.59943488026896E-02 
1872	 9.60264177314856E-02 
1873	 0.096079841357071 
1874	 0.096127549161404 
1875	 9.61758124894717E-02 
1876	 9.62170952300388E-02 
1877	 9.62526510647635E-02 
1878	 9.63160209617603E-02 
1879	 0.096369560788566 
1880	 9.64057222679496E-02 
1881	 9.64430561116488E-02 
1882	 9.64537998248003E-02 
1883	 9.64421446058102E-02 
1884	 9.64158067292812E-02 
1885	 9.63946256427175E-02 
1886	 9.63639786656487E-02 
1887	 9.63415028936086E-02 
1888	 9.63147752058388E-02 
1889	 9.62598642332353E-02 
1890	 9.61958717356903E-02 
1891	 9.61453209923956E-02 
1892	 9.61023722299123E-02 
1893	 9.60506104274814E-02 
1894	 9.60015106681496E-02 
1895	 9.59575525805834E-02 
1896	 9.58915668565963E-02 
1897	 9.57949230636835E-02 
1898	 9.57022611969255E-02 
1899	 9.55985687761349E-02 
1900	 9.55048007964891E-02 
1901	 9.54416666615771E-02 
1902	 9.53811318747498E-02 
1903	 0.095347286235849 
1904	 9.52998720301661E-02 
1905	 9.52522061416464E-02 
1906	 9.52015599861736E-02 
1907	 9.51616162718192E-02 
1908	 9.51093885344775E-02 
1909	 9.50729183313971E-02 
1910	 9.50324354812168E-02 
1911	 0.094982540032749 
1912	 9.49410901264878E-02 
1913	 9.49050813060028E-02 
1914	 0.094877271430247 
1915	 9.48476077352178E-02 
1916	 9.48235570370002E-02 
1917	 9.47942753732452E-02 
1918	 9.47708830332575E-02 
1919	 9.47436437014493E-02 
1920	 9.47172740735216E-02 
1921	 9.47023319373928E-02 
1922	 9.46829868571073E-02 
1923	 9.46666073072559E-02 
1924	 9.46656429077312E-02 
1925	 9.46897874510313E-02 
1926	 9.46975315317241E-02 
1927	 9.47015405461024E-02 
1928	 9.47197075163762E-02 
1929	 9.47374013520257E-02 
1930	 9.47198499746599E-02 
1931	 0.094726644497516 
1932	 9.47243526069664E-02 
1933	 9.47236809141248E-02 
1934	 9.47425634954648E-02 
1935	 9.47516403076219E-02 
1936	 9.47729670681906E-02 
1937	 9.47770957971113E-02 
1938	 9.47540899809835E-02 
1939	 9.47521648216558E-02 
1940	 9.47389400733083E-02 
1941	 9.47626360583013E-02 
1942	 9.47960237194362E-02 
1943	 9.48493300856661E-02 
1944	 9.48979054325042E-02 
1945	 9.49138103025694E-02 
1946	 9.49307119604326E-02 
1947	 9.49261511266922E-02 
1948	 9.49319305522106E-02 
1949	 9.49377067718365E-02 
1950	 9.49456613147854E-02 
1951	 9.49549299707923E-02 
1952	 9.49623398372696E-02 
1953	 9.49707539489687E-02 
1954	 9.49917904243056E-02 
1955	 9.50047155189159E-02 
1956	 9.50325174081002E-02 
1957	 9.50708287122613E-02 
1958	 9.51260868231519E-02 
1959	 9.51692116126949E-02 
1960	 9.52224514248094E-02 
1961	 9.52672351679234E-02 
1962	 9.52989000333785E-02 
1963	 9.53344716306958E-02 
1964	 9.53728930763233E-02 
1965	 9.54112433564462E-02 
1966	 9.54404779218035E-02 
1967	 9.54785237605816E-02 
1968	 0.095521291079144 
1969	 9.55727052927033E-02 
1970	 9.56146338489577E-02 
1971	 9.56584069257938E-02 
1972	 9.56982482755469E-02 
1973	 9.57286114545749E-02 
1974	 0.095762579742487 
1975	 9.57900680025782E-02 
1976	 9.58340275861942E-02 
1977	 9.58902514149627E-02 
1978	 9.59366926899886E-02 
1979	 9.60072075737079E-02 
1980	 0.096095695357472 
1981	 9.61485801391471E-02 
1982	 9.61881030764769E-02 
1983	 9.62285050759088E-02 
1984	 9.62387822513019E-02 
1985	 9.62651802148743E-02 
1986	 9.63049769735081E-02 
1987	 9.63372410886294E-02 
1988	 9.63569778220516E-02 
1989	 9.63986497315344E-02 
1990	 9.64497659413718E-02 
1991	 9.64781809719831E-02 
1992	 9.65028869182325E-02 
1993	 9.65167051467031E-02 
1994	 9.65490630152696E-02 
1995	 9.65798139922407E-02 
1996	 9.66112187966653E-02 
1997	 9.66610417826868E-02 
1998	 9.67000205103462E-02 
1999	 0.096724754735743 
2000	 9.67544481927593E-02 
2001	 9.67733376394245E-02 
2002	 0.096823245331976 
2003	 9.68737911993323E-02 
2004	 9.69109509189616E-02 
2005	 0.096955690884217 
2006	 9.70050774998122E-02 
2007	 9.70546051283599E-02 
2008	 9.71000246757958E-02 
2009	 0.097157121874741 
2010	 9.72338639666946E-02 
2011	 9.72988197372145E-02 
2012	 9.73624783548914E-02 
2013	 9.74210512243002E-02 
2014	 9.74763385863885E-02 
2015	 0.097523270664042 
2016	 9.75763000198659E-02 
2017	 9.76204228739145E-02 
2018	 9.76608471587004E-02 
2019	 9.76907273552259E-02 
2020	 9.77333976268177E-02 
2021	 9.77748161014597E-02 
2022	 9.78211731649126E-02 
2023	 9.78816451478629E-02 
2024	 9.79329522270909E-02 
2025	 9.79771793113895E-02 
2026	 9.80253503159182E-02 
2027	 9.80759640816877E-02 
2028	 9.81227689260396E-02 
2029	 9.81721320458393E-02 
2030	 9.82229839708441E-02 
2031	 9.82716983375574E-02 
2032	 9.83183007991835E-02 
2033	 9.83677629196048E-02 
2034	 9.84248437160591E-02 
2035	 9.84697468443731E-02 
2036	 9.85117937457793E-02 
2037	 9.85504788692603E-02 
2038	 9.85649539091228E-02 
2039	 0.0986023230439 
2040	 9.86514284517544E-02 
2041	 9.87073869239991E-02 
2042	 9.87531563716719E-02 
2043	 0.098799812849503 
2044	 9.88363146627539E-02 
2045	 9.88478329697534E-02 
2046	 9.88835675759196E-02 
2047	 9.89302998065546E-02 
2048	 9.89723615765664E-02 
2049	 9.90284982002089E-02 
2050	 9.90668187238955E-02 
2051	 9.90927259960742E-02 
2052	 9.91223685196148E-02 
2053	 9.91332112389094E-02 
2054	 9.91626784045688E-02 
2055	 9.91994701703448E-02 
2056	 9.92517646773595E-02 
2057	 0.099291935790589 
2058	 9.93507496258304E-02 
2059	 9.93728797108856E-02 
2060	 9.93581766878153E-02 
2061	 9.93765515610214E-02 
2062	 0.09938775023394 
2063	 9.94140910044526E-02 
2064	 9.94694332482272E-02 
2065	 9.95142545986178E-02 
2066	 9.95646673156975E-02 
2067	 9.95989465262928E-02 
2068	 9.96213828039659E-02 
2069	 0.099651982460267 
2070	 9.96809810562839E-02 
2071	 9.97002125020467E-02 
2072	 9.97247516989465E-02 
2073	 9.97629338759625E-02 
2074	 9.97818739076372E-02 
2075	 0.099775059759106 
2076	 9.97984996596422E-02 
2077	 9.98337778174998E-02 
2078	 0.099862092007238 
2079	 9.99046558282548E-02 
2080	 9.99397415150056E-02 
2081	 9.99715806579344E-02 
2082	 9.99957822400327E-02 
2083	 0.100012261251791 
2084	 0.10003077791871 
2085	 0.100062176649899 
2086	 0.100091014512798 
2087	 0.100121220394628 
2088	 0.100162241247879 
2089	 0.100206947864411 
2090	 0.100259290912838 
2091	 0.100289277611054 
2092	 0.100319592415186 
2093	 0.100350235908246 
2094	 0.10034680147774 
2095	 0.100369157037777 
2096	 0.100421233005209 
2097	 0.100459466632775 
2098	 0.100488922485765 
2099	 0.10053555914374 
2100	 0.100565555699597 
2101	 0.100582327182954 
2102	 0.100617394389181 
2103	 0.100653341897679 
2104	 0.100693772752244 
2105	 0.100746786427226 
2106	 0.100797598096017 
2107	 0.100839239148196 
2108	 0.100899753892055 
2109	 0.100987180953632 
2110	 0.101051259013805 
2111	 0.101117415683335 
2112	 0.10117660825204 
2113	 0.101230560046276 
2114	 0.101252667714765 
2115	 0.101305542973196 
2116	 0.101369875431468 
2117	 0.101420651850545 
2118	 0.101479974008988 
2119	 0.101524146635759 
2120	 0.101547479472693 
2121	 0.101587725000358 
2122	 0.101629101424354 
2123	 0.101672119833977 
2124	 0.101736861921543 
2125	 0.101772366013256 
2126	 0.101787478280317 
2127	 0.101810045642287 
2128	 0.101816332825733 
2129	 0.101830237474406 
2130	 0.101864496834142 
2131	 0.10188198242672 
2132	 0.101886479375978 
2133	 0.101875604440122 
2134	 0.101875256073528 
2135	 0.101860756316472 
2136	 0.101861945146172 
2137	 0.101881920066302 
2138	 0.101885101162134 
2139	 0.101890956763071 
2140	 0.101883025806067 
2141	 0.101857984560002 
2142	 0.101840202076665 
2143	 0.101826479312961 
2144	 0.101795732019798 
2145	 0.101756563148062 
2146	 0.101717848112592 
2147	 0.101660428304122 
2148	 0.101610430189293 
2149	 0.101562009322762 
2150	 0.101517994693823 
2151	 0.101477392165751 
2152	 0.101448678479443 
2153	 0.101395321581043 
2154	 0.101328018968581 
2155	 0.101276915402726 
2156	 0.10122370261266 
2157	 0.101158553106418 
2158	 0.101109608900856 
2159	 0.101041398449283 
2160	 0.100927853793678 
2161	 0.100847373105384 
2162	 0.100792076965529 
2163	 0.100720167648791 
2164	 0.1006361115898 
2165	 0.100582083423569 
2166	 0.10051310048402 
2167	 0.100432296025994 
2168	 0.100360484987289 
2169	 0.100301932385216 
2170	 0.100225464822491 
2171	 0.100133915139555 
2172	 0.100056449921076 
2173	 0.099981051118531 
2174	 9.99043058863141E-02 
2175	 9.98294402952657E-02 
2176	 0.09975951656556 
2177	 9.96882024041739E-02 
2178	 9.96194310404975E-02 
2179	 9.95583277440009E-02 
2180	 0.099498029828115 
2181	 9.94366602490071E-02 
2182	 9.93781288585854E-02 
2183	 9.93314606250406E-02 
2184	 9.92774083378148E-02 
2185	 9.92122460724171E-02 
2186	 9.91349932526345E-02 
2187	 9.90709383640912E-02 
2188	 9.89979738820265E-02 
2189	 9.89408570947533E-02 
2190	 9.89012671557102E-02 
2191	 9.88525690931715E-02 
2192	 9.88110110870932E-02 
2193	 9.87559818828496E-02 
2194	 9.86873444850984E-02 
2195	 9.86312182979861E-02 
2196	 9.85686367168317E-02 
2197	 9.85155235962551E-02 
2198	 0.098464379875789 
2199	 9.84338775582956E-02 
2200	 9.84196077827109E-02 
2201	 9.84047972763055E-02 
2202	 9.84066343294701E-02 
2203	 0.098417366057868 
2204	 9.84099970666596E-02 
2205	 9.83906939372142E-02 
2206	 0.098381563552481 
2207	 9.83759728131998E-02 
2208	 0.098353239396786 
2209	 9.83240834384541E-02 
2210	 9.83044798133053E-02 
2211	 9.82692311281707E-02 
2212	 9.82515411761237E-02 
2213	 9.82536414614155E-02 
2214	 9.82439860864725E-02 
2215	 9.82298879426185E-02 
2216	 9.82237193655071E-02 
2217	 9.82216292306022E-02 
2218	 0.098219885107728 
2219	 9.82143045990016E-02 
2220	 9.82237361834691E-02 
2221	 9.82558225557855E-02 
2222	 9.82677052596613E-02 
2223	 9.82699188686808E-02 
2224	 9.82567602904252E-02 
2225	 9.82697967088486E-02 
2226	 9.82710868185076E-02 
2227	 9.82880464199201E-02 
2228	 0.09834685671811 
2229	 9.83612586169947E-02 
2230	 9.83433492243145E-02 
2231	 9.83485632408546E-02 
2232	 9.83501737737802E-02 
2233	 9.83614301453448E-02 
2234	 9.83905483651608E-02 
2235	 9.84017609040784E-02 
2236	 9.84093299846389E-02 
2237	 9.84134690466406E-02 
2238	 0.098392442094529 
2239	 9.84042150857974E-02 
2240	 9.84335684129341E-02 
2241	 9.84570845053329E-02 
2242	 9.85056054028509E-02 
2243	 9.85389163509582E-02 
2244	 9.85473489553322E-02 
2245	 9.85870226385412E-02 
2246	 9.86093892214447E-02 
2247	 9.85972679521097E-02 
2248	 9.86149534915613E-02 
2249	 9.86276892741468E-02 
2250	 9.86519994327609E-02 
2251	 9.86918258285109E-02 
2252	 9.87393975781213E-02 
2253	 9.88121238127361E-02 
2254	 9.88311956004934E-02 
2255	 9.88364603813925E-02 
2256	 9.88422787969942E-02 
2257	 9.87964607543421E-02 
2258	 9.87917085042552E-02 
2259	 9.88176289437599E-02 
2260	 9.88368125131984E-02 
2261	 9.88536447048803E-02 
2262	 9.88779740839409E-02 
2263	 9.89263548733499E-02 
2264	 9.89567271575622E-02 
2265	 9.89716234217185E-02 
2266	 9.90008534451621E-02 
2267	 9.90302556664777E-02 
2268	 9.90519662383125E-02 
2269	 9.90807960596459E-02 
2270	 9.91157112152928E-02 
2271	 9.91144768591146E-02 
2272	 9.91073881891659E-02 
2273	 9.91048067829218E-02 
2274	 9.91101898289478E-02 
2275	 0.099127910312976 
2276	 9.91673499500262E-02 
2277	 9.91969399548269E-02 
2278	 9.92319282419015E-02 
2279	 9.92563639044124E-02 
2280	 9.92699751676731E-02 
2281	 9.92932042626215E-02 
2282	 9.93107805066791E-02 
2283	 0.099349236235404 
2284	 9.94167510525808E-02 
2285	 9.94526124495212E-02 
2286	 9.94921785055747E-02 
2287	 9.95073393249743E-02 
2288	 9.94660259588992E-02 
2289	 9.94816031046198E-02 
2290	 9.95302147898032E-02 
2291	 9.95588963532483E-02 
2292	 0.099609758165212 
2293	 9.96421533066904E-02 
2294	 9.96445828344388E-02 
2295	 0.099654243135754 
2296	 0.099653362203008 
2297	 9.96910823171577E-02 
2298	 9.96981856549216E-02 
2299	 9.97047107892479E-02 
2300	 9.97125200303408E-02 
2301	 9.96974742672898E-02 
2302	 9.97285415210789E-02 
2303	 9.97590222040374E-02 
2304	 9.97534940927749E-02 
2305	 9.97780125447533E-02 
2306	 9.97957305136795E-02 
2307	 9.97800969163419E-02 
2308	 9.97983552832047E-02 
2309	 9.98668930920629E-02 
2310	 9.98779498990984E-02 
2311	 9.98538262072747E-02 
2312	 9.98764661370525E-02 
2313	 9.98860363403589E-02 
2314	 9.99238837215726E-02 
2315	 0.100014260210017 
2316	 0.100060193013882 
2317	 0.100105998179693 
2318	 0.100144379018328 
2319	 0.100168206515602 
2320	 0.100188029961386 
2321	 0.100172240456688 
2322	 0.100192617492471 
2323	 0.100239987652518 
2324	 0.100266274604593 
2325	 0.100299994110163 
2326	 0.100345758931403 
2327	 0.100384800993841 
2328	 0.100410813967882 
2329	 0.100478166999491 
2330	 0.100543954728204 
2331	 0.100562770208828 
2332	 0.100585822871991 
2333	 0.100600991647459 
2334	 0.100626404659135 
2335	 0.100677377900633 
2336	 0.100712177936048 
2337	 0.100750809289838 
2338	 0.10081342976276 
2339	 0.100851085340649 
2340	 0.100864692886642 
2341	 0.100897455641697 
2342	 0.100915542216173 
2343	 0.1009436902847 
2344	 0.100995995118769 
2345	 0.101027568734423 
2346	 0.101062583847819 
2347	 0.101076306354574 
2348	 0.101073168068995 
2349	 0.101064710997299 
2350	 0.101045402242237 
2351	 0.101024996863334 
2352	 0.100971615103727 
2353	 0.100971807491015 
2354	 0.10099723729814 
2355	 0.101019641678408 
2356	 0.101084502031019 
2357	 0.101115074947059 
2358	 0.101127405827144 
2359	 0.101142704475864 
2360	 0.101156365865183 
2361	 0.101153664861605 
2362	 0.101127714255278 
2363	 0.101121831909379 
2364	 0.101089400898013 
2365	 0.101109069208293 
2366	 0.101210619958465 
2367	 0.101239048078649 
2368	 0.101234030296231 
2369	 0.10126006025876 
2370	 0.101267480985332 
2371	 0.101266558648117 
2372	 0.101306125962413 
2373	 0.101414041945699 
2374	 0.101458723241656 
2375	 0.10143233738844 
2376	 0.101416156202549 
2377	 0.101385709378097 
2378	 0.101349437311287 
2379	 0.101376443256429 
2380	 0.101380730849586 
2381	 0.101328175001781 
2382	 0.10133017415426 
2383	 0.101300636640451 
2384	 0.101275701292101 
2385	 0.101320508858143 
2386	 0.101315299892445 
2387	 0.101339237159797 
2388	 0.101468108050694 
2389	 0.101529087326974 
2390	 0.101557129812849 
2391	 0.101630110633847 
2392	 0.101587212698393 
2393	 0.10153352897103 
2394	 0.101420680286874 
2395	 0.101291164067783 
2396	 0.101319490296759 
2397	 0.101300406509865 
2398	 0.101330978781629 
2399	 0.101348782530367 
2400	 0.10130997047335 
2401	 0.101308125533568 
2402	 0.10128879812501 
2403	 0.101419513200587 
2404	 0.101481219207999 
2405	 0.101446071974994 
2406	 0.101553603323701 
2407	 0.101561783884618 
2408	 0.10150631114533 
2409	 0.101565144824829 
2410	 0.101520117659048 
2411	 0.101398924606251 
2412	 0.101349107796058 
2413	 0.101259983475674 
2414	 0.101188238873322 
2415	 0.101197034676353 
2416	 0.101184010361068 
2417	 0.101169071633663 
2418	 0.101154067535546 
2419	 0.101154086261239 
2420	 0.101157987079587 
2421	 0.101182992423407 
2422	 0.101169284716171 
2423	 0.101108797266154 
2424	 0.101092164231972 
2425	 0.101053411957535 
2426	 0.101052191990997 
2427	 0.101144402723212 
2428	 0.101174436035072 
2429	 0.101195361818604 
2430	 0.101190491790541 
2431	 0.101154413449765 
2432	 0.101109987705366 
2433	 0.100982885717013 
2434	 0.100927400775311 
2435	 0.100957155303952 
2436	 0.100935305728605 
2437	 0.100880862453656 
2438	 0.100868583935016 
2439	 0.100862045148355 
2440	 0.100847641923791 
2441	 0.100907531482655 
2442	 0.100883443913093 
2443	 0.100725099467794 
2444	 0.100627231945797 
2445	 0.10054569857202 
2446	 0.100513738651369 
2447	 0.100590601234189 
2448	 0.100630774202547 
2449	 0.100634458275256 
2450	 0.100598881984516 
2451	 0.100467968823814 
2452	 0.100464098951886 
2453	 0.100558164638799 
2454	 0.100562707340584 
2455	 0.100714200641234 
2456	 0.10068836258458 
2457	 0.100406821739914 
2458	 0.100281937622999 
2459	 0.100085355495712 
2460	 9.99638982789405E-02 
2461	 9.99641806818677E-02 
2462	 0.100006958548218 
2463	 0.100222938600994 
2464	 0.100246483907489 
2465	 0.100172534574204 
2466	 0.100084565121975 
2467	 9.97862849045067E-02 
2468	 9.96764429438094E-02 
2469	 9.97856231993707E-02 
2470	 9.96738721750981E-02 
2471	 9.95997395757621E-02 
2472	 9.96936319512075E-02 
2473	 9.97829902683122E-02 
2474	 9.99176358369794E-02 
2475	 9.99370245154425E-02 
2476	 9.98271415958093E-02 
2477	 9.97248641764028E-02 
2478	 9.95612032261793E-02 
2479	 9.96121859237771E-02 
2480	 9.99211618452641E-02 
2481	 0.100119224336987 
2482	 0.100276543272875 
2483	 0.100211325823059 
2484	 9.99625705140602E-02 
2485	 9.98475959982565E-02 
2486	 9.98751310678996E-02 
2487	 0.100033794296569 
2488	 0.100150171723113 
2489	 0.100110251704087 
2490	 9.99535065313743E-02 
2491	 9.97098355446777E-02 
2492	 9.94367948011808E-02 
2493	 9.93748697112841E-02 
2494	 9.93246183820097E-02 
2495	 9.91807887486484E-02 
2496	 9.93738526108555E-02 
2497	 9.94576723154386E-02 
2498	 9.92158461623316E-02 
2499	 0.09928709094448 
2500	 9.92615302473416E-02 
