Wavelength	LMW_1600002.asd
350	 9.25511048208096E-02 
351	 9.01293634742183E-02 
352	 8.88823403369584E-02 
353	 0.087235742875387 
354	 8.99751500947847E-02 
355	 8.82285345040919E-02 
356	 8.52679011676135E-02 
357	 8.62423360850568E-02 
358	 9.16928308848726E-02 
359	 9.01849650616052E-02 
360	 8.63512290362316E-02 
361	 9.32847583140858E-02 
362	 9.63322830524982E-02 
363	 9.48521933584636E-02 
364	 9.21608129590211E-02 
365	 9.49046017665513E-02 
366	 9.42630188054047E-02 
367	 9.23257611861144E-02 
368	 9.33277831302097E-02 
369	 9.77221415690932E-02 
370	 9.99553556372516E-02 
371	 0.099679316673999 
372	 0.100165673870929 
373	 0.102906362676668 
374	 0.104242452945513 
375	 0.10398273228524 
376	 0.109544183333238 
377	 0.107949946498457 
378	 0.105213751580899 
379	 0.109205599889838 
380	 0.109969413525735 
381	 0.110618505589929 
382	 0.112559687150118 
383	 0.115394832532824 
384	 0.117239433717808 
385	 0.117240328934908 
386	 0.116801536372184 
387	 0.121433269213495 
388	 0.124692815585785 
389	 0.125711395709875 
390	 0.125884167930345 
391	 0.127713164060021 
392	 0.130370916552952 
393	 0.133659091217507 
394	 0.137842001261265 
395	 0.138385886061683 
396	 0.139186313241971 
397	 0.142616766964921 
398	 0.144901559647493 
399	 0.146715552995717 
400	 0.149374824023226 
401	 0.153532321748314 
402	 0.154732672363375 
403	 0.155765183680127 
404	 0.157909909592187 
405	 0.160468191251025 
406	 0.162972701505302 
407	 0.164733603735878 
408	 0.165758907073278 
409	 0.167777216720286 
410	 0.169323808895524 
411	 0.170662407597745 
412	 0.172642865715885 
413	 0.174218294988136 
414	 0.175050387709472 
415	 0.17574774687185 
416	 0.17803517961971 
417	 0.178401742259547 
418	 0.178130478908741 
419	 0.178920504719551 
420	 0.179696298668299 
421	 0.180309357780131 
422	 0.180843927838065 
423	 0.181460342784689 
424	 0.181333836084506 
425	 0.181360087280249 
426	 0.181860231479511 
427	 0.181768896006899 
428	 0.181296831283085 
429	 0.181218755050042 
430	 0.181994883049608 
431	 0.181530516345279 
432	 0.181260518974873 
433	 0.181618538883245 
434	 0.181929185955282 
435	 0.182339144218233 
436	 0.182987466214331 
437	 0.183773016150851 
438	 0.183814989389639 
439	 0.184763367380005 
440	 0.186554273174826 
441	 0.188259201322211 
442	 0.189711708541611 
443	 0.191210542311156 
444	 0.192825735476467 
445	 0.194182852183781 
446	 0.195878793629471 
447	 0.197655783145669 
448	 0.199206316870779 
449	 0.201145216470368 
450	 0.203088234264444 
451	 0.204759765274424 
452	 0.206064810345314 
453	 0.207895053167711 
454	 0.209361806998993 
455	 0.210130284751631 
456	 0.212048067144859 
457	 0.213670541237302 
458	 0.214817228547349 
459	 0.21588501401083 
460	 0.216960199872581 
461	 0.218001721432579 
462	 0.219008061941239 
463	 0.220053547897005 
464	 0.221121954887073 
465	 0.222051693789603 
466	 0.222731466293679 
467	 0.223367023969648 
468	 0.22415741518496 
469	 0.225031847041234 
470	 0.225733402683585 
471	 0.22675330248646 
472	 0.227576510601788 
473	 0.227964764170921 
474	 0.228704922170839 
475	 0.229446131339201 
476	 0.230188401171979 
477	 0.231055927834496 
478	 0.232016650548096 
479	 0.232915285063024 
480	 0.233725310161164 
481	 0.23461260042627 
482	 0.235327051554733 
483	 0.236008079363218 
484	 0.236853016431833 
485	 0.237882835427458 
486	 0.238581546821662 
487	 0.239089773955131 
488	 0.240054093949465 
489	 0.240860209339449 
490	 0.241603878557767 
491	 0.242427310460537 
492	 0.243285841022959 
493	 0.24409773279943 
494	 0.244934880206896 
495	 0.245914364170664 
496	 0.246894468847956 
497	 0.247822511052425 
498	 0.248681282989569 
499	 0.249488834999189 
500	 0.250289223769674 
501	 0.251078045303763 
502	 0.251840184951443 
503	 0.252559943730261 
504	 0.253510864811084 
505	 0.254605712943341 
506	 0.255446611589562 
507	 0.256312845901961 
508	 0.257142207533874 
509	 0.257888952198436 
510	 0.258741786509397 
511	 0.259438158499164 
512	 0.260092870908047 
513	 0.260981917449625 
514	 0.261864430176595 
515	 0.262712724406764 
516	 0.263529355456103 
517	 0.264326550667584 
518	 0.265073948578041 
519	 0.265798435504684 
520	 0.266557405145864 
521	 0.267472815236702 
522	 0.268290061750279 
523	 0.269001832131753 
524	 0.269871676256543 
525	 0.270531470549019 
526	 0.271242796263707 
527	 0.272203284590269 
528	 0.272959717879901 
529	 0.273743436260147 
530	 0.274562199444688 
531	 0.275291721846384 
532	 0.276085585889729 
533	 0.276959122242494 
534	 0.27786558499792 
535	 0.278666551086545 
536	 0.279505315887149 
537	 0.280378841850105 
538	 0.281227360266138 
539	 0.282032057781908 
540	 0.282747200209803 
541	 0.283458278502046 
542	 0.284421752451525 
543	 0.285366311745054 
544	 0.286229545206727 
545	 0.287044225094555 
546	 0.287964279994812 
547	 0.288951006593556 
548	 0.28995011337758 
549	 0.290903982876182 
550	 0.291836963671695 
551	 0.292739304384083 
552	 0.293630867364028 
553	 0.294632902677646 
554	 0.295579867664822 
555	 0.296426331608183 
556	 0.297207445576987 
557	 0.298056201100882 
558	 0.298855674599239 
559	 0.299586701159492 
560	 0.300450840141495 
561	 0.301346606648289 
562	 0.302302572521823 
563	 0.303352896467087 
564	 0.304337540817293 
565	 0.305339388761733 
566	 0.306480482448883 
567	 0.307900793802097 
568	 0.309136363823353 
569	 0.31002866905609 
570	 0.310596958013424 
571	 0.311081969139124 
572	 0.311772794776275 
573	 0.312675250830904 
574	 0.313574110566493 
575	 0.314317760111458 
576	 0.31500183038103 
577	 0.315700481290866 
578	 0.316306094549495 
579	 0.317120922125758 
580	 0.318201271135752 
581	 0.31946727995743 
582	 0.320813182284615 
583	 0.321970048591848 
584	 0.322750303505151 
585	 0.323081369989736 
586	 0.323507481198399 
587	 0.323951317179887 
588	 0.324245615412449 
589	 0.324743903164003 
590	 0.325187719168856 
591	 0.325497323340703 
592	 0.325778029067868 
593	 0.326050269691009 
594	 0.326377060293735 
595	 0.326894105233943 
596	 0.327948591550613 
597	 0.329150051764877 
598	 0.330355424017207 
599	 0.331546696674629 
600	 0.332524552246998 
601	 0.333268326712812 
602	 0.333844421960657 
603	 0.334438116585183 
604	 0.334853633708114 
605	 0.335267511159479 
606	 0.335910509067895 
607	 0.336558125843219 
608	 0.337163415951882 
609	 0.33772686868702 
610	 0.338293406075653 
611	 0.338917022249102 
612	 0.33966505317188 
613	 0.340515595291896 
614	 0.341179158227821 
615	 0.341772655496313 
616	 0.342322478680194 
617	 0.342804445056106 
618	 0.343431350613062 
619	 0.344045280829526 
620	 0.344552139937836 
621	 0.345117545306762 
622	 0.345652007569185 
623	 0.346190209169794 
624	 0.34678357544564 
625	 0.347255245084057 
626	 0.34774823308494 
627	 0.348306897808742 
628	 0.348811887487696 
629	 0.349306172284424 
630	 0.349773432461887 
631	 0.350223326095554 
632	 0.350825628798962 
633	 0.351375415118972 
634	 0.351805221446664 
635	 0.3521848682214 
636	 0.352764693066825 
637	 0.353307982114983 
638	 0.353661008509669 
639	 0.354085966159794 
640	 0.354541551695864 
641	 0.354988729136022 
642	 0.355406309461242 
643	 0.355975832714227 
644	 0.356498592058635 
645	 0.356891609213956 
646	 0.35728807656536 
647	 0.357682448253368 
648	 0.358135276839645 
649	 0.358669823183594 
650	 0.359104973136175 
651	 0.359496970867914 
652	 0.359890357303131 
653	 0.360313009248675 
654	 0.360772205687679 
655	 0.36124162069093 
656	 0.361690596025286 
657	 0.362087638544656 
658	 0.362499967245916 
659	 0.362951452683867 
660	 0.363429915292109 
661	 0.36384922921985 
662	 0.364190165836949 
663	 0.364532333159454 
664	 0.365086106837011 
665	 0.365649873154061 
666	 0.366070152372978 
667	 0.366309995214792 
668	 0.366712619411768 
669	 0.367186814374183 
670	 0.367667529069338 
671	 0.368120619830535 
672	 0.368510881960888 
673	 0.368955026819378 
674	 0.36947662053194 
675	 0.36981400976369 
676	 0.370134747547373 
677	 0.370493316694091 
678	 0.370895457819377 
679	 0.371349411891879 
680	 0.371779883114727 
681	 0.372152223943727 
682	 0.372493101053413 
683	 0.372858031425317 
684	 0.373275694448652 
685	 0.373728507993974 
686	 0.374072271256799 
687	 0.37443544802992 
688	 0.374846404925543 
689	 0.375252143006599 
690	 0.37556619310665 
691	 0.375933198909247 
692	 0.376401672642573 
693	 0.376765784796842 
694	 0.377075747980844 
695	 0.377392467081168 
696	 0.37777422991687 
697	 0.378217835646164 
698	 0.378559188412757 
699	 0.378820333523517 
700	 0.379217374329412 
701	 0.379521344158634 
702	 0.379802907309856 
703	 0.380144454942649 
704	 0.380477219403384 
705	 0.380845006005633 
706	 0.381166731704029 
707	 0.381343002183652 
708	 0.381677397966652 
709	 0.382054288462823 
710	 0.382394408093801 
711	 0.382742043160641 
712	 0.383009302578997 
713	 0.383204786917267 
714	 0.383392124723333 
715	 0.383724272616567 
716	 0.384022017088477 
717	 0.384268783110912 
718	 0.384555691354428 
719	 0.384683659992382 
720	 0.384835193610949 
721	 0.385094819472536 
722	 0.385242910769875 
723	 0.385524675567928 
724	 0.385871024765669 
725	 0.386134457719927 
726	 0.3863755352558 
727	 0.386518305936923 
728	 0.386601697025128 
729	 0.386767337954143 
730	 0.386953166376045 
731	 0.387129590351188 
732	 0.387290437930156 
733	 0.387473200149633 
734	 0.387671857104312 
735	 0.387827344800476 
736	 0.387894866297763 
737	 0.388054448752544 
738	 0.388222567217767 
739	 0.388374040804622 
740	 0.388564725373503 
741	 0.388645589800141 
742	 0.388710616801869 
743	 0.38883625589599 
744	 0.388895254448646 
745	 0.389016081202759 
746	 0.389179931744446 
747	 0.389293835614879 
748	 0.389302473468923 
749	 0.389258716047439 
750	 0.389244008245352 
751	 0.3893551794141 
752	 0.389532821275881 
753	 0.389662817185915 
754	 0.389685641260147 
755	 0.389732595519458 
756	 0.389759372439316 
757	 0.389770668988294 
758	 0.389798864698092 
759	 0.389905467693107 
760	 0.389912211385672 
761	 0.389804561585788 
762	 0.389794901746003 
763	 0.389822904890424 
764	 0.389832543441715 
765	 0.389814822863834 
766	 0.389913210063046 
767	 0.389977214059474 
768	 0.38994387469333 
769	 0.389829170501886 
770	 0.389828240722962 
771	 0.389848527751187 
772	 0.389824830031892 
773	 0.389760045361592 
774	 0.389640100750596 
775	 0.389602242557687 
776	 0.389696367707118 
777	 0.38965177248819 
778	 0.389582481810466 
779	 0.389537435910627 
780	 0.389526171525406 
781	 0.389495333559284 
782	 0.389428313796367 
783	 0.38931789345604 
784	 0.389170460353254 
785	 0.389159275303981 
786	 0.389136650081462 
787	 0.389008920327897 
788	 0.388965865263038 
789	 0.388944620890473 
790	 0.388874959072616 
791	 0.388706980756669 
792	 0.388510904638548 
793	 0.38843343670231 
794	 0.388488948581074 
795	 0.388557282560521 
796	 0.388394624936003 
797	 0.388220963126187 
798	 0.388168564150775 
799	 0.388066659896744 
800	 0.387966198852264 
801	 0.387847474910979 
802	 0.387704816448689 
803	 0.387653381448177 
804	 0.38761710058704 
805	 0.38757361655192 
806	 0.38753192276773 
807	 0.387445511110344 
808	 0.387291892684225 
809	 0.387123532576973 
810	 0.387077502604697 
811	 0.387101984258075 
812	 0.387011094125304 
813	 0.386738548911338 
814	 0.386602075263086 
815	 0.386535267922147 
816	 0.386500741831788 
817	 0.386461612953485 
818	 0.386373563015799 
819	 0.386285726706142 
820	 0.386186526287798 
821	 0.386022295449454 
822	 0.385940839307144 
823	 0.385852916156144 
824	 0.385708344224675 
825	 0.385579230660852 
826	 0.385527315837061 
827	 0.385441282716468 
828	 0.385265929294997 
829	 0.385303850293267 
830	 0.385169949625824 
831	 0.384996470771492 
832	 0.385079761636715 
833	 0.385032426339668 
834	 0.384906993819516 
835	 0.384734626913802 
836	 0.384517763405439 
837	 0.384532898868642 
838	 0.384602688954407 
839	 0.384565074980243 
840	 0.384421728629863 
841	 0.384292635917205 
842	 0.384165003677527 
843	 0.384023002183469 
844	 0.383978719203446 
845	 0.383894662055402 
846	 0.383767924012004 
847	 0.383668883871854 
848	 0.383669234235667 
849	 0.383691255405411 
850	 0.38365442563185 
851	 0.383508295078019 
852	 0.383414550445005 
853	 0.383365854122156 
854	 0.383312742058069 
855	 0.383188222030697 
856	 0.38317968323212 
857	 0.383189415128039 
858	 0.383094017647362 
859	 0.382854594080881 
860	 0.382875901878627 
861	 0.383012063490962 
862	 0.382981915437861 
863	 0.382905240553247 
864	 0.382824463371904 
865	 0.382817006014522 
866	 0.382925449638966 
867	 0.382846276937433 
868	 0.382671851732815 
869	 0.382574227818506 
870	 0.382719697799463 
871	 0.382660701517412 
872	 0.382655435115547 
873	 0.382805090764221 
874	 0.382776113941122 
875	 0.382601859636931 
876	 0.382460338966926 
877	 0.382485075076635 
878	 0.38259970636486 
879	 0.382646521387891 
880	 0.382584547117256 
881	 0.382488424035799 
882	 0.382664948617769 
883	 0.382775866452613 
884	 0.382769906553129 
885	 0.382770243336011 
886	 0.382798090992063 
887	 0.382866578822817 
888	 0.382948742180802 
889	 0.382990355173506 
890	 0.382989024475183 
891	 0.383043675569966 
892	 0.383137236612664 
893	 0.383106708807427 
894	 0.383104807040802 
895	 0.383150021151608 
896	 0.38324759410553 
897	 0.38342825461566 
898	 0.383507278034444 
899	 0.383596711422087 
900	 0.383759547244083 
901	 0.383700576753879 
902	 0.383686576798973 
903	 0.383778871305377 
904	 0.383934186646082 
905	 0.384015058166618 
906	 0.384170011949286 
907	 0.3843086642964 
908	 0.384297012334371 
909	 0.384397921558266 
910	 0.384502404380376 
911	 0.384651232380937 
912	 0.384932376439009 
913	 0.384991932529296 
914	 0.385052868565947 
915	 0.385205270891009 
916	 0.385378174673057 
917	 0.385643124766331 
918	 0.385787900377657 
919	 0.3857800513404 
920	 0.385826561216586 
921	 0.385928480626018 
922	 0.386127207870712 
923	 0.386433057849161 
924	 0.386800830099448 
925	 0.3868070318323 
926	 0.386757524820732 
927	 0.386923897894582 
928	 0.387199398495636 
929	 0.387445435595651 
930	 0.38758365020542 
931	 0.387644865188128 
932	 0.387838658770067 
933	 0.388122025540972 
934	 0.388320060781734 
935	 0.388355828600045 
936	 0.38854504368897 
937	 0.388681059862233 
938	 0.388920332794686 
939	 0.389381006851835 
940	 0.389669548964563 
941	 0.38979102867628 
942	 0.38996374683249 
943	 0.390344960189259 
944	 0.390504094060537 
945	 0.390630266982625 
946	 0.390769181476064 
947	 0.390887948005358 
948	 0.390921887151344 
949	 0.391103559729344 
950	 0.391377680225965 
951	 0.391583069600667 
952	 0.391873600378562 
953	 0.392197651847732 
954	 0.392448731346381 
955	 0.392556820497802 
956	 0.392751543818097 
957	 0.393004906823315 
958	 0.393236398143809 
959	 0.393375130885256 
960	 0.393528965779969 
961	 0.393747662589749 
962	 0.394096370036545 
963	 0.394565793670745 
964	 0.394700585474211 
965	 0.394944800379644 
966	 0.395294396325892 
967	 0.395465752642462 
968	 0.395700878383346 
969	 0.396034801846483 
970	 0.396363000773626 
971	 0.396567702178493 
972	 0.39699704704067 
973	 0.397294606725763 
974	 0.397491877135896 
975	 0.397863467684862 
976	 0.398252704314731 
977	 0.398594395155993 
978	 0.398866653488195 
979	 0.399095279871219 
980	 0.399413371648876 
981	 0.399437928910978 
982	 0.399480601936402 
983	 0.400079594700163 
984	 0.400504241667274 
985	 0.400860028626543 
986	 0.40116906548723 
987	 0.40141918097708 
988	 0.401746706690505 
989	 0.40217246606846 
990	 0.402542718086392 
991	 0.402716916653562 
992	 0.402997016503784 
993	 0.403286247184407 
994	 0.403544353015977 
995	 0.403787911753671 
996	 0.40411787474881 
997	 0.40446513245168 
998	 0.404892674568403 
999	 0.405400189524762 
1000	 0.405589002169558 
1001	 0.403635501616076 
1002	 0.403784320493452 
1003	 0.40393746589609 
1004	 0.404136770200945 
1005	 0.404333038385455 
1006	 0.404559961087141 
1007	 0.404878103718105 
1008	 0.40510206781235 
1009	 0.405240851594055 
1010	 0.405419919269698 
1011	 0.405565251792638 
1012	 0.405660934203199 
1013	 0.405856949770396 
1014	 0.406100337691438 
1015	 0.406267003050292 
1016	 0.406457809482523 
1017	 0.406684530287036 
1018	 0.406927835988318 
1019	 0.407119632254208 
1020	 0.407349502483709 
1021	 0.407604222549993 
1022	 0.407761887040501 
1023	 0.407873737804571 
1024	 0.408042797075506 
1025	 0.408246387348054 
1026	 0.408451847768132 
1027	 0.408652757982573 
1028	 0.40886417379981 
1029	 0.409073452255386 
1030	 0.409290048363622 
1031	 0.409514943598725 
1032	 0.409769325249282 
1033	 0.40999133074405 
1034	 0.410211394602896 
1035	 0.410430964009154 
1036	 0.410621391506432 
1037	 0.410826372119587 
1038	 0.41098974148558 
1039	 0.41115582510464 
1040	 0.411361037617975 
1041	 0.411536948798565 
1042	 0.411734166056303 
1043	 0.411894203958929 
1044	 0.412072168791379 
1045	 0.412251386372182 
1046	 0.412440692500437 
1047	 0.41255282930321 
1048	 0.412759834409416 
1049	 0.412987452622259 
1050	 0.413178783706889 
1051	 0.413420400465983 
1052	 0.413579299912266 
1053	 0.413733573057848 
1054	 0.413938185794253 
1055	 0.414110955211978 
1056	 0.414332370343604 
1057	 0.414569640648019 
1058	 0.414815249698905 
1059	 0.415035713351159 
1060	 0.415287710112162 
1061	 0.415515761464696 
1062	 0.415665947268918 
1063	 0.41577210002854 
1064	 0.415874187467171 
1065	 0.415994208040025 
1066	 0.416159353556751 
1067	 0.416389476844463 
1068	 0.416622283629402 
1069	 0.416838807736133 
1070	 0.417046526576708 
1071	 0.417247683506435 
1072	 0.417412911462952 
1073	 0.417532262807353 
1074	 0.417704633221367 
1075	 0.417879327381802 
1076	 0.418064303788147 
1077	 0.418263098825794 
1078	 0.418465852885618 
1079	 0.418613966370617 
1080	 0.418754383923635 
1081	 0.418932406168872 
1082	 0.4190808313074 
1083	 0.419229400909133 
1084	 0.41939369689507 
1085	 0.419528871199845 
1086	 0.419625320794621 
1087	 0.419758851808455 
1088	 0.419896867414399 
1089	 0.420040682499035 
1090	 0.420208534379427 
1091	 0.420380976052555 
1092	 0.420545885883428 
1093	 0.420678830558541 
1094	 0.420783074308856 
1095	 0.420877326608964 
1096	 0.420948718513178 
1097	 0.421001276855788 
1098	 0.421084364043137 
1099	 0.421164070018696 
1100	 0.421277653530088 
1101	 0.421450665455204 
1102	 0.421566147632716 
1103	 0.421678532126044 
1104	 0.421774491866224 
1105	 0.421819210487397 
1106	 0.421891147251802 
1107	 0.422027796374422 
1108	 0.42213787632065 
1109	 0.422220218013383 
1110	 0.422307307011735 
1111	 0.422403342407365 
1112	 0.422487475269704 
1113	 0.422569460115533 
1114	 0.422658440975683 
1115	 0.422751632894804 
1116	 0.422827793556398 
1117	 0.422913846905195 
1118	 0.422991763055861 
1119	 0.423137844867413 
1120	 0.423262626076239 
1121	 0.423366952850222 
1122	 0.423543202897819 
1123	 0.423682669214937 
1124	 0.423789485284998 
1125	 0.423884171417528 
1126	 0.423972439016451 
1127	 0.424016220199105 
1128	 0.424092270661223 
1129	 0.424179330768208 
1130	 0.424257050645451 
1131	 0.424333477358507 
1132	 0.424415164091962 
1133	 0.424490634233131 
1134	 0.424581631777401 
1135	 0.424689911884227 
1136	 0.424781812830343 
1137	 0.424887595561696 
1138	 0.425020089892337 
1139	 0.425106743408773 
1140	 0.425173699912656 
1141	 0.42525081224995 
1142	 0.42529827120302 
1143	 0.425370919811137 
1144	 0.425472147968669 
1145	 0.425551511053511 
1146	 0.425630035103843 
1147	 0.425695001516788 
1148	 0.425759055780366 
1149	 0.425804528216262 
1150	 0.425810114477637 
1151	 0.425840653866184 
1152	 0.42591549511078 
1153	 0.425979417099846 
1154	 0.426042758367813 
1155	 0.426133877085009 
1156	 0.426211458023324 
1157	 0.426268881492453 
1158	 0.426332782146338 
1159	 0.426416292990889 
1160	 0.42648230879899 
1161	 0.426517063480876 
1162	 0.426579122139998 
1163	 0.426659377278646 
1164	 0.4267319830075 
1165	 0.426808720100795 
1166	 0.426891179881164 
1167	 0.426942572731761 
1168	 0.4270107611409 
1169	 0.427102844990565 
1170	 0.427218485938266 
1171	 0.427303927855009 
1172	 0.427398149673149 
1173	 0.427487056314598 
1174	 0.427546485735422 
1175	 0.427629028280775 
1176	 0.427746462704049 
1177	 0.4278324390185 
1178	 0.427889925437049 
1179	 0.427971039159161 
1180	 0.428059581479219 
1181	 0.428139707494732 
1182	 0.428232614223192 
1183	 0.428313211154366 
1184	 0.428399215137658 
1185	 0.428472973386175 
1186	 0.428556420165638 
1187	 0.428645639742494 
1188	 0.428745031828433 
1189	 0.428865456842731 
1190	 0.428946345604943 
1191	 0.429023109757857 
1192	 0.429088987625765 
1193	 0.42909479851377 
1194	 0.429155773225166 
1195	 0.429252772061654 
1196	 0.429338896170934 
1197	 0.429450670760268 
1198	 0.429545559371749 
1199	 0.429632563018738 
1200	 0.429703410256061 
1201	 0.429788182472229 
1202	 0.429880521224701 
1203	 0.429952801519566 
1204	 0.430019578199291 
1205	 0.430085327643438 
1206	 0.430121582758373 
1207	 0.430194247065765 
1208	 0.430300255335333 
1209	 0.430379048451108 
1210	 0.430452666040323 
1211	 0.430535699651605 
1212	 0.430618835635098 
1213	 0.430688995474311 
1214	 0.430756095127748 
1215	 0.430833146821419 
1216	 0.430908722328724 
1217	 0.430969746833632 
1218	 0.431037792616848 
1219	 0.431123875970317 
1220	 0.431192802321252 
1221	 0.431242126476926 
1222	 0.431305435876712 
1223	 0.431381385444681 
1224	 0.431442187055634 
1225	 0.431487912071256 
1226	 0.431551002140439 
1227	 0.431613854946223 
1228	 0.431681619449519 
1229	 0.431771043907148 
1230	 0.431847266984375 
1231	 0.431912115284396 
1232	 0.431982129081236 
1233	 0.432052436917052 
1234	 0.432121350499815 
1235	 0.432191568359796 
1236	 0.43226651790603 
1237	 0.432337547180379 
1238	 0.432413947618028 
1239	 0.43247090258092 
1240	 0.432525214519569 
1241	 0.432564941597589 
1242	 0.432563522654822 
1243	 0.432602733809182 
1244	 0.432648533038471 
1245	 0.432703779844192 
1246	 0.432791953280708 
1247	 0.432870785061995 
1248	 0.432947615212893 
1249	 0.433025784811047 
1250	 0.433122993748874 
1251	 0.433194110361802 
1252	 0.43326326218442 
1253	 0.43332111184459 
1254	 0.433392934276693 
1255	 0.433451675960734 
1256	 0.433536135434849 
1257	 0.433652243368824 
1258	 0.433743940744871 
1259	 0.433844146045117 
1260	 0.433921482677303 
1261	 0.433975350448633 
1262	 0.43403536373685 
1263	 0.434082174860329 
1264	 0.434138443868191 
1265	 0.434210588912478 
1266	 0.43426237739154 
1267	 0.43430011206066 
1268	 0.4343435552186 
1269	 0.434387024444461 
1270	 0.434421289020695 
1271	 0.434459275014652 
1272	 0.434500786751295 
1273	 0.434545966228882 
1274	 0.434589332937888 
1275	 0.4346314821847 
1276	 0.434685352110854 
1277	 0.43472797231482 
1278	 0.434753543020267 
1279	 0.434791467471276 
1280	 0.434838207559677 
1281	 0.434878085764941 
1282	 0.43492767744301 
1283	 0.43495732100844 
1284	 0.434958024122776 
1285	 0.434982024297189 
1286	 0.43499475589811 
1287	 0.435032777603748 
1288	 0.435088134575866 
1289	 0.43517660870476 
1290	 0.435239759503465 
1291	 0.435303372021077 
1292	 0.435377022948653 
1293	 0.435451969580467 
1294	 0.435515871911668 
1295	 0.435588676535099 
1296	 0.435653460299452 
1297	 0.435693082811029 
1298	 0.435760210288884 
1299	 0.435864332330797 
1300	 0.435925360549914 
1301	 0.435968431325748 
1302	 0.436016302122117 
1303	 0.436038248830693 
1304	 0.436062786270406 
1305	 0.436142414287731 
1306	 0.436195645158693 
1307	 0.436240196587826 
1308	 0.43626405226179 
1309	 0.436262146023498 
1310	 0.436208874989446 
1311	 0.436206451910632 
1312	 0.436216622341225 
1313	 0.436203414667282 
1314	 0.436197022479512 
1315	 0.436183521795997 
1316	 0.436137814711581 
1317	 0.436122613923955 
1318	 0.436138828099278 
1319	 0.436132125203058 
1320	 0.436136099458979 
1321	 0.436105741076313 
1322	 0.436041120110469 
1323	 0.435994367512886 
1324	 0.435937119689087 
1325	 0.435874991137741 
1326	 0.43582080837777 
1327	 0.435760309987765 
1328	 0.435692827505219 
1329	 0.435631568206603 
1330	 0.435586763999683 
1331	 0.435562979018584 
1332	 0.435529768654314 
1333	 0.435509893829569 
1334	 0.435465191212661 
1335	 0.435406014003775 
1336	 0.435358642555694 
1337	 0.435298838529319 
1338	 0.435249969333072 
1339	 0.435233938974927 
1340	 0.435178032572575 
1341	 0.435096444571491 
1342	 0.43502627996569 
1343	 0.434966992154589 
1344	 0.434855438258796 
1345	 0.434758293088519 
1346	 0.434654915051998 
1347	 0.43450107584323 
1348	 0.434342572305855 
1349	 0.434165722403982 
1350	 0.433959810809791 
1351	 0.433740884822556 
1352	 0.433495773958653 
1353	 0.43325431959225 
1354	 0.433005789548581 
1355	 0.432739967403253 
1356	 0.4324412790178 
1357	 0.432186152539286 
1358	 0.431893811085511 
1359	 0.431694192366477 
1360	 0.431563259174731 
1361	 0.431439218087446 
1362	 0.431352224101297 
1363	 0.43129322905839 
1364	 0.431252357122846 
1365	 0.431248184496913 
1366	 0.431289406015802 
1367	 0.431351216886091 
1368	 0.431448858051574 
1369	 0.431528980500137 
1370	 0.431546612154023 
1371	 0.431531004849285 
1372	 0.43145727776657 
1373	 0.431311314802681 
1374	 0.43112405335487 
1375	 0.430938041226921 
1376	 0.430594833542224 
1377	 0.430140038658477 
1378	 0.429651202762895 
1379	 0.428998490978362 
1380	 0.428457594051337 
1381	 0.42789169153814 
1382	 0.427390457395081 
1383	 0.427006001371209 
1384	 0.426510059523113 
1385	 0.426063867050394 
1386	 0.425489350061335 
1387	 0.424858974974024 
1388	 0.424103504455498 
1389	 0.423284559795252 
1390	 0.422313840541785 
1391	 0.421180254264985 
1392	 0.41990437636914 
1393	 0.418490026538354 
1394	 0.417026574649372 
1395	 0.415528327274419 
1396	 0.414016190653944 
1397	 0.412532572752582 
1398	 0.411030045849515 
1399	 0.409584479733639 
1400	 0.408154973005384 
1401	 0.406779143680139 
1402	 0.405414912156708 
1403	 0.4041634804786 
1404	 0.402950346358177 
1405	 0.401852893692511 
1406	 0.400868037106309 
1407	 0.39993465823816 
1408	 0.398996467527959 
1409	 0.39829434849317 
1410	 0.397592114961759 
1411	 0.39725865274479 
1412	 0.39716778938415 
1413	 0.397331888396801 
1414	 0.397824403610039 
1415	 0.398543439776806 
1416	 0.399466673133477 
1417	 0.400553654347865 
1418	 0.401710895878258 
1419	 0.402895813630125 
1420	 0.404096164891443 
1421	 0.405224996971884 
1422	 0.40622290741719 
1423	 0.40712637240283 
1424	 0.407845144537427 
1425	 0.408375113546143 
1426	 0.408857764548832 
1427	 0.409165055586628 
1428	 0.409504268081462 
1429	 0.409796810234542 
1430	 0.410037119715684 
1431	 0.410260671682925 
1432	 0.410405292667771 
1433	 0.410442106091021 
1434	 0.410510824301745 
1435	 0.410530537297442 
1436	 0.41056680844673 
1437	 0.410639713651221 
1438	 0.410655660672177 
1439	 0.410637154295344 
1440	 0.410620110082992 
1441	 0.410543092315401 
1442	 0.410462396449926 
1443	 0.410409986692605 
1444	 0.410334431476549 
1445	 0.410307501490938 
1446	 0.41030249906577 
1447	 0.410267029502796 
1448	 0.410227669249643 
1449	 0.410127849358447 
1450	 0.409999108682245 
1451	 0.409906281295671 
1452	 0.409792034244764 
1453	 0.409729707764907 
1454	 0.409734955385016 
1455	 0.409672414260143 
1456	 0.409623016315163 
1457	 0.409512620640672 
1458	 0.409316560972145 
1459	 0.409189381241353 
1460	 0.40903574858022 
1461	 0.408946413830461 
1462	 0.40893298408235 
1463	 0.40888558103075 
1464	 0.408867875464097 
1465	 0.408817568724521 
1466	 0.408724384149064 
1467	 0.408667004200869 
1468	 0.408571667397264 
1469	 0.408559099544736 
1470	 0.408605297372532 
1471	 0.408675048423311 
1472	 0.408775890145224 
1473	 0.408881214578232 
1474	 0.408938854994543 
1475	 0.40900334058879 
1476	 0.409087171011484 
1477	 0.409195933427574 
1478	 0.40937703376533 
1479	 0.409549650536003 
1480	 0.40970213679291 
1481	 0.409856123774155 
1482	 0.409955075592975 
1483	 0.409976997978621 
1484	 0.410068840595447 
1485	 0.410150344595758 
1486	 0.410266347023755 
1487	 0.410435760573988 
1488	 0.410566470891168 
1489	 0.410706067929329 
1490	 0.410814641869524 
1491	 0.410904724894328 
1492	 0.410989452614194 
1493	 0.411038904191429 
1494	 0.4111148677826 
1495	 0.411197329888812 
1496	 0.411270664589453 
1497	 0.411369078891044 
1498	 0.411433397699686 
1499	 0.411479828273297 
1500	 0.411515703231861 
1501	 0.411506611077681 
1502	 0.411531619039659 
1503	 0.411564523332892 
1504	 0.411596187881953 
1505	 0.411661004503466 
1506	 0.411714561530619 
1507	 0.411733858189336 
1508	 0.411751686811003 
1509	 0.411747206879232 
1510	 0.411749552536961 
1511	 0.411770794349526 
1512	 0.411775404915029 
1513	 0.411791869998923 
1514	 0.411827839314162 
1515	 0.411858450419443 
1516	 0.411878606690373 
1517	 0.411870877794105 
1518	 0.411841537997555 
1519	 0.411802356685035 
1520	 0.411718493316368 
1521	 0.411700943372553 
1522	 0.4117121199043 
1523	 0.4117018100078 
1524	 0.411729050603844 
1525	 0.411706079822494 
1526	 0.411635185738664 
1527	 0.411590230796745 
1528	 0.411538312748121 
1529	 0.411495922020888 
1530	 0.411468051895353 
1531	 0.411428120455182 
1532	 0.411380551768007 
1533	 0.411340602384887 
1534	 0.411299386477161 
1535	 0.411263775634734 
1536	 0.411227619046337 
1537	 0.41120746373394 
1538	 0.411192205741109 
1539	 0.411178774721189 
1540	 0.411201508355582 
1541	 0.411192706255714 
1542	 0.411168456652537 
1543	 0.411143691069891 
1544	 0.411108285261444 
1545	 0.411057586592199 
1546	 0.411002896636176 
1547	 0.410928292504147 
1548	 0.410852465589743 
1549	 0.410773254716661 
1550	 0.410709191854546 
1551	 0.410669257963845 
1552	 0.410634399656143 
1553	 0.410603405598342 
1554	 0.410565925999509 
1555	 0.410524635894039 
1556	 0.410467672166527 
1557	 0.41040203467595 
1558	 0.410346825551117 
1559	 0.410288560765722 
1560	 0.4102379470243 
1561	 0.41019812666025 
1562	 0.410141617334666 
1563	 0.410077037840401 
1564	 0.410026507610935 
1565	 0.409977583892516 
1566	 0.409923352880941 
1567	 0.409879955423008 
1568	 0.409819189966789 
1569	 0.409746438478906 
1570	 0.409665371246292 
1571	 0.409579779591268 
1572	 0.409488303102279 
1573	 0.409369554648878 
1574	 0.409282121009812 
1575	 0.409196257019698 
1576	 0.409134401130895 
1577	 0.409105982675018 
1578	 0.409058832130946 
1579	 0.40901758765179 
1580	 0.408976804981587 
1581	 0.408938604553333 
1582	 0.408889456801026 
1583	 0.408836539685507 
1584	 0.408783424132264 
1585	 0.408727951824607 
1586	 0.40865445631222 
1587	 0.408573077855661 
1588	 0.408493698166643 
1589	 0.408398630333054 
1590	 0.408304177235698 
1591	 0.408220443222067 
1592	 0.408128449976113 
1593	 0.408013639411314 
1594	 0.407915613200064 
1595	 0.407839437044815 
1596	 0.407735649215041 
1597	 0.407630827589964 
1598	 0.407511133996116 
1599	 0.407352805592449 
1600	 0.407216804076809 
1601	 0.407067817606855 
1602	 0.406954683628019 
1603	 0.406873853575982 
1604	 0.406788879148987 
1605	 0.406726871874341 
1606	 0.406660560660847 
1607	 0.406595033116593 
1608	 0.406528923363705 
1609	 0.406449540055214 
1610	 0.40636896049171 
1611	 0.406258051100158 
1612	 0.406126930839131 
1613	 0.406007115234816 
1614	 0.405891616326864 
1615	 0.405783340371184 
1616	 0.405698490079264 
1617	 0.40560969174325 
1618	 0.405517288682926 
1619	 0.405444122896109 
1620	 0.405364013565575 
1621	 0.405281419942822 
1622	 0.405212023735866 
1623	 0.4051085174725 
1624	 0.404981055843846 
1625	 0.404867937218105 
1626	 0.404741445031685 
1627	 0.404634457863377 
1628	 0.404533700718512 
1629	 0.404445904137735 
1630	 0.404377891948492 
1631	 0.404278774023821 
1632	 0.404186516431524 
1633	 0.404071812835114 
1634	 0.403922736686597 
1635	 0.403794891392235 
1636	 0.403670251694138 
1637	 0.403540238877133 
1638	 0.40339807967721 
1639	 0.403288019508898 
1640	 0.403187349846799 
1641	 0.403096512046794 
1642	 0.403051146544114 
1643	 0.402944058443267 
1644	 0.402812155472388 
1645	 0.402680580031587 
1646	 0.402521304658228 
1647	 0.402367238185651 
1648	 0.402204418612932 
1649	 0.402065673866119 
1650	 0.401921113558843 
1651	 0.401798364692712 
1652	 0.401713031198583 
1653	 0.401605376044282 
1654	 0.401491371163061 
1655	 0.401383312694959 
1656	 0.401287391492919 
1657	 0.401163482251949 
1658	 0.401021374510759 
1659	 0.400895613015232 
1660	 0.400751693293661 
1661	 0.400630714950341 
1662	 0.4005407776948 
1663	 0.400428425653343 
1664	 0.400326213018901 
1665	 0.400184701742713 
1666	 0.400024164598653 
1667	 0.39984941203558 
1668	 0.399628744075295 
1669	 0.399441708974502 
1670	 0.399244939718552 
1671	 0.399086935830146 
1672	 0.398954323920333 
1673	 0.39883071840671 
1674	 0.398753268630434 
1675	 0.398632602800154 
1676	 0.398508846331951 
1677	 0.398365709185438 
1678	 0.39818772499783 
1679	 0.398027547123715 
1680	 0.397854751364975 
1681	 0.397707621718871 
1682	 0.397578869607292 
1683	 0.397443375373901 
1684	 0.39732124427086 
1685	 0.397193275163002 
1686	 0.397064959451694 
1687	 0.396924211724931 
1688	 0.396774601786178 
1689	 0.396634550242875 
1690	 0.396499915621385 
1691	 0.396341041437617 
1692	 0.396184271583428 
1693	 0.39601203970066 
1694	 0.395795797380128 
1695	 0.395612613531405 
1696	 0.395431567950401 
1697	 0.395278631477081 
1698	 0.395152682982564 
1699	 0.395020731308897 
1700	 0.394918249502846 
1701	 0.394783596610534 
1702	 0.394635655056268 
1703	 0.394476162911695 
1704	 0.394299319303598 
1705	 0.394126219296725 
1706	 0.393925939884941 
1707	 0.393768245523286 
1708	 0.393633622484129 
1709	 0.393492825135594 
1710	 0.393384339871814 
1711	 0.393242747604922 
1712	 0.393085844486174 
1713	 0.392921112800783 
1714	 0.392725950771569 
1715	 0.392569198252774 
1716	 0.392419995583606 
1717	 0.392272400977002 
1718	 0.392160848779495 
1719	 0.392012219804402 
1720	 0.391838858182066 
1721	 0.391680779264787 
1722	 0.391530055897608 
1723	 0.391347559271533 
1724	 0.391151862128348 
1725	 0.390955974289928 
1726	 0.390718926576411 
1727	 0.390535604370784 
1728	 0.390383813367988 
1729	 0.390224958257683 
1730	 0.390076554838722 
1731	 0.389944656875923 
1732	 0.389818168644474 
1733	 0.389703856310252 
1734	 0.389631066745533 
1735	 0.389507725756218 
1736	 0.38938112215223 
1737	 0.389208759119509 
1738	 0.388998598472948 
1739	 0.388770232049696 
1740	 0.388487872104361 
1741	 0.388263662652157 
1742	 0.388021933404287 
1743	 0.387859117044383 
1744	 0.387759321337915 
1745	 0.387647068845843 
1746	 0.387591482749638 
1747	 0.387470088317725 
1748	 0.387315804104005 
1749	 0.387118181694456 
1750	 0.386906753847097 
1751	 0.386716098131899 
1752	 0.386527209307746 
1753	 0.386348283591783 
1754	 0.386183813764441 
1755	 0.38600148489624 
1756	 0.385819048999873 
1757	 0.385655810996383 
1758	 0.38547758259455 
1759	 0.385310095910699 
1760	 0.38518126740325 
1761	 0.385020532052331 
1762	 0.384849039217933 
1763	 0.384721224090469 
1764	 0.384565659939695 
1765	 0.384409523730303 
1766	 0.3843089399832 
1767	 0.384187931773849 
1768	 0.384033000433921 
1769	 0.383904104816383 
1770	 0.38377755623308 
1771	 0.383649513478404 
1772	 0.383546839778744 
1773	 0.383446571494523 
1774	 0.383322016372913 
1775	 0.38318131494294 
1776	 0.383025687733836 
1777	 0.382836015951913 
1778	 0.382687694374911 
1779	 0.382558001143119 
1780	 0.382400155632768 
1781	 0.382313398361767 
1782	 0.382249282290217 
1783	 0.38217902396048 
1784	 0.382086382598637 
1785	 0.38196934787456 
1786	 0.381846281533535 
1787	 0.381706227883914 
1788	 0.38157321646006 
1789	 0.381443391499722 
1790	 0.381308264717736 
1791	 0.381160986183114 
1792	 0.381023818434014 
1793	 0.380878580566655 
1794	 0.380759760230204 
1795	 0.380667538144638 
1796	 0.38055991110935 
1797	 0.38045959630287 
1798	 0.380362312063336 
1799	 0.380262105290934 
1800	 0.380148557246106 
1801	 0.374235307820921 
1802	 0.374569991051065 
1803	 0.374954564370423 
1804	 0.375367778548156 
1805	 0.375741061077059 
1806	 0.376096068552804 
1807	 0.376448972402508 
1808	 0.37671247153912 
1809	 0.376938008182299 
1810	 0.377081992677789 
1811	 0.377144728211519 
1812	 0.377168800647264 
1813	 0.377179612452113 
1814	 0.377143591242489 
1815	 0.377095845331695 
1816	 0.377054310617184 
1817	 0.376995890114489 
1818	 0.37688610251686 
1819	 0.376821628631339 
1820	 0.376794340958694 
1821	 0.376716206582497 
1822	 0.376625679599448 
1823	 0.376556906321486 
1824	 0.376466117563889 
1825	 0.376365697405736 
1826	 0.376276457903772 
1827	 0.376156663104752 
1828	 0.376003129893509 
1829	 0.375825435582058 
1830	 0.375619060125394 
1831	 0.375365809837191 
1832	 0.375124060582073 
1833	 0.374856398449191 
1834	 0.374581652123487 
1835	 0.37439154592608 
1836	 0.374218121752122 
1837	 0.374070124284249 
1838	 0.373945632273589 
1839	 0.373836227984563 
1840	 0.373740460634956 
1841	 0.373648964136966 
1842	 0.373562483926295 
1843	 0.373525897154199 
1844	 0.373502835623848 
1845	 0.373459880479022 
1846	 0.373464895717629 
1847	 0.373474794601445 
1848	 0.373457944538905 
1849	 0.373468012465986 
1850	 0.3734675206586 
1851	 0.373460387014512 
1852	 0.373449430820809 
1853	 0.373448857164487 
1854	 0.373426689859599 
1855	 0.373392414823952 
1856	 0.373351285750375 
1857	 0.373314674004135 
1858	 0.373262763811299 
1859	 0.373207254080296 
1860	 0.373094254218482 
1861	 0.372965391594128 
1862	 0.372756437362887 
1863	 0.372447046710125 
1864	 0.372067244175627 
1865	 0.371660778890794 
1866	 0.371172338649886 
1867	 0.3707284601971 
1868	 0.370276725874592 
1869	 0.369821542711121 
1870	 0.369485009449301 
1871	 0.369153395469172 
1872	 0.368858998693793 
1873	 0.368603267708629 
1874	 0.368349232249484 
1875	 0.368121105926537 
1876	 0.36789478626094 
1877	 0.367637395295115 
1878	 0.367355503922461 
1879	 0.366942866837548 
1880	 0.366369728032909 
1881	 0.365645419813225 
1882	 0.364844350588726 
1883	 0.363919911270786 
1884	 0.36285830516787 
1885	 0.361773957322546 
1886	 0.360592478714805 
1887	 0.359275521671319 
1888	 0.357902237083753 
1889	 0.356423138641241 
1890	 0.354889261886202 
1891	 0.353315089061773 
1892	 0.351680760568436 
1893	 0.350000266004016 
1894	 0.348269406144808 
1895	 0.346480529271655 
1896	 0.344666898328725 
1897	 0.342827540739192 
1898	 0.340940677232634 
1899	 0.339116697885719 
1900	 0.337390537431203 
1901	 0.335739353230542 
1902	 0.334191187636459 
1903	 0.332802992172983 
1904	 0.33143886487583 
1905	 0.330127670326762 
1906	 0.328903511731393 
1907	 0.327756229599526 
1908	 0.326665792539261 
1909	 0.325610039627245 
1910	 0.32460323655615 
1911	 0.323702459309451 
1912	 0.322834174623618 
1913	 0.322012641139939 
1914	 0.321269096540182 
1915	 0.320555497904561 
1916	 0.319864640973118 
1917	 0.319219316621114 
1918	 0.318652299279802 
1919	 0.318151451693324 
1920	 0.317711890043727 
1921	 0.317349920195671 
1922	 0.317047826245233 
1923	 0.316794514925926 
1924	 0.316550309969334 
1925	 0.316340270326027 
1926	 0.316144234399525 
1927	 0.315970492274367 
1928	 0.315811819488905 
1929	 0.315660093661588 
1930	 0.315548396498207 
1931	 0.315438045648761 
1932	 0.315363214045063 
1933	 0.315331501213345 
1934	 0.315305107083287 
1935	 0.315310240609927 
1936	 0.315342489056247 
1937	 0.315392955603806 
1938	 0.315466666771734 
1939	 0.315564378904331 
1940	 0.315686901975525 
1941	 0.315828244402796 
1942	 0.315988283967218 
1943	 0.316188709780708 
1944	 0.316399494076617 
1945	 0.316625685430929 
1946	 0.316841074751489 
1947	 0.317050203905207 
1948	 0.317273520812782 
1949	 0.3175026782618 
1950	 0.317730014543265 
1951	 0.317966461706268 
1952	 0.318200264023405 
1953	 0.318435278305297 
1954	 0.31871301718837 
1955	 0.318984718313731 
1956	 0.31926392749686 
1957	 0.319548981851254 
1958	 0.319825233598689 
1959	 0.320120991167888 
1960	 0.320450693689933 
1961	 0.320758612300123 
1962	 0.321060709541892 
1963	 0.321373947771125 
1964	 0.321692534338787 
1965	 0.321987744259437 
1966	 0.322316312120415 
1967	 0.322642384367026 
1968	 0.322950469550119 
1969	 0.32324653629168 
1970	 0.323545840486366 
1971	 0.323830857419187 
1972	 0.324131295843633 
1973	 0.324445996331142 
1974	 0.324741684152252 
1975	 0.325041963877737 
1976	 0.325319494199091 
1977	 0.325586013962064 
1978	 0.325876398010411 
1979	 0.326184714954903 
1980	 0.3265091066436 
1981	 0.326819108572391 
1982	 0.327132091386304 
1983	 0.327441868707823 
1984	 0.327749578677104 
1985	 0.328049109112219 
1986	 0.328349210799443 
1987	 0.328643462030312 
1988	 0.328922207273234 
1989	 0.329202583564791 
1990	 0.329501467721063 
1991	 0.329800868174263 
1992	 0.330092818089604 
1993	 0.330381712762788 
1994	 0.330686358529541 
1995	 0.33100120041125 
1996	 0.331294670481141 
1997	 0.331606737145738 
1998	 0.331887786246956 
1999	 0.332110354659613 
2000	 0.332376898029853 
2001	 0.332657225330596 
2002	 0.33292996518966 
2003	 0.333236095984173 
2004	 0.33355934122516 
2005	 0.333876803014497 
2006	 0.334205634946128 
2007	 0.334523619093951 
2008	 0.334838157205286 
2009	 0.335156546211168 
2010	 0.335478195726839 
2011	 0.33579407675507 
2012	 0.336114288187426 
2013	 0.336422841919635 
2014	 0.336720365836238 
2015	 0.337012581106735 
2016	 0.337295495743508 
2017	 0.337608819456658 
2018	 0.337905888404211 
2019	 0.338207033776444 
2020	 0.338492165965563 
2021	 0.338774594260813 
2022	 0.339039930485779 
2023	 0.339284574599346 
2024	 0.339538071880759 
2025	 0.339784031732533 
2026	 0.34003099234949 
2027	 0.340277430947394 
2028	 0.340529167478537 
2029	 0.340771580675167 
2030	 0.341008215211176 
2031	 0.341239076795382 
2032	 0.341471449521192 
2033	 0.341686850370345 
2034	 0.341888012570513 
2035	 0.342092127524913 
2036	 0.342275799269928 
2037	 0.342479063753503 
2038	 0.342709841801988 
2039	 0.342909927236325 
2040	 0.343105788365525 
2041	 0.343292045858422 
2042	 0.343457684254731 
2043	 0.343604964877247 
2044	 0.343761470048714 
2045	 0.343923637321309 
2046	 0.344068108333498 
2047	 0.344189821784358 
2048	 0.344336070209956 
2049	 0.344487310985242 
2050	 0.344634565002126 
2051	 0.344795171974174 
2052	 0.344951928327504 
2053	 0.345095577045464 
2054	 0.345244864302631 
2055	 0.345401948807632 
2056	 0.345562596044262 
2057	 0.345713598949849 
2058	 0.345873535520844 
2059	 0.345996094310485 
2060	 0.346101626469154 
2061	 0.346197681084647 
2062	 0.346253884535814 
2063	 0.346334249099944 
2064	 0.34641506835439 
2065	 0.346502380743684 
2066	 0.346590922119265 
2067	 0.346689032105847 
2068	 0.346794118922132 
2069	 0.346918149178955 
2070	 0.34700785314254 
2071	 0.347086812188015 
2072	 0.347180798833896 
2073	 0.347257574702526 
2074	 0.347347466106986 
2075	 0.34746581800956 
2076	 0.347559631212284 
2077	 0.347637834220353 
2078	 0.347719543306115 
2079	 0.347803733001521 
2080	 0.347877819708069 
2081	 0.347946950004047 
2082	 0.348008463478181 
2083	 0.348051119400385 
2084	 0.348108017686944 
2085	 0.348156441183459 
2086	 0.348202679269783 
2087	 0.348239458945878 
2088	 0.348277103559687 
2089	 0.34829930960035 
2090	 0.348294445584221 
2091	 0.348314891034831 
2092	 0.348330779374135 
2093	 0.348362370999259 
2094	 0.348420201592422 
2095	 0.34846586294781 
2096	 0.34852446417971 
2097	 0.348563757967673 
2098	 0.34857874122468 
2099	 0.348607459531552 
2100	 0.348642455111933 
2101	 0.348668559477942 
2102	 0.348713940886027 
2103	 0.348769471385611 
2104	 0.348846296353678 
2105	 0.348935781665673 
2106	 0.349034353189293 
2107	 0.349160031181956 
2108	 0.349279905061801 
2109	 0.349405909671299 
2110	 0.349528733606047 
2111	 0.349661421107847 
2112	 0.349787495146748 
2113	 0.349916857880669 
2114	 0.3500187662779 
2115	 0.350149346509632 
2116	 0.35028893615605 
2117	 0.350417928918122 
2118	 0.350550166782812 
2119	 0.350692274700581 
2120	 0.350826599419387 
2121	 0.350972543869443 
2122	 0.351163557324118 
2123	 0.351296445697386 
2124	 0.351412126294363 
2125	 0.351505107165486 
2126	 0.351556747899486 
2127	 0.351606809778966 
2128	 0.351616807375581 
2129	 0.351662499247651 
2130	 0.351738584570602 
2131	 0.351783636298171 
2132	 0.351822494992907 
2133	 0.351888055786435 
2134	 0.351893967600743 
2135	 0.351842393559486 
2136	 0.351819254103045 
2137	 0.351815116320712 
2138	 0.351743643891976 
2139	 0.351664286170904 
2140	 0.351532995382889 
2141	 0.35131100957422 
2142	 0.351117947800549 
2143	 0.350933799621015 
2144	 0.350704553109198 
2145	 0.350455408108646 
2146	 0.350186805019526 
2147	 0.349877114937715 
2148	 0.349547886568664 
2149	 0.349223254671845 
2150	 0.3489028549182 
2151	 0.348549791981724 
2152	 0.34818605451777 
2153	 0.347789784539698 
2154	 0.347367126124615 
2155	 0.346921915797527 
2156	 0.346449237982259 
2157	 0.345963041678351 
2158	 0.345448535417694 
2159	 0.344926376903401 
2160	 0.344386871886731 
2161	 0.343837925947803 
2162	 0.343302379527649 
2163	 0.342716169165722 
2164	 0.34209356336231 
2165	 0.341442174714816 
2166	 0.340818743179968 
2167	 0.340186595151437 
2168	 0.339517056727325 
2169	 0.338866148815985 
2170	 0.338162487212139 
2171	 0.337394735096802 
2172	 0.33662485136787 
2173	 0.33585450760916 
2174	 0.335044372588967 
2175	 0.33420787257738 
2176	 0.33332433546759 
2177	 0.332408658761923 
2178	 0.331456582255761 
2179	 0.330439271507819 
2180	 0.329417481261509 
2181	 0.328380622380117 
2182	 0.327313017830623 
2183	 0.326218661021449 
2184	 0.325085489637455 
2185	 0.323972547955959 
2186	 0.322826703334196 
2187	 0.321716076589603 
2188	 0.320611687621482 
2189	 0.319541836010443 
2190	 0.318448318763001 
2191	 0.3174679051186 
2192	 0.316530274413989 
2193	 0.315677571582689 
2194	 0.314894269191054 
2195	 0.314204810387221 
2196	 0.313592791974994 
2197	 0.313067531325915 
2198	 0.312656502440392 
2199	 0.312295969753629 
2200	 0.311997969687949 
2201	 0.311784717924951 
2202	 0.311642173255001 
2203	 0.311579708552804 
2204	 0.311617662341592 
2205	 0.311737740000668 
2206	 0.311979571011714 
2207	 0.312303371142566 
2208	 0.312791725837999 
2209	 0.313444347501915 
2210	 0.3141448864912 
2211	 0.31502803330038 
2212	 0.315859723427123 
2213	 0.316767144142434 
2214	 0.317623415080174 
2215	 0.318485369700063 
2216	 0.319323057479451 
2217	 0.320179676693471 
2218	 0.320945915350901 
2219	 0.321687157824023 
2220	 0.322361148763542 
2221	 0.322954697662615 
2222	 0.323489649088291 
2223	 0.324005239285922 
2224	 0.324462288975984 
2225	 0.324883988244906 
2226	 0.325261614089651 
2227	 0.325593298245861 
2228	 0.32587656833416 
2229	 0.326126764788391 
2230	 0.32631506365874 
2231	 0.326511381234872 
2232	 0.326704125738789 
2233	 0.326833313322484 
2234	 0.326939018669726 
2235	 0.326990101907438 
2236	 0.326952758577327 
2237	 0.326932816616981 
2238	 0.326889033177081 
2239	 0.326836202279158 
2240	 0.326778166324556 
2241	 0.326697806615498 
2242	 0.326569993073264 
2243	 0.326471318066325 
2244	 0.326398481008816 
2245	 0.326288088585114 
2246	 0.326152233416439 
2247	 0.326001593135457 
2248	 0.325844318563955 
2249	 0.325637973821926 
2250	 0.325462169209165 
2251	 0.325303785086988 
2252	 0.325133283806699 
2253	 0.324935619814024 
2254	 0.324778656969723 
2255	 0.324635200782684 
2256	 0.324521354522873 
2257	 0.324446315300595 
2258	 0.324357258536517 
2259	 0.324265810982806 
2260	 0.324210324883306 
2261	 0.32415349180504 
2262	 0.324130579519102 
2263	 0.324179696292054 
2264	 0.324194302547895 
2265	 0.324204309025431 
2266	 0.324222610018172 
2267	 0.324218669609317 
2268	 0.324248251077282 
2269	 0.324309902213276 
2270	 0.324366428666738 
2271	 0.324452735897756 
2272	 0.324523234615687 
2273	 0.324571386166603 
2274	 0.32467023677535 
2275	 0.324745922056728 
2276	 0.324826152768084 
2277	 0.324881739665087 
2278	 0.324924014137731 
2279	 0.32496827750698 
2280	 0.324978759357926 
2281	 0.325043258500681 
2282	 0.325151448549427 
2283	 0.32522691648236 
2284	 0.325330639508976 
2285	 0.325384636580844 
2286	 0.325388089781325 
2287	 0.325404404890746 
2288	 0.325412999462754 
2289	 0.325413589783119 
2290	 0.325431366165169 
2291	 0.325406448328471 
2292	 0.325300718908928 
2293	 0.325267506410616 
2294	 0.325253433965898 
2295	 0.325227500655196 
2296	 0.325227849779458 
2297	 0.325272661999749 
2298	 0.325234809261653 
2299	 0.325176704036523 
2300	 0.325119562672275 
2301	 0.325063607849644 
2302	 0.325000972294455 
2303	 0.324907916574214 
2304	 0.324781952186796 
2305	 0.324583874350056 
2306	 0.324379063083605 
2307	 0.324104760544601 
2308	 0.323893647077193 
2309	 0.323706282679727 
2310	 0.323482079833584 
2311	 0.323247797059957 
2312	 0.323017259502379 
2313	 0.322773436540897 
2314	 0.322515422273958 
2315	 0.322270013766381 
2316	 0.32201214815523 
2317	 0.321710903667279 
2318	 0.321434613546358 
2319	 0.321174797440124 
2320	 0.320912811128171 
2321	 0.320643931559361 
2322	 0.320382971784376 
2323	 0.320121425724564 
2324	 0.319885083729582 
2325	 0.319682646665507 
2326	 0.319452850465293 
2327	 0.319258882725677 
2328	 0.318997120092411 
2329	 0.318653317551721 
2330	 0.318360566309616 
2331	 0.318096556249834 
2332	 0.317774302630313 
2333	 0.317461551744974 
2334	 0.317125675233649 
2335	 0.316696754198563 
2336	 0.316284517793347 
2337	 0.31594158990347 
2338	 0.315615889932414 
2339	 0.315308532193503 
2340	 0.315037252177826 
2341	 0.314707464516695 
2342	 0.314336609472443 
2343	 0.314057562254721 
2344	 0.313802405168561 
2345	 0.313522743193569 
2346	 0.313299730810087 
2347	 0.313021139161066 
2348	 0.3126605032918 
2349	 0.312369294916134 
2350	 0.312086439082125 
2351	 0.31187131080534 
2352	 0.311721560744227 
2353	 0.311529994343243 
2354	 0.311345218396614 
2355	 0.311210907749611 
2356	 0.311109295386798 
2357	 0.310960663796009 
2358	 0.310858911116133 
2359	 0.310703364243011 
2360	 0.310464365595364 
2361	 0.310244384909981 
2362	 0.310033775320268 
2363	 0.30983463010282 
2364	 0.309622796123751 
2365	 0.309396471501826 
2366	 0.309202982594333 
2367	 0.30894533928757 
2368	 0.308632517416198 
2369	 0.308317661156606 
2370	 0.307963922940896 
2371	 0.307638888429176 
2372	 0.307295718880859 
2373	 0.306905340995212 
2374	 0.306570452142384 
2375	 0.306214477481619 
2376	 0.305803274287547 
2377	 0.305373720195594 
2378	 0.304942460235833 
2379	 0.304521832232595 
2380	 0.304107522627363 
2381	 0.303815724738725 
2382	 0.303494933252464 
2383	 0.303077862646018 
2384	 0.30265672600275 
2385	 0.302198697334786 
2386	 0.301768070977593 
2387	 0.301308413158932 
2388	 0.300935539973962 
2389	 0.300650981450475 
2390	 0.300303145205808 
2391	 0.299987488303971 
2392	 0.299649590339501 
2393	 0.299241302265231 
2394	 0.298819507117545 
2395	 0.298453625115723 
2396	 0.2981153412977 
2397	 0.297728342423854 
2398	 0.297300471442204 
2399	 0.296884675682738 
2400	 0.296478927548117 
2401	 0.295959536435178 
2402	 0.295526869699148 
2403	 0.295161175607583 
2404	 0.29466207064673 
2405	 0.294226558764793 
2406	 0.293740900267332 
2407	 0.293130821020685 
2408	 0.292512473368328 
2409	 0.291908623521234 
2410	 0.291374238409225 
2411	 0.290795739351877 
2412	 0.290270025405905 
2413	 0.28985568658659 
2414	 0.289251837920347 
2415	 0.288644896470145 
2416	 0.288070063179971 
2417	 0.28737966486644 
2418	 0.286809885418392 
2419	 0.286409686880664 
2420	 0.285865946753787 
2421	 0.285334903678234 
2422	 0.284761725187955 
2423	 0.284048548648313 
2424	 0.283500441360898 
2425	 0.282983846484356 
2426	 0.282501917039935 
2427	 0.282205325058359 
2428	 0.281659429896426 
2429	 0.280976947177053 
2430	 0.280401242169373 
2431	 0.279726603724474 
2432	 0.279142837437706 
2433	 0.278723324306946 
2434	 0.278202078890272 
2435	 0.277613099081823 
2436	 0.277056214217114 
2437	 0.276445427447445 
2438	 0.275930372392376 
2439	 0.275446238274593 
2440	 0.274996839962936 
2441	 0.274655870895646 
2442	 0.274295551120162 
2443	 0.274038829814418 
2444	 0.27366549037092 
2445	 0.273190487804656 
2446	 0.272771573233685 
2447	 0.272192674992142 
2448	 0.271835283534526 
2449	 0.271724807431216 
2450	 0.27144155165715 
2451	 0.271206122373485 
2452	 0.270912552240876 
2453	 0.270444270487758 
2454	 0.270130371648005 
2455	 0.269971805059968 
2456	 0.269674325995809 
2457	 0.26933210264703 
2458	 0.269004791064509 
2459	 0.268596826673202 
2460	 0.268199653678026 
2461	 0.267790738764855 
2462	 0.267472353855066 
2463	 0.267224841263274 
2464	 0.266913945374697 
2465	 0.266655400117814 
2466	 0.266413271662423 
2467	 0.266124650828965 
2468	 0.265829265920164 
2469	 0.265595216570029 
2470	 0.265344588144153 
2471	 0.264876471613187 
2472	 0.264625144713824 
2473	 0.264327477508596 
2474	 0.263916783980143 
2475	 0.263754783917032 
2476	 0.263459322701912 
2477	 0.26317796893486 
2478	 0.262960017939822 
2479	 0.262488169421843 
2480	 0.262166066401659 
2481	 0.261913303341246 
2482	 0.261545988250098 
2483	 0.261295285686575 
2484	 0.260980307963357 
2485	 0.26070537240719 
2486	 0.260577139045192 
2487	 0.260307182617639 
2488	 0.25998241762943 
2489	 0.259751876426698 
2490	 0.25950486165269 
2491	 0.259306968860686 
2492	 0.259129510977901 
2493	 0.2587544851918 
2494	 0.258163830826668 
2495	 0.257830355011088 
2496	 0.257705979502286 
2497	 0.257382444117572 
2498	 0.257247349154497 
2499	 0.257193327104663 
2500	 0.256855476620502 
