Wavelength	LMW_2000007.asd
350	 3.41006671022434E-02 
351	 3.57705196956331E-02 
352	 3.44668848815175E-02 
353	 3.06025926480977E-02 
354	 3.67556367649326E-02 
355	 4.07424750739012E-02 
356	 4.18521357738644E-02 
357	 4.25640810141397E-02 
358	 4.61226671910177E-02 
359	 4.21312796009374E-02 
360	 3.59245406990342E-02 
361	 4.10898349574231E-02 
362	 4.33334755666263E-02 
363	 4.14427589480801E-02 
364	 3.86410408056603E-02 
365	 4.24749892961459E-02 
366	 4.24791095821615E-02 
367	 4.25003290009471E-02 
368	 4.68296423486098E-02 
369	 4.54369014795585E-02 
370	 4.49081208294091E-02 
371	 4.61602592298803E-02 
372	 4.62698618149528E-02 
373	 4.91851385393483E-02 
374	 5.04165777173422E-02 
375	 4.80983702493109E-02 
376	 4.60943666956256E-02 
377	 4.98184455559668E-02 
378	 5.42929773288821E-02 
379	 5.37994689137829E-02 
380	 5.41544416545783E-02 
381	 5.45245296226313E-02 
382	 5.51668957849283E-02 
383	 5.69185803716342E-02 
384	 0.055516079065018 
385	 5.34530186230767E-02 
386	 5.37956015798158E-02 
387	 5.93435470769687E-02 
388	 6.07610430894537E-02 
389	 5.93782046230052E-02 
390	 5.93951392264854E-02 
391	 5.99702631262395E-02 
392	 6.13087146279442E-02 
393	 6.34347009118243E-02 
394	 6.61019664895038E-02 
395	 6.67813041761426E-02 
396	 6.77083013137055E-02 
397	 0.06992993624249 
398	 7.01627323761992E-02 
399	 7.07517968743696E-02 
400	 7.25615657741298E-02 
401	 7.53190240137241E-02 
402	 0.076036779209713 
403	 7.58160329590272E-02 
404	 0.075638473505123 
405	 7.60494421191504E-02 
406	 7.81282097887105E-02 
407	 8.00665898031088E-02 
408	 8.05411553578077E-02 
409	 8.08294478951277E-02 
410	 8.10864425642088E-02 
411	 0.081383810639684 
412	 8.17480529194959E-02 
413	 8.24016651289949E-02 
414	 8.32243916934291E-02 
415	 8.37528052995256E-02 
416	 8.31173967364102E-02 
417	 8.27462950597265E-02 
418	 8.29331622111044E-02 
419	 8.34497315548287E-02 
420	 0.083446623027072 
421	 8.35127023620944E-02 
422	 8.37757894690263E-02 
423	 8.39499263902604E-02 
424	 8.25972664811257E-02 
425	 8.19449344846371E-02 
426	 8.27045588711799E-02 
427	 0.082076259058238 
428	 8.15801468895303E-02 
429	 8.13392261210158E-02 
430	 8.11028635498289E-02 
431	 8.10362733598322E-02 
432	 8.03691262893599E-02 
433	 7.96112497169798E-02 
434	 8.03983638816929E-02 
435	 8.07262858396555E-02 
436	 8.04915138317081E-02 
437	 0.080141308717821 
438	 8.04916212858607E-02 
439	 8.09987451262676E-02 
440	 8.15090847595407E-02 
441	 8.20739548799224E-02 
442	 8.27455176027937E-02 
443	 8.34480681586424E-02 
444	 8.40745870915365E-02 
445	 8.44900204460166E-02 
446	 8.47169529767819E-02 
447	 8.51017349754543E-02 
448	 8.58817527155878E-02 
449	 8.64687819381843E-02 
450	 8.70464091012973E-02 
451	 8.75722890348847E-02 
452	 8.78284089260092E-02 
453	 8.83070272350904E-02 
454	 8.87026084046966E-02 
455	 8.88877447635927E-02 
456	 8.95506771613608E-02 
457	 9.00473532446214E-02 
458	 9.03129759225977E-02 
459	 9.05375733039702E-02 
460	 9.06881195140022E-02 
461	 9.08008843070948E-02 
462	 9.08732739762859E-02 
463	 9.08319289691943E-02 
464	 9.11523494782691E-02 
465	 9.15909204519405E-02 
466	 9.17984062019701E-02 
467	 9.18903077376601E-02 
468	 9.20519048877738E-02 
469	 9.22132516316114E-02 
470	 9.21298140562585E-02 
471	 9.22446454493286E-02 
472	 9.23822410442138E-02 
473	 9.24110880363792E-02 
474	 9.25739367492924E-02 
475	 9.25730575386212E-02 
476	 9.26022640805605E-02 
477	 9.29650391036563E-02 
478	 9.30955512006566E-02 
479	 9.31458397402603E-02 
480	 0.093210459742578 
481	 9.32113856769133E-02 
482	 9.32540172943079E-02 
483	 9.34343771772805E-02 
484	 9.37150900993857E-02 
485	 9.35533527243285E-02 
486	 9.34749908745585E-02 
487	 9.35555784524269E-02 
488	 9.34918134780209E-02 
489	 9.35134273383116E-02 
490	 9.36805550169865E-02 
491	 9.39439867458419E-02 
492	 0.094107640574386 
493	 9.39024156522498E-02 
494	 0.093663051947075 
495	 9.39096579188279E-02 
496	 9.41440552249458E-02 
497	 9.41171545404016E-02 
498	 9.39092940298625E-02 
499	 9.40437750400647E-02 
500	 9.40330350315872E-02 
501	 9.40094827776798E-02 
502	 9.41675478676787E-02 
503	 9.41506932739637E-02 
504	 9.41513952928965E-02 
505	 9.42297718939333E-02 
506	 9.43036686891533E-02 
507	 9.41958759127327E-02 
508	 9.41874799263914E-02 
509	 9.44054899971585E-02 
510	 9.43213941043033E-02 
511	 9.42667836906232E-02 
512	 9.42829190911702E-02 
513	 9.42692071377195E-02 
514	 9.43120173859673E-02 
515	 9.43614017454106E-02 
516	 9.44108983379725E-02 
517	 9.45643302979174E-02 
518	 0.094624095523708 
519	 9.45811228106499E-02 
520	 9.45165830879727E-02 
521	 9.46053144639789E-02 
522	 9.46709694436583E-02 
523	 9.46545868241453E-02 
524	 9.46392665497367E-02 
525	 0.09448405656784 
526	 9.43754555763016E-02 
527	 9.44449632753446E-02 
528	 0.094421536238622 
529	 9.44413371171345E-02 
530	 9.45159581796731E-02 
531	 9.45701613653369E-02 
532	 9.45247299340678E-02 
533	 9.45206123379529E-02 
534	 9.46252198224035E-02 
535	 9.47099917599105E-02 
536	 9.46369464350774E-02 
537	 9.45479800746906E-02 
538	 9.46467753572842E-02 
539	 9.46959464564637E-02 
540	 9.46534167514087E-02 
541	 9.45964293764243E-02 
542	 9.47371113127213E-02 
543	 9.48400942302573E-02 
544	 9.48606043505001E-02 
545	 9.48371090138269E-02 
546	 9.49137013647548E-02 
547	 9.49432825559275E-02 
548	 9.49322624336656E-02 
549	 9.50142330645155E-02 
550	 9.50544116691841E-02 
551	 9.50432274495834E-02 
552	 0.095036659724733 
553	 9.52207628966365E-02 
554	 9.52767060434946E-02 
555	 9.52483715037639E-02 
556	 9.53526005672873E-02 
557	 9.54707787509511E-02 
558	 9.55949234420132E-02 
559	 9.57244088029767E-02 
560	 9.58536275186256E-02 
561	 9.59442480690197E-02 
562	 0.096025954161122 
563	 9.61420051029492E-02 
564	 9.62756737118678E-02 
565	 9.63171603278154E-02 
566	 9.62852584413055E-02 
567	 9.63439654508629E-02 
568	 0.096480780548615 
569	 9.66919454598729E-02 
570	 9.69428355449577E-02 
571	 9.71045384436778E-02 
572	 9.73134811452133E-02 
573	 0.097566594715959 
574	 9.77665049744687E-02 
575	 9.79817521713587E-02 
576	 0.098211686277118 
577	 9.84251700423107E-02 
578	 9.85418682011509E-02 
579	 9.86497262829344E-02 
580	 9.87325886040599E-02 
581	 9.87617834168565E-02 
582	 9.89431603266547E-02 
583	 9.91253543742791E-02 
584	 9.92561595413337E-02 
585	 9.94688862825223E-02 
586	 9.96958926404354E-02 
587	 9.98956991590384E-02 
588	 0.100066048722824 
589	 0.100354737548061 
590	 0.100574634982405 
591	 0.10074622685453 
592	 0.101076079708478 
593	 0.101342847651313 
594	 0.101600786967238 
595	 0.101886597370154 
596	 0.102045038460472 
597	 0.102131239443167 
598	 0.102209768217475 
599	 0.102342995817385 
600	 0.102498622911302 
601	 0.102605868531048 
602	 0.102659009204209 
603	 0.102776585902691 
604	 0.102882683351345 
605	 0.10298220981911 
606	 0.103097001414273 
607	 0.103180588279396 
608	 0.103307503322042 
609	 0.103500782867876 
610	 0.103715831983 
611	 0.103790555090863 
612	 0.10383875739687 
613	 0.103956792904786 
614	 0.103922067186637 
615	 0.103940444667137 
616	 0.104016544081584 
617	 0.104023948093107 
618	 0.10409681516656 
619	 0.104172140767899 
620	 0.104202117429782 
621	 0.104226057542552 
622	 0.104305377737235 
623	 0.104367730915001 
624	 0.104321292282025 
625	 0.104359344799291 
626	 0.104374979153998 
627	 0.104350030759704 
628	 0.104415112920509 
629	 0.104385436769712 
630	 0.104366878832864 
631	 0.104460786945109 
632	 0.104427460105229 
633	 0.10439287988609 
634	 0.104407158020548 
635	 0.104448408395317 
636	 0.104475480438936 
637	 0.104486794520677 
638	 0.104496328985561 
639	 0.10454544606487 
640	 0.104505656479787 
641	 0.104455412902875 
642	 0.10453861090595 
643	 0.104590000288758 
644	 0.104593027189741 
645	 0.104559550851344 
646	 0.104518502179014 
647	 0.104520607369049 
648	 0.104542719203388 
649	 0.104549178272235 
650	 0.104563425623445 
651	 0.104571225990851 
652	 0.104562156742143 
653	 0.104535863866294 
654	 0.104609524177771 
655	 0.10463083966963 
656	 0.104528419331002 
657	 0.104552885869755 
658	 0.104619420414833 
659	 0.104647506875706 
660	 0.104581508897069 
661	 0.104577517477857 
662	 0.104610436861614 
663	 0.104646456173863 
664	 0.104666912309896 
665	 0.104685212733026 
666	 0.104699458172905 
667	 0.104707475270679 
668	 0.10472191610817 
669	 0.104735580725364 
670	 0.104758177696627 
671	 0.10481103193565 
672	 0.104874026563762 
673	 0.104883589176829 
674	 0.104839343240154 
675	 0.104906646717327 
676	 0.104977752989623 
677	 0.105021956890543 
678	 0.105042950644106 
679	 0.105045715265417 
680	 0.105058803428292 
681	 0.105103195774797 
682	 0.10518804332769 
683	 0.105254957810468 
684	 0.105269669439257 
685	 0.105239016788175 
686	 0.105272714090476 
687	 0.105365098167954 
688	 0.105465429730518 
689	 0.10549763794317 
690	 0.105483778259843 
691	 0.105481338801293 
692	 0.105518317717198 
693	 0.10555581950588 
694	 0.105593636680111 
695	 0.105623133876561 
696	 0.105644454626212 
697	 0.10571467684784 
698	 0.105770327067726 
699	 0.105795597066346 
700	 0.105831289142029 
701	 0.1058583828715 
702	 0.105880832852016 
703	 0.105902589216855 
704	 0.105911026118501 
705	 0.105950098919091 
706	 0.106002639669262 
707	 0.106025331554654 
708	 0.106056571421863 
709	 0.106073535704808 
710	 0.106077244139065 
711	 0.106111681230299 
712	 0.106137734398437 
713	 0.106168849764589 
714	 0.106218424915083 
715	 0.106245974610905 
716	 0.106253833915758 
717	 0.106259867899149 
718	 0.106286666943141 
719	 0.106278111121774 
720	 0.106243617938583 
721	 0.10621761504659 
722	 0.106267070025966 
723	 0.106294506340311 
724	 0.106301734059068 
725	 0.106315820880727 
726	 0.106298594263897 
727	 0.106307681988163 
728	 0.106330704253203 
729	 0.106293448541311 
730	 0.106294166892415 
731	 0.106301493444751 
732	 0.106287746026738 
733	 0.10629201253031 
734	 0.106304608334197 
735	 0.106284761811332 
736	 0.106201823652178 
737	 0.10616555110523 
738	 0.106149375718274 
739	 0.106146866272077 
740	 0.106181993023911 
741	 0.106162062944639 
742	 0.106116518392037 
743	 0.106081546465862 
744	 0.106033483023443 
745	 0.105974359416936 
746	 0.105923723607712 
747	 0.105899790583249 
748	 0.105848127007736 
749	 0.105795764382576 
750	 0.105752950833551 
751	 0.105701117026029 
752	 0.105659344771102 
753	 0.105599782567773 
754	 0.105512102693356 
755	 0.105467493735245 
756	 0.10542559217531 
757	 0.105381836496274 
758	 0.105347837751101 
759	 0.105320006406738 
760	 0.105235944096989 
761	 0.105121354350994 
762	 0.105112964995323 
763	 0.105070450001018 
764	 0.104976005073589 
765	 0.104859644248997 
766	 0.104796157147843 
767	 0.104757956381348 
768	 0.104714653297843 
769	 0.104641280832241 
770	 0.104569664898746 
771	 0.10449291181869 
772	 0.104414165561779 
773	 0.104351561107938 
774	 0.104269068858463 
775	 0.104186231388921 
776	 0.104118232309237 
777	 0.104034006089564 
778	 0.103930638695307 
779	 0.103854859945355 
780	 0.103845160564097 
781	 0.103734509040056 
782	 0.103654898577271 
783	 0.103618500895324 
784	 0.103495066511522 
785	 0.103417690676289 
786	 0.103356702391734 
787	 0.103275901769848 
788	 0.103197878443612 
789	 0.103151031916409 
790	 0.103080245368116 
791	 0.102936450601428 
792	 0.102880266431994 
793	 0.102805631566891 
794	 0.102700238704064 
795	 0.102638013933944 
796	 0.102553794349787 
797	 0.102464813212146 
798	 0.102392921241261 
799	 0.102346263123295 
800	 0.102278500307855 
801	 0.102196552887926 
802	 0.10211860169281 
803	 0.102030476941073 
804	 0.101969645757707 
805	 0.101916363176984 
806	 0.101822926845974 
807	 0.101739518467794 
808	 0.101656831100616 
809	 0.101574510923087 
810	 0.101511415097527 
811	 0.101484455423197 
812	 0.101423770374421 
813	 0.101297239609407 
814	 0.101224113406548 
815	 0.101155779615327 
816	 0.101085773466562 
817	 0.101025518234847 
818	 0.100997402897529 
819	 0.100943015862407 
820	 0.100856238384328 
821	 0.100779077070276 
822	 0.100712514581265 
823	 0.100638642578619 
824	 0.100567453084822 
825	 0.100560969090454 
826	 0.10049005004114 
827	 0.100387577078392 
828	 0.100316032018834 
829	 0.100277900890632 
830	 0.100229514414298 
831	 0.100172079927452 
832	 0.10012469002375 
833	 0.100060241020531 
834	 9.99997477442905E-02 
835	 9.99587426693808E-02 
836	 9.99414306073139E-02 
837	 9.99281814093625E-02 
838	 0.099883017533011 
839	 9.97952231036003E-02 
840	 9.96978227495056E-02 
841	 9.96302224549978E-02 
842	 9.96084659968949E-02 
843	 9.96125654707348E-02 
844	 9.95392649210188E-02 
845	 9.95136786497113E-02 
846	 9.95039672866712E-02 
847	 9.94256336434165E-02 
848	 9.93519741811306E-02 
849	 9.92829919929953E-02 
850	 0.099236643169493 
851	 9.92383235243851E-02 
852	 9.92020188626421E-02 
853	 9.91572886052135E-02 
854	 9.91221001570203E-02 
855	 9.90730585790804E-02 
856	 9.90688670968286E-02 
857	 9.90804912541051E-02 
858	 9.90645609937153E-02 
859	 9.89938437741257E-02 
860	 9.89417121744136E-02 
861	 9.89164126651329E-02 
862	 0.098887819257288 
863	 0.098776969735104 
864	 0.098714710163214 
865	 0.098712740013724 
866	 9.87094034907002E-02 
867	 9.87399840633148E-02 
868	 9.87436531196255E-02 
869	 9.87050888525776E-02 
870	 9.86628947612973E-02 
871	 9.86093394693408E-02 
872	 9.85824612694572E-02 
873	 9.85921891449242E-02 
874	 9.85948730905652E-02 
875	 9.85565286107662E-02 
876	 9.85157615465987E-02 
877	 9.85049793686533E-02 
878	 9.84872240889702E-02 
879	 9.84752336235191E-02 
880	 9.84701630406945E-02 
881	 9.84663371626994E-02 
882	 9.84446193184633E-02 
883	 9.84389510315726E-02 
884	 9.84455208068729E-02 
885	 9.84398731020176E-02 
886	 9.84230331740907E-02 
887	 9.83784652290432E-02 
888	 9.83375956146957E-02 
889	 9.83634846737624E-02 
890	 0.098425457232359 
891	 9.84319147736078E-02 
892	 9.83681841841229E-02 
893	 9.83232041289907E-02 
894	 9.83142835970623E-02 
895	 9.83329481864771E-02 
896	 9.83544461785645E-02 
897	 9.83414144043696E-02 
898	 9.83359768337721E-02 
899	 0.098329968323567 
900	 9.83185855759704E-02 
901	 9.83458191574592E-02 
902	 9.83304345843858E-02 
903	 0.098316738294406 
904	 0.098364227116486 
905	 9.84210939176178E-02 
906	 9.84347452428315E-02 
907	 9.84032820538037E-02 
908	 9.83674942281025E-02 
909	 9.84242389802375E-02 
910	 9.84602774105884E-02 
911	 9.84683132028168E-02 
912	 9.85029263957412E-02 
913	 9.84665521739716E-02 
914	 9.84546664629027E-02 
915	 0.098484695742116 
916	 9.84954167834845E-02 
917	 9.85266400057963E-02 
918	 9.85127982243943E-02 
919	 9.84767868612315E-02 
920	 9.85420915476708E-02 
921	 9.86127849155035E-02 
922	 9.86126103408613E-02 
923	 9.85737729919452E-02 
924	 9.86658838558391E-02 
925	 9.87182599062526E-02 
926	 9.87458058848163E-02 
927	 9.87648085476192E-02 
928	 9.87214033624863E-02 
929	 0.098733884707583 
930	 9.87823913951712E-02 
931	 9.88145053219977E-02 
932	 9.87899051622815E-02 
933	 9.88745769184504E-02 
934	 9.89453402165202E-02 
935	 9.88994997346447E-02 
936	 9.89487729116929E-02 
937	 9.90104990807263E-02 
938	 9.90391051843543E-02 
939	 9.90257970461238E-02 
940	 9.90388305649316E-02 
941	 9.91167882021762E-02 
942	 9.92261491926484E-02 
943	 9.92887872195407E-02 
944	 9.91825923091591E-02 
945	 9.91707447218142E-02 
946	 9.92332527887532E-02 
947	 9.92523583498257E-02 
948	 9.93461020394561E-02 
949	 9.94197492577415E-02 
950	 9.94150369215724E-02 
951	 9.93499346330216E-02 
952	 9.94654428540859E-02 
953	 9.95061379604335E-02 
954	 9.95099946086919E-02 
955	 9.96343715989923E-02 
956	 9.96521033022421E-02 
957	 9.96316396957961E-02 
958	 9.96353464998044E-02 
959	 9.97013659262207E-02 
960	 9.98260173478344E-02 
961	 9.99052593908206E-02 
962	 9.99171007090386E-02 
963	 9.99077320700146E-02 
964	 9.99204458656944E-02 
965	 0.100002961961653 
966	 0.100097252705111 
967	 0.100104117831712 
968	 0.100120423698135 
969	 0.100142673560567 
970	 0.100136031373687 
971	 0.100078353492553 
972	 0.10011182716727 
973	 0.100201399440287 
974	 0.100243842965558 
975	 0.100171129692312 
976	 0.100317084940854 
977	 0.100409724490064 
978	 0.100349474204619 
979	 0.10023605675535 
980	 0.100389742145895 
981	 0.100433709679978 
982	 0.100403288447374 
983	 0.100540030642859 
984	 0.100554840496099 
985	 0.100600573799747 
986	 0.100630631219976 
987	 0.100553920419327 
988	 0.100708732891723 
989	 0.100774801648216 
990	 0.100784970493511 
991	 0.100891544664133 
992	 0.100818814857833 
993	 0.100741219728377 
994	 0.100844645165799 
995	 0.10113129483561 
996	 0.100960943292147 
997	 0.100888101539311 
998	 0.100946743172989 
999	 0.100982636258393 
1000	 0.101029980934321 
1001	 9.89898064538255E-02 
1002	 9.89863049284128E-02 
1003	 9.90269992576821E-02 
1004	 9.90556003208852E-02 
1005	 9.91141065825385E-02 
1006	 9.91211818945256E-02 
1007	 9.90924517568818E-02 
1008	 9.90872197900062E-02 
1009	 9.91144105476222E-02 
1010	 9.91241339182373E-02 
1011	 9.91639234855311E-02 
1012	 9.91454568947999E-02 
1013	 9.90866196623141E-02 
1014	 9.91057170882974E-02 
1015	 9.91303443699079E-02 
1016	 9.91409693944713E-02 
1017	 0.099167571489835 
1018	 9.92082075322974E-02 
1019	 9.92302519848371E-02 
1020	 9.92293770539019E-02 
1021	 9.92445274305481E-02 
1022	 9.92654407553271E-02 
1023	 0.09923230753497 
1024	 9.92319275981603E-02 
1025	 9.92682544496058E-02 
1026	 9.92481484069604E-02 
1027	 9.91815944951017E-02 
1028	 0.099106626747984 
1029	 9.90906267021468E-02 
1030	 9.91248201945935E-02 
1031	 9.91416108899655E-02 
1032	 9.92012099526535E-02 
1033	 0.099256299761927 
1034	 9.92507420701275E-02 
1035	 9.91838662000122E-02 
1036	 9.91154122961539E-02 
1037	 0.099082567426103 
1038	 0.09904619043009 
1039	 9.90403181870027E-02 
1040	 9.91067579522588E-02 
1041	 9.91037209686004E-02 
1042	 9.90400628078628E-02 
1043	 0.099065830168315 
1044	 9.90605612737239E-02 
1045	 9.90268831386208E-02 
1046	 9.89874066762572E-02 
1047	 9.90227805621372E-02 
1048	 9.89815125343689E-02 
1049	 9.89334802165329E-02 
1050	 9.89676870412582E-02 
1051	 9.89841326978532E-02 
1052	 9.89931331812115E-02 
1053	 9.90374275492146E-02 
1054	 9.90937715146869E-02 
1055	 9.91290842644966E-02 
1056	 9.91757129414336E-02 
1057	 9.92106545955145E-02 
1058	 9.92084293737867E-02 
1059	 9.92207119610578E-02 
1060	 9.92448439288774E-02 
1061	 9.92683001232525E-02 
1062	 9.92743345534026E-02 
1063	 9.93085664995925E-02 
1064	 9.93394334507377E-02 
1065	 9.93418279697517E-02 
1066	 9.93162907719458E-02 
1067	 9.93050003981935E-02 
1068	 9.92899431235906E-02 
1069	 9.92857911008538E-02 
1070	 9.92948970568836E-02 
1071	 9.93430290878606E-02 
1072	 9.93391891145785E-02 
1073	 9.93028591113209E-02 
1074	 0.099304833714217 
1075	 9.92943052193626E-02 
1076	 9.93099422622167E-02 
1077	 9.93777063211893E-02 
1078	 9.94062167250327E-02 
1079	 9.94150393352922E-02 
1080	 9.94140972787534E-02 
1081	 9.93829941737279E-02 
1082	 9.93677166918647E-02 
1083	 9.93494965982484E-02 
1084	 9.93353674515422E-02 
1085	 9.93032430222638E-02 
1086	 9.92519958589001E-02 
1087	 9.92282734144927E-02 
1088	 9.92052106669502E-02 
1089	 9.91872361723095E-02 
1090	 9.91952993177469E-02 
1091	 9.91720059190574E-02 
1092	 9.91598605330322E-02 
1093	 0.09916386963322 
1094	 9.91152234550103E-02 
1095	 9.91261158646427E-02 
1096	 0.099171593287612 
1097	 9.91381238924719E-02 
1098	 9.91221031047464E-02 
1099	 9.91405931970164E-02 
1100	 9.91143061268162E-02 
1101	 9.90257400372724E-02 
1102	 0.09899896899642 
1103	 9.89889759613154E-02 
1104	 9.89802215716412E-02 
1105	 9.90156939099712E-02 
1106	 9.89986845931747E-02 
1107	 9.89504277408685E-02 
1108	 9.89274355482416E-02 
1109	 9.89108713004332E-02 
1110	 9.89026576763404E-02 
1111	 9.88987312581221E-02 
1112	 0.098939533668861 
1113	 9.89262611527853E-02 
1114	 9.88782901217211E-02 
1115	 9.88487705365689E-02 
1116	 9.87988709512441E-02 
1117	 9.87665522145103E-02 
1118	 9.87352043959832E-02 
1119	 9.87334343183411E-02 
1120	 9.87202887592258E-02 
1121	 9.87228059213586E-02 
1122	 9.87251286709388E-02 
1123	 0.098728823693285 
1124	 0.098750020453228 
1125	 9.87934242132379E-02 
1126	 9.88066824514141E-02 
1127	 9.88298193748397E-02 
1128	 9.88250285490797E-02 
1129	 9.87852313295659E-02 
1130	 9.87635733034572E-02 
1131	 9.87376678264472E-02 
1132	 9.87168128226796E-02 
1133	 9.86996109840319E-02 
1134	 9.86832169907642E-02 
1135	 9.86677303001028E-02 
1136	 9.86542627395408E-02 
1137	 9.86452359063682E-02 
1138	 9.86336236936766E-02 
1139	 9.86193510610986E-02 
1140	 9.86060355085333E-02 
1141	 9.85859875838201E-02 
1142	 9.85532980239261E-02 
1143	 9.85392270826315E-02 
1144	 9.85383593755467E-02 
1145	 9.85238296959784E-02 
1146	 9.85167569538189E-02 
1147	 9.84964427905668E-02 
1148	 9.84501765897438E-02 
1149	 9.84229284065309E-02 
1150	 0.098392847137733 
1151	 9.83814451317192E-02 
1152	 9.83886982428282E-02 
1153	 9.83905785465764E-02 
1154	 9.83662806346363E-02 
1155	 9.83272941809532E-02 
1156	 9.82952321629596E-02 
1157	 9.82327795735647E-02 
1158	 0.098206274736765 
1159	 9.82218698412206E-02 
1160	 9.82021577842396E-02 
1161	 9.81643472937457E-02 
1162	 9.81425856409332E-02 
1163	 9.81137328381791E-02 
1164	 9.80875403540908E-02 
1165	 9.80647528272606E-02 
1166	 9.80671980544888E-02 
1167	 9.80482240119901E-02 
1168	 9.80132645067943E-02 
1169	 9.79980444137814E-02 
1170	 0.097992649018357 
1171	 9.79784700632102E-02 
1172	 9.79725365583744E-02 
1173	 9.79531748158494E-02 
1174	 9.79182376264014E-02 
1175	 9.78957718804086E-02 
1176	 9.78733250809282E-02 
1177	 9.78534481910571E-02 
1178	 9.78232493280442E-02 
1179	 9.78213544590677E-02 
1180	 9.78593556623194E-02 
1181	 0.097858811034561 
1182	 9.78581666897055E-02 
1183	 9.78543367948589E-02 
1184	 9.78332483312611E-02 
1185	 9.77656113822357E-02 
1186	 9.77458263351151E-02 
1187	 9.77489244914182E-02 
1188	 9.77376573781608E-02 
1189	 9.77377194271782E-02 
1190	 0.097721312648962 
1191	 9.76845150136593E-02 
1192	 9.76672467135563E-02 
1193	 9.76487568980555E-02 
1194	 9.76399480015816E-02 
1195	 0.097655976297496 
1196	 9.76534267123177E-02 
1197	 9.76419868393854E-02 
1198	 9.76347615357758E-02 
1199	 9.76256835352605E-02 
1200	 9.76069474672783E-02 
1201	 9.75993682928124E-02 
1202	 9.76000525669453E-02 
1203	 9.75958194050053E-02 
1204	 9.75858100929729E-02 
1205	 9.75895188367001E-02 
1206	 9.76096649117263E-02 
1207	 9.76085345913922E-02 
1208	 9.76122289885814E-02 
1209	 9.76004557415225E-02 
1210	 9.75507902310081E-02 
1211	 9.75323470567657E-02 
1212	 9.75269715974343E-02 
1213	 9.75188724215289E-02 
1214	 9.75287775011818E-02 
1215	 9.75294736855858E-02 
1216	 9.75258157924361E-02 
1217	 9.75161481631176E-02 
1218	 9.75022314942776E-02 
1219	 0.097487435073033 
1220	 0.097463699851815 
1221	 9.74191095590911E-02 
1222	 9.74014451561666E-02 
1223	 9.73928857866728E-02 
1224	 9.73805254475997E-02 
1225	 9.73830186107737E-02 
1226	 9.73771852616934E-02 
1227	 9.73641930883248E-02 
1228	 9.73508378227708E-02 
1229	 9.73406805432575E-02 
1230	 9.73267863419386E-02 
1231	 9.73013850666733E-02 
1232	 0.09728313315712 
1233	 9.72674874076571E-02 
1234	 9.72522678426643E-02 
1235	 0.097245214850111 
1236	 9.72524223916033E-02 
1237	 9.72390823850723E-02 
1238	 9.72158048790707E-02 
1239	 0.097205224236349 
1240	 9.71922633572493E-02 
1241	 9.71768495886109E-02 
1242	 9.71820140786282E-02 
1243	 9.71618691865879E-02 
1244	 9.71027018369081E-02 
1245	 9.70758568096879E-02 
1246	 9.70558943918167E-02 
1247	 9.70397036824619E-02 
1248	 9.70414632437031E-02 
1249	 9.70498819606846E-02 
1250	 9.70357831677758E-02 
1251	 9.70105118770429E-02 
1252	 9.69901350093815E-02 
1253	 9.69658473041996E-02 
1254	 9.69355436065868E-02 
1255	 9.68979177744778E-02 
1256	 9.68723394300408E-02 
1257	 9.68429399582395E-02 
1258	 9.68179913888409E-02 
1259	 9.68129791919069E-02 
1260	 9.67892089650358E-02 
1261	 9.67531439107426E-02 
1262	 0.096719604024925 
1263	 9.66710110128857E-02 
1264	 9.66406595033875E-02 
1265	 0.096629077894597 
1266	 9.66029322068953E-02 
1267	 9.65763937635747E-02 
1268	 9.65516134865074E-02 
1269	 9.65262251811991E-02 
1270	 9.64899319015494E-02 
1271	 9.64589142628411E-02 
1272	 9.64351996234359E-02 
1273	 9.64093492366472E-02 
1274	 9.63727734410027E-02 
1275	 9.63507804595633E-02 
1276	 9.63380721197144E-02 
1277	 9.63308690548135E-02 
1278	 9.63307835913881E-02 
1279	 9.63319857630993E-02 
1280	 9.63399446053473E-02 
1281	 9.63469885622702E-02 
1282	 9.63549325678272E-02 
1283	 0.096367096238949 
1284	 9.63804722889372E-02 
1285	 9.63981601905131E-02 
1286	 9.64337269602324E-02 
1287	 9.64619433707278E-02 
1288	 0.096487594236732 
1289	 9.65231195995874E-02 
1290	 9.65398586161212E-02 
1291	 9.65336833372642E-02 
1292	 9.65527159913686E-02 
1293	 9.65762506612347E-02 
1294	 9.66005714935425E-02 
1295	 9.66483292558059E-02 
1296	 9.66674357750694E-02 
1297	 9.66669557224814E-02 
1298	 9.66733535286395E-02 
1299	 9.66671016816018E-02 
1300	 9.66699799559952E-02 
1301	 9.66842503365123E-02 
1302	 0.096690839740186 
1303	 9.67054602518435E-02 
1304	 9.66988850265842E-02 
1305	 9.66858293592685E-02 
1306	 9.66688532846176E-02 
1307	 9.66261073395062E-02 
1308	 9.65855073609422E-02 
1309	 0.096553286084157 
1310	 0.096513642545158 
1311	 9.64896658631265E-02 
1312	 9.64945352428481E-02 
1313	 0.096463126230612 
1314	 9.64152916704204E-02 
1315	 9.63800983404711E-02 
1316	 9.63285067503503E-02 
1317	 9.62882605857902E-02 
1318	 9.62665256691598E-02 
1319	 9.62382206737417E-02 
1320	 9.62028234285087E-02 
1321	 9.61728169965064E-02 
1322	 9.61541457625894E-02 
1323	 9.61267045271919E-02 
1324	 9.60785290408113E-02 
1325	 0.096032358775539 
1326	 9.59994217062284E-02 
1327	 9.59473458496493E-02 
1328	 9.58975058866155E-02 
1329	 9.58716426436434E-02 
1330	 9.58416945928543E-02 
1331	 9.58076859896367E-02 
1332	 9.57756678847738E-02 
1333	 9.57544225521469E-02 
1334	 9.57266130636016E-02 
1335	 9.56951645213674E-02 
1336	 9.56622960545859E-02 
1337	 9.56280652403757E-02 
1338	 9.55969270625623E-02 
1339	 9.55636489552152E-02 
1340	 9.55271465559536E-02 
1341	 9.54921334982259E-02 
1342	 9.54623420279205E-02 
1343	 9.54343028122839E-02 
1344	 9.53921380203533E-02 
1345	 9.53826500878077E-02 
1346	 9.53640843829744E-02 
1347	 9.53226732050065E-02 
1348	 9.53094450817284E-02 
1349	 9.52797918253509E-02 
1350	 9.52443344148531E-02 
1351	 9.52210843436973E-02 
1352	 9.52078220066805E-02 
1353	 0.095183652122891 
1354	 9.51616325594269E-02 
1355	 0.095136568198058 
1356	 9.51004409514519E-02 
1357	 9.50830334637562E-02 
1358	 9.50754214509228E-02 
1359	 9.50618688902928E-02 
1360	 9.50553228145037E-02 
1361	 9.50451380867265E-02 
1362	 9.50389865421072E-02 
1363	 9.50157313634282E-02 
1364	 9.49919750687655E-02 
1365	 9.49569236168909E-02 
1366	 9.48974433987578E-02 
1367	 9.48443153646658E-02 
1368	 9.47997274943808E-02 
1369	 9.47527587770171E-02 
1370	 9.47237537015225E-02 
1371	 9.46934310007435E-02 
1372	 9.46557856714552E-02 
1373	 9.46145230258401E-02 
1374	 9.45663152670718E-02 
1375	 9.45042927876343E-02 
1376	 9.44512564690023E-02 
1377	 9.44027656703743E-02 
1378	 9.43423463832453E-02 
1379	 9.42756261917525E-02 
1380	 0.094214288019225 
1381	 9.41493723396677E-02 
1382	 9.40808567717203E-02 
1383	 9.40204540248917E-02 
1384	 9.39460911598636E-02 
1385	 9.38593540891347E-02 
1386	 9.37738801986042E-02 
1387	 9.36783482342794E-02 
1388	 0.093592187910659 
1389	 9.35147869148063E-02 
1390	 9.34256529375373E-02 
1391	 9.33326095679686E-02 
1392	 9.32407519369268E-02 
1393	 9.31368134756846E-02 
1394	 9.30273735626332E-02 
1395	 9.29246538885421E-02 
1396	 9.28103881766388E-02 
1397	 9.26844389080637E-02 
1398	 9.25478160382467E-02 
1399	 9.24113167685087E-02 
1400	 0.092258265190455 
1401	 9.21195185834053E-02 
1402	 0.091988031323798 
1403	 9.18477014292502E-02 
1404	 9.17097018924667E-02 
1405	 9.15677802027346E-02 
1406	 9.14121534006963E-02 
1407	 9.12700405235689E-02 
1408	 9.11300777123346E-02 
1409	 9.09993600485109E-02 
1410	 9.08807771638943E-02 
1411	 9.07608737864585E-02 
1412	 0.090641264794392 
1413	 9.05279978030242E-02 
1414	 0.090430021834358 
1415	 9.03359829321682E-02 
1416	 9.02610269506026E-02 
1417	 9.02011446126872E-02 
1418	 9.01276362949532E-02 
1419	 9.00598646280596E-02 
1420	 8.99935481703548E-02 
1421	 8.99240411828744E-02 
1422	 8.98741227191525E-02 
1423	 8.98199469464559E-02 
1424	 8.97610216839051E-02 
1425	 8.96995889621768E-02 
1426	 8.96420311710835E-02 
1427	 8.95743628246216E-02 
1428	 8.95269463976643E-02 
1429	 8.94985575516564E-02 
1430	 8.94603332574829E-02 
1431	 8.94193695051287E-02 
1432	 8.93903608163545E-02 
1433	 8.93672886499634E-02 
1434	 8.93355105506537E-02 
1435	 8.93073974199858E-02 
1436	 8.92859661108121E-02 
1437	 8.92589281075361E-02 
1438	 8.92396151147668E-02 
1439	 8.92318809096781E-02 
1440	 8.92238754118452E-02 
1441	 8.92321499446971E-02 
1442	 8.92083488615296E-02 
1443	 8.91671764544651E-02 
1444	 8.91443343630941E-02 
1445	 8.91119973460803E-02 
1446	 8.90849388574795E-02 
1447	 8.90829963495252E-02 
1448	 0.089084742562562 
1449	 8.90805769161874E-02 
1450	 8.90771026542601E-02 
1451	 8.90669853361355E-02 
1452	 8.90579881903887E-02 
1453	 8.90407272643113E-02 
1454	 8.90048980179685E-02 
1455	 8.89924898232989E-02 
1456	 8.89936032846819E-02 
1457	 8.89872895571045E-02 
1458	 8.89890179127874E-02 
1459	 8.89832839423345E-02 
1460	 8.89640517782369E-02 
1461	 8.89531283985841E-02 
1462	 8.89466992578835E-02 
1463	 8.89427160079849E-02 
1464	 8.89403481550765E-02 
1465	 8.89431648178195E-02 
1466	 8.89539412296877E-02 
1467	 8.89591274188547E-02 
1468	 8.89627679616063E-02 
1469	 0.088968669307904 
1470	 8.89727030397825E-02 
1471	 8.89742094352986E-02 
1472	 8.89945879025535E-02 
1473	 8.90261936436215E-02 
1474	 8.90459945432874E-02 
1475	 8.90811789314458E-02 
1476	 8.91027599045607E-02 
1477	 8.91026284305772E-02 
1478	 8.91121215922281E-02 
1479	 0.089108378191908 
1480	 8.91210802265083E-02 
1481	 8.91501384596982E-02 
1482	 8.91702765246854E-02 
1483	 0.089205574427141 
1484	 8.92226484554437E-02 
1485	 8.92209414553155E-02 
1486	 8.92311450561412E-02 
1487	 8.92407258917011E-02 
1488	 8.92552298129379E-02 
1489	 8.92715929011491E-02 
1490	 8.92953089524224E-02 
1491	 0.089327394578688 
1492	 8.93516314585257E-02 
1493	 8.93821932783259E-02 
1494	 8.94048925816942E-02 
1495	 8.94236209509156E-02 
1496	 8.94335113672214E-02 
1497	 8.94356365829741E-02 
1498	 8.94389667101585E-02 
1499	 8.94246863480093E-02 
1500	 8.94304405883462E-02 
1501	 8.94498435462383E-02 
1502	 8.94609563012113E-02 
1503	 8.94764773005924E-02 
1504	 0.089496754527298 
1505	 8.94961054025548E-02 
1506	 8.95206427733878E-02 
1507	 8.95431611450537E-02 
1508	 8.95502829743395E-02 
1509	 8.95613643691505E-02 
1510	 8.95582694238842E-02 
1511	 8.95540257347837E-02 
1512	 8.95546832562562E-02 
1513	 8.95647921257107E-02 
1514	 0.089580672883474 
1515	 8.95871598237811E-02 
1516	 8.95881595369711E-02 
1517	 8.95936982252193E-02 
1518	 8.95956489477474E-02 
1519	 8.95954386360079E-02 
1520	 8.96017158530351E-02 
1521	 8.95990670882427E-02 
1522	 8.95791169844689E-02 
1523	 0.089575260368891 
1524	 8.95824170955344E-02 
1525	 8.95781123084058E-02 
1526	 8.95720599265679E-02 
1527	 8.95674265414658E-02 
1528	 8.95522437901757E-02 
1529	 0.089554399490799 
1530	 8.95718628628111E-02 
1531	 8.95804861622262E-02 
1532	 8.95936877372008E-02 
1533	 8.95980275370728E-02 
1534	 8.95930544361031E-02 
1535	 8.95946951899135E-02 
1536	 8.95988140658001E-02 
1537	 8.96012208487946E-02 
1538	 8.96004283361582E-02 
1539	 8.96044839689882E-02 
1540	 8.96134293536204E-02 
1541	 8.96147114443693E-02 
1542	 8.96129299185404E-02 
1543	 8.96194016201047E-02 
1544	 8.96296190949518E-02 
1545	 8.96306000451109E-02 
1546	 8.96370104926368E-02 
1547	 8.96310079646725E-02 
1548	 8.96226624601705E-02 
1549	 8.96221269729921E-02 
1550	 8.96115317077015E-02 
1551	 8.96068339311711E-02 
1552	 8.95999401212183E-02 
1553	 8.95779761137203E-02 
1554	 8.95692099099703E-02 
1555	 8.95740399898848E-02 
1556	 8.95792960065921E-02 
1557	 8.95844089459714E-02 
1558	 8.95911269942237E-02 
1559	 8.95867472722962E-02 
1560	 8.95776811301772E-02 
1561	 8.95529323047917E-02 
1562	 8.95478783815939E-02 
1563	 8.95505973395507E-02 
1564	 8.95432143249636E-02 
1565	 8.95420659137751E-02 
1566	 8.95321202223972E-02 
1567	 0.089505150272893 
1568	 8.94953405577728E-02 
1569	 8.94995043121588E-02 
1570	 8.94835746697808E-02 
1571	 0.089462432200351 
1572	 8.94453804986045E-02 
1573	 8.94097396001169E-02 
1574	 8.93978751121574E-02 
1575	 8.94083227813658E-02 
1576	 8.94016346067605E-02 
1577	 8.94010075461962E-02 
1578	 8.93898955850303E-02 
1579	 0.089362275230934 
1580	 8.93469321019837E-02 
1581	 8.93342801450485E-02 
1582	 8.93189073849766E-02 
1583	 8.93060667184138E-02 
1584	 8.92924260657707E-02 
1585	 8.92708293031152E-02 
1586	 8.92586376214434E-02 
1587	 8.92581442308069E-02 
1588	 8.92501304875227E-02 
1589	 8.92520088224106E-02 
1590	 8.92354730950579E-02 
1591	 8.91904955676855E-02 
1592	 8.91708209116369E-02 
1593	 8.91477989955766E-02 
1594	 0.089138580889176 
1595	 8.91685444971734E-02 
1596	 8.91704382031838E-02 
1597	 8.91580344550389E-02 
1598	 8.91503473267286E-02 
1599	 0.089137293487902 
1600	 8.91166983818728E-02 
1601	 8.90838411941933E-02 
1602	 8.90684814574518E-02 
1603	 0.089063884223106 
1604	 8.90463853963338E-02 
1605	 8.90359093209377E-02 
1606	 8.90235614759064E-02 
1607	 8.90004266005584E-02 
1608	 8.89681927725523E-02 
1609	 8.89485504925882E-02 
1610	 8.89280411750419E-02 
1611	 8.89004096339967E-02 
1612	 0.088882494293191 
1613	 8.88663062467258E-02 
1614	 8.88479119963663E-02 
1615	 8.88368932721631E-02 
1616	 8.88167952685986E-02 
1617	 8.88041928028446E-02 
1618	 8.88020597536218E-02 
1619	 8.87892771416081E-02 
1620	 8.87677392377283E-02 
1621	 8.87561074171188E-02 
1622	 8.87451995259488E-02 
1623	 8.87327086870525E-02 
1624	 8.87270540118404E-02 
1625	 8.87122409296308E-02 
1626	 8.86898357641922E-02 
1627	 0.088665260039486 
1628	 8.86359767355079E-02 
1629	 8.86150745414658E-02 
1630	 8.85962347157968E-02 
1631	 8.85707106706119E-02 
1632	 8.85443589898273E-02 
1633	 8.85272233113592E-02 
1634	 8.84983043479656E-02 
1635	 8.84964712124064E-02 
1636	 8.85299907292966E-02 
1637	 8.85228959804036E-02 
1638	 8.85134202018991E-02 
1639	 8.84887044437286E-02 
1640	 8.84267921944903E-02 
1641	 8.84025189095436E-02 
1642	 8.83898690522964E-02 
1643	 8.83758378043309E-02 
1644	 8.83793560064084E-02 
1645	 8.83669500561705E-02 
1646	 8.83484536347488E-02 
1647	 8.83269833733462E-02 
1648	 8.82976433981225E-02 
1649	 8.82758908698855E-02 
1650	 8.82561052253633E-02 
1651	 8.82290519783986E-02 
1652	 8.82026653134826E-02 
1653	 8.81750864714355E-02 
1654	 8.81402778011097E-02 
1655	 8.81074193832618E-02 
1656	 8.80698250780871E-02 
1657	 8.80505712538178E-02 
1658	 8.80399590009537E-02 
1659	 8.80235308352852E-02 
1660	 8.80252422847106E-02 
1661	 8.80080522553611E-02 
1662	 8.79708831941341E-02 
1663	 8.79458345758086E-02 
1664	 8.79258494548274E-02 
1665	 8.78982260413667E-02 
1666	 0.087867000757292 
1667	 8.78388434861404E-02 
1668	 8.78038358642204E-02 
1669	 8.77787761056956E-02 
1670	 8.77671190804612E-02 
1671	 8.77416227472293E-02 
1672	 8.77013530591012E-02 
1673	 8.76885846602289E-02 
1674	 8.76934313285473E-02 
1675	 8.76754935673078E-02 
1676	 8.76671328667293E-02 
1677	 8.76491051673428E-02 
1678	 8.76016558667539E-02 
1679	 8.75727327944629E-02 
1680	 8.75586220644402E-02 
1681	 8.75393685604821E-02 
1682	 8.75145828025135E-02 
1683	 8.74975139345555E-02 
1684	 8.74940263016896E-02 
1685	 8.74740561299685E-02 
1686	 8.74495699516158E-02 
1687	 8.74202036952025E-02 
1688	 8.73711941834833E-02 
1689	 8.73446321918682E-02 
1690	 8.73250487927437E-02 
1691	 8.73094359034744E-02 
1692	 8.73114150085833E-02 
1693	 8.73007845038528E-02 
1694	 8.72927666609342E-02 
1695	 8.72706995863364E-02 
1696	 8.72341268141874E-02 
1697	 8.72056041021296E-02 
1698	 8.71716042919789E-02 
1699	 8.71387742324157E-02 
1700	 8.71076404693253E-02 
1701	 8.70831953907376E-02 
1702	 8.70532472584486E-02 
1703	 0.087037155383826 
1704	 8.70456604077434E-02 
1705	 8.70283543821936E-02 
1706	 8.70080969199794E-02 
1707	 8.69799205975828E-02 
1708	 8.69367503996161E-02 
1709	 0.086892522197051 
1710	 8.68313665296546E-02 
1711	 8.67978445400547E-02 
1712	 8.67724461889778E-02 
1713	 8.67482962200575E-02 
1714	 8.67542806993377E-02 
1715	 8.67274577550752E-02 
1716	 0.086674297633573 
1717	 8.66416433162807E-02 
1718	 8.66044377826019E-02 
1719	 0.086579672840432 
1720	 8.65736809190383E-02 
1721	 8.65526774047954E-02 
1722	 8.65336792076238E-02 
1723	 0.086501985506408 
1724	 8.64539258969008E-02 
1725	 8.64187266548103E-02 
1726	 0.086383808015205 
1727	 8.63472211036681E-02 
1728	 8.63132538687667E-02 
1729	 8.62895462796668E-02 
1730	 8.62639811720093E-02 
1731	 8.62387978377153E-02 
1732	 8.62354919535905E-02 
1733	 8.62071093400107E-02 
1734	 8.61578056448608E-02 
1735	 8.61236357115685E-02 
1736	 8.60869752048016E-02 
1737	 8.60487066211072E-02 
1738	 8.60143705775255E-02 
1739	 8.59799797408944E-02 
1740	 8.59459196215362E-02 
1741	 8.59062883060898E-02 
1742	 8.58697939664654E-02 
1743	 0.085825419550997 
1744	 8.57689298988248E-02 
1745	 8.57194378187278E-02 
1746	 8.56644109643537E-02 
1747	 8.56235713598161E-02 
1748	 8.55909079601059E-02 
1749	 0.085571263969468 
1750	 0.085548036240359 
1751	 8.55116765307851E-02 
1752	 8.54884869461803E-02 
1753	 8.54473236331804E-02 
1754	 8.54158401697268E-02 
1755	 8.53749142691038E-02 
1756	 8.53157289834542E-02 
1757	 8.52844400732772E-02 
1758	 8.52415642579571E-02 
1759	 8.52071981148803E-02 
1760	 8.51740056268762E-02 
1761	 8.51109358078763E-02 
1762	 8.50613993639002E-02 
1763	 8.50347433088553E-02 
1764	 8.50111906261369E-02 
1765	 8.49770804260088E-02 
1766	 8.49310169547122E-02 
1767	 8.48649735560771E-02 
1768	 8.47930928046024E-02 
1769	 8.47398405263768E-02 
1770	 8.47077070928636E-02 
1771	 8.46937885388464E-02 
1772	 8.46848260897807E-02 
1773	 8.46654383320464E-02 
1774	 8.46378602619711E-02 
1775	 8.46051238778021E-02 
1776	 8.45720507189279E-02 
1777	 8.45556195478027E-02 
1778	 8.45321893933377E-02 
1779	 8.45118050376916E-02 
1780	 8.45032241472778E-02 
1781	 8.44825127407189E-02 
1782	 8.44741757383031E-02 
1783	 8.44599881909917E-02 
1784	 8.44312437618377E-02 
1785	 0.084392744353054 
1786	 8.43603198916001E-02 
1787	 8.43182863789681E-02 
1788	 8.42821980343218E-02 
1789	 8.42550484245686E-02 
1790	 8.42222055677674E-02 
1791	 8.41779823142958E-02 
1792	 8.41576793942407E-02 
1793	 8.41574120232951E-02 
1794	 8.41404296003866E-02 
1795	 8.41327335473175E-02 
1796	 8.41051348110953E-02 
1797	 8.40461353328111E-02 
1798	 8.40268181703956E-02 
1799	 8.40242094523117E-02 
1800	 8.40181565037462E-02 
1801	 8.05439176589151E-02 
1802	 8.05279843028832E-02 
1803	 8.05355086541137E-02 
1804	 8.05527855443079E-02 
1805	 8.05878377690526E-02 
1806	 8.06547981759834E-02 
1807	 8.07025524084465E-02 
1808	 8.07314977756154E-02 
1809	 8.07605885413481E-02 
1810	 0.080766205538944 
1811	 8.07358628254494E-02 
1812	 8.07199060565559E-02 
1813	 8.07264326069313E-02 
1814	 8.06767312023092E-02 
1815	 8.06455939172924E-02 
1816	 8.06479587086346E-02 
1817	 8.06341581596937E-02 
1818	 8.06126482636125E-02 
1819	 8.06025723357254E-02 
1820	 0.080598975636335 
1821	 8.05866638167844E-02 
1822	 0.080602591770318 
1823	 8.06114920125547E-02 
1824	 8.06016738029762E-02 
1825	 8.05768893446117E-02 
1826	 0.080559955118445 
1827	 8.05537734715792E-02 
1828	 8.05397283842955E-02 
1829	 8.05475680329325E-02 
1830	 8.05420749557321E-02 
1831	 8.05182001354253E-02 
1832	 0.080496047980762 
1833	 0.080487233582118 
1834	 8.04744479428282E-02 
1835	 8.04579843408999E-02 
1836	 8.04164343001888E-02 
1837	 8.03872325060368E-02 
1838	 8.03610542454608E-02 
1839	 8.03321084041814E-02 
1840	 8.03025467795002E-02 
1841	 8.02833124183136E-02 
1842	 8.02419335610977E-02 
1843	 8.02099928624424E-02 
1844	 8.01933195288925E-02 
1845	 8.01685652732454E-02 
1846	 8.01761483363108E-02 
1847	 8.01830732134714E-02 
1848	 8.01467759852431E-02 
1849	 8.01217796162849E-02 
1850	 8.00991390317216E-02 
1851	 0.080067755806277 
1852	 8.00293138787912E-02 
1853	 8.00109559152957E-02 
1854	 0.079974107635003 
1855	 7.99131788633124E-02 
1856	 7.98485558020191E-02 
1857	 7.97929947188983E-02 
1858	 7.97413824779706E-02 
1859	 7.97077717421327E-02 
1860	 7.96717822767623E-02 
1861	 7.96443086016957E-02 
1862	 7.96030006886244E-02 
1863	 7.95681272187199E-02 
1864	 7.94984627503428E-02 
1865	 7.94315145516945E-02 
1866	 7.93974657827208E-02 
1867	 7.93205030708343E-02 
1868	 7.92482162213407E-02 
1869	 7.91705207495076E-02 
1870	 0.079051145790704 
1871	 7.89479440747361E-02 
1872	 7.88606495987433E-02 
1873	 0.078758024085603 
1874	 7.86157019742929E-02 
1875	 0.078470674684283 
1876	 7.82837262321791E-02 
1877	 7.80881627149264E-02 
1878	 7.79163702632916E-02 
1879	 0.077719176778922 
1880	 7.75145428135926E-02 
1881	 7.73058069149362E-02 
1882	 0.077084161168035 
1883	 7.68465663225788E-02 
1884	 7.66081807438178E-02 
1885	 7.63476122695539E-02 
1886	 7.60667105045859E-02 
1887	 7.57767234196473E-02 
1888	 0.075453387132591 
1889	 0.075115887616209 
1890	 7.47626124358811E-02 
1891	 7.44021210545648E-02 
1892	 7.40165386508302E-02 
1893	 7.36434310194214E-02 
1894	 7.32772249675134E-02 
1895	 0.072891286888475 
1896	 7.24817547495527E-02 
1897	 7.20621384643214E-02 
1898	 7.16434067060498E-02 
1899	 7.12531095150082E-02 
1900	 7.08921233979499E-02 
1901	 7.05220296261853E-02 
1902	 7.01557889909127E-02 
1903	 6.97918176853746E-02 
1904	 6.94264559904218E-02 
1905	 6.90516186119196E-02 
1906	 0.068705634196625 
1907	 6.83587838107522E-02 
1908	 6.80552833970348E-02 
1909	 6.77877552001825E-02 
1910	 6.75241983796462E-02 
1911	 6.72870227563182E-02 
1912	 6.70585251573646E-02 
1913	 6.68366909134256E-02 
1914	 6.66199664589697E-02 
1915	 6.64166808750719E-02 
1916	 6.62243077184516E-02 
1917	 6.60405823208862E-02 
1918	 6.58696507511699E-02 
1919	 6.57226765603153E-02 
1920	 6.55944533143548E-02 
1921	 6.54709108401896E-02 
1922	 6.53614546385831E-02 
1923	 6.52629272808374E-02 
1924	 6.51645992686051E-02 
1925	 6.50755693839401E-02 
1926	 6.49887429520216E-02 
1927	 6.48945659636139E-02 
1928	 6.48210869025971E-02 
1929	 6.47675966045574E-02 
1930	 6.47225227966286E-02 
1931	 6.46990543973821E-02 
1932	 0.064674252076395 
1933	 6.46454532966659E-02 
1934	 6.46239358868904E-02 
1935	 0.064605023578924 
1936	 6.45912913970706E-02 
1937	 6.45788843309661E-02 
1938	 0.064555373485214 
1939	 6.45542440191266E-02 
1940	 6.45687192356277E-02 
1941	 6.45844690668578E-02 
1942	 6.45954484161875E-02 
1943	 6.46286732409398E-02 
1944	 6.46699301287477E-02 
1945	 6.46900328962358E-02 
1946	 6.47151874990858E-02 
1947	 6.47552150679821E-02 
1948	 6.47841097167854E-02 
1949	 6.47907408699162E-02 
1950	 6.48201373602585E-02 
1951	 6.48649077446264E-02 
1952	 6.48924597248434E-02 
1953	 6.49374173906762E-02 
1954	 6.49986816141698E-02 
1955	 6.50626425268192E-02 
1956	 6.51451396221554E-02 
1957	 6.52209880486596E-02 
1958	 6.53041075958083E-02 
1959	 6.53758357119724E-02 
1960	 6.54453605265243E-02 
1961	 6.55115138620248E-02 
1962	 6.55632095309853E-02 
1963	 6.56392819705588E-02 
1964	 6.57157539919324E-02 
1965	 6.58058339495047E-02 
1966	 6.59307204944591E-02 
1967	 6.60331980573563E-02 
1968	 6.61350987800364E-02 
1969	 6.62444865920393E-02 
1970	 6.63354546671362E-02 
1971	 6.64068537108887E-02 
1972	 0.066490953997028 
1973	 6.65607534629456E-02 
1974	 6.66490910412393E-02 
1975	 6.67436468277469E-02 
1976	 6.68573179007818E-02 
1977	 6.69682513102631E-02 
1978	 6.70900995614641E-02 
1979	 6.71933670084604E-02 
1980	 6.72782985385488E-02 
1981	 6.73772397494096E-02 
1982	 0.067474765622947 
1983	 6.75677309154066E-02 
1984	 6.76741114987659E-02 
1985	 6.77631619807981E-02 
1986	 6.78179617912043E-02 
1987	 6.79030900100999E-02 
1988	 6.79916117931954E-02 
1989	 6.80958632619953E-02 
1990	 6.82111257011256E-02 
1991	 6.83430269016554E-02 
1992	 6.84430917251841E-02 
1993	 6.85252762506487E-02 
1994	 6.86148345021433E-02 
1995	 0.068686080963241 
1996	 6.87736632853881E-02 
1997	 6.88758822993956E-02 
1998	 6.89707602740022E-02 
1999	 6.90716762219116E-02 
2000	 6.91616895808815E-02 
2001	 6.92344063422958E-02 
2002	 6.93257219958461E-02 
2003	 6.94155660040853E-02 
2004	 6.95007502044321E-02 
2005	 6.96017561625377E-02 
2006	 6.97267561702055E-02 
2007	 6.98291590346929E-02 
2008	 6.99337396295263E-02 
2009	 7.00247962780679E-02 
2010	 7.00993693603596E-02 
2011	 7.01781353321624E-02 
2012	 7.02388600012312E-02 
2013	 7.03199813201936E-02 
2014	 7.04165701830834E-02 
2015	 7.05080491665587E-02 
2016	 7.05928492262735E-02 
2017	 7.06914525068501E-02 
2018	 7.07822705699785E-02 
2019	 7.08621978423744E-02 
2020	 7.09484508961662E-02 
2021	 7.10544135283221E-02 
2022	 7.11316123438658E-02 
2023	 7.11799113065766E-02 
2024	 7.12518372646258E-02 
2025	 7.13169894435312E-02 
2026	 7.13891111951634E-02 
2027	 7.14794449181657E-02 
2028	 0.071575918961825 
2029	 7.16496333818541E-02 
2030	 7.17067897651437E-02 
2031	 0.071778890114947 
2032	 7.18418533709418E-02 
2033	 7.19209806651611E-02 
2034	 7.20312929184569E-02 
2035	 7.21046922938827E-02 
2036	 7.21608500716786E-02 
2037	 7.22221671374443E-02 
2038	 7.22555038801065E-02 
2039	 7.23107331912746E-02 
2040	 7.23742909692866E-02 
2041	 7.24629604403049E-02 
2042	 7.25347040570856E-02 
2043	 7.25960662715205E-02 
2044	 7.26450544635758E-02 
2045	 7.26730803676318E-02 
2046	 7.27136244899352E-02 
2047	 0.072743698456897 
2048	 0.07278815084167 
2049	 7.28476933357915E-02 
2050	 7.28968823372808E-02 
2051	 7.29583518815277E-02 
2052	 7.29977143053317E-02 
2053	 7.30048403983188E-02 
2054	 7.30370614922319E-02 
2055	 7.30689579460185E-02 
2056	 7.31040857961098E-02 
2057	 7.31505376343124E-02 
2058	 7.32235884139376E-02 
2059	 7.32742136939586E-02 
2060	 7.33172936175113E-02 
2061	 7.33641831022643E-02 
2062	 7.34068622986919E-02 
2063	 7.34559834604704E-02 
2064	 7.35174956002728E-02 
2065	 7.35620849023374E-02 
2066	 7.35991799171027E-02 
2067	 7.36360059722728E-02 
2068	 7.36586139662102E-02 
2069	 7.36853986879125E-02 
2070	 7.37230680800086E-02 
2071	 7.37713648507047E-02 
2072	 7.38155341268639E-02 
2073	 7.38694021434157E-02 
2074	 7.39059866085048E-02 
2075	 7.39369277247461E-02 
2076	 7.39621923915512E-02 
2077	 7.39621516568583E-02 
2078	 7.39930574430457E-02 
2079	 0.07403621806053 
2080	 7.40773942756338E-02 
2081	 7.41416411916497E-02 
2082	 7.41932112180022E-02 
2083	 7.42406176369339E-02 
2084	 7.42779466202072E-02 
2085	 7.43153330017577E-02 
2086	 7.43525670773229E-02 
2087	 7.43778793250287E-02 
2088	 7.43924959668666E-02 
2089	 7.44133934475537E-02 
2090	 7.44221037390391E-02 
2091	 0.074447020288516 
2092	 7.44739964422638E-02 
2093	 0.074514235262222 
2094	 0.074580525786933 
2095	 7.46272553409463E-02 
2096	 0.074674095231405 
2097	 7.47188225222361E-02 
2098	 7.47454114590414E-02 
2099	 7.47821102768999E-02 
2100	 7.48250955648642E-02 
2101	 7.48818909083924E-02 
2102	 7.49230118388912E-02 
2103	 7.49590977980435E-02 
2104	 7.50012292576567E-02 
2105	 7.50377043639155E-02 
2106	 7.50783146452479E-02 
2107	 0.075139299114758 
2108	 7.51736809269589E-02 
2109	 7.51846140487731E-02 
2110	 7.52108098781749E-02 
2111	 7.52159629194647E-02 
2112	 0.075247642557282 
2113	 7.52973375100284E-02 
2114	 7.53670271784323E-02 
2115	 7.54158370803621E-02 
2116	 7.54723890412862E-02 
2117	 7.55186155672455E-02 
2118	 7.55489742961401E-02 
2119	 7.55884178651508E-02 
2120	 0.075634362021743 
2121	 7.56726290708709E-02 
2122	 7.57090864389293E-02 
2123	 7.57402904933467E-02 
2124	 7.57726677413367E-02 
2125	 7.57923435355831E-02 
2126	 7.57985573519964E-02 
2127	 7.58064656093886E-02 
2128	 7.58002722439687E-02 
2129	 7.58048549833025E-02 
2130	 7.58207654547038E-02 
2131	 0.075823863905407 
2132	 7.58393294888178E-02 
2133	 7.58678443066011E-02 
2134	 7.58767758906992E-02 
2135	 7.58981288893608E-02 
2136	 0.075877989378091 
2137	 7.58070082530811E-02 
2138	 7.57826612343551E-02 
2139	 0.075753015599 
2140	 7.57326433934958E-02 
2141	 7.57586351065735E-02 
2142	 7.57496178555358E-02 
2143	 7.57294171691371E-02 
2144	 7.56905436325657E-02 
2145	 7.56206352342266E-02 
2146	 7.55656241303767E-02 
2147	 7.55096258402135E-02 
2148	 7.54300620656001E-02 
2149	 7.53800464444166E-02 
2150	 7.53535648415995E-02 
2151	 7.53127921126197E-02 
2152	 7.52766610451436E-02 
2153	 0.075230469059678 
2154	 7.51689750838161E-02 
2155	 7.51269534325281E-02 
2156	 7.50989613079408E-02 
2157	 7.50533026895995E-02 
2158	 7.50156788526866E-02 
2159	 7.49655027544885E-02 
2160	 7.48991581088741E-02 
2161	 7.48258791212882E-02 
2162	 7.47322119675094E-02 
2163	 7.46592896957841E-02 
2164	 7.45806293484609E-02 
2165	 7.45161499767509E-02 
2166	 7.44536619178831E-02 
2167	 7.44162410062598E-02 
2168	 0.07435578011658 
2169	 7.42860667133755E-02 
2170	 7.42143280512618E-02 
2171	 0.074132981362016 
2172	 7.40645303459754E-02 
2173	 7.40040584077864E-02 
2174	 7.39289541556019E-02 
2175	 7.38426974075047E-02 
2176	 7.37767462956784E-02 
2177	 7.37106599592495E-02 
2178	 7.36448498383219E-02 
2179	 7.36080873239552E-02 
2180	 7.35512969533638E-02 
2181	 7.34664420323367E-02 
2182	 7.33976082932911E-02 
2183	 7.33304472825211E-02 
2184	 7.32715959293502E-02 
2185	 7.32094733150971E-02 
2186	 7.31587001351142E-02 
2187	 7.30891118387053E-02 
2188	 7.30067722628253E-02 
2189	 7.29324333829719E-02 
2190	 0.072850767923522 
2191	 7.27781520664254E-02 
2192	 7.27130646165088E-02 
2193	 7.26452822187269E-02 
2194	 7.25624762400028E-02 
2195	 7.25112151525508E-02 
2196	 7.24906864593673E-02 
2197	 7.24507365410711E-02 
2198	 7.24123569619924E-02 
2199	 7.23867069086093E-02 
2200	 7.23636076018821E-02 
2201	 7.23268093629566E-02 
2202	 7.23012844520978E-02 
2203	 7.22697940683286E-02 
2204	 7.22363657059949E-02 
2205	 7.21797522691579E-02 
2206	 7.21473152737854E-02 
2207	 7.21293275508233E-02 
2208	 0.07211086270014 
2209	 7.20979147316078E-02 
2210	 0.072078607664267 
2211	 7.20599104660316E-02 
2212	 7.20504344748752E-02 
2213	 7.20445445554736E-02 
2214	 7.20262823800967E-02 
2215	 7.20054285670826E-02 
2216	 7.19988002921812E-02 
2217	 7.19817144529703E-02 
2218	 7.19795715561332E-02 
2219	 0.072013815099007 
2220	 7.20206168971395E-02 
2221	 0.072009136705738 
2222	 7.20066319018334E-02 
2223	 7.20005510200087E-02 
2224	 7.19957496949186E-02 
2225	 7.19960330158338E-02 
2226	 7.20064486422695E-02 
2227	 7.20107401606958E-02 
2228	 7.20132193858265E-02 
2229	 7.20143763232487E-02 
2230	 7.20166571448467E-02 
2231	 0.072015692198935 
2232	 7.20194906614714E-02 
2233	 7.20066836132582E-02 
2234	 7.19811655247472E-02 
2235	 7.19593278505591E-02 
2236	 7.19164076838041E-02 
2237	 7.18954148710999E-02 
2238	 7.18931623801932E-02 
2239	 7.18857021932765E-02 
2240	 7.18834528191795E-02 
2241	 7.18819202686626E-02 
2242	 0.071882987778539 
2243	 7.18763546472618E-02 
2244	 7.18638125056073E-02 
2245	 7.18589975616366E-02 
2246	 7.18647434030016E-02 
2247	 7.18575753609455E-02 
2248	 7.18379072673714E-02 
2249	 7.18211211862437E-02 
2250	 7.17876083844896E-02 
2251	 7.17199827799243E-02 
2252	 7.16840424228289E-02 
2253	 0.071660477987332 
2254	 7.16315912780466E-02 
2255	 7.16121360028912E-02 
2256	 7.15839769878264E-02 
2257	 7.15348918342335E-02 
2258	 7.15160152673847E-02 
2259	 7.15159234484431E-02 
2260	 7.15075658088742E-02 
2261	 7.15192461265958E-02 
2262	 7.15151891294223E-02 
2263	 7.14924963088617E-02 
2264	 7.14799340710693E-02 
2265	 7.14615334528315E-02 
2266	 7.14606964314267E-02 
2267	 0.071474770983142 
2268	 7.14830800147427E-02 
2269	 7.15083230525434E-02 
2270	 7.15200625392445E-02 
2271	 7.15075606569802E-02 
2272	 7.15039160970472E-02 
2273	 7.15153553695689E-02 
2274	 7.15282693718743E-02 
2275	 7.15453570092032E-02 
2276	 7.15783759822065E-02 
2277	 7.16084271613024E-02 
2278	 0.071637443715171 
2279	 7.16621126656773E-02 
2280	 0.071693018283406 
2281	 7.17245104531569E-02 
2282	 7.17610784757427E-02 
2283	 7.17681179418446E-02 
2284	 7.17656397957123E-02 
2285	 7.17625956110116E-02 
2286	 0.071714369078525 
2287	 7.17112675336783E-02 
2288	 7.17533254411412E-02 
2289	 0.07176407759783 
2290	 7.17726240538423E-02 
2291	 7.17775087391934E-02 
2292	 7.17620772571503E-02 
2293	 0.071754435976601 
2294	 7.17594597356855E-02 
2295	 7.17623851207263E-02 
2296	 7.17700130812288E-02 
2297	 7.17559208374854E-02 
2298	 7.17713257805565E-02 
2299	 7.17539269718341E-02 
2300	 7.17286591285809E-02 
2301	 7.17671343337507E-02 
2302	 7.17651900107849E-02 
2303	 7.17375127840216E-02 
2304	 7.17411332803106E-02 
2305	 7.16822258030726E-02 
2306	 7.16567815666035E-02 
2307	 7.16534391197559E-02 
2308	 7.16189565948588E-02 
2309	 7.15584656911385E-02 
2310	 0.071535854855848 
2311	 7.15099447782262E-02 
2312	 7.14968623123191E-02 
2313	 7.15243241979711E-02 
2314	 7.15235202953632E-02 
2315	 7.14974542886479E-02 
2316	 7.14955735543353E-02 
2317	 7.15201981872569E-02 
2318	 7.15093137195927E-02 
2319	 7.14922443395544E-02 
2320	 7.14699056260444E-02 
2321	 7.14011669252319E-02 
2322	 7.13665161680987E-02 
2323	 7.13816905461655E-02 
2324	 7.13487207439981E-02 
2325	 7.12696837238101E-02 
2326	 7.12431087214968E-02 
2327	 7.12403255984387E-02 
2328	 7.11925153223792E-02 
2329	 7.11716349863052E-02 
2330	 7.11861514760159E-02 
2331	 0.071160776367548 
2332	 7.11442714884307E-02 
2333	 7.11300438981246E-02 
2334	 7.11311535505661E-02 
2335	 7.11818111831079E-02 
2336	 7.11970353783982E-02 
2337	 7.12428554147639E-02 
2338	 7.12869571928727E-02 
2339	 7.12354108614013E-02 
2340	 7.12085053898812E-02 
2341	 0.071171725228595 
2342	 7.11375820688218E-02 
2343	 7.11062534099049E-02 
2344	 7.10224527599689E-02 
2345	 7.09796434547178E-02 
2346	 7.09292732857829E-02 
2347	 7.08987881088827E-02 
2348	 7.09052297046334E-02 
2349	 7.08938897532908E-02 
2350	 7.08828466181549E-02 
2351	 7.08626461228223E-02 
2352	 7.08655458677442E-02 
2353	 7.08225088787827E-02 
2354	 7.07154494142282E-02 
2355	 7.06587457936514E-02 
2356	 7.06167027242467E-02 
2357	 7.05384663098475E-02 
2358	 7.04803517834539E-02 
2359	 7.04111597805681E-02 
2360	 0.07025276378044 
2361	 7.02021705748199E-02 
2362	 7.02197739771417E-02 
2363	 7.02273402181678E-02 
2364	 7.03547096180303E-02 
2365	 7.03357835470727E-02 
2366	 7.02046588156406E-02 
2367	 7.01115848536839E-02 
2368	 6.99242327677414E-02 
2369	 6.98203524716789E-02 
2370	 6.97617873757963E-02 
2371	 6.97828236807869E-02 
2372	 6.97429968184511E-02 
2373	 6.96841640584048E-02 
2374	 0.069615498901313 
2375	 6.95495787004063E-02 
2376	 6.95430052734032E-02 
2377	 6.95056585695222E-02 
2378	 6.94314371996769E-02 
2379	 6.93669347683365E-02 
2380	 6.92838913819531E-02 
2381	 6.92162998372417E-02 
2382	 0.069149096652899 
2383	 6.91117857771174E-02 
2384	 6.91184081057516E-02 
2385	 6.90634400336504E-02 
2386	 6.90407841194347E-02 
2387	 6.90427313095854E-02 
2388	 6.89267031720459E-02 
2389	 6.88389342653226E-02 
2390	 6.87981514847142E-02 
2391	 0.068664620809167 
2392	 6.85548708991949E-02 
2393	 6.84891571278167E-02 
2394	 6.84382041245668E-02 
2395	 6.84897782871022E-02 
2396	 6.85067701802659E-02 
2397	 6.83766850373575E-02 
2398	 6.81764299460719E-02 
2399	 6.79553440425969E-02 
2400	 6.78262846404325E-02 
2401	 6.78987940243437E-02 
2402	 6.79910962861425E-02 
2403	 6.80053356806569E-02 
2404	 6.79837201026518E-02 
2405	 0.067803513033087 
2406	 6.76158344080424E-02 
2407	 6.75507197581806E-02 
2408	 6.74644962202433E-02 
2409	 6.74214515769683E-02 
2410	 6.74402688348604E-02 
2411	 6.73902110665141E-02 
2412	 0.067292941851764 
2413	 6.71607673266765E-02 
2414	 6.69903845246928E-02 
2415	 6.68557495051463E-02 
2416	 6.67289395652794E-02 
2417	 6.65983192712982E-02 
2418	 6.65454669202004E-02 
2419	 6.65676890988294E-02 
2420	 6.64788384991496E-02 
2421	 0.066367931800599 
2422	 6.63134426193727E-02 
2423	 6.62309968956399E-02 
2424	 6.61787814782974E-02 
2425	 6.62324854937311E-02 
2426	 0.066153289931409 
2427	 6.59573994631343E-02 
2428	 6.58750237845851E-02 
2429	 6.58202024074398E-02 
2430	 6.57113336601479E-02 
2431	 6.56245476644367E-02 
2432	 6.55104247620447E-02 
2433	 6.53405850352847E-02 
2434	 6.52075021541424E-02 
2435	 6.51035469987413E-02 
2436	 6.50439327547687E-02 
2437	 0.064950565159315 
2438	 6.48701885441778E-02 
2439	 6.48910748093525E-02 
2440	 6.47957228592807E-02 
2441	 6.46255129872669E-02 
2442	 6.45198046382152E-02 
2443	 6.43802823845602E-02 
2444	 6.43097398874793E-02 
2445	 6.43215328001523E-02 
2446	 6.42655049173085E-02 
2447	 6.42630490696812E-02 
2448	 6.42024077978926E-02 
2449	 6.39629289242336E-02 
2450	 6.38457762498841E-02 
2451	 0.063799088788967 
2452	 6.37049323885622E-02 
2453	 6.37062004040664E-02 
2454	 6.36480415879886E-02 
2455	 6.35407457715423E-02 
2456	 6.34468564966334E-02 
2457	 0.063287867650597 
2458	 6.31972692831511E-02 
2459	 6.31601189190221E-02 
2460	 6.30350443769928E-02 
2461	 0.062905391977748 
2462	 6.27171331824661E-02 
2463	 6.23769694488721E-02 
2464	 6.21718428566976E-02 
2465	 6.20370448518797E-02 
2466	 6.20525352994512E-02 
2467	 6.22430140853225E-02 
2468	 6.23707183406311E-02 
2469	 6.26243669552193E-02 
2470	 6.24213040121014E-02 
2471	 6.20265420927016E-02 
2472	 6.16117269658564E-02 
2473	 6.13290606338225E-02 
2474	 6.11985592860711E-02 
2475	 6.12329001275059E-02 
2476	 6.12597382980717E-02 
2477	 6.12267605403728E-02 
2478	 6.10932802216909E-02 
2479	 6.10573843455191E-02 
2480	 6.09855443728446E-02 
2481	 6.09115489664575E-02 
2482	 6.10520295014949E-02 
2483	 6.10065422332782E-02 
2484	 6.08913379314937E-02 
2485	 6.09275010920444E-02 
2486	 6.08737508868064E-02 
2487	 6.07101101065136E-02 
2488	 6.06769033223722E-02 
2489	 6.05119260997489E-02 
2490	 6.03126337046633E-02 
2491	 6.04378001801406E-02 
2492	 0.060425383332525 
2493	 6.02451746742748E-02 
2494	 5.99942445271415E-02 
2495	 5.96659148221662E-02 
2496	 5.95281405975074E-02 
2497	 5.96122620264409E-02 
2498	 5.98088382067039E-02 
2499	 5.99097675218782E-02 
2500	 5.99020606185634E-02 
