Wavelength	LMW_1800004.asd
350	 0.050737272685039 
351	 5.73234537562419E-02 
352	 5.97877390760578E-02 
353	 5.14603494044852E-02 
354	 5.11464403723082E-02 
355	 5.38048210327732E-02 
356	 5.25069482677439E-02 
357	 0.046310603378946 
358	 6.04151188149664E-02 
359	 6.13470549523831E-02 
360	 5.17017273316255E-02 
361	 5.56849574581488E-02 
362	 5.30910354483994E-02 
363	 5.01659292287825E-02 
364	 5.05415948982713E-02 
365	 4.84635343046132E-02 
366	 5.09000912226417E-02 
367	 5.44874319445536E-02 
368	 5.41796031006027E-02 
369	 4.90368041273516E-02 
370	 5.04600328368395E-02 
371	 5.60298655545165E-02 
372	 0.054661335948108 
373	 5.41218242283513E-02 
374	 5.34620020253231E-02 
375	 5.23017368228147E-02 
376	 5.31347821439912E-02 
377	 5.52310407141771E-02 
378	 5.65851947931536E-02 
379	 5.54750781009986E-02 
380	 5.26093999551387E-02 
381	 5.30522708452402E-02 
382	 5.61130431486956E-02 
383	 5.68675650576829E-02 
384	 5.69612526353521E-02 
385	 5.58688249016225E-02 
386	 5.45861458291268E-02 
387	 0.057871257523744 
388	 5.77715427567336E-02 
389	 5.62986364421664E-02 
390	 5.73624464519246E-02 
391	 5.73056055535173E-02 
392	 5.76783822972293E-02 
393	 5.85042517397869E-02 
394	 5.84454677905018E-02 
395	 5.82252626931643E-02 
396	 5.90333167379171E-02 
397	 6.09067844243809E-02 
398	 0.061417350554491 
399	 6.12275964000268E-02 
400	 6.11831051265547E-02 
401	 6.18655263683692E-02 
402	 6.17477498342114E-02 
403	 6.16429129600073E-02 
404	 6.18954587436331E-02 
405	 6.22341985530396E-02 
406	 6.28470649137979E-02 
407	 6.36563509548526E-02 
408	 6.41183043855881E-02 
409	 6.23145208034843E-02 
410	 0.062015770742864 
411	 6.27531384292367E-02 
412	 6.24132908297705E-02 
413	 6.29460044438377E-02 
414	 0.063398226669695 
415	 6.33868551714867E-02 
416	 6.35668320669335E-02 
417	 6.32248150625614E-02 
418	 6.31680934357442E-02 
419	 6.39886963677916E-02 
420	 6.44995695806347E-02 
421	 6.40533912699599E-02 
422	 6.35510199956091E-02 
423	 6.45740817379465E-02 
424	 6.47124348377128E-02 
425	 6.45920111770919E-02 
426	 6.46353103912204E-02 
427	 0.064093329257183 
428	 6.39423162126545E-02 
429	 6.42519948675714E-02 
430	 6.46972383437621E-02 
431	 6.46949805218935E-02 
432	 6.44671265843444E-02 
433	 6.42672846617684E-02 
434	 6.43208459996497E-02 
435	 6.47491823530911E-02 
436	 0.06498338922693 
437	 6.46891767653479E-02 
438	 6.43746082189887E-02 
439	 6.46959541293889E-02 
440	 6.52679856830251E-02 
441	 6.52988865851834E-02 
442	 6.54860817390342E-02 
443	 6.56601308374986E-02 
444	 6.56776725077232E-02 
445	 6.55522998895539E-02 
446	 0.065477608493186 
447	 6.55173389892816E-02 
448	 6.56525767439297E-02 
449	 0.065701062565022 
450	 6.60035241809299E-02 
451	 6.64505491509791E-02 
452	 6.65635927838745E-02 
453	 6.64648993450734E-02 
454	 6.64792243182025E-02 
455	 6.67406867902365E-02 
456	 6.68609593669462E-02 
457	 6.67819249378663E-02 
458	 6.68101493754327E-02 
459	 6.72770896478873E-02 
460	 6.73299879186503E-02 
461	 6.70734571771518E-02 
462	 6.68943570993326E-02 
463	 6.74464805799297E-02 
464	 6.76580270849555E-02 
465	 6.76888772433759E-02 
466	 6.78831585132511E-02 
467	 6.78048223576232E-02 
468	 6.78760108262699E-02 
469	 6.80818561270407E-02 
470	 6.80729123839467E-02 
471	 6.82998824451942E-02 
472	 6.85186439237792E-02 
473	 6.85388647122013E-02 
474	 6.85470930646577E-02 
475	 6.86933442356677E-02 
476	 0.068785143398967 
477	 6.85953161178709E-02 
478	 6.88831422630684E-02 
479	 0.06910847769959 
480	 6.91187941447742E-02 
481	 6.94544980659939E-02 
482	 6.96369253059547E-02 
483	 6.95839225939527E-02 
484	 6.94365966583078E-02 
485	 6.97790453490744E-02 
486	 6.98363408874721E-02 
487	 6.95770855081536E-02 
488	 6.96087521619504E-02 
489	 7.00676079701983E-02 
490	 7.03684092676507E-02 
491	 0.070216439068937 
492	 7.03543269687813E-02 
493	 7.02836510435936E-02 
494	 7.02620671810127E-02 
495	 7.07450066932684E-02 
496	 7.09012482144132E-02 
497	 7.07946189727929E-02 
498	 0.070659122509795 
499	 7.08373085338941E-02 
500	 7.10855692770052E-02 
501	 0.071195284031184 
502	 7.10934387965714E-02 
503	 0.071246344721497 
504	 7.13505346085089E-02 
505	 0.071341333610847 
506	 0.07139309460712 
507	 7.15182241294438E-02 
508	 7.16906521341404E-02 
509	 7.18201041109461E-02 
510	 7.16374145863751E-02 
511	 7.16528274698715E-02 
512	 7.18319219066037E-02 
513	 7.18657729555459E-02 
514	 7.18754218102053E-02 
515	 0.071840008227423 
516	 7.18173189760101E-02 
517	 7.20406206967243E-02 
518	 7.21313971242235E-02 
519	 7.20624437908384E-02 
520	 7.19808931188096E-02 
521	 7.22633322383293E-02 
522	 7.24383664884341E-02 
523	 7.23870379738121E-02 
524	 7.24040898394024E-02 
525	 7.24303446804348E-02 
526	 7.24884335039301E-02 
527	 7.25804521850135E-02 
528	 7.26028751147437E-02 
529	 7.26589996549805E-02 
530	 7.27704771872977E-02 
531	 7.28893875108812E-02 
532	 7.28159144358143E-02 
533	 7.28108958069218E-02 
534	 7.29872070440135E-02 
535	 7.30214465288782E-02 
536	 7.30019423585004E-02 
537	 7.30707017261728E-02 
538	 7.33150827130441E-02 
539	 7.32599811054289E-02 
540	 0.073182078292645 
541	 7.32434216938171E-02 
542	 0.073375425885121 
543	 7.35161338405537E-02 
544	 7.35923293854219E-02 
545	 7.35949188436257E-02 
546	 7.37629478606463E-02 
547	 7.38881110435061E-02 
548	 7.39362076671223E-02 
549	 7.40267960020023E-02 
550	 7.40959579699214E-02 
551	 7.41349054655427E-02 
552	 7.41735800792439E-02 
553	 0.074330461574557 
554	 7.44193240276906E-02 
555	 0.074472623549817 
556	 7.46174850835844E-02 
557	 7.47046470232087E-02 
558	 7.47506175130134E-02 
559	 0.074802663846743 
560	 0.074932612418028 
561	 7.50209201976677E-02 
562	 7.51299659809139E-02 
563	 7.53366542226305E-02 
564	 7.54310478011179E-02 
565	 7.55405155443955E-02 
566	 7.57414648767851E-02 
567	 7.60287098415483E-02 
568	 7.62724007037656E-02 
569	 7.64393273556622E-02 
570	 7.65457673837849E-02 
571	 7.66639716667235E-02 
572	 7.68058522707952E-02 
573	 7.69979872610173E-02 
574	 7.72577484499661E-02 
575	 7.73605864266678E-02 
576	 7.74687862060335E-02 
577	 0.077669661664075 
578	 7.77207722492606E-02 
579	 7.79708454328732E-02 
580	 7.83694815978957E-02 
581	 7.87166793534502E-02 
582	 7.91230265508607E-02 
583	 0.079449577406591 
584	 7.96352796375195E-02 
585	 7.97535823151194E-02 
586	 0.079865508660414 
587	 7.99773401719004E-02 
588	 8.00869332275485E-02 
589	 8.02520759937363E-02 
590	 8.04234349523845E-02 
591	 8.05573286743233E-02 
592	 8.06246766367998E-02 
593	 8.06743242521912E-02 
594	 8.08040771928415E-02 
595	 8.10627522020531E-02 
596	 8.13622601273969E-02 
597	 8.16813938229249E-02 
598	 0.082017113303968 
599	 8.23684166263746E-02 
600	 8.26289384817336E-02 
601	 8.28160500363313E-02 
602	 8.29642362198445E-02 
603	 8.31105855502706E-02 
604	 8.32259268742368E-02 
605	 8.33458087707026E-02 
606	 0.083513484843612 
607	 8.36850800590735E-02 
608	 8.38722621403246E-02 
609	 8.40541140984682E-02 
610	 8.41720376058896E-02 
611	 8.42989698551253E-02 
612	 0.084469297632915 
613	 8.46687097369335E-02 
614	 8.47577882096263E-02 
615	 8.48543963033322E-02 
616	 8.49788521642115E-02 
617	 8.50856016310569E-02 
618	 8.52460797459107E-02 
619	 8.53446417575839E-02 
620	 8.53445744181348E-02 
621	 8.54339688204274E-02 
622	 8.55358784794341E-02 
623	 8.56390153224458E-02 
624	 8.57468801740408E-02 
625	 8.58154769614706E-02 
626	 8.58649504294659E-02 
627	 8.59290946069694E-02 
628	 8.60526577367677E-02 
629	 8.61253805505656E-02 
630	 8.61555309352978E-02 
631	 8.61911816510349E-02 
632	 8.62939863838929E-02 
633	 8.63727268857754E-02 
634	 8.64190908299274E-02 
635	 8.64941043917741E-02 
636	 8.65832670861499E-02 
637	 8.66647202054551E-02 
638	 8.67179796287131E-02 
639	 8.67215283257189E-02 
640	 8.67695642892508E-02 
641	 8.68651901988307E-02 
642	 8.69641888024241E-02 
643	 8.70445908582361E-02 
644	 8.70959335559053E-02 
645	 8.71387167752881E-02 
646	 8.72365421458755E-02 
647	 8.72671156836834E-02 
648	 8.72918657320567E-02 
649	 8.73918058770059E-02 
650	 8.74886408062474E-02 
651	 8.75901193911565E-02 
652	 8.76736126589359E-02 
653	 8.76973660091101E-02 
654	 8.77810535914237E-02 
655	 8.78789900982336E-02 
656	 0.087948598771292 
657	 8.80362448161727E-02 
658	 8.81158378837954E-02 
659	 8.81823998485629E-02 
660	 8.82412998284274E-02 
661	 8.82970635284249E-02 
662	 8.83518747468871E-02 
663	 8.84182198145647E-02 
664	 8.85244597818479E-02 
665	 8.86326120054869E-02 
666	 8.87213512013022E-02 
667	 0.088790355796439 
668	 8.89027793068154E-02 
669	 8.89872368137695E-02 
670	 8.90534377004044E-02 
671	 8.91747156902042E-02 
672	 8.92726878947237E-02 
673	 8.93687150903546E-02 
674	 8.94809193219722E-02 
675	 8.95836849873142E-02 
676	 0.089637835077094 
677	 0.089684996693072 
678	 8.97935823867098E-02 
679	 8.99376979242579E-02 
680	 9.00471507344975E-02 
681	 0.090118585554003 
682	 0.090239232778164 
683	 9.03581470238195E-02 
684	 9.04651947649488E-02 
685	 9.05594984087163E-02 
686	 9.06288231839535E-02 
687	 9.07515713036871E-02 
688	 9.08863105765009E-02 
689	 9.09220785454755E-02 
690	 9.10132033683487E-02 
691	 9.11300860118435E-02 
692	 9.12388424352281E-02 
693	 9.13551710022381E-02 
694	 9.14510096193324E-02 
695	 9.15385467876267E-02 
696	 9.16495467984291E-02 
697	 9.18399029913212E-02 
698	 9.19686323677173E-02 
699	 9.20112345011731E-02 
700	 9.20772364745519E-02 
701	 9.22174169285831E-02 
702	 9.23465452683142E-02 
703	 9.24065524086924E-02 
704	 9.25053274603773E-02 
705	 0.092600829743908 
706	 0.092690017096682 
707	 9.27865637777891E-02 
708	 9.28682452332244E-02 
709	 9.29899224847163E-02 
710	 9.31517650019762E-02 
711	 9.32669394163756E-02 
712	 9.33458125000994E-02 
713	 9.34228902036281E-02 
714	 9.35235388962178E-02 
715	 9.36036965525817E-02 
716	 9.36688505661642E-02 
717	 9.37471309842304E-02 
718	 9.38717524746009E-02 
719	 9.39419902150763E-02 
720	 9.39891815635912E-02 
721	 9.40463706459025E-02 
722	 9.41095345976375E-02 
723	 9.41861875997344E-02 
724	 9.42627251109262E-02 
725	 0.094325623686019 
726	 9.44041076881847E-02 
727	 9.44583975464115E-02 
728	 9.44976647557802E-02 
729	 0.094574908769273 
730	 9.46397676208379E-02 
731	 9.46767144995684E-02 
732	 9.46896916006588E-02 
733	 9.47074081298113E-02 
734	 9.47563011021977E-02 
735	 9.48072909225764E-02 
736	 9.48170462433277E-02 
737	 9.48153853895197E-02 
738	 0.09484729513978 
739	 9.49090025168972E-02 
740	 9.49436123195839E-02 
741	 9.49500979860803E-02 
742	 9.49572106618085E-02 
743	 9.49774006461914E-02 
744	 9.49552934421307E-02 
745	 9.49460370770051E-02 
746	 9.49606085843009E-02 
747	 9.49785235140066E-02 
748	 9.49266047898591E-02 
749	 9.48836482995463E-02 
750	 9.48788906170051E-02 
751	 9.48652940979721E-02 
752	 9.48620214598581E-02 
753	 9.48775250951201E-02 
754	 9.48963727162306E-02 
755	 9.48353174695862E-02 
756	 9.47970495351211E-02 
757	 9.47805724703617E-02 
758	 9.47383830015625E-02 
759	 9.47170393253342E-02 
760	 9.46803287773007E-02 
761	 9.46333798218523E-02 
762	 9.46397946509227E-02 
763	 9.46139527625969E-02 
764	 9.45541002190899E-02 
765	 9.44920962839436E-02 
766	 9.44996239871441E-02 
767	 9.44705879016979E-02 
768	 9.44069102328264E-02 
769	 9.43625041143947E-02 
770	 9.43227025872334E-02 
771	 9.42895866900073E-02 
772	 9.42490416144022E-02 
773	 9.41688974554071E-02 
774	 9.41072001339073E-02 
775	 9.40649195298445E-02 
776	 9.40273796176046E-02 
777	 9.39790377467986E-02 
778	 0.093906553121676 
779	 9.38404178392828E-02 
780	 9.38174056252986E-02 
781	 9.37740057286076E-02 
782	 9.37304747453241E-02 
783	 9.36860368917626E-02 
784	 9.36144879687874E-02 
785	 9.35866511258026E-02 
786	 9.35312463235941E-02 
787	 9.34187213629233E-02 
788	 9.33872854020203E-02 
789	 9.33411474871453E-02 
790	 9.32851836873736E-02 
791	 9.32420772473612E-02 
792	 9.31199607551462E-02 
793	 9.30485980271738E-02 
794	 9.30440666607849E-02 
795	 9.30160053839643E-02 
796	 9.29702506689934E-02 
797	 9.29059933600696E-02 
798	 9.28315245431216E-02 
799	 9.27678416565345E-02 
800	 9.27396059132667E-02 
801	 9.27018401340693E-02 
802	 9.26187345292407E-02 
803	 9.25749870943444E-02 
804	 9.25652433578578E-02 
805	 9.25422281416279E-02 
806	 9.24525891843988E-02 
807	 9.24216867438363E-02 
808	 9.23738712093008E-02 
809	 9.22886181820396E-02 
810	 0.092243789021607 
811	 9.22215633548464E-02 
812	 9.21810389164043E-02 
813	 9.21074040558138E-02 
814	 9.20694675829924E-02 
815	 9.20523938608618E-02 
816	 9.20198408996724E-02 
817	 9.19463393322809E-02 
818	 9.19206614131974E-02 
819	 9.18923982253708E-02 
820	 9.18379726690757E-02 
821	 9.17684390889485E-02 
822	 9.17329588654939E-02 
823	 9.17056627318607E-02 
824	 9.16738798751496E-02 
825	 9.16671106720354E-02 
826	 9.16442814218676E-02 
827	 9.16004504492024E-02 
828	 9.15510398843978E-02 
829	 9.15421339448268E-02 
830	 9.15095614560881E-02 
831	 0.091457828405552 
832	 9.14290343845258E-02 
833	 9.14680435275384E-02 
834	 9.14537916261483E-02 
835	 9.13619595349009E-02 
836	 9.12772190515952E-02 
837	 9.13032924621834E-02 
838	 9.13493395464497E-02 
839	 9.13390428772934E-02 
840	 9.12816901729236E-02 
841	 9.12340237724528E-02 
842	 9.12144898745103E-02 
843	 9.12143786190512E-02 
844	 9.11820288375634E-02 
845	 9.11765146416552E-02 
846	 9.11921736770866E-02 
847	 9.11884049588411E-02 
848	 9.11174949125807E-02 
849	 9.10842061569639E-02 
850	 9.10970663299821E-02 
851	 9.10792863741414E-02 
852	 9.10626756644563E-02 
853	 9.10763295591087E-02 
854	 9.10966032873339E-02 
855	 9.10289537197069E-02 
856	 9.10454774886621E-02 
857	 9.10763193334017E-02 
858	 0.091047707132746 
859	 9.10248301777272E-02 
860	 9.10354608945494E-02 
861	 9.10637673981744E-02 
862	 9.10762980234707E-02 
863	 9.10564015340279E-02 
864	 9.10102940253907E-02 
865	 0.090991482199847 
866	 9.10528498725907E-02 
867	 9.10470269950063E-02 
868	 9.10158048541004E-02 
869	 9.10148844053235E-02 
870	 9.10818792895045E-02 
871	 9.10748173453415E-02 
872	 9.10965887972442E-02 
873	 9.11689309105842E-02 
874	 0.091122053977109 
875	 9.11050020196771E-02 
876	 9.11015481304744E-02 
877	 9.10891731154598E-02 
878	 9.11401465524838E-02 
879	 9.12026267337959E-02 
880	 9.12233488280335E-02 
881	 9.11939462688991E-02 
882	 0.091284678222062 
883	 9.13257636376994E-02 
884	 9.13141029208518E-02 
885	 9.13366466173372E-02 
886	 9.13676721929264E-02 
887	 9.14291405855494E-02 
888	 9.14749964732147E-02 
889	 9.14253705546644E-02 
890	 9.14586476260935E-02 
891	 9.15126178146382E-02 
892	 9.15324468637159E-02 
893	 9.15192986211828E-02 
894	 9.15556708910014E-02 
895	 9.16309735898842E-02 
896	 9.17118914219051E-02 
897	 9.17642820617243E-02 
898	 9.17939198514175E-02 
899	 9.18204212606121E-02 
900	 9.18588401121509E-02 
901	 9.19015200559179E-02 
902	 9.19235127786222E-02 
903	 9.19798736133518E-02 
904	 9.20953576483503E-02 
905	 0.092075178039809 
906	 9.21092238254831E-02 
907	 9.21837091502851E-02 
908	 9.22082138516318E-02 
909	 9.22685082627503E-02 
910	 9.23016139801517E-02 
911	 9.23284907738864E-02 
912	 9.24146161556689E-02 
913	 9.24994597345199E-02 
914	 9.25770219260457E-02 
915	 9.26311387917891E-02 
916	 9.26445653522202E-02 
917	 0.092696232982488 
918	 9.27639173272194E-02 
919	 9.28289127183034E-02 
920	 9.28936163494075E-02 
921	 9.29626372907144E-02 
922	 9.30604939596197E-02 
923	 9.31674168345086E-02 
924	 9.32021765131681E-02 
925	 9.32067835714148E-02 
926	 9.32607034953312E-02 
927	 9.33576898828264E-02 
928	 9.33267677451546E-02 
929	 9.34460762426254E-02 
930	 9.35748515238051E-02 
931	 9.35864451577971E-02 
932	 9.36357438471266E-02 
933	 9.37950139306248E-02 
934	 0.093914965588571 
935	 9.39025712835762E-02 
936	 9.40340102940179E-02 
937	 9.40726823245828E-02 
938	 9.41119632625064E-02 
939	 9.42706194024677E-02 
940	 9.43648894154269E-02 
941	 9.44371786705995E-02 
942	 9.45339322165514E-02 
943	 9.46595161211241E-02 
944	 9.46411724546265E-02 
945	 9.46954918091251E-02 
946	 9.48176096769958E-02 
947	 9.48964890344877E-02 
948	 9.48703363431764E-02 
949	 9.49226370115247E-02 
950	 9.50496600952356E-02 
951	 9.51530680595144E-02 
952	 9.52334345379948E-02 
953	 9.53450182833781E-02 
954	 9.54640584935039E-02 
955	 9.55363291342669E-02 
956	 9.56019098910172E-02 
957	 9.57575687840182E-02 
958	 9.58800936747139E-02 
959	 9.58027051680389E-02 
960	 9.59020199644962E-02 
961	 9.60118083948005E-02 
962	 9.61105384993277E-02 
963	 9.62684536107738E-02 
964	 9.63881188452189E-02 
965	 9.64251546057671E-02 
966	 9.65004397223601E-02 
967	 9.67510356216997E-02 
968	 9.67767251554917E-02 
969	 9.66654136284782E-02 
970	 9.66562621525358E-02 
971	 9.69489928094222E-02 
972	 9.71001454854055E-02 
973	 9.71663415886481E-02 
974	 9.71845651531391E-02 
975	 9.71819309764681E-02 
976	 9.73205562313361E-02 
977	 9.74723383423303E-02 
978	 9.75606205545319E-02 
979	 0.097586641320129 
980	 9.76797949388467E-02 
981	 9.76584241320731E-02 
982	 9.76482537019345E-02 
983	 9.78822649471474E-02 
984	 9.80632896327764E-02 
985	 9.81136305532603E-02 
986	 9.81012878060963E-02 
987	 9.81688005939601E-02 
988	 9.83992228270327E-02 
989	 9.84752981700999E-02 
990	 9.84400674961395E-02 
991	 9.84984227634928E-02 
992	 9.85817448310225E-02 
993	 9.86892586333337E-02 
994	 9.87868769746622E-02 
995	 9.88591716578416E-02 
996	 9.90313975437727E-02 
997	 9.90348798438236E-02 
998	 9.90173531560542E-02 
999	 9.91779000529432E-02 
1000	 9.92667165192556E-02 
1001	 9.85966049448096E-02 
1002	 9.86056294337249E-02 
1003	 9.86902572781526E-02 
1004	 9.87370811795051E-02 
1005	 9.87201941203232E-02 
1006	 9.87371298019321E-02 
1007	 9.87601771027196E-02 
1008	 0.098813246286759 
1009	 9.88827058729923E-02 
1010	 9.89362321335547E-02 
1011	 9.90252527009884E-02 
1012	 9.91031510023188E-02 
1013	 9.91271149151383E-02 
1014	 9.91148931619496E-02 
1015	 9.91181979612227E-02 
1016	 9.91383684583707E-02 
1017	 9.91745734464414E-02 
1018	 9.92438113235626E-02 
1019	 9.93110196630285E-02 
1020	 9.93166142976322E-02 
1021	 9.93572958313809E-02 
1022	 9.93924847877342E-02 
1023	 9.94302777658978E-02 
1024	 9.95118529806926E-02 
1025	 9.95507914228016E-02 
1026	 9.95681444231515E-02 
1027	 9.95747326640003E-02 
1028	 9.95361180995958E-02 
1029	 9.95080325843952E-02 
1030	 9.95333070996051E-02 
1031	 9.95437663765756E-02 
1032	 0.099553616154068 
1033	 9.95885382172057E-02 
1034	 9.96618603820313E-02 
1035	 9.96890147126414E-02 
1036	 9.96589807333835E-02 
1037	 9.96788349002607E-02 
1038	 9.97549985883192E-02 
1039	 9.97410779458971E-02 
1040	 9.97228383355869E-02 
1041	 9.97498907350847E-02 
1042	 9.96765848986279E-02 
1043	 0.099575434025295 
1044	 0.099541043748225 
1045	 9.95644931906196E-02 
1046	 9.95725977466745E-02 
1047	 9.95635837953919E-02 
1048	 9.96351800041169E-02 
1049	 9.97113514026661E-02 
1050	 9.97238954559754E-02 
1051	 9.97887746172721E-02 
1052	 9.98546269755982E-02 
1053	 9.98348514086511E-02 
1054	 9.98336839123008E-02 
1055	 9.98726004849373E-02 
1056	 0.099875082602044 
1057	 9.98941074125106E-02 
1058	 9.99461323363667E-02 
1059	 0.100013742702714 
1060	 0.100069214988247 
1061	 0.100147387301262 
1062	 0.100300376135796 
1063	 0.100419167044684 
1064	 0.100502319349034 
1065	 0.100561222654958 
1066	 0.100608267138029 
1067	 0.100659967260445 
1068	 0.100697286747793 
1069	 0.100730759030387 
1070	 0.10076037971472 
1071	 0.100728931451244 
1072	 0.100778589745796 
1073	 0.100915595500849 
1074	 0.100980041222003 
1075	 0.101050619527184 
1076	 0.101089815677187 
1077	 0.101082884054039 
1078	 0.101079600337241 
1079	 0.101148299656245 
1080	 0.101246778594703 
1081	 0.101331765626899 
1082	 0.101390297654905 
1083	 0.101439889439484 
1084	 0.10145662733726 
1085	 0.101492087189586 
1086	 0.101523635368697 
1087	 0.101573145600113 
1088	 0.101634954307007 
1089	 0.101677358336875 
1090	 0.101764392544295 
1091	 0.10181924829178 
1092	 0.101808686901767 
1093	 0.101831365263254 
1094	 0.101843163940093 
1095	 0.101840739368758 
1096	 0.101851388038691 
1097	 0.101856539764966 
1098	 0.101879318069332 
1099	 0.101899166561817 
1100	 0.101923135849487 
1101	 0.101975629188977 
1102	 0.10200926182449 
1103	 0.102032801586442 
1104	 0.102044094963297 
1105	 0.10205553909856 
1106	 0.102059616903234 
1107	 0.102060413874942 
1108	 0.102066484248893 
1109	 0.102079937499885 
1110	 0.102083793351403 
1111	 0.102064196487805 
1112	 0.102019409459847 
1113	 0.101986805937979 
1114	 0.101916005592909 
1115	 0.101903584017748 
1116	 0.101934247345394 
1117	 0.101939643662087 
1118	 0.101960585546917 
1119	 0.101987542417651 
1120	 0.101962084781363 
1121	 0.101939900357572 
1122	 0.101918241876813 
1123	 0.101908191676841 
1124	 0.101911461195413 
1125	 0.10193431522005 
1126	 0.101938315234826 
1127	 0.10195352510646 
1128	 0.10194847020876 
1129	 0.101920660001424 
1130	 0.10190701126278 
1131	 0.101885153103241 
1132	 0.101874316888218 
1133	 0.101880729221616 
1134	 0.101879354576644 
1135	 0.101886061892193 
1136	 0.101877078985668 
1137	 0.101864266039539 
1138	 0.101834569377556 
1139	 0.101820030154203 
1140	 0.101797078060564 
1141	 0.101800630040382 
1142	 0.101839276796595 
1143	 0.101838940054665 
1144	 0.101832417936492 
1145	 0.101825655526297 
1146	 0.101789719395691 
1147	 0.101768098013207 
1148	 0.101766543122806 
1149	 0.101754678243581 
1150	 0.10172868193012 
1151	 0.101716497277468 
1152	 0.101706069935725 
1153	 0.101704680513287 
1154	 0.101706157593782 
1155	 0.101715133697118 
1156	 0.101725436329517 
1157	 0.101749525442207 
1158	 0.101748825450617 
1159	 0.101739865046614 
1160	 0.101734535579259 
1161	 0.101706748538506 
1162	 0.101697166968749 
1163	 0.101703495295139 
1164	 0.101705240839547 
1165	 0.101703516835399 
1166	 0.101717383194123 
1167	 0.101719366188454 
1168	 0.101719188418113 
1169	 0.101722010644107 
1170	 0.101718667350589 
1171	 0.101728207198251 
1172	 0.101748310079176 
1173	 0.101759846115205 
1174	 0.101779946641874 
1175	 0.101788719145691 
1176	 0.101778800983164 
1177	 0.101786658769908 
1178	 0.101803035396327 
1179	 0.101811898908672 
1180	 0.101813782798919 
1181	 0.101835489819205 
1182	 0.101872266641864 
1183	 0.10189922531947 
1184	 0.101915129034666 
1185	 0.101943086407675 
1186	 0.101953364026651 
1187	 0.10192373019184 
1188	 0.101938195156303 
1189	 0.101979634823815 
1190	 0.102002752722695 
1191	 0.102034907367823 
1192	 0.102058569009472 
1193	 0.102063057093983 
1194	 0.10208440859277 
1195	 0.102120847390221 
1196	 0.102145526282574 
1197	 0.102172131560564 
1198	 0.102194765855516 
1199	 0.102213025153949 
1200	 0.102216399045688 
1201	 0.102242419495312 
1202	 0.102280680008205 
1203	 0.102305421420546 
1204	 0.102333629791433 
1205	 0.102359345774875 
1206	 0.102373795241525 
1207	 0.102396461821753 
1208	 0.102432649156381 
1209	 0.102454848503203 
1210	 0.102468642295627 
1211	 0.102484282900406 
1212	 0.102478297446203 
1213	 0.102500790974482 
1214	 0.102546390747565 
1215	 0.102583305475961 
1216	 0.10262454388336 
1217	 0.102685309328681 
1218	 0.102725222728583 
1219	 0.102758340288732 
1220	 0.102778657565225 
1221	 0.102785060489943 
1222	 0.102802514440649 
1223	 0.102807681172417 
1224	 0.102824271800326 
1225	 0.102853991739333 
1226	 0.102881089841548 
1227	 0.102910582117689 
1228	 0.10293560948686 
1229	 0.102967084860931 
1230	 0.102989750260154 
1231	 0.102999810225107 
1232	 0.103013472794228 
1233	 0.103026516283099 
1234	 0.103035660868173 
1235	 0.103053039435575 
1236	 0.103072466780765 
1237	 0.103097127725465 
1238	 0.103131794183493 
1239	 0.103155681705297 
1240	 0.103185267359554 
1241	 0.103201517837777 
1242	 0.103193500963505 
1243	 0.103209518531141 
1244	 0.103233936570882 
1245	 0.103254086470271 
1246	 0.103297456221425 
1247	 0.103319204131834 
1248	 0.103331133703431 
1249	 0.103321769050814 
1250	 0.103321009048579 
1251	 0.103330180210786 
1252	 0.103346820716794 
1253	 0.103380750414077 
1254	 0.103396641897633 
1255	 0.103413530386174 
1256	 0.103423584721943 
1257	 0.103419426750106 
1258	 0.103425744783305 
1259	 0.103436325206874 
1260	 0.103441893385041 
1261	 0.103451202810781 
1262	 0.103453537338897 
1263	 0.103449987313804 
1264	 0.103445267244233 
1265	 0.10343446393554 
1266	 0.103425395019971 
1267	 0.103406973910471 
1268	 0.103400001444154 
1269	 0.103405191142609 
1270	 0.103419314499367 
1271	 0.103431529945275 
1272	 0.103455007278248 
1273	 0.103477192946581 
1274	 0.103493424114703 
1275	 0.103519766070239 
1276	 0.103565684323039 
1277	 0.103593778096503 
1278	 0.103604357083039 
1279	 0.103638654344845 
1280	 0.103670133286755 
1281	 0.103715006862917 
1282	 0.103798262557521 
1283	 0.103856112244915 
1284	 0.10390227348595 
1285	 0.103953207076904 
1286	 0.103994951797421 
1287	 0.104038150603108 
1288	 0.104102670602683 
1289	 0.104181787009341 
1290	 0.104264575409915 
1291	 0.104363261698692 
1292	 0.10445327543748 
1293	 0.104550682656619 
1294	 0.104639055542244 
1295	 0.104720345021527 
1296	 0.104807092577729 
1297	 0.10489084547359 
1298	 0.104975591993173 
1299	 0.105073705764505 
1300	 0.105152822264289 
1301	 0.105211748075093 
1302	 0.105286142327458 
1303	 0.105357262870688 
1304	 0.105433063673487 
1305	 0.10551112232755 
1306	 0.105597475132764 
1307	 0.105673515870678 
1308	 0.10571893611106 
1309	 0.105773164013873 
1310	 0.105820935577994 
1311	 0.105872685856809 
1312	 0.105927471193055 
1313	 0.10597157846114 
1314	 0.106010837134146 
1315	 0.106049247762041 
1316	 0.106080576783184 
1317	 0.10610776180513 
1318	 0.106137374874666 
1319	 0.106159454705256 
1320	 0.106173962848407 
1321	 0.106185406780483 
1322	 0.106198057600155 
1323	 0.106196866410683 
1324	 0.10618623962715 
1325	 0.106171090253478 
1326	 0.106166998726473 
1327	 0.106165023693033 
1328	 0.106161951480652 
1329	 0.10615609392102 
1330	 0.106144820874811 
1331	 0.106123004610642 
1332	 0.106105286672316 
1333	 0.106090019958946 
1334	 0.106066870976881 
1335	 0.106037060459333 
1336	 0.106010315523921 
1337	 0.10598205504882 
1338	 0.105953785153466 
1339	 0.10592868760501 
1340	 0.105896519302247 
1341	 0.105851943461636 
1342	 0.10582199906095 
1343	 0.105802135743873 
1344	 0.105773968203294 
1345	 0.105746727198311 
1346	 0.105710141672285 
1347	 0.105653033610061 
1348	 0.105594473052495 
1349	 0.105533687196598 
1350	 0.105472134751166 
1351	 0.105414196820865 
1352	 0.105357694202173 
1353	 0.10529624884872 
1354	 0.105232845624968 
1355	 0.105175971139775 
1356	 0.105117862229513 
1357	 0.105064444133728 
1358	 0.105016738662018 
1359	 0.1049655627793 
1360	 0.104902209079256 
1361	 0.104860122773114 
1362	 0.104829909869399 
1363	 0.104808800125868 
1364	 0.104796710973505 
1365	 0.104797581224136 
1366	 0.10480883155276 
1367	 0.104822959623347 
1368	 0.104865999352208 
1369	 0.104905994659074 
1370	 0.104927713071641 
1371	 0.104946433213614 
1372	 0.104933492804615 
1373	 0.104904246877158 
1374	 0.10487674257281 
1375	 0.104843860275201 
1376	 0.10479664995043 
1377	 0.104744646688059 
1378	 0.104678397727723 
1379	 0.104579974921799 
1380	 0.104509590091332 
1381	 0.104426869018906 
1382	 0.104381761147217 
1383	 0.104365327468697 
1384	 0.104351946771765 
1385	 0.104377964878621 
1386	 0.104375792547195 
1387	 0.104364794668105 
1388	 0.104354767998823 
1389	 0.104347154563781 
1390	 0.10431391473162 
1391	 0.104266322559741 
1392	 0.1042266869525 
1393	 0.104163073149075 
1394	 0.104095110569804 
1395	 0.104050015564379 
1396	 0.104003280947233 
1397	 0.103958102917686 
1398	 0.103913438661024 
1399	 0.10387701070349 
1400	 0.103847186881196 
1401	 0.103811584111495 
1402	 0.103779282151645 
1403	 0.103747851579025 
1404	 0.10370513896143 
1405	 0.103681603822723 
1406	 0.103677727721757 
1407	 0.103661499741125 
1408	 0.103644686247682 
1409	 0.103631558553692 
1410	 0.103608928515919 
1411	 0.103599448428639 
1412	 0.103597080845039 
1413	 0.103605949717925 
1414	 0.103623256160479 
1415	 0.10363724802582 
1416	 0.103649537082501 
1417	 0.103658164869894 
1418	 0.103656061716201 
1419	 0.103655902726565 
1420	 0.103675518176228 
1421	 0.103708832107924 
1422	 0.103744992655036 
1423	 0.103778817953608 
1424	 0.103802273614463 
1425	 0.103815893391109 
1426	 0.103828480575406 
1427	 0.103825745968669 
1428	 0.103844254273392 
1429	 0.103867570945976 
1430	 0.10389123715751 
1431	 0.10393999907598 
1432	 0.103965372150116 
1433	 0.103966974966802 
1434	 0.103987787417995 
1435	 0.104007200257682 
1436	 0.104030480032568 
1437	 0.104074316785309 
1438	 0.104104849676875 
1439	 0.104131475719503 
1440	 0.104146501720557 
1441	 0.104164941338482 
1442	 0.104187155339481 
1443	 0.104213971181052 
1444	 0.104245665293946 
1445	 0.104272893894071 
1446	 0.104295389150847 
1447	 0.10431435043845 
1448	 0.104328889700141 
1449	 0.104353445269939 
1450	 0.104385286122356 
1451	 0.104408418729121 
1452	 0.104425939696688 
1453	 0.104457328203526 
1454	 0.104496241542586 
1455	 0.104519698481905 
1456	 0.10454980094219 
1457	 0.104569043728924 
1458	 0.104566852608269 
1459	 0.10457751779118 
1460	 0.104595277861947 
1461	 0.104608026872248 
1462	 0.104610035960232 
1463	 0.10462748064368 
1464	 0.104660876568605 
1465	 0.10467797632133 
1466	 0.104697801963863 
1467	 0.104714093299113 
1468	 0.104704399116488 
1469	 0.104720091503193 
1470	 0.104756691914171 
1471	 0.104784730974533 
1472	 0.104816210042422 
1473	 0.104837803262646 
1474	 0.104842421657075 
1475	 0.104862331932241 
1476	 0.104880065671901 
1477	 0.104895189891979 
1478	 0.10492746142241 
1479	 0.104965301827203 
1480	 0.104999542930104 
1481	 0.105026784430803 
1482	 0.105048208726595 
1483	 0.105054000224331 
1484	 0.105067474738288 
1485	 0.105077752202263 
1486	 0.105105094649729 
1487	 0.105137430080409 
1488	 0.105171299917807 
1489	 0.105222728305553 
1490	 0.105258463366544 
1491	 0.105293897378829 
1492	 0.105319696450712 
1493	 0.105324858341454 
1494	 0.105347771409038 
1495	 0.105373174750818 
1496	 0.105397227616563 
1497	 0.10544099671935 
1498	 0.105468446213153 
1499	 0.105477877096885 
1500	 0.105496592578069 
1501	 0.105509867828744 
1502	 0.1055296535014 
1503	 0.105560985408474 
1504	 0.105583635103203 
1505	 0.105600136691891 
1506	 0.105625555496894 
1507	 0.105650517271785 
1508	 0.105662271121184 
1509	 0.105671905673429 
1510	 0.105680193104059 
1511	 0.105683420779259 
1512	 0.105698169206993 
1513	 0.10570974144042 
1514	 0.105720599934349 
1515	 0.105745868923931 
1516	 0.105762230629831 
1517	 0.105779126659764 
1518	 0.105808543653216 
1519	 0.10582462600207 
1520	 0.105819237044991 
1521	 0.105841931186084 
1522	 0.105877157259885 
1523	 0.105906800092231 
1524	 0.105952818221319 
1525	 0.105978347189249 
1526	 0.105996626653346 
1527	 0.106005853434812 
1528	 0.105993831316415 
1529	 0.105999391222113 
1530	 0.106004996518578 
1531	 0.106013392926938 
1532	 0.106037487515387 
1533	 0.106051518982571 
1534	 0.106052930688058 
1535	 0.106064835898987 
1536	 0.106083432833059 
1537	 0.106095154716844 
1538	 0.106102699060245 
1539	 0.10612318318232 
1540	 0.106155613399747 
1541	 0.106169635432214 
1542	 0.106180230001268 
1543	 0.106194529551108 
1544	 0.106188659798623 
1545	 0.106200080970792 
1546	 0.106230151385798 
1547	 0.106259306168989 
1548	 0.1062880492261 
1549	 0.106307566580604 
1550	 0.106321109838435 
1551	 0.106330662127601 
1552	 0.106333789356591 
1553	 0.106338647493538 
1554	 0.106363541280444 
1555	 0.106398946518539 
1556	 0.106425975815697 
1557	 0.106445085501638 
1558	 0.106443742516178 
1559	 0.106434974290126 
1560	 0.106436660932164 
1561	 0.106439119334284 
1562	 0.106443976252326 
1563	 0.106452547890169 
1564	 0.106466723410553 
1565	 0.106488045878445 
1566	 0.106497181612279 
1567	 0.106507418481441 
1568	 0.106510858792316 
1569	 0.106502794720661 
1570	 0.106499588935669 
1571	 0.106496734870496 
1572	 0.1064976291161 
1573	 0.106495771503653 
1574	 0.106496940717773 
1575	 0.106505088459987 
1576	 0.10651056149945 
1577	 0.106512510545181 
1578	 0.106518410943672 
1579	 0.106526888021509 
1580	 0.106537590622459 
1581	 0.106553877974151 
1582	 0.106563918187101 
1583	 0.106579555077874 
1584	 0.106581106752702 
1585	 0.10656601041018 
1586	 0.106560002614346 
1587	 0.106542420514315 
1588	 0.106544046418603 
1589	 0.106566989020153 
1590	 0.106577168480707 
1591	 0.106593752449527 
1592	 0.106599720084555 
1593	 0.106588625822423 
1594	 0.106588915364878 
1595	 0.10659815713324 
1596	 0.106597511486411 
1597	 0.106596397724899 
1598	 0.106592258106636 
1599	 0.106574674897479 
1600	 0.106565499734714 
1601	 0.106555872894563 
1602	 0.106553523773826 
1603	 0.106565871759008 
1604	 0.106566645946797 
1605	 0.106562586687409 
1606	 0.106564588261431 
1607	 0.106567083745588 
1608	 0.106560939675602 
1609	 0.106557719231075 
1610	 0.106553440282889 
1611	 0.106551303277779 
1612	 0.10655759222981 
1613	 0.106570155272139 
1614	 0.106587806214566 
1615	 0.106577625242531 
1616	 0.106553731022034 
1617	 0.106543782298235 
1618	 0.106534777184237 
1619	 0.106541282448445 
1620	 0.106557988456376 
1621	 0.106562896538844 
1622	 0.106568873032297 
1623	 0.106562815279276 
1624	 0.10654604116495 
1625	 0.10653761895028 
1626	 0.106522909530265 
1627	 0.106518469620595 
1628	 0.106525519648087 
1629	 0.106519452989739 
1630	 0.10650804379185 
1631	 0.106503873370336 
1632	 0.106494338816009 
1633	 0.106497208514319 
1634	 0.106514227101042 
1635	 0.106520443709643 
1636	 0.106530380595781 
1637	 0.106526398339714 
1638	 0.10650779054151 
1639	 0.106505577097963 
1640	 0.106505744657622 
1641	 0.106501581269879 
1642	 0.106498605307964 
1643	 0.106506884463381 
1644	 0.10651479649589 
1645	 0.106523083351657 
1646	 0.106549054542997 
1647	 0.106559213554231 
1648	 0.106560710224994 
1649	 0.106554187051062 
1650	 0.10654627534282 
1651	 0.106528272712658 
1652	 0.106483285670455 
1653	 0.106467496115163 
1654	 0.106454290749076 
1655	 0.106459510600516 
1656	 0.106498428754423 
1657	 0.106505332230912 
1658	 0.106514016536096 
1659	 0.106505552170744 
1660	 0.106460428840594 
1661	 0.106452406223318 
1662	 0.106464266911049 
1663	 0.106454972901996 
1664	 0.106453426540392 
1665	 0.106441852005215 
1666	 0.106406671558306 
1667	 0.106385363846125 
1668	 0.106370335792086 
1669	 0.106358646950002 
1670	 0.106341898186835 
1671	 0.10634027631666 
1672	 0.106360279423829 
1673	 0.106361661071447 
1674	 0.1063602782631 
1675	 0.106360226496704 
1676	 0.106355178579114 
1677	 0.10634573293277 
1678	 0.106337497396077 
1679	 0.106327518934336 
1680	 0.106310574879669 
1681	 0.106291920897933 
1682	 0.10627699146437 
1683	 0.106254332930354 
1684	 0.106210273861264 
1685	 0.106194464348411 
1686	 0.10618520852181 
1687	 0.106189771172697 
1688	 0.10622234433073 
1689	 0.106239105634765 
1690	 0.106268020610591 
1691	 0.106269450802436 
1692	 0.106250513053513 
1693	 0.106238089144774 
1694	 0.106207197365966 
1695	 0.10619397229545 
1696	 0.106190720907123 
1697	 0.106186497935416 
1698	 0.106194665047461 
1699	 0.10618489193036 
1700	 0.106167945975651 
1701	 0.106152805791775 
1702	 0.106122491903501 
1703	 0.10610507278298 
1704	 0.106096586136983 
1705	 0.106086925888755 
1706	 0.106080136289661 
1707	 0.106073305014526 
1708	 0.10606802713635 
1709	 0.106064091740326 
1710	 0.106057967291558 
1711	 0.10605790404152 
1712	 0.106063921017931 
1713	 0.106067619106184 
1714	 0.106076150925437 
1715	 0.106082073663962 
1716	 0.106089351548933 
1717	 0.106083335660288 
1718	 0.106070624027309 
1719	 0.106056652850149 
1720	 0.106032106781216 
1721	 0.106013943723891 
1722	 0.105995160637497 
1723	 0.105984502189509 
1724	 0.10598585575462 
1725	 0.105965505368084 
1726	 0.105938900823368 
1727	 0.105915569003906 
1728	 0.105870307253803 
1729	 0.105849326608991 
1730	 0.105854145715847 
1731	 0.105838195700379 
1732	 0.105819097341308 
1733	 0.105801091244517 
1734	 0.105778036034923 
1735	 0.105745215102992 
1736	 0.105707017751901 
1737	 0.105677032192072 
1738	 0.105646662257202 
1739	 0.10560985709703 
1740	 0.105578703944666 
1741	 0.105540751789337 
1742	 0.105474924366439 
1743	 0.105449371833112 
1744	 0.105446167022292 
1745	 0.105435362796329 
1746	 0.105442778345154 
1747	 0.105434177437399 
1748	 0.105422875792694 
1749	 0.105400716430649 
1750	 0.105370947850725 
1751	 0.105328275774281 
1752	 0.105281261708716 
1753	 0.105250940588761 
1754	 0.105230887256727 
1755	 0.105194793248949 
1756	 0.105174748426489 
1757	 0.105156224536123 
1758	 0.105111673259721 
1759	 0.10510481650143 
1760	 0.105096609069768 
1761	 0.105069732815422 
1762	 0.105071292689362 
1763	 0.105056848432141 
1764	 0.105027447788682 
1765	 0.105013166921215 
1766	 0.104995545234805 
1767	 0.104986084979332 
1768	 0.10498783013376 
1769	 0.104974337862064 
1770	 0.104954717854641 
1771	 0.104924248439298 
1772	 0.104892955696365 
1773	 0.104900448359762 
1774	 0.104898721623607 
1775	 0.104873395084311 
1776	 0.104854430982412 
1777	 0.104822275475877 
1778	 0.104795136019162 
1779	 0.104797668246722 
1780	 0.104801643066461 
1781	 0.104783456212872 
1782	 0.104760010327052 
1783	 0.104732527305403 
1784	 0.104718601800334 
1785	 0.104727255986568 
1786	 0.104716714870858 
1787	 0.104698839087527 
1788	 0.104685161747476 
1789	 0.10465356050077 
1790	 0.104628916325114 
1791	 0.10462473041599 
1792	 0.104608250980962 
1793	 0.104586165983306 
1794	 0.104571337077587 
1795	 0.10453042174314 
1796	 0.1045262075575 
1797	 0.104561410013975 
1798	 0.104560300033723 
1799	 0.104571626153772 
1800	 0.104570593677792 
1801	 0.100944605772447 
1802	 0.101051444756666 
1803	 0.101171172776655 
1804	 0.101315599217415 
1805	 0.101437935044527 
1806	 0.101551418489207 
1807	 0.101675912310257 
1808	 0.101766680332139 
1809	 0.101828085449369 
1810	 0.101885465350236 
1811	 0.10193225132918 
1812	 0.101965080365136 
1813	 0.101969294668349 
1814	 0.101984769534318 
1815	 0.102010211779933 
1816	 0.102015744779206 
1817	 0.102041072797173 
1818	 0.10209829315546 
1819	 0.102120066469385 
1820	 0.102127255889629 
1821	 0.10214245704204 
1822	 0.102144525660554 
1823	 0.102143597880064 
1824	 0.102160471052029 
1825	 0.102174610515434 
1826	 0.102167006049199 
1827	 0.102146790682032 
1828	 0.102126909955956 
1829	 0.102078157352101 
1830	 0.102061000580915 
1831	 0.102056042950813 
1832	 0.102060598179189 
1833	 0.102067031999576 
1834	 0.102071354775334 
1835	 0.1020690294561 
1836	 0.102077436511476 
1837	 0.102079064739919 
1838	 0.102080290825632 
1839	 0.102093103057986 
1840	 0.102116591371113 
1841	 0.102118991473614 
1842	 0.102134681576525 
1843	 0.102171356193824 
1844	 0.102203567330016 
1845	 0.102245808338798 
1846	 0.102292420277908 
1847	 0.102336213268566 
1848	 0.102351124528252 
1849	 0.102362895545049 
1850	 0.102399375424261 
1851	 0.102454942155413 
1852	 0.102498816335194 
1853	 0.102523702994756 
1854	 0.102552281781842 
1855	 0.102550541486229 
1856	 0.102535682859726 
1857	 0.102572522516888 
1858	 0.102603312763827 
1859	 0.102627129296284 
1860	 0.102640509393575 
1861	 0.10265178911704 
1862	 0.102634521542787 
1863	 0.102623287331883 
1864	 0.102575987253376 
1865	 0.102518268856312 
1866	 0.102443228944171 
1867	 0.102338312382203 
1868	 0.102254573037625 
1869	 0.102179733106517 
1870	 0.102119959773063 
1871	 0.102090992358823 
1872	 0.102092535627195 
1873	 0.102113650655284 
1874	 0.102144706864898 
1875	 0.102188017372118 
1876	 0.10221724751149 
1877	 0.10223754338604 
1878	 0.102240305721673 
1879	 0.102223312858805 
1880	 0.102189858773162 
1881	 0.102140680851074 
1882	 0.10206557763194 
1883	 0.101972220603086 
1884	 0.101855345118671 
1885	 0.101716725555954 
1886	 0.101582526589693 
1887	 0.10143648742395 
1888	 0.101271908148094 
1889	 0.101096634865372 
1890	 0.100896265365509 
1891	 0.100697459641279 
1892	 0.100485965980828 
1893	 0.100275690427525 
1894	 0.10006031856838 
1895	 9.98561508541592E-02 
1896	 9.96270611201135E-02 
1897	 9.93777914553274E-02 
1898	 9.91312193600159E-02 
1899	 9.88686075785996E-02 
1900	 0.098623865666663 
1901	 9.83990495438854E-02 
1902	 9.81976097657586E-02 
1903	 9.80306862848926E-02 
1904	 0.097861295086825 
1905	 9.77084261577932E-02 
1906	 9.75685290455683E-02 
1907	 9.74045646422729E-02 
1908	 9.72337483197613E-02 
1909	 9.70756350959965E-02 
1910	 9.69276039583985E-02 
1911	 9.68147026071377E-02 
1912	 9.67010064047609E-02 
1913	 9.65828454469865E-02 
1914	 9.64639195532035E-02 
1915	 0.096354086716439 
1916	 9.62421806222234E-02 
1917	 9.61298398920064E-02 
1918	 9.60474536787093E-02 
1919	 9.59848245116452E-02 
1920	 9.59009192667859E-02 
1921	 9.58327953486286E-02 
1922	 9.57773879573045E-02 
1923	 9.57187775144934E-02 
1924	 0.095683651328646 
1925	 9.56754361975176E-02 
1926	 9.56718139850917E-02 
1927	 9.56874364399626E-02 
1928	 9.56960803234623E-02 
1929	 9.56999494410015E-02 
1930	 9.57176266308816E-02 
1931	 9.57393842464493E-02 
1932	 9.57325265564375E-02 
1933	 0.095738518831156 
1934	 9.57333281039049E-02 
1935	 9.57283972308624E-02 
1936	 9.57131547067486E-02 
1937	 9.57153844330415E-02 
1938	 9.57129949029505E-02 
1939	 9.57311841127407E-02 
1940	 9.57674430821162E-02 
1941	 9.57930383941595E-02 
1942	 9.58430249021223E-02 
1943	 9.59071057374401E-02 
1944	 9.59670697359943E-02 
1945	 9.60302775267442E-02 
1946	 9.61003422440735E-02 
1947	 9.61865517350563E-02 
1948	 9.62460347701522E-02 
1949	 0.096314652487231 
1950	 9.63599747106292E-02 
1951	 9.63795420146079E-02 
1952	 9.63795592001167E-02 
1953	 9.64143379020901E-02 
1954	 0.09644752466401 
1955	 9.64796547754154E-02 
1956	 9.65413770572798E-02 
1957	 9.66019277755424E-02 
1958	 0.096656357277267 
1959	 0.096732544965348 
1960	 9.68370376993535E-02 
1961	 9.69264860135422E-02 
1962	 9.70209536102782E-02 
1963	 9.71141133713347E-02 
1964	 0.097198647534685 
1965	 9.72978568190633E-02 
1966	 9.73903000064552E-02 
1967	 0.097467593244404 
1968	 9.75586280866276E-02 
1969	 0.097649502643631 
1970	 9.77333881250225E-02 
1971	 9.78315580121075E-02 
1972	 9.79099168533623E-02 
1973	 9.79674697401513E-02 
1974	 9.80324159390618E-02 
1975	 9.80871438419615E-02 
1976	 9.81505396141466E-02 
1977	 9.82368576991445E-02 
1978	 9.83157702534154E-02 
1979	 9.83934761015622E-02 
1980	 9.84799889519185E-02 
1981	 9.85643763308259E-02 
1982	 9.86403688365844E-02 
1983	 9.87195421429359E-02 
1984	 9.88097671652916E-02 
1985	 9.88898753704999E-02 
1986	 9.89555489546951E-02 
1987	 9.90356293338393E-02 
1988	 9.91209172939999E-02 
1989	 9.92062392230853E-02 
1990	 9.93133882702536E-02 
1991	 9.94019095684476E-02 
1992	 0.099470889642851 
1993	 0.099517295597731 
1994	 9.95859242558649E-02 
1995	 0.099637034198134 
1996	 9.97095034275793E-02 
1997	 9.98184468848588E-02 
1998	 9.99010879927621E-02 
1999	 9.99743063068758E-02 
2000	 0.100046271364502 
2001	 0.100105489657525 
2002	 0.100170902034951 
2003	 0.100246076890229 
2004	 0.100313911467331 
2005	 0.100394030412552 
2006	 0.100493214747729 
2007	 0.100571033845022 
2008	 0.100640943562283 
2009	 0.100714494126442 
2010	 0.100782553452154 
2011	 0.100847252518131 
2012	 0.100917407134892 
2013	 0.100982508322358 
2014	 0.10104276614458 
2015	 0.101083613380095 
2016	 0.101150441436871 
2017	 0.101217664599495 
2018	 0.101295971102191 
2019	 0.101395612454788 
2020	 0.101476845092925 
2021	 0.10156104081221 
2022	 0.101636178359914 
2023	 0.101700564870792 
2024	 0.101765457377954 
2025	 0.10181594109395 
2026	 0.101879776585319 
2027	 0.101947870662184 
2028	 0.102018608617296 
2029	 0.102093327780688 
2030	 0.102188181838463 
2031	 0.102249797387353 
2032	 0.102293246215718 
2033	 0.102352498455221 
2034	 0.10239225622208 
2035	 0.102458430212084 
2036	 0.102549704727479 
2037	 0.10263092407705 
2038	 0.102732694062935 
2039	 0.102806623068934 
2040	 0.102867316080391 
2041	 0.10292520776763 
2042	 0.102959438597796 
2043	 0.102990280684978 
2044	 0.103037122129751 
2045	 0.103091644182733 
2046	 0.103143904089855 
2047	 0.10321201671932 
2048	 0.1032585725429 
2049	 0.103299939811752 
2050	 0.103331399769153 
2051	 0.103322331124855 
2052	 0.103357343293674 
2053	 0.10342163835885 
2054	 0.103467126987025 
2055	 0.103523763262564 
2056	 0.103587486872404 
2057	 0.103638452262286 
2058	 0.103659116932448 
2059	 0.103711028341597 
2060	 0.103791397200769 
2061	 0.103843602883127 
2062	 0.103884148995758 
2063	 0.103933694583626 
2064	 0.10397975522732 
2065	 0.104020007420072 
2066	 0.104058043177104 
2067	 0.104107272181784 
2068	 0.104159207516239 
2069	 0.104198397306777 
2070	 0.104251808517745 
2071	 0.104325986262194 
2072	 0.104381004511032 
2073	 0.104436096543517 
2074	 0.104470802840308 
2075	 0.104470801674268 
2076	 0.104518153071662 
2077	 0.104588885413734 
2078	 0.104632298530462 
2079	 0.104696793111345 
2080	 0.104745864933362 
2081	 0.10474412240529 
2082	 0.104772223345331 
2083	 0.104829475300788 
2084	 0.104887460567444 
2085	 0.104909979734397 
2086	 0.104907821160503 
2087	 0.104939144064268 
2088	 0.10494912191905 
2089	 0.104996669311904 
2090	 0.105096479691519 
2091	 0.105163245017576 
2092	 0.105235413197059 
2093	 0.105287371838332 
2094	 0.105321452516949 
2095	 0.105358272634586 
2096	 0.10536839036709 
2097	 0.105402616605745 
2098	 0.105447366885138 
2099	 0.105506695358165 
2100	 0.10554956369942 
2101	 0.1055970999342 
2102	 0.105644221267842 
2103	 0.105675254195711 
2104	 0.105726074841771 
2105	 0.105802818956422 
2106	 0.105854428839154 
2107	 0.105884210437604 
2108	 0.105942785025824 
2109	 0.106022586035433 
2110	 0.106075114283073 
2111	 0.106123924045853 
2112	 0.106182789712126 
2113	 0.10622996883911 
2114	 0.106267692025608 
2115	 0.106319108281946 
2116	 0.106401687763492 
2117	 0.10644867737743 
2118	 0.106474746179792 
2119	 0.10650684898835 
2120	 0.106527708653141 
2121	 0.106560793840316 
2122	 0.106594985858208 
2123	 0.106632493850099 
2124	 0.106693123489321 
2125	 0.106724006196435 
2126	 0.106731859537325 
2127	 0.106752470792679 
2128	 0.106762368558481 
2129	 0.106775452863777 
2130	 0.10680039742433 
2131	 0.106829034869608 
2132	 0.106834348304507 
2133	 0.106817557618528 
2134	 0.106820353859156 
2135	 0.106816273864608 
2136	 0.10682290451846 
2137	 0.106853198098365 
2138	 0.10685872874287 
2139	 0.106859107340261 
2140	 0.106850152938194 
2141	 0.106814940274667 
2142	 0.106800436586691 
2143	 0.106801675299864 
2144	 0.106782627563127 
2145	 0.106772698344365 
2146	 0.106744339542298 
2147	 0.106690970811132 
2148	 0.106629973399474 
2149	 0.10657185511886 
2150	 0.106501434637192 
2151	 0.106449605279748 
2152	 0.106412675430493 
2153	 0.106354864905387 
2154	 0.106301005574429 
2155	 0.106236131632683 
2156	 0.106152029585051 
2157	 0.106069548305394 
2158	 0.105977772983773 
2159	 0.105898747708462 
2160	 0.105825116360046 
2161	 0.105743270326816 
2162	 0.10566080534673 
2163	 0.105587826495162 
2164	 0.105512243571597 
2165	 0.105438440208966 
2166	 0.105363619015563 
2167	 0.105300859461851 
2168	 0.105230484742901 
2169	 0.105152325000736 
2170	 0.105074463613683 
2171	 0.10501075361151 
2172	 0.104920213031364 
2173	 0.104806385040847 
2174	 0.104700475623671 
2175	 0.104567514740915 
2176	 0.104471643639448 
2177	 0.104406707107425 
2178	 0.104325596057391 
2179	 0.104253251933665 
2180	 0.104180662310081 
2181	 0.104091429374492 
2182	 0.104013817840549 
2183	 0.103938991615973 
2184	 0.103894936761662 
2185	 0.103828780256881 
2186	 0.103754419482641 
2187	 0.103695736999799 
2188	 0.103649427309217 
2189	 0.103577605334497 
2190	 0.103495754934708 
2191	 0.103432696052653 
2192	 0.10335741048131 
2193	 0.103294068522298 
2194	 0.103264958235797 
2195	 0.103209812099511 
2196	 0.103124057543928 
2197	 0.103065113120222 
2198	 0.103017182093798 
2199	 0.102968650170819 
2200	 0.102937185934531 
2201	 0.10289623657531 
2202	 0.102846247963193 
2203	 0.102796783976666 
2204	 0.102761730356048 
2205	 0.102722628123404 
2206	 0.102720936179059 
2207	 0.102759117425738 
2208	 0.102757289875848 
2209	 0.10275690408891 
2210	 0.102757854202535 
2211	 0.102738282474853 
2212	 0.102728882037156 
2213	 0.102737864288497 
2214	 0.102738852982151 
2215	 0.102717132721931 
2216	 0.102719800678499 
2217	 0.102758757952841 
2218	 0.102763550666834 
2219	 0.102746955206943 
2220	 0.10275024522289 
2221	 0.102740212952823 
2222	 0.102738998895417 
2223	 0.102786590414239 
2224	 0.102810721013037 
2225	 0.102829606360404 
2226	 0.102844675905052 
2227	 0.102858618933186 
2228	 0.102859530991655 
2229	 0.102872908197992 
2230	 0.10288787087852 
2231	 0.102908651241272 
2232	 0.102937496421892 
2233	 0.102965025583985 
2234	 0.103002849714804 
2235	 0.10302886081154 
2236	 0.103048522591589 
2237	 0.103065628384489 
2238	 0.103068723805485 
2239	 0.103083739739887 
2240	 0.103120122297172 
2241	 0.10313155609095 
2242	 0.103121693316754 
2243	 0.103129928188547 
2244	 0.103143084943297 
2245	 0.103132244702469 
2246	 0.103131010239903 
2247	 0.103162462665503 
2248	 0.103172865079324 
2249	 0.103161260617746 
2250	 0.10318236952747 
2251	 0.103225811017899 
2252	 0.103250567794923 
2253	 0.103281562413129 
2254	 0.103305813194867 
2255	 0.103315251027497 
2256	 0.103335778981716 
2257	 0.10336742253946 
2258	 0.103390812949118 
2259	 0.103411888025859 
2260	 0.103427768133325 
2261	 0.103435967361938 
2262	 0.103447985146779 
2263	 0.103464898798579 
2264	 0.103473180751114 
2265	 0.103468873285337 
2266	 0.103478526634961 
2267	 0.103489858379335 
2268	 0.103498225565773 
2269	 0.103500117360486 
2270	 0.103537412199817 
2271	 0.103554755254786 
2272	 0.103585061022884 
2273	 0.10364211956258 
2274	 0.10367304027504 
2275	 0.103695782218273 
2276	 0.10371323398453 
2277	 0.103708768540967 
2278	 0.103667901686211 
2279	 0.10367581396894 
2280	 0.103673623870529 
2281	 0.103716254576668 
2282	 0.103836638329251 
2283	 0.103875355985484 
2284	 0.103904364860598 
2285	 0.103916828439421 
2286	 0.10386687797799 
2287	 0.103857228526062 
2288	 0.103856509171656 
2289	 0.103868654016657 
2290	 0.103888071498894 
2291	 0.103914935096983 
2292	 0.103983098624099 
2293	 0.104005728615754 
2294	 0.103997088896515 
2295	 0.104015631621625 
2296	 0.10401783398775 
2297	 0.104032182625077 
2298	 0.104093210845229 
2299	 0.104125231784894 
2300	 0.104112922978851 
2301	 0.104108182542084 
2302	 0.104121201271177 
2303	 0.104134410030287 
2304	 0.104168798773911 
2305	 0.10423153024826 
2306	 0.104250960447162 
2307	 0.104240353781895 
2308	 0.10423462639708 
2309	 0.104205997835833 
2310	 0.104188347561894 
2311	 0.10417646349919 
2312	 0.104165373302274 
2313	 0.104151971930356 
2314	 0.10415688103299 
2315	 0.104181477615481 
2316	 0.104176170965038 
2317	 0.104171458586289 
2318	 0.104150919160844 
2319	 0.104078200001362 
2320	 0.104059313556411 
2321	 0.10406162479467 
2322	 0.104078016481729 
2323	 0.104133659003816 
2324	 0.104169302335733 
2325	 0.104188368451892 
2326	 0.10424264013236 
2327	 0.104332267324896 
2328	 0.104397380470756 
2329	 0.104426358180442 
2330	 0.104465776162611 
2331	 0.104483307307514 
2332	 0.104510907422569 
2333	 0.104544455927725 
2334	 0.104538634193713 
2335	 0.104533873225923 
2336	 0.104498434004581 
2337	 0.104495148388197 
2338	 0.104549060955789 
2339	 0.104533300301628 
2340	 0.104526864588698 
2341	 0.104601086149043 
2342	 0.104651529504088 
2343	 0.104663551585895 
2344	 0.104685587021692 
2345	 0.104718153509459 
2346	 0.104705406419444 
2347	 0.104735603717811 
2348	 0.104841394028158 
2349	 0.104856812415079 
2350	 0.104806245885343 
2351	 0.104806316408821 
2352	 0.104810848855295 
2353	 0.104814603319104 
2354	 0.104850578825073 
2355	 0.104836968474359 
2356	 0.104777116755679 
2357	 0.104745900323168 
2358	 0.104697503293072 
2359	 0.104668781968938 
2360	 0.104675110291578 
2361	 0.104651396904066 
2362	 0.104610335599498 
2363	 0.104600144236713 
2364	 0.10459416927875 
2365	 0.104573752133585 
2366	 0.104575829318425 
2367	 0.104559306583249 
2368	 0.104502538058824 
2369	 0.104482461579433 
2370	 0.104468960676225 
2371	 0.104481375225592 
2372	 0.104513887356688 
2373	 0.104525553146535 
2374	 0.104520735454105 
2375	 0.104474846518649 
2376	 0.104402181643041 
2377	 0.104308884040676 
2378	 0.104270779488732 
2379	 0.104281701713721 
2380	 0.104292319865203 
2381	 0.104311554577096 
2382	 0.104252086324794 
2383	 0.104179355661994 
2384	 0.104114645577299 
2385	 0.104078480750733 
2386	 0.104101038875671 
2387	 0.104019115239495 
2388	 0.103908511870721 
2389	 0.103888513554677 
2390	 0.103893419891511 
2391	 0.103937401015241 
2392	 0.10402199976439 
2393	 0.103983583334515 
2394	 0.10385680480942 
2395	 0.10377570704615 
2396	 0.103721942863771 
2397	 0.103682406904015 
2398	 0.103644620442088 
2399	 0.103640844682142 
2400	 0.103627302684879 
2401	 0.103609871025304 
2402	 0.103641093106535 
2403	 0.103652446540581 
2404	 0.103557382339453 
2405	 0.103461777249021 
2406	 0.103398011516336 
2407	 0.103252025936487 
2408	 0.103205408364138 
2409	 0.103235189396989 
2410	 0.103260413720417 
2411	 0.103340425754362 
2412	 0.10325260670481 
2413	 0.103143842804473 
2414	 0.103084876048775 
2415	 0.102867219386332 
2416	 0.102777732547277 
2417	 0.102846579435927 
2418	 0.102796787805534 
2419	 0.102716004598193 
2420	 0.102706034734585 
2421	 0.102692087231047 
2422	 0.102676623900079 
2423	 0.102668653908685 
2424	 0.102699892115067 
2425	 0.102783729083863 
2426	 0.102735149339006 
2427	 0.102673107072224 
2428	 0.102568363292632 
2429	 0.102294085875548 
2430	 0.102187589936657 
2431	 0.102197671311269 
2432	 0.102150148167863 
2433	 0.102136600644727 
2434	 0.102112313791903 
2435	 0.102026219213598 
2436	 0.102019786664425 
2437	 0.10209693011807 
2438	 0.102050777176881 
2439	 0.101977265922924 
2440	 0.10190202796416 
2441	 0.101740971344275 
2442	 0.101670000976816 
2443	 0.101671375182311 
2444	 0.101661011211461 
2445	 0.101644450904403 
2446	 0.101593375369987 
2447	 0.101544431099993 
2448	 0.1014907771447 
2449	 0.101433282361342 
2450	 0.10139555389675 
2451	 0.101393842900454 
2452	 0.101329366565137 
2453	 0.101201125408586 
2454	 0.101109911954058 
2455	 0.101004299765301 
2456	 0.100870269167839 
2457	 0.1007342433301 
2458	 0.100623873275955 
2459	 0.100461976729947 
2460	 0.100444869198041 
2461	 0.100545146490089 
2462	 0.100639541040095 
2463	 0.100866673090498 
2464	 0.100864486285305 
2465	 0.100774160184649 
2466	 0.100604359825446 
2467	 0.100163756346114 
2468	 0.10008827925146 
2469	 0.100165861926648 
2470	 0.100292993644363 
2471	 0.100484394621201 
2472	 0.100450914938554 
2473	 0.100349025920504 
2474	 0.100207594690618 
2475	 9.99371788647546E-02 
2476	 9.97697600718477E-02 
2477	 9.97151134948739E-02 
2478	 9.97681227122429E-02 
2479	 9.99334999540644E-02 
2480	 9.99997113596847E-02 
2481	 9.98988423173533E-02 
2482	 9.97994780994505E-02 
2483	 0.099649640441581 
2484	 9.93895824935523E-02 
2485	 9.92529609867577E-02 
2486	 9.91876244250229E-02 
2487	 9.91333524261292E-02 
2488	 9.91742644163411E-02 
2489	 0.099210808570873 
2490	 9.91494565234037E-02 
2491	 0.099159366609376 
2492	 9.91871450218594E-02 
2493	 9.91623054673207E-02 
2494	 9.91967378794421E-02 
2495	 0.099086731742258 
2496	 0.099111596919331 
2497	 9.92534377769177E-02 
2498	 9.90835737073969E-02 
2499	 9.88837759140597E-02 
2500	 9.88682982935577E-02 
