Wavelength	LMW_13_a00004.asd
350	 4.89569096254218E-02 
351	 4.39006869715996E-02 
352	 4.24480360628801E-02 
353	 4.30979781574291E-02 
354	 4.50072354770988E-02 
355	 0.042292344719544 
356	 4.27488565130259E-02 
357	 5.13383823258518E-02 
358	 4.93587379700594E-02 
359	 4.45785104609735E-02 
360	 4.27069989125013E-02 
361	 4.62422720228874E-02 
362	 4.44701467061549E-02 
363	 4.08482131835025E-02 
364	 3.88038646609147E-02 
365	 3.85979465988584E-02 
366	 4.02294550277441E-02 
367	 4.16701661389439E-02 
368	 4.17597772062322E-02 
369	 4.52923384804311E-02 
370	 4.46131069993262E-02 
371	 4.17217675034411E-02 
372	 4.43993273930764E-02 
373	 4.39874976125147E-02 
374	 4.40979933069601E-02 
375	 4.66286846251063E-02 
376	 4.80704368413075E-02 
377	 4.57692300494485E-02 
378	 4.41076391360518E-02 
379	 4.69591786627612E-02 
380	 4.63094306057409E-02 
381	 4.59567722954431E-02 
382	 4.70728850856474E-02 
383	 4.83700757347531E-02 
384	 4.74224472450444E-02 
385	 4.69008577740391E-02 
386	 4.80605933905486E-02 
387	 4.78579320213048E-02 
388	 5.09339096555423E-02 
389	 5.31713765490369E-02 
390	 5.01416659765419E-02 
391	 4.94142111438597E-02 
392	 0.050550642128984 
393	 5.30051367702495E-02 
394	 0.056292514141133 
395	 5.67446526154227E-02 
396	 5.63090548687437E-02 
397	 5.69704327649963E-02 
398	 5.88139083047034E-02 
399	 6.00611029652448E-02 
400	 6.04660142341284E-02 
401	 6.05901556263732E-02 
402	 6.19022004967794E-02 
403	 6.17280122814601E-02 
404	 0.060516351401304 
405	 6.18860528431206E-02 
406	 6.31422532466251E-02 
407	 0.064240437470835 
408	 6.52199729650306E-02 
409	 6.49069024899968E-02 
410	 6.41601482028862E-02 
411	 6.39438125026209E-02 
412	 6.48849578647146E-02 
413	 6.51278380763383E-02 
414	 6.48989429905562E-02 
415	 6.44394547820801E-02 
416	 6.37144363619349E-02 
417	 6.35284771244024E-02 
418	 6.37387074485179E-02 
419	 6.38254041961006E-02 
420	 6.28938491119989E-02 
421	 6.18504067327943E-02 
422	 6.14443558467208E-02 
423	 6.20526752384573E-02 
424	 6.16569074383083E-02 
425	 6.04856880899789E-02 
426	 5.92812029510781E-02 
427	 5.91439933679744E-02 
428	 5.89582816063945E-02 
429	 5.84290819570288E-02 
430	 5.77524481126176E-02 
431	 0.058168179183161 
432	 0.058182421618946 
433	 5.78439074163184E-02 
434	 5.87051219917267E-02 
435	 5.93369847274264E-02 
436	 0.059849972454348 
437	 6.04413646231062E-02 
438	 0.060592097014671 
439	 0.061651420243472 
440	 6.32919947051428E-02 
441	 0.064402134549319 
442	 6.50276943352443E-02 
443	 0.065905500828322 
444	 6.72164098757075E-02 
445	 6.82330765135769E-02 
446	 6.89811348432819E-02 
447	 6.97621767922514E-02 
448	 7.08497354762797E-02 
449	 7.19693802253334E-02 
450	 7.32023701944628E-02 
451	 7.44257706966398E-02 
452	 7.53683152197065E-02 
453	 7.63261607912592E-02 
454	 7.72773511173413E-02 
455	 7.82179482469123E-02 
456	 7.93660309339255E-02 
457	 8.03606427981694E-02 
458	 8.12291693846538E-02 
459	 8.21424504388875E-02 
460	 8.28574053206375E-02 
461	 8.34799498590304E-02 
462	 8.42198843039826E-02 
463	 8.53897241744454E-02 
464	 8.64176985095669E-02 
465	 8.74836542712281E-02 
466	 8.87541117163457E-02 
467	 0.089447393687466 
468	 9.01689111923574E-02 
469	 0.091034851900038 
470	 9.17607002567199E-02 
471	 9.27281956561236E-02 
472	 0.093536024445334 
473	 9.40517787389795E-02 
474	 9.51064419229955E-02 
475	 9.59468059432319E-02 
476	 9.65318822708021E-02 
477	 9.71335401175171E-02 
478	 9.78334131837869E-02 
479	 9.85793670599366E-02 
480	 9.92790023552413E-02 
481	 9.98010935344516E-02 
482	 0.100532930356727 
483	 0.101344827590835 
484	 0.101998695020405 
485	 0.102459496472954 
486	 0.102926358893192 
487	 0.103420988909528 
488	 0.103822214986652 
489	 0.104271721851707 
490	 0.104701688221569 
491	 0.105034552487815 
492	 0.105225385916423 
493	 0.105591377666572 
494	 0.106113593159322 
495	 0.106601220378279 
496	 0.106974414145148 
497	 0.107212895190182 
498	 0.107377535733414 
499	 0.107630463386642 
500	 0.107902341563523 
501	 0.108091206623911 
502	 0.108152247065627 
503	 0.108323510768586 
504	 0.10856903569433 
505	 0.10879960174856 
506	 0.108901026658233 
507	 0.109091536582597 
508	 0.109264296056352 
509	 0.109320214762069 
510	 0.10934062023046 
511	 0.109409171908555 
512	 0.109512595577363 
513	 0.10958691479527 
514	 0.109644555325119 
515	 0.109779235864176 
516	 0.109959078752216 
517	 0.109911955413379 
518	 0.109990246372986 
519	 0.110138435348474 
520	 0.110196454437495 
521	 0.110218984014233 
522	 0.110224657333471 
523	 0.110257687472098 
524	 0.110385586473005 
525	 0.110387676594237 
526	 0.110355496444398 
527	 0.110407029232916 
528	 0.110513010451358 
529	 0.110594603454961 
530	 0.110663908095094 
531	 0.11078018313281 
532	 0.110770227021947 
533	 0.110834662423411 
534	 0.111030423510539 
535	 0.111000517752926 
536	 0.110979110817383 
537	 0.111048218632431 
538	 0.111212647694236 
539	 0.111370961250656 
540	 0.111478334845539 
541	 0.111555229791722 
542	 0.111698018294452 
543	 0.111833906449828 
544	 0.111954105677033 
545	 0.112079533827438 
546	 0.112289078832511 
547	 0.112432170879935 
548	 0.112517415096971 
549	 0.112685555160659 
550	 0.112831293239461 
551	 0.112923182670732 
552	 0.11301327585214 
553	 0.113361246914892 
554	 0.113572337621228 
555	 0.113678825434189 
556	 0.113910992649069 
557	 0.114053759549523 
558	 0.11422458585288 
559	 0.114502422915896 
560	 0.114843838235152 
561	 0.115192436059502 
562	 0.115492086746944 
563	 0.115717228459417 
564	 0.11597924533395 
565	 0.116209790891377 
566	 0.116471701374164 
567	 0.11697792382248 
568	 0.117409446243514 
569	 0.117731572540637 
570	 0.11798619950023 
571	 0.11819368799579 
572	 0.118492679187434 
573	 0.118922448682734 
574	 0.119430012946403 
575	 0.119798704277926 
576	 0.12019337520511 
577	 0.120708561806071 
578	 0.121133603201303 
579	 0.12167055676935 
580	 0.122283942156913 
581	 0.122848480582556 
582	 0.123403987022227 
583	 0.123842484755318 
584	 0.124172263723763 
585	 0.124578796107231 
586	 0.125027693999491 
587	 0.125509062730601 
588	 0.126028616186327 
589	 0.126670790979988 
590	 0.127278620256362 
591	 0.127805008195457 
592	 0.128315543105094 
593	 0.128828466554866 
594	 0.129454440525162 
595	 0.130218835659744 
596	 0.130898775457236 
597	 0.131545448165662 
598	 0.132147729453857 
599	 0.132673066793617 
600	 0.133151919619361 
601	 0.133562515037346 
602	 0.133930370022149 
603	 0.134375449179098 
604	 0.134908799664247 
605	 0.135448288682397 
606	 0.135916991733957 
607	 0.136493249299014 
608	 0.13705283448314 
609	 0.137533543284449 
610	 0.137965707603532 
611	 0.138295924527435 
612	 0.138646853935968 
613	 0.139091822097454 
614	 0.139405637745316 
615	 0.139658542495541 
616	 0.139936101422989 
617	 0.140316225019076 
618	 0.140677009928838 
619	 0.140952842194832 
620	 0.14115638544489 
621	 0.141443794766527 
622	 0.141736163406812 
623	 0.142001066976969 
624	 0.14222608336772 
625	 0.142414353662178 
626	 0.142671582313912 
627	 0.142986703103967 
628	 0.143186717037841 
629	 0.143409145311741 
630	 0.143618935700926 
631	 0.143772068162061 
632	 0.14396203759541 
633	 0.144226296179797 
634	 0.144467237738059 
635	 0.144508794618354 
636	 0.144738596390576 
637	 0.145040306856229 
638	 0.145265669279405 
639	 0.145407456692942 
640	 0.145585192669929 
641	 0.145790047617806 
642	 0.14596286017985 
643	 0.146183286546354 
644	 0.146385570267859 
645	 0.146550006666564 
646	 0.146741938388627 
647	 0.146937227195116 
648	 0.147126181578118 
649	 0.147305282957654 
650	 0.147482308468544 
651	 0.147663175593288 
652	 0.147849628398994 
653	 0.148042789518366 
654	 0.148305257078615 
655	 0.148540738374733 
656	 0.148692437790145 
657	 0.148870092452032 
658	 0.149044854155008 
659	 0.149258395737132 
660	 0.149552364821865 
661	 0.14973304362991 
662	 0.149878925457938 
663	 0.150064304194427 
664	 0.150316819351176 
665	 0.150608272643561 
666	 0.1508129570449 
667	 0.150870475104892 
668	 0.15108140868029 
669	 0.151360592887992 
670	 0.151616334165906 
671	 0.15176981789036 
672	 0.151896399056124 
673	 0.152119748014864 
674	 0.152450773934661 
675	 0.152615350851428 
676	 0.152816894224827 
677	 0.153055934916459 
678	 0.153266657479953 
679	 0.153568583191912 
680	 0.153807859574155 
681	 0.153945519028753 
682	 0.154118658285275 
683	 0.154370584319813 
684	 0.154661521521614 
685	 0.154925677590957 
686	 0.155101250983046 
687	 0.155314480878644 
688	 0.155584090398081 
689	 0.155846716037118 
690	 0.156076595255445 
691	 0.156293944998304 
692	 0.156517477848198 
693	 0.156750451066526 
694	 0.156932075023992 
695	 0.157153221903318 
696	 0.157505105176875 
697	 0.157765326973246 
698	 0.157968101007209 
699	 0.15817004077371 
700	 0.158429380754052 
701	 0.158624268262951 
702	 0.158837861667783 
703	 0.159117209331936 
704	 0.159270892715298 
705	 0.159510424904935 
706	 0.159798781484841 
707	 0.159986148211052 
708	 0.160163829521851 
709	 0.160385230552475 
710	 0.160640738395894 
711	 0.160836713241496 
712	 0.161074308652173 
713	 0.161285796333133 
714	 0.161409229981877 
715	 0.161576541055571 
716	 0.161791896695878 
717	 0.162001274245047 
718	 0.162121506552445 
719	 0.162242044830868 
720	 0.162395490466799 
721	 0.162570419282134 
722	 0.162686203094321 
723	 0.162840267906427 
724	 0.162979159151725 
725	 0.16303313104939 
726	 0.163116493222455 
727	 0.163239321744001 
728	 0.163353757945241 
729	 0.16337175117817 
730	 0.163384823494284 
731	 0.163460794165566 
732	 0.163580618320822 
733	 0.163521118401113 
734	 0.163547763231804 
735	 0.163574193376974 
736	 0.163430914518085 
737	 0.163387860483408 
738	 0.16339777930642 
739	 0.163401642713601 
740	 0.163356050300448 
741	 0.16329202157933 
742	 0.163190783954055 
743	 0.163039237798057 
744	 0.162860501340571 
745	 0.162681062809343 
746	 0.162544084509614 
747	 0.162466069969365 
748	 0.162243564017551 
749	 0.162027981013162 
750	 0.161871898683181 
751	 0.161670972023333 
752	 0.161465830450738 
753	 0.161249028194 
754	 0.161009254117192 
755	 0.160745955399783 
756	 0.160519729071649 
757	 0.160303420274915 
758	 0.160033387407833 
759	 0.15975418594937 
760	 0.159436985455571 
761	 0.159103300905295 
762	 0.158841152783872 
763	 0.158532082990108 
764	 0.158217208833471 
765	 0.157941950794701 
766	 0.15765298054406 
767	 0.157337451075017 
768	 0.156986901436675 
769	 0.156610384121941 
770	 0.156308997406899 
771	 0.155985087337517 
772	 0.155605983487526 
773	 0.15523834325747 
774	 0.154887936497223 
775	 0.154580792168867 
776	 0.154302304548887 
777	 0.153917879083407 
778	 0.153573240759173 
779	 0.153274421675939 
780	 0.152960449602513 
781	 0.152607203633916 
782	 0.152204715359406 
783	 0.151791171898573 
784	 0.15144875682718 
785	 0.151144180979588 
786	 0.150827580708633 
787	 0.150484708078019 
788	 0.150201865153463 
789	 0.149849218829104 
790	 0.149469769547153 
791	 0.149145983379339 
792	 0.148785368622074 
793	 0.148472762948635 
794	 0.148209466164038 
795	 0.147919179385952 
796	 0.147583612112524 
797	 0.147225554923767 
798	 0.146878151770354 
799	 0.146578068965939 
800	 0.146272752179149 
801	 0.145949798606089 
802	 0.145635581555536 
803	 0.145460442099792 
804	 0.145214370933208 
805	 0.14488668129273 
806	 0.144593643821869 
807	 0.144308142539092 
808	 0.143988538992296 
809	 0.143668646102388 
810	 0.143475182629125 
811	 0.143269394736088 
812	 0.143008406453699 
813	 0.1427071087769 
814	 0.142468947309543 
815	 0.142213033974026 
816	 0.141963555442182 
817	 0.141766858166247 
818	 0.141545115100776 
819	 0.141319721163608 
820	 0.141092540129172 
821	 0.140848932959037 
822	 0.140630019711767 
823	 0.140439639911524 
824	 0.140260096850379 
825	 0.140051087301574 
826	 0.139820868685751 
827	 0.139594378328043 
828	 0.139409801757399 
829	 0.13934139739181 
830	 0.139190266103846 
831	 0.1389648078387 
832	 0.138778329935351 
833	 0.138667820294495 
834	 0.138537529920064 
835	 0.1383663988338 
836	 0.13821154781691 
837	 0.138039498514577 
838	 0.137917277982295 
839	 0.137846602267632 
840	 0.137694953187716 
841	 0.137552158358852 
842	 0.137419297840879 
843	 0.137289650305374 
844	 0.137212749663789 
845	 0.137119520902823 
846	 0.136995475179094 
847	 0.136865649406553 
848	 0.136803775483884 
849	 0.136732509526962 
850	 0.136643699047476 
851	 0.136590620042019 
852	 0.136530643081996 
853	 0.136456014780544 
854	 0.136379949648167 
855	 0.136336988728636 
856	 0.136299198642947 
857	 0.136296976555558 
858	 0.136310797501184 
859	 0.136146978018479 
860	 0.136091289974512 
861	 0.136109519888248 
862	 0.136076500576688 
863	 0.136023568725684 
864	 0.136033423429567 
865	 0.13607348093822 
866	 0.13605208853578 
867	 0.136021086475247 
868	 0.135999822163811 
869	 0.135997509474643 
870	 0.136013998132321 
871	 0.13603606619705 
872	 0.136140118756588 
873	 0.136292593439252 
874	 0.136271221527968 
875	 0.136241293390492 
876	 0.13622298743028 
877	 0.136220352386253 
878	 0.136289956327736 
879	 0.136389025959803 
880	 0.13648792128639 
881	 0.136574364396698 
882	 0.136690202965047 
883	 0.136771553569728 
884	 0.13680635276504 
885	 0.136843003042828 
886	 0.137083125344819 
887	 0.137269258531565 
888	 0.137338470978613 
889	 0.137425570900947 
890	 0.137558211624812 
891	 0.137692712605847 
892	 0.13778739897372 
893	 0.137827887128333 
894	 0.137977999454995 
895	 0.138167817461083 
896	 0.138323036426725 
897	 0.138451399747778 
898	 0.138653368036046 
899	 0.1388485280037 
900	 0.138977599361177 
901	 0.139171749823277 
902	 0.139332431546841 
903	 0.139496913384979 
904	 0.139702661805433 
905	 0.139794309137901 
906	 0.140057613366758 
907	 0.140369329596428 
908	 0.140494275155455 
909	 0.140735654175787 
910	 0.140946094623359 
911	 0.141145034129326 
912	 0.141442837116719 
913	 0.141685048577894 
914	 0.14192002416698 
915	 0.142166790530138 
916	 0.14241189869131 
917	 0.142747622268773 
918	 0.14303036262374 
919	 0.14322025240176 
920	 0.143435269622997 
921	 0.14380293448496 
922	 0.14411362897575 
923	 0.144313246450018 
924	 0.144650259436732 
925	 0.144955854059147 
926	 0.145229161093114 
927	 0.145516646866181 
928	 0.145881576701113 
929	 0.146235686008722 
930	 0.146611040130354 
931	 0.146996742721375 
932	 0.147211019595005 
933	 0.147538169154681 
934	 0.147924180343943 
935	 0.148279683174483 
936	 0.148737331719219 
937	 0.149110817037827 
938	 0.149442002383656 
939	 0.149827650589483 
940	 0.15026820622546 
941	 0.150604361285741 
942	 0.150953746412944 
943	 0.151444638027428 
944	 0.151776851956677 
945	 0.15214411490087 
946	 0.152594454290714 
947	 0.153070740058383 
948	 0.15340222215018 
949	 0.153863363093216 
950	 0.154392355071907 
951	 0.154804558898634 
952	 0.155284595346061 
953	 0.155752373545299 
954	 0.156153282525623 
955	 0.156500206035685 
956	 0.157022964603974 
957	 0.157548394551118 
958	 0.157971275507234 
959	 0.158292549295139 
960	 0.158711530157863 
961	 0.159233231063763 
962	 0.159843473979371 
963	 0.160492698071417 
964	 0.160998480315177 
965	 0.161480056159495 
966	 0.161985921152128 
967	 0.162499216588766 
968	 0.163025001409232 
969	 0.163512880828792 
970	 0.16396632893193 
971	 0.164446865784182 
972	 0.165118135112958 
973	 0.165692134458369 
974	 0.166080615949317 
975	 0.166417677273483 
976	 0.167065588518693 
977	 0.167663106582518 
978	 0.16812101186738 
979	 0.16859101713942 
980	 0.169253346227978 
981	 0.169867094581213 
982	 0.170403281345914 
983	 0.170974534585095 
984	 0.171558262875622 
985	 0.172134775649687 
986	 0.172669311003621 
987	 0.173151962828929 
988	 0.173716897189735 
989	 0.174275603154385 
990	 0.174746753695029 
991	 0.175158946236908 
992	 0.175942620443682 
993	 0.176651754733255 
994	 0.177210260026558 
995	 0.177714265858128 
996	 0.178073203841758 
997	 0.178726852784366 
998	 0.179460099107543 
999	 0.179967233656828 
1000	 0.180662677645713 
1001	 0.180118892737247 
1002	 0.180723352877812 
1003	 0.181253383169473 
1004	 0.18178713374523 
1005	 0.182341160392191 
1006	 0.182858351913494 
1007	 0.183319489006476 
1008	 0.183828935592515 
1009	 0.184349967451876 
1010	 0.184845982443782 
1011	 0.185394198568894 
1012	 0.185970184019101 
1013	 0.186535086255846 
1014	 0.187049234425545 
1015	 0.187533388534732 
1016	 0.18802169001063 
1017	 0.188504873772429 
1018	 0.188967550235356 
1019	 0.189469203510504 
1020	 0.189968662605817 
1021	 0.190411025200039 
1022	 0.190852909949079 
1023	 0.191283898751197 
1024	 0.191733275875946 
1025	 0.192202615811179 
1026	 0.192610713585717 
1027	 0.193001994809475 
1028	 0.193334527057534 
1029	 0.193673305117356 
1030	 0.194085599292408 
1031	 0.194480269203076 
1032	 0.19489766056275 
1033	 0.195336394590882 
1034	 0.195704935556418 
1035	 0.195987641357527 
1036	 0.19627651997848 
1037	 0.196583347201314 
1038	 0.19685872724679 
1039	 0.197157920970413 
1040	 0.197492766409425 
1041	 0.197766867334038 
1042	 0.198050174568613 
1043	 0.198323503083236 
1044	 0.1985974428775 
1045	 0.198844073079596 
1046	 0.199128012785681 
1047	 0.199435973680324 
1048	 0.199777099451797 
1049	 0.200102134046375 
1050	 0.200412979579712 
1051	 0.200727954146183 
1052	 0.200996380908876 
1053	 0.201253331086567 
1054	 0.201498571650439 
1055	 0.201758140139836 
1056	 0.20209095491632 
1057	 0.202415640656355 
1058	 0.202769260443323 
1059	 0.203145290431067 
1060	 0.203549837183669 
1061	 0.203904549468468 
1062	 0.204293600751346 
1063	 0.204731950121424 
1064	 0.205132795890641 
1065	 0.205504646433607 
1066	 0.20587206413302 
1067	 0.206265829167029 
1068	 0.206658921817423 
1069	 0.207057222567699 
1070	 0.207466485043055 
1071	 0.207884332113301 
1072	 0.208319400854809 
1073	 0.208760627814001 
1074	 0.209217262467287 
1075	 0.209707184210297 
1076	 0.210189407523633 
1077	 0.210641639025933 
1078	 0.211072418797544 
1079	 0.211483020893853 
1080	 0.211922700898549 
1081	 0.212395670207313 
1082	 0.212858715577682 
1083	 0.213289127365342 
1084	 0.213696608641564 
1085	 0.214130441391926 
1086	 0.214544124851257 
1087	 0.214958101140338 
1088	 0.215398581022148 
1089	 0.215831218339701 
1090	 0.216204312812584 
1091	 0.21659969209753 
1092	 0.216991029124243 
1093	 0.217371224329121 
1094	 0.217739112514883 
1095	 0.218094769441553 
1096	 0.218472533903638 
1097	 0.21878963472179 
1098	 0.219084374097429 
1099	 0.219336149605547 
1100	 0.21962366540966 
1101	 0.219901286342071 
1102	 0.220174281805231 
1103	 0.220483517948714 
1104	 0.220752286501946 
1105	 0.22095107141307 
1106	 0.221132769976069 
1107	 0.221318312719849 
1108	 0.22148794503026 
1109	 0.221654768753192 
1110	 0.221814289643002 
1111	 0.221965216899594 
1112	 0.222106318783844 
1113	 0.222234811003822 
1114	 0.222344251592188 
1115	 0.222466711946935 
1116	 0.222604058280472 
1117	 0.222704632809595 
1118	 0.222799662028305 
1119	 0.222880387441959 
1120	 0.22292037302769 
1121	 0.222945910784235 
1122	 0.223017703448741 
1123	 0.223105798122817 
1124	 0.223151274340907 
1125	 0.223195721961522 
1126	 0.223229106817132 
1127	 0.223215997917198 
1128	 0.223236901366096 
1129	 0.223281763092744 
1130	 0.223312676910085 
1131	 0.223333736592583 
1132	 0.223367506653004 
1133	 0.223412864562648 
1134	 0.223450675628912 
1135	 0.223490632128473 
1136	 0.223534199385934 
1137	 0.223552619943986 
1138	 0.223559277305868 
1139	 0.223566558975151 
1140	 0.22355668604238 
1141	 0.223556274127556 
1142	 0.223560914228948 
1143	 0.223565527107675 
1144	 0.223574656564525 
1145	 0.22357854996611 
1146	 0.223568172627647 
1147	 0.223574187586974 
1148	 0.22360033132988 
1149	 0.223603644031134 
1150	 0.22358887187861 
1151	 0.223601112334982 
1152	 0.223624611114844 
1153	 0.223627944749831 
1154	 0.223649656407073 
1155	 0.223700244827205 
1156	 0.223740947710664 
1157	 0.223769459060949 
1158	 0.223811660273526 
1159	 0.223882905405595 
1160	 0.223921173551589 
1161	 0.223920973267091 
1162	 0.223964632598299 
1163	 0.224012113321828 
1164	 0.224071050161956 
1165	 0.224146719078389 
1166	 0.224262902163209 
1167	 0.224340807238266 
1168	 0.224411216070737 
1169	 0.22449071849112 
1170	 0.224558520866344 
1171	 0.224656963960944 
1172	 0.224778159493906 
1173	 0.224886665164658 
1174	 0.225008762883136 
1175	 0.225122580329504 
1176	 0.225219814776096 
1177	 0.225333157785931 
1178	 0.225461371182222 
1179	 0.225581954399179 
1180	 0.225698305234514 
1181	 0.225822745435139 
1182	 0.22593904642208 
1183	 0.226075745377026 
1184	 0.226215380605627 
1185	 0.226372028698722 
1186	 0.226511136849297 
1187	 0.226650321055585 
1188	 0.226786284831645 
1189	 0.226920346658046 
1190	 0.227042664834044 
1191	 0.227162885983167 
1192	 0.227275155210648 
1193	 0.227362056663886 
1194	 0.227469001455797 
1195	 0.227586502695579 
1196	 0.227698230691169 
1197	 0.227820646029238 
1198	 0.227932604180223 
1199	 0.228038755040439 
1200	 0.228131515711609 
1201	 0.228241949665408 
1202	 0.228348623487789 
1203	 0.228472113025493 
1204	 0.228622589891921 
1205	 0.228743393238923 
1206	 0.228858262700146 
1207	 0.228973950655916 
1208	 0.229074280880015 
1209	 0.229180660782973 
1210	 0.229288268006052 
1211	 0.229403683235886 
1212	 0.229534249709336 
1213	 0.229642596069361 
1214	 0.229755007117044 
1215	 0.229853086223715 
1216	 0.22993695313249 
1217	 0.229990521882511 
1218	 0.230064872399823 
1219	 0.230136378830971 
1220	 0.230216883064243 
1221	 0.23030250246248 
1222	 0.230389466384413 
1223	 0.23048673444926 
1224	 0.230573469671048 
1225	 0.230664145915447 
1226	 0.230741139907254 
1227	 0.230804165061052 
1228	 0.230871298811607 
1229	 0.230924102727581 
1230	 0.230990442597542 
1231	 0.231069907720986 
1232	 0.231143009210325 
1233	 0.231216415771377 
1234	 0.231299945769436 
1235	 0.231361934867368 
1236	 0.231410785723782 
1237	 0.231464784993591 
1238	 0.231510195107489 
1239	 0.231559057455868 
1240	 0.231611790914684 
1241	 0.231660062983715 
1242	 0.231691914056261 
1243	 0.231749201627051 
1244	 0.231815860343975 
1245	 0.231887513927945 
1246	 0.231992082467414 
1247	 0.232071446910999 
1248	 0.232143667983314 
1249	 0.23220739231966 
1250	 0.232260283337967 
1251	 0.232316254296321 
1252	 0.232361528278295 
1253	 0.23240081810896 
1254	 0.23244122313711 
1255	 0.232469017689824 
1256	 0.232508371311671 
1257	 0.232558792908124 
1258	 0.232600806511115 
1259	 0.232637597642524 
1260	 0.232680788926747 
1261	 0.232722344318561 
1262	 0.232766373774568 
1263	 0.2328229569962 
1264	 0.23287025894141 
1265	 0.232915912678262 
1266	 0.232955253388807 
1267	 0.232992948771526 
1268	 0.23301585367467 
1269	 0.233042304184601 
1270	 0.233060404310086 
1271	 0.233087455678359 
1272	 0.233117148535675 
1273	 0.233147349874666 
1274	 0.233189825112571 
1275	 0.23321098510368 
1276	 0.233220229731152 
1277	 0.233232099065744 
1278	 0.233222273513145 
1279	 0.233235749890625 
1280	 0.233265635013934 
1281	 0.233289039636924 
1282	 0.233327175641733 
1283	 0.233352666998866 
1284	 0.233361256745752 
1285	 0.233371870014794 
1286	 0.233411824190266 
1287	 0.233470023368717 
1288	 0.233568346686126 
1289	 0.233719265873933 
1290	 0.233854275034166 
1291	 0.234000770925227 
1292	 0.234166534754118 
1293	 0.23434693214678 
1294	 0.234527007520126 
1295	 0.234719877737216 
1296	 0.234927711383642 
1297	 0.235125354677612 
1298	 0.235364574289365 
1299	 0.23565797128396 
1300	 0.235925440689125 
1301	 0.236212233796986 
1302	 0.236477604976842 
1303	 0.236716974252955 
1304	 0.236966888272589 
1305	 0.237211222116819 
1306	 0.237462748907303 
1307	 0.237764184197933 
1308	 0.238043388628896 
1309	 0.238291891692991 
1310	 0.238534881905207 
1311	 0.238770524264891 
1312	 0.238979064825516 
1313	 0.239171009430839 
1314	 0.239375993145356 
1315	 0.239532745280431 
1316	 0.239636552260486 
1317	 0.239743469922467 
1318	 0.239842886166736 
1319	 0.23991895259037 
1320	 0.23998723715971 
1321	 0.240017884057517 
1322	 0.240023008943213 
1323	 0.239999310204456 
1324	 0.239956379779006 
1325	 0.239886795862725 
1326	 0.239798912034088 
1327	 0.23970647549539 
1328	 0.239593042134358 
1329	 0.239441785654017 
1330	 0.239280259190398 
1331	 0.239108244355697 
1332	 0.238905722016001 
1333	 0.238674349988972 
1334	 0.238438098653242 
1335	 0.238188989875443 
1336	 0.237908644685628 
1337	 0.237597950517636 
1338	 0.237301787304332 
1339	 0.237005383717618 
1340	 0.236676632298517 
1341	 0.236337318888149 
1342	 0.235991539090359 
1343	 0.235614776692691 
1344	 0.235227158185775 
1345	 0.23487692950982 
1346	 0.234528163011286 
1347	 0.234160669567599 
1348	 0.233807964460835 
1349	 0.233448843810848 
1350	 0.233054708550497 
1351	 0.23266703859996 
1352	 0.232272637122071 
1353	 0.231879278534989 
1354	 0.231472341945723 
1355	 0.231083827577791 
1356	 0.230695078133802 
1357	 0.230320069200651 
1358	 0.229938325762237 
1359	 0.229598726391566 
1360	 0.229283049416221 
1361	 0.228981476373672 
1362	 0.228716822069107 
1363	 0.228456999705124 
1364	 0.228207193567614 
1365	 0.227966065775487 
1366	 0.227737431074693 
1367	 0.227515150800603 
1368	 0.227318733483866 
1369	 0.227125149703131 
1370	 0.226927476745185 
1371	 0.226716445025526 
1372	 0.226468666223764 
1373	 0.226201470456073 
1374	 0.225912307176325 
1375	 0.225612456330153 
1376	 0.225261018039656 
1377	 0.224872851431015 
1378	 0.224462124891991 
1379	 0.223979963880469 
1380	 0.223551061461617 
1381	 0.223111728097568 
1382	 0.222703848583072 
1383	 0.222345711305512 
1384	 0.221954236567633 
1385	 0.221582844190245 
1386	 0.22117541784511 
1387	 0.220757567358038 
1388	 0.220302709935819 
1389	 0.219835790475679 
1390	 0.219319039541291 
1391	 0.218737276529947 
1392	 0.218115248536435 
1393	 0.217443968347746 
1394	 0.216743973364223 
1395	 0.216037115448952 
1396	 0.215319220105162 
1397	 0.21457619203743 
1398	 0.213820597143123 
1399	 0.213025242863367 
1400	 0.212191438999648 
1401	 0.211359293932968 
1402	 0.210501815381787 
1403	 0.209645590579633 
1404	 0.208788189511073 
1405	 0.20791881669047 
1406	 0.207032743384864 
1407	 0.206139077679436 
1408	 0.205224702476697 
1409	 0.204332736913223 
1410	 0.203414225429416 
1411	 0.202553690339001 
1412	 0.201720758627678 
1413	 0.200926107013851 
1414	 0.200158718196022 
1415	 0.199413640722465 
1416	 0.198682504388914 
1417	 0.1979595084956 
1418	 0.197255710285341 
1419	 0.196588723708472 
1420	 0.19596488068421 
1421	 0.195366211664181 
1422	 0.194788733531474 
1423	 0.194225841198086 
1424	 0.193680758294213 
1425	 0.193141360106003 
1426	 0.192640043417671 
1427	 0.192162399584743 
1428	 0.191716394739569 
1429	 0.191308509370411 
1430	 0.190901242179681 
1431	 0.190526022149159 
1432	 0.190142853754924 
1433	 0.189762009093805 
1434	 0.189385800193809 
1435	 0.188999826121905 
1436	 0.188645231515165 
1437	 0.188323472361343 
1438	 0.187985756472013 
1439	 0.187659583841546 
1440	 0.187331189404107 
1441	 0.18698492769993 
1442	 0.186641151733871 
1443	 0.186320816458583 
1444	 0.186026381707697 
1445	 0.185764696927397 
1446	 0.185524314511636 
1447	 0.18530837842763 
1448	 0.18512426917683 
1449	 0.184951140960483 
1450	 0.184811843616509 
1451	 0.184733056601299 
1452	 0.184691347417811 
1453	 0.184709812214489 
1454	 0.184799764445496 
1455	 0.184900016060207 
1456	 0.185056050044428 
1457	 0.185204339987761 
1458	 0.185375152043256 
1459	 0.185549041463462 
1460	 0.185743129904265 
1461	 0.185919098482245 
1462	 0.186109091654224 
1463	 0.186269000146381 
1464	 0.186418470420373 
1465	 0.186540591911418 
1466	 0.186630815253411 
1467	 0.186721100343212 
1468	 0.186774499087447 
1469	 0.186852935793434 
1470	 0.186941468930307 
1471	 0.187035175678839 
1472	 0.187122678659028 
1473	 0.187202969779683 
1474	 0.18726001596709 
1475	 0.187309914616997 
1476	 0.187365205867215 
1477	 0.187427839641892 
1478	 0.187511013332648 
1479	 0.187596735144509 
1480	 0.187692437768234 
1481	 0.187794682009285 
1482	 0.187891969444484 
1483	 0.187988074098195 
1484	 0.188090210144163 
1485	 0.188194360484168 
1486	 0.188296616356602 
1487	 0.188400806606628 
1488	 0.188505208989325 
1489	 0.188621209871387 
1490	 0.188711450730943 
1491	 0.188782170410981 
1492	 0.188871680040408 
1493	 0.188943865250541 
1494	 0.189035169326287 
1495	 0.18916354992992 
1496	 0.189263324109688 
1497	 0.189351074134616 
1498	 0.189438012618554 
1499	 0.189515564387345 
1500	 0.189595227519371 
1501	 0.189674503636342 
1502	 0.189752471573923 
1503	 0.189829646457848 
1504	 0.189900304864695 
1505	 0.189976224846452 
1506	 0.190052524245478 
1507	 0.190138784598339 
1508	 0.190227073104825 
1509	 0.190286671888075 
1510	 0.190341048040564 
1511	 0.19040233377631 
1512	 0.190449153629597 
1513	 0.190504194976822 
1514	 0.190590032454765 
1515	 0.190675091805166 
1516	 0.190744262868951 
1517	 0.190809703151678 
1518	 0.190877053686389 
1519	 0.19094230494198 
1520	 0.190992036152883 
1521	 0.191052531998549 
1522	 0.191126371783478 
1523	 0.19118849795208 
1524	 0.191241495532301 
1525	 0.191299981711481 
1526	 0.191359621631185 
1527	 0.191416865928682 
1528	 0.191477055481199 
1529	 0.191531825224587 
1530	 0.191586377593728 
1531	 0.191631323096389 
1532	 0.19166550749596 
1533	 0.19170369601318 
1534	 0.191733447437045 
1535	 0.19177331298931 
1536	 0.191821589059095 
1537	 0.191867500542943 
1538	 0.191917343737566 
1539	 0.191959913650349 
1540	 0.191998150325705 
1541	 0.192038610538545 
1542	 0.192076521408691 
1543	 0.192117156143271 
1544	 0.192157589885452 
1545	 0.192200228752216 
1546	 0.192245262533988 
1547	 0.192292576930895 
1548	 0.192336694951073 
1549	 0.192361663208344 
1550	 0.19236042290075 
1551	 0.192369092302461 
1552	 0.192390034631463 
1553	 0.192414440048025 
1554	 0.192441732121461 
1555	 0.192467367796028 
1556	 0.19247367162376 
1557	 0.192485410181532 
1558	 0.192514221922897 
1559	 0.192532200820822 
1560	 0.192544413939023 
1561	 0.192548734207021 
1562	 0.192569054299728 
1563	 0.192585864309914 
1564	 0.192614279388763 
1565	 0.192665991074509 
1566	 0.192696014531997 
1567	 0.192723126812648 
1568	 0.192735162577612 
1569	 0.192735298148318 
1570	 0.19274004937038 
1571	 0.192736212278748 
1572	 0.192729557436848 
1573	 0.192717969571937 
1574	 0.192715350353438 
1575	 0.192711521614056 
1576	 0.192703821358611 
1577	 0.192704290555551 
1578	 0.192704342117996 
1579	 0.192694902007652 
1580	 0.192691824162723 
1581	 0.192699839108011 
1582	 0.192697398566929 
1583	 0.192691268926294 
1584	 0.192680340604739 
1585	 0.192661784358887 
1586	 0.192650820204267 
1587	 0.192640148118492 
1588	 0.192625472630488 
1589	 0.192611650337795 
1590	 0.192601022159833 
1591	 0.192597022306538 
1592	 0.192575149762398 
1593	 0.192552656810809 
1594	 0.19252028057774 
1595	 0.19246119425371 
1596	 0.192412097392021 
1597	 0.192369572978093 
1598	 0.192318652039508 
1599	 0.1922550861423 
1600	 0.192204163455247 
1601	 0.192154878146187 
1602	 0.192113520377479 
1603	 0.192092434172378 
1604	 0.192058205581834 
1605	 0.192019101571173 
1606	 0.191975931357399 
1607	 0.191920464685722 
1608	 0.19187428615785 
1609	 0.191833235140153 
1610	 0.191778171402458 
1611	 0.191707575565955 
1612	 0.191650178806478 
1613	 0.191591081445039 
1614	 0.191520203410717 
1615	 0.191459589415927 
1616	 0.191394014225 
1617	 0.19132538909773 
1618	 0.191259927012495 
1619	 0.191193174058839 
1620	 0.191112683395829 
1621	 0.191023242057731 
1622	 0.190910021747518 
1623	 0.190832361829673 
1624	 0.19076217281739 
1625	 0.190690912563249 
1626	 0.190643208043655 
1627	 0.190566359384823 
1628	 0.190474198882209 
1629	 0.190380095619175 
1630	 0.190275388660974 
1631	 0.190179066046064 
1632	 0.190073082973443 
1633	 0.189988732762062 
1634	 0.189918603638783 
1635	 0.189842501697602 
1636	 0.189777349004026 
1637	 0.189701626843114 
1638	 0.189623383208231 
1639	 0.189537145627474 
1640	 0.18944185332573 
1641	 0.189354812415356 
1642	 0.189266270473975 
1643	 0.18917393145961 
1644	 0.189088079788588 
1645	 0.188991318419321 
1646	 0.188881697479183 
1647	 0.188777890100357 
1648	 0.188669627210807 
1649	 0.188573100594947 
1650	 0.188486372365181 
1651	 0.188386888035757 
1652	 0.188287192369146 
1653	 0.188190470257312 
1654	 0.188081075903352 
1655	 0.18798725186417 
1656	 0.18791260617946 
1657	 0.187821791135442 
1658	 0.187730426022978 
1659	 0.187630431613269 
1660	 0.187515829887336 
1661	 0.187415020213998 
1662	 0.187314411573173 
1663	 0.187216630905836 
1664	 0.187125554299568 
1665	 0.187035771429105 
1666	 0.186949140006042 
1667	 0.186857164131305 
1668	 0.186765671302312 
1669	 0.186676940346253 
1670	 0.186578160450813 
1671	 0.186496884918488 
1672	 0.186429769066737 
1673	 0.186360304748593 
1674	 0.186305671747581 
1675	 0.186231404941265 
1676	 0.186154976250268 
1677	 0.186065000821169 
1678	 0.185953689716555 
1679	 0.18585329821924 
1680	 0.185752422031661 
1681	 0.185645821711441 
1682	 0.18552967928659 
1683	 0.185432846385631 
1684	 0.185343992325734 
1685	 0.185247258009516 
1686	 0.185165557156759 
1687	 0.185071698086008 
1688	 0.184957969658339 
1689	 0.184856930780377 
1690	 0.184763954913372 
1691	 0.184666269176838 
1692	 0.184569240954929 
1693	 0.184468273812387 
1694	 0.18436326709731 
1695	 0.184262082572149 
1696	 0.184150602757128 
1697	 0.184063337001948 
1698	 0.18400631105863 
1699	 0.18391411891148 
1700	 0.183811349577604 
1701	 0.183717317540523 
1702	 0.183610734992475 
1703	 0.183499962526788 
1704	 0.18339336892412 
1705	 0.183298600175246 
1706	 0.183188186817397 
1707	 0.183098880397061 
1708	 0.183048310669429 
1709	 0.182967566303556 
1710	 0.182872230871272 
1711	 0.182783425956622 
1712	 0.18268257717201 
1713	 0.182600498047181 
1714	 0.182532012669277 
1715	 0.182455934257403 
1716	 0.182392764876355 
1717	 0.182313638084329 
1718	 0.182225119345593 
1719	 0.182130289386899 
1720	 0.182024386598539 
1721	 0.181923698448346 
1722	 0.18182159603648 
1723	 0.181711584234522 
1724	 0.181601128122549 
1725	 0.181485540299523 
1726	 0.181345219537739 
1727	 0.181246992472861 
1728	 0.181174177650861 
1729	 0.181081988782711 
1730	 0.181003336793738 
1731	 0.180915848315071 
1732	 0.18081299849807 
1733	 0.180719155115067 
1734	 0.180637889611867 
1735	 0.180546052361855 
1736	 0.180438988202342 
1737	 0.180345671974624 
1738	 0.180260103512836 
1739	 0.18016363437231 
1740	 0.180068528142235 
1741	 0.179976201797026 
1742	 0.179868800820879 
1743	 0.179799031507682 
1744	 0.179751656207539 
1745	 0.179693121665907 
1746	 0.179652879889908 
1747	 0.179591114518655 
1748	 0.179522485477181 
1749	 0.179416177676559 
1750	 0.179337543991877 
1751	 0.179259074606286 
1752	 0.179139930567837 
1753	 0.179069093739894 
1754	 0.179000024120642 
1755	 0.178903599236828 
1756	 0.178839012266283 
1757	 0.178776960798647 
1758	 0.178686062939444 
1759	 0.178582399144025 
1760	 0.178499509022927 
1761	 0.178427994233818 
1762	 0.178345737051811 
1763	 0.178290208847223 
1764	 0.178240516031412 
1765	 0.178146295477396 
1766	 0.178073022331105 
1767	 0.178020888951132 
1768	 0.177954569400006 
1769	 0.177916009610839 
1770	 0.177863170049475 
1771	 0.177786788204731 
1772	 0.177712756199533 
1773	 0.177628148012519 
1774	 0.177535690525091 
1775	 0.177429089581718 
1776	 0.177317377883274 
1777	 0.177194357614035 
1778	 0.177089663381778 
1779	 0.177024176559784 
1780	 0.176955349079499 
1781	 0.176897199614611 
1782	 0.176884806396614 
1783	 0.176917431171415 
1784	 0.176902546363672 
1785	 0.176889966664148 
1786	 0.176863269859568 
1787	 0.176782279263213 
1788	 0.17671960893341 
1789	 0.176687407511908 
1790	 0.17662852750286 
1791	 0.176534850781338 
1792	 0.176482464322056 
1793	 0.176445668462684 
1794	 0.176408741475124 
1795	 0.176387570875471 
1796	 0.176363050172718 
1797	 0.176330997593986 
1798	 0.176303298777326 
1799	 0.176299467767393 
1800	 0.176268792549235 
1801	 0.172269410382357 
1802	 0.172387847313891 
1803	 0.172523736323785 
1804	 0.172639575728921 
1805	 0.172754104646944 
1806	 0.172891122132834 
1807	 0.173034511164511 
1808	 0.173133052493108 
1809	 0.173199659659892 
1810	 0.173273775528309 
1811	 0.173337096350349 
1812	 0.173362776029727 
1813	 0.173413048040531 
1814	 0.173480490414035 
1815	 0.17351351559957 
1816	 0.173568630532409 
1817	 0.173602258209007 
1818	 0.173624921794769 
1819	 0.173630781449689 
1820	 0.173621112964396 
1821	 0.173608242665349 
1822	 0.173592726562552 
1823	 0.173605293541992 
1824	 0.173646680146845 
1825	 0.173669862734838 
1826	 0.173658796531765 
1827	 0.173658157723723 
1828	 0.173651343194105 
1829	 0.173626026502912 
1830	 0.173591834209929 
1831	 0.173555577540172 
1832	 0.173528591815834 
1833	 0.173473720512211 
1834	 0.17341836240555 
1835	 0.173388780581696 
1836	 0.173351136138241 
1837	 0.173301027645013 
1838	 0.173267487525938 
1839	 0.173246578785941 
1840	 0.173244697190784 
1841	 0.173222962750119 
1842	 0.173197071575267 
1843	 0.173200176789931 
1844	 0.173192063758199 
1845	 0.173168739273858 
1846	 0.173168098730035 
1847	 0.173178581255155 
1848	 0.173171318548539 
1849	 0.173161448493869 
1850	 0.173153950130489 
1851	 0.173162451633709 
1852	 0.17312318089046 
1853	 0.17307447336431 
1854	 0.173041486799782 
1855	 0.172966645383837 
1856	 0.172889461461101 
1857	 0.172819787148621 
1858	 0.172712656255009 
1859	 0.172595486551923 
1860	 0.172468989363072 
1861	 0.172338341159402 
1862	 0.172164431096331 
1863	 0.171973933848198 
1864	 0.171763715324168 
1865	 0.171504643045819 
1866	 0.171210537528778 
1867	 0.170903826208147 
1868	 0.170577113258002 
1869	 0.170244499687981 
1870	 0.16991147599185 
1871	 0.169588695515377 
1872	 0.169274850901474 
1873	 0.168967409447782 
1874	 0.168640373359951 
1875	 0.168347191397205 
1876	 0.168029146799733 
1877	 0.167690606687392 
1878	 0.167337397283502 
1879	 0.166895490197441 
1880	 0.166412775897292 
1881	 0.165872261395679 
1882	 0.165298632215998 
1883	 0.164676595031598 
1884	 0.164020247392223 
1885	 0.163334862787561 
1886	 0.162596103314238 
1887	 0.161787313996574 
1888	 0.160945443112259 
1889	 0.160043027539963 
1890	 0.159089095773575 
1891	 0.158124787814027 
1892	 0.157137221427058 
1893	 0.15610102133905 
1894	 0.155033159141957 
1895	 0.153937648743466 
1896	 0.152779884100965 
1897	 0.151612163447281 
1898	 0.150402995116676 
1899	 0.149184614959297 
1900	 0.147989108786229 
1901	 0.146778132276998 
1902	 0.14562407001141 
1903	 0.144521100439765 
1904	 0.143437426858508 
1905	 0.142375292875148 
1906	 0.14136453440764 
1907	 0.140376769997917 
1908	 0.139415312680379 
1909	 0.138482175207648 
1910	 0.13757258444077 
1911	 0.136691316617766 
1912	 0.13582558214303 
1913	 0.135002550025413 
1914	 0.134207388223863 
1915	 0.133448186943771 
1916	 0.132717221303054 
1917	 0.13203397806436 
1918	 0.131399266895461 
1919	 0.130817792388366 
1920	 0.130301213551494 
1921	 0.129815429941888 
1922	 0.129330373599773 
1923	 0.128886254789294 
1924	 0.128467245127351 
1925	 0.128075014967002 
1926	 0.12770145937948 
1927	 0.127362961547248 
1928	 0.127032929418109 
1929	 0.126711793971336 
1930	 0.126415769323194 
1931	 0.126159078539947 
1932	 0.125929311956106 
1933	 0.125721942942928 
1934	 0.125530091235891 
1935	 0.12535398310386 
1936	 0.125184979888762 
1937	 0.125045448395752 
1938	 0.124932113233487 
1939	 0.124835565484354 
1940	 0.1247561997227 
1941	 0.124703801707614 
1942	 0.124667558998845 
1943	 0.124642036111394 
1944	 0.124669088774496 
1945	 0.124731164371035 
1946	 0.124812516583744 
1947	 0.124940068289864 
1948	 0.125066222836474 
1949	 0.125205721944515 
1950	 0.125360845371842 
1951	 0.125540812048886 
1952	 0.125717298305924 
1953	 0.125894891687262 
1954	 0.12607371613118 
1955	 0.126243544046201 
1956	 0.126412175985665 
1957	 0.126607071607563 
1958	 0.126832893432837 
1959	 0.127042095947531 
1960	 0.127269013598373 
1961	 0.127473532727045 
1962	 0.127667418733074 
1963	 0.127847784976874 
1964	 0.128006784175761 
1965	 0.128182713814584 
1966	 0.128343821505582 
1967	 0.128472313723209 
1968	 0.12862012247548 
1969	 0.128766465625462 
1970	 0.128912441031574 
1971	 0.129052011428895 
1972	 0.129214666405257 
1973	 0.129388142314828 
1974	 0.129558391266736 
1975	 0.129739662425126 
1976	 0.129928363835565 
1977	 0.1301083430011 
1978	 0.130281553043981 
1979	 0.130465257325427 
1980	 0.130670554128679 
1981	 0.130866742096795 
1982	 0.131055327925813 
1983	 0.131267549016321 
1984	 0.131499016627679 
1985	 0.131712853359225 
1986	 0.13195469378147 
1987	 0.132160225875121 
1988	 0.132326904848187 
1989	 0.132504409534351 
1990	 0.13270432761795 
1991	 0.132869495856863 
1992	 0.133049051087408 
1993	 0.133235406672541 
1994	 0.13343159700447 
1995	 0.133621326833771 
1996	 0.133831407259956 
1997	 0.134077174250941 
1998	 0.134293074152661 
1999	 0.134504313074334 
2000	 0.134706309868343 
2001	 0.134885373229234 
2002	 0.135077402501303 
2003	 0.135285847907196 
2004	 0.135490114009962 
2005	 0.135690006780557 
2006	 0.135896292877588 
2007	 0.136102427955428 
2008	 0.136296914981383 
2009	 0.13650034641188 
2010	 0.136716999491525 
2011	 0.136927320161261 
2012	 0.137124822107711 
2013	 0.137336223099243 
2014	 0.137549269224996 
2015	 0.137781271909553 
2016	 0.138006757099737 
2017	 0.138248650498105 
2018	 0.138470182260657 
2019	 0.138686625809267 
2020	 0.138895067505035 
2021	 0.13907924559789 
2022	 0.139287146766998 
2023	 0.139498101731102 
2024	 0.139716928548283 
2025	 0.139963370642233 
2026	 0.140190425400246 
2027	 0.140412405088303 
2028	 0.140632351496453 
2029	 0.140842928897282 
2030	 0.14104039723937 
2031	 0.141240815372802 
2032	 0.14143794307896 
2033	 0.141633112449464 
2034	 0.141823849017591 
2035	 0.142012412716789 
2036	 0.142195186334549 
2037	 0.142384174275414 
2038	 0.142569979979843 
2039	 0.142763281238874 
2040	 0.142973541580998 
2041	 0.143173857280646 
2042	 0.14334682090884 
2043	 0.143511946860754 
2044	 0.143687987312525 
2045	 0.143845751798718 
2046	 0.144020627480656 
2047	 0.14421624060568 
2048	 0.14440474509987 
2049	 0.144592138516932 
2050	 0.144775577428137 
2051	 0.144972533842914 
2052	 0.145148324018892 
2053	 0.145290420128968 
2054	 0.145458131152107 
2055	 0.145619338069707 
2056	 0.145804686318239 
2057	 0.145987434291154 
2058	 0.146194223659484 
2059	 0.14637903625495 
2060	 0.146557685376354 
2061	 0.146728577688063 
2062	 0.14689188981294 
2063	 0.147054517087557 
2064	 0.147207333452538 
2065	 0.14736442784684 
2066	 0.147521616692922 
2067	 0.147681165213615 
2068	 0.147843794081347 
2069	 0.148004583705773 
2070	 0.148155622953018 
2071	 0.148299635148704 
2072	 0.148450381794865 
2073	 0.148597327955613 
2074	 0.148741072517492 
2075	 0.148891490705523 
2076	 0.149036985548961 
2077	 0.149157955215472 
2078	 0.149310971357217 
2079	 0.14950002768775 
2080	 0.149655005424714 
2081	 0.14980419929973 
2082	 0.149956248253745 
2083	 0.150091349404003 
2084	 0.150220492655638 
2085	 0.150367418024866 
2086	 0.15053256372225 
2087	 0.15068858878145 
2088	 0.150847643237887 
2089	 0.150999695472136 
2090	 0.151154435614191 
2091	 0.151297498764882 
2092	 0.15143026374795 
2093	 0.15156348957869 
2094	 0.151685194849376 
2095	 0.151817915622757 
2096	 0.1519625919008 
2097	 0.152091621030348 
2098	 0.152214591450064 
2099	 0.152344886545172 
2100	 0.152457290222854 
2101	 0.152542884639804 
2102	 0.152662808425136 
2103	 0.152789876928226 
2104	 0.152919283322811 
2105	 0.153061454054285 
2106	 0.153207514736771 
2107	 0.153350679907483 
2108	 0.153507466251241 
2109	 0.153693529246468 
2110	 0.153857428749485 
2111	 0.154005759321418 
2112	 0.154169904741616 
2113	 0.154344707080434 
2114	 0.154506719408481 
2115	 0.154653649487393 
2116	 0.154811833689639 
2117	 0.154936831109341 
2118	 0.155010704482467 
2119	 0.155131444683923 
2120	 0.155269430330337 
2121	 0.155391001613092 
2122	 0.155529703894947 
2123	 0.155644728309286 
2124	 0.155724741061323 
2125	 0.155827663046926 
2126	 0.155929735136159 
2127	 0.156041004972734 
2128	 0.156177410225448 
2129	 0.156294716352989 
2130	 0.15640831138576 
2131	 0.156519420328443 
2132	 0.156614364965086 
2133	 0.15669186669342 
2134	 0.156771460120815 
2135	 0.156848128364482 
2136	 0.156908904432519 
2137	 0.15695804507218 
2138	 0.157006553340152 
2139	 0.157056012481552 
2140	 0.157079781818025 
2141	 0.157079592747474 
2142	 0.157091528641534 
2143	 0.157087534020109 
2144	 0.157084882003919 
2145	 0.157102605901814 
2146	 0.157102202204082 
2147	 0.157089355915936 
2148	 0.157061927072126 
2149	 0.157034639614447 
2150	 0.157006011888562 
2151	 0.156963936614608 
2152	 0.156908704613282 
2153	 0.156855404361388 
2154	 0.156791158616765 
2155	 0.156730095187428 
2156	 0.156669304254865 
2157	 0.156607476722314 
2158	 0.156545797870949 
2159	 0.156479946832184 
2160	 0.156408820658077 
2161	 0.156342820457744 
2162	 0.156285628801375 
2163	 0.156212072856029 
2164	 0.156122425036012 
2165	 0.156046204284161 
2166	 0.155975537889013 
2167	 0.155904212059039 
2168	 0.155822967241077 
2169	 0.155754054056942 
2170	 0.155669224680587 
2171	 0.155558136932456 
2172	 0.155461356372719 
2173	 0.15537448025796 
2174	 0.155280422208593 
2175	 0.155179634848594 
2176	 0.155082703232424 
2177	 0.154982948121653 
2178	 0.154889745721341 
2179	 0.154820306542975 
2180	 0.154716215857366 
2181	 0.154595122541614 
2182	 0.154473984700866 
2183	 0.154324231300705 
2184	 0.154172289064602 
2185	 0.154051753482945 
2186	 0.153956421005043 
2187	 0.153844336316785 
2188	 0.153742027450987 
2189	 0.153634633826794 
2190	 0.153503753749674 
2191	 0.153411396034657 
2192	 0.153345043261771 
2193	 0.15326967774145 
2194	 0.153215164950625 
2195	 0.153146617170805 
2196	 0.153066430532308 
2197	 0.152994059015324 
2198	 0.152917793762537 
2199	 0.152850704223156 
2200	 0.152786710713894 
2201	 0.152729359669586 
2202	 0.152674849021135 
2203	 0.152637716656501 
2204	 0.152601969403969 
2205	 0.152579219951979 
2206	 0.152540989806312 
2207	 0.152500549999941 
2208	 0.152465786685539 
2209	 0.152417214205538 
2210	 0.152392168662362 
2211	 0.152380651813248 
2212	 0.152379363393453 
2213	 0.152396974070477 
2214	 0.152404815589401 
2215	 0.152433435827194 
2216	 0.152433892591034 
2217	 0.152408814322398 
2218	 0.152396755357587 
2219	 0.152356658437515 
2220	 0.152353457055313 
2221	 0.152361664698631 
2222	 0.152410770654214 
2223	 0.152463074482795 
2224	 0.152480031184495 
2225	 0.15250924063365 
2226	 0.1525310019251 
2227	 0.152548944733593 
2228	 0.15256195377331 
2229	 0.152593326355834 
2230	 0.152640105873165 
2231	 0.152647150134527 
2232	 0.152643660822974 
2233	 0.152651002760599 
2234	 0.152625984270438 
2235	 0.152623808325214 
2236	 0.152662840470611 
2237	 0.152669382822275 
2238	 0.152663763626173 
2239	 0.152644693931306 
2240	 0.152605441583844 
2241	 0.152575213649855 
2242	 0.152526571763439 
2243	 0.152488447525191 
2244	 0.152463896379044 
2245	 0.152437594350015 
2246	 0.152392349026966 
2247	 0.152372987601883 
2248	 0.15235071064202 
2249	 0.152334995989105 
2250	 0.152301215953648 
2251	 0.152276332721995 
2252	 0.152224635417616 
2253	 0.152137349111355 
2254	 0.15207980395314 
2255	 0.152032094899506 
2256	 0.151964248189221 
2257	 0.151882819042092 
2258	 0.151832230794417 
2259	 0.15178577603204 
2260	 0.151731076374405 
2261	 0.151700583347264 
2262	 0.151663672641655 
2263	 0.151588954081234 
2264	 0.151553691492016 
2265	 0.151569604580951 
2266	 0.151547467943188 
2267	 0.151517279122044 
2268	 0.151496596776964 
2269	 0.151474490046919 
2270	 0.151430291602597 
2271	 0.151404809079037 
2272	 0.151362584853363 
2273	 0.151283863472657 
2274	 0.151228041567813 
2275	 0.151182648337274 
2276	 0.151155571157759 
2277	 0.151091180361571 
2278	 0.151022152653894 
2279	 0.150956630610286 
2280	 0.150849965662066 
2281	 0.150792328334371 
2282	 0.150789799277326 
2283	 0.150735198842624 
2284	 0.150679557747038 
2285	 0.150600723612485 
2286	 0.150454556686697 
2287	 0.150378111646291 
2288	 0.150335452588515 
2289	 0.150281343145319 
2290	 0.150274905234569 
2291	 0.150231226525004 
2292	 0.150154892767173 
2293	 0.15008045246127 
2294	 0.149983133460776 
2295	 0.149906022859893 
2296	 0.149842109839989 
2297	 0.149769957064818 
2298	 0.149692079880764 
2299	 0.1495757825042 
2300	 0.149452247979834 
2301	 0.149337941886523 
2302	 0.149231861997102 
2303	 0.149151314315604 
2304	 0.149027192488916 
2305	 0.148882311950374 
2306	 0.148742094828875 
2307	 0.148571709576981 
2308	 0.148450573768178 
2309	 0.148368881902346 
2310	 0.148232213795464 
2311	 0.148101145481836 
2312	 0.147942791577492 
2313	 0.147728845720511 
2314	 0.147547233070586 
2315	 0.147365463554593 
2316	 0.147213954492471 
2317	 0.147079367537499 
2318	 0.146930903659855 
2319	 0.146803901411228 
2320	 0.146661342645522 
2321	 0.146493514881825 
2322	 0.146355247140917 
2323	 0.14624393821514 
2324	 0.146108440085934 
2325	 0.145969967291324 
2326	 0.145822102526277 
2327	 0.145643121649627 
2328	 0.145508246596707 
2329	 0.145343063395075 
2330	 0.145190890135732 
2331	 0.14508367989843 
2332	 0.144911367613969 
2333	 0.144707283645945 
2334	 0.144540694266377 
2335	 0.144390097140715 
2336	 0.144208068455524 
2337	 0.144078161411574 
2338	 0.143972859459532 
2339	 0.143767628899895 
2340	 0.143567017178238 
2341	 0.143351457338542 
2342	 0.143097600223029 
2343	 0.142924913493591 
2344	 0.142733111619788 
2345	 0.142530687261297 
2346	 0.142371500591136 
2347	 0.142152156739376 
2348	 0.14185016852671 
2349	 0.141619697152356 
2350	 0.141401943958001 
2351	 0.141169449020096 
2352	 0.140981849764717 
2353	 0.140751974561696 
2354	 0.140446024834603 
2355	 0.140229220079754 
2356	 0.140061898729336 
2357	 0.139847658079403 
2358	 0.139680544155926 
2359	 0.139475298553307 
2360	 0.13923618163854 
2361	 0.138950302176449 
2362	 0.138604653177243 
2363	 0.138318702395737 
2364	 0.137998232264209 
2365	 0.13771827256609 
2366	 0.137518447329657 
2367	 0.137276442499793 
2368	 0.137029115463845 
2369	 0.136757471340113 
2370	 0.136461386609953 
2371	 0.136191437757292 
2372	 0.135935013648746 
2373	 0.135643969779394 
2374	 0.13536190104226 
2375	 0.13513206222992 
2376	 0.134856293958738 
2377	 0.134574355361141 
2378	 0.134366369280851 
2379	 0.13413427901205 
2380	 0.133832626311937 
2381	 0.13353151174278 
2382	 0.133181479263401 
2383	 0.132866098245755 
2384	 0.132654519547047 
2385	 0.132400412862839 
2386	 0.132185363191505 
2387	 0.131961589711974 
2388	 0.13165142997215 
2389	 0.131428220263219 
2390	 0.131234511360559 
2391	 0.130976705868486 
2392	 0.130780216549801 
2393	 0.130591475076476 
2394	 0.130343100796832 
2395	 0.130132547564504 
2396	 0.129847154249667 
2397	 0.129513848489116 
2398	 0.129201539326349 
2399	 0.12886148562309 
2400	 0.128629105544799 
2401	 0.128484922231453 
2402	 0.128336935360625 
2403	 0.128194401045869 
2404	 0.12802617898455 
2405	 0.127713270733227 
2406	 0.127399072893981 
2407	 0.12718291017727 
2408	 0.126942032315057 
2409	 0.126822538981294 
2410	 0.126707397737561 
2411	 0.126438664031599 
2412	 0.126197620684489 
2413	 0.125943142533868 
2414	 0.125738621291024 
2415	 0.125620290570456 
2416	 0.125455439984254 
2417	 0.125331075444268 
2418	 0.125165891153859 
2419	 0.124933012480437 
2420	 0.124761625723222 
2421	 0.124594603597131 
2422	 0.124434012655601 
2423	 0.124305958312706 
2424	 0.124152052766632 
2425	 0.124005521825012 
2426	 0.123847146364663 
2427	 0.123687874507251 
2428	 0.123530221284678 
2429	 0.123352059069576 
2430	 0.123192331928407 
2431	 0.123011505476517 
2432	 0.122796891653443 
2433	 0.122624795523527 
2434	 0.122457970752342 
2435	 0.122265936440244 
2436	 0.122115436610248 
2437	 0.121994107948912 
2438	 0.12180683088111 
2439	 0.121511860820918 
2440	 0.121369638316074 
2441	 0.12138855159533 
2442	 0.121232376792943 
2443	 0.121066625136586 
2444	 0.120916599156224 
2445	 0.120604013350429 
2446	 0.12035846056991 
2447	 0.120252225997578 
2448	 0.120043033896332 
2449	 0.119750629148203 
2450	 0.119516013100985 
2451	 0.119268027200227 
2452	 0.119054169248272 
2453	 0.118870700744076 
2454	 0.118734993805148 
2455	 0.118626569509938 
2456	 0.118456186047771 
2457	 0.118309031289766 
2458	 0.118153596920524 
2459	 0.117966872855548 
2460	 0.117799975373242 
2461	 0.117694355028359 
2462	 0.117429905202223 
2463	 0.117049519061535 
2464	 0.116788640353036 
2465	 0.116434993589087 
2466	 0.116291736982499 
2467	 0.116369377178485 
2468	 0.116205143056799 
2469	 0.115976102150692 
2470	 0.115855969719263 
2471	 0.11574392065649 
2472	 0.115700147041317 
2473	 0.11586312642179 
2474	 0.115828944191899 
2475	 0.115633903766201 
2476	 0.115564838223923 
2477	 0.115284214838174 
2478	 0.11497292575958 
2479	 0.114803334132203 
2480	 0.114546082712929 
2481	 0.114400618513802 
2482	 0.114281302911915 
2483	 0.114114238396219 
2484	 0.114195426582362 
2485	 0.114207604132531 
2486	 0.114023635621853 
2487	 0.113929691507533 
2488	 0.113805941896456 
2489	 0.11349087631401 
2490	 0.113065177202949 
2491	 0.112909530202919 
2492	 0.112803086072138 
2493	 0.112513361288389 
2494	 0.112499811065076 
2495	 0.11243383176226 
2496	 0.112090447551829 
2497	 0.111865733251846 
2498	 0.111825369151038 
2499	 0.111815382313862 
2500	 0.111752758799952 
