Wavelength	LMW_2300000.asd
350	 8.54348487280907E-02 
351	 8.27633342077161E-02 
352	 8.48145489171244E-02 
353	 8.74643237694867E-02 
354	 8.80599972760865E-02 
355	 8.70956242664535E-02 
356	 8.38589287092654E-02 
357	 7.94984212868005E-02 
358	 8.30549507006562E-02 
359	 8.47185027058031E-02 
360	 8.35231138604209E-02 
361	 8.42098567680936E-02 
362	 0.084368657735994 
363	 8.48553940143997E-02 
364	 8.60946422516625E-02 
365	 8.76071077055558E-02 
366	 8.49304240267655E-02 
367	 8.15276405569641E-02 
368	 8.19957330441538E-02 
369	 8.69485963037774E-02 
370	 8.62491194813572E-02 
371	 8.31066188149638E-02 
372	 8.82404727918033E-02 
373	 8.56929399451976E-02 
374	 8.30707129144828E-02 
375	 8.58615633424363E-02 
376	 9.14095239243688E-02 
377	 8.84933500638581E-02 
378	 8.40759306256186E-02 
379	 0.08675974586716 
380	 8.66103490024298E-02 
381	 8.55733956184016E-02 
382	 8.61710365528369E-02 
383	 9.02344523621937E-02 
384	 8.88406706089055E-02 
385	 8.72371473666458E-02 
386	 0.088441449571676 
387	 8.70701016941685E-02 
388	 8.81865173270714E-02 
389	 8.94275545658886E-02 
390	 8.76556995121879E-02 
391	 8.76075117147346E-02 
392	 8.86620634250114E-02 
393	 0.090645449280595 
394	 9.37253634189547E-02 
395	 0.093260006932221 
396	 9.28127306994747E-02 
397	 9.42942631202681E-02 
398	 9.28589007122524E-02 
399	 0.093243150352666 
400	 9.55993070223907E-02 
401	 9.78141413609113E-02 
402	 0.095516675985748 
403	 9.47798828046149E-02 
404	 9.61052030895358E-02 
405	 9.40830281506679E-02 
406	 0.095334205113818 
407	 9.78209470576053E-02 
408	 9.85626024326591E-02 
409	 9.63043444878264E-02 
410	 9.53979685113721E-02 
411	 9.60514594582527E-02 
412	 9.65150869406945E-02 
413	 9.70057640477649E-02 
414	 9.65771312146585E-02 
415	 0.095725324609515 
416	 9.68319054334377E-02 
417	 9.73767180263093E-02 
418	 9.75108443564576E-02 
419	 9.77222501235766E-02 
420	 9.73100772298415E-02 
421	 9.63165111788879E-02 
422	 9.58201281437156E-02 
423	 9.71475639836983E-02 
424	 9.70691535686505E-02 
425	 0.096357969340692 
426	 9.58387658234704E-02 
427	 9.53736387148173E-02 
428	 9.53852566251146E-02 
429	 9.55141097383468E-02 
430	 9.53195653755325E-02 
431	 9.53584227291474E-02 
432	 9.53027610110107E-02 
433	 9.50811319977496E-02 
434	 9.49056882870224E-02 
435	 9.49979371962164E-02 
436	 9.51032784515202E-02 
437	 9.49847952093714E-02 
438	 9.46381956295898E-02 
439	 9.46861437246563E-02 
440	 9.50306956601904E-02 
441	 9.51977805689588E-02 
442	 9.48823735735591E-02 
443	 9.51219093137569E-02 
444	 9.59237238239023E-02 
445	 9.55679445744393E-02 
446	 9.55437725641736E-02 
447	 9.57812158843882E-02 
448	 9.58734338369713E-02 
449	 9.59742623782053E-02 
450	 9.60990975131942E-02 
451	 9.62500952117855E-02 
452	 9.64146885449672E-02 
453	 9.64722216935636E-02 
454	 9.65130448322137E-02 
455	 9.66324546962157E-02 
456	 9.68776672771015E-02 
457	 9.69058369956339E-02 
458	 9.67561869372307E-02 
459	 9.66707393244934E-02 
460	 9.69175230364612E-02 
461	 9.69661856234692E-02 
462	 9.67251413533068E-02 
463	 9.68036692877572E-02 
464	 9.69984005588733E-02 
465	 9.71432740757886E-02 
466	 9.71160205576127E-02 
467	 9.69472355332057E-02 
468	 9.68759952247967E-02 
469	 9.69385590683092E-02 
470	 9.69999911776628E-02 
471	 9.70247196932256E-02 
472	 9.71423551457615E-02 
473	 9.72982302380272E-02 
474	 9.68702173981642E-02 
475	 9.67815756769961E-02 
476	 9.69451854538946E-02 
477	 9.68963317912108E-02 
478	 9.70133012814239E-02 
479	 9.70453687221578E-02 
480	 9.69865051206335E-02 
481	 9.72379943247277E-02 
482	 9.74055725481245E-02 
483	 0.097397763845064 
484	 9.72697796313442E-02 
485	 9.72837517353644E-02 
486	 9.72638069988066E-02 
487	 9.72187924733102E-02 
488	 9.73015260405432E-02 
489	 9.72610676874478E-02 
490	 9.71674780882703E-02 
491	 9.71214176316082E-02 
492	 9.71843805339484E-02 
493	 9.70062801920666E-02 
494	 9.68095974878666E-02 
495	 9.70027987568469E-02 
496	 0.09713781354696 
497	 0.09721922135014 
498	 9.72840958653207E-02 
499	 9.73566377675103E-02 
500	 9.72139029010405E-02 
501	 9.70482587382831E-02 
502	 9.70695354397025E-02 
503	 9.69683102285798E-02 
504	 9.69808650802686E-02 
505	 9.70645157856922E-02 
506	 9.69319061415754E-02 
507	 9.69939114865336E-02 
508	 9.70724664231511E-02 
509	 9.69944278137728E-02 
510	 9.68929171138193E-02 
511	 9.68754067339725E-02 
512	 9.69121252222975E-02 
513	 9.69153693605865E-02 
514	 9.70676104045291E-02 
515	 9.70920825760001E-02 
516	 9.69507880435703E-02 
517	 0.09710527061184 
518	 9.70983352494521E-02 
519	 9.70329602199516E-02 
520	 9.71088853144019E-02 
521	 9.70214748871158E-02 
522	 0.096936700559372 
523	 9.69394388148585E-02 
524	 9.70006729442441E-02 
525	 0.0969458811681 
526	 9.68827738263338E-02 
527	 9.69309388534941E-02 
528	 9.70539394968738E-02 
529	 9.70442309541949E-02 
530	 9.69437144357011E-02 
531	 9.69532674958358E-02 
532	 9.70503423350129E-02 
533	 9.71027657940761E-02 
534	 9.70653951823875E-02 
535	 9.71099361189098E-02 
536	 9.71022933718704E-02 
537	 9.71000321973079E-02 
538	 9.72020920927891E-02 
539	 9.72650343681348E-02 
540	 9.72840314655743E-02 
541	 9.72959948068301E-02 
542	 9.73765366866857E-02 
543	 9.74490988906674E-02 
544	 9.74814905160607E-02 
545	 9.74776689878315E-02 
546	 9.75374952395337E-02 
547	 9.75187682491544E-02 
548	 9.74977400382957E-02 
549	 9.77149029192472E-02 
550	 9.77927041079588E-02 
551	 9.77784963151557E-02 
552	 0.097809215135798 
553	 9.80484543682432E-02 
554	 9.82815536626519E-02 
555	 9.84619698173473E-02 
556	 9.86376287023316E-02 
557	 9.88453581701573E-02 
558	 9.90401001867387E-02 
559	 9.92179841398955E-02 
560	 9.94689408867416E-02 
561	 9.96793126150752E-02 
562	 9.98681928297794E-02 
563	 0.100080244399433 
564	 0.100242756739819 
565	 0.100302972024667 
566	 0.100325667749834 
567	 0.100499474034737 
568	 0.100857216022705 
569	 0.101271391190702 
570	 0.101641925743923 
571	 0.102113686767874 
572	 0.102637221771765 
573	 0.103136010624161 
574	 0.103530296281134 
575	 0.103949965293567 
576	 0.104390509425464 
577	 0.10482027660653 
578	 0.105202856833625 
579	 0.105513537681082 
580	 0.105789137671276 
581	 0.106094315156578 
582	 0.106442937755988 
583	 0.106866795295921 
584	 0.107358839410766 
585	 0.107861995181333 
586	 0.108359663806773 
587	 0.108823034579428 
588	 0.109252013137948 
589	 0.109768065469514 
590	 0.110312747534148 
591	 0.11085841805935 
592	 0.111414663656299 
593	 0.112003332936803 
594	 0.112653827313039 
595	 0.113334154594616 
596	 0.113863745115179 
597	 0.114251986178803 
598	 0.114579965370369 
599	 0.114948945150243 
600	 0.115184287158982 
601	 0.115421250418971 
602	 0.115736638242372 
603	 0.116043754559844 
604	 0.116380209267414 
605	 0.116704361520043 
606	 0.116970214586071 
607	 0.117250653533719 
608	 0.117582731337796 
609	 0.117942450690371 
610	 0.118241040180821 
611	 0.118512075346931 
612	 0.118758284368229 
613	 0.118975373533194 
614	 0.119155764395629 
615	 0.119315484169035 
616	 0.119466271773832 
617	 0.119616530537375 
618	 0.119798572969302 
619	 0.119914449596139 
620	 0.119946673276338 
621	 0.120089895581226 
622	 0.120258405467558 
623	 0.12039630163579 
624	 0.120473966099168 
625	 0.120586231410702 
626	 0.120707809343349 
627	 0.120800797766737 
628	 0.120823091842264 
629	 0.120912350760358 
630	 0.121036006118779 
631	 0.121124588171056 
632	 0.121162617085465 
633	 0.121233659601567 
634	 0.121341042090717 
635	 0.12142067331416 
636	 0.121461712415656 
637	 0.121519535678829 
638	 0.121610092292059 
639	 0.121611987062657 
640	 0.121691402711229 
641	 0.121823712246232 
642	 0.121904654091271 
643	 0.121978131777843 
644	 0.122017767516417 
645	 0.122044022145312 
646	 0.122154279135069 
647	 0.122215308008747 
648	 0.122277726499713 
649	 0.122409915559395 
650	 0.122524201737274 
651	 0.122582242758022 
652	 0.12261948219602 
653	 0.122727857158579 
654	 0.12284820418201 
655	 0.122921527838069 
656	 0.122947489653516 
657	 0.12307182842712 
658	 0.123198950160144 
659	 0.123292511855531 
660	 0.123356805062125 
661	 0.12348876863859 
662	 0.123604666464968 
663	 0.123686711457219 
664	 0.12383807222637 
665	 0.123983652552162 
666	 0.124090104480119 
667	 0.124163287039816 
668	 0.124316291289231 
669	 0.124451814478905 
670	 0.124555764758397 
671	 0.124684598654684 
672	 0.124795446380162 
673	 0.124913892848547 
674	 0.12505853933368 
675	 0.125205044327495 
676	 0.125370390815205 
677	 0.125529485942274 
678	 0.12565231441045 
679	 0.125800769966225 
680	 0.12599037965259 
681	 0.126178498146329 
682	 0.126253505161526 
683	 0.126443953168081 
684	 0.126676421448568 
685	 0.126834301032065 
686	 0.126944357907748 
687	 0.127131660294142 
688	 0.127358401568711 
689	 0.127481704770638 
690	 0.127605863382494 
691	 0.127766662631319 
692	 0.12796311354798 
693	 0.128143419821925 
694	 0.128323247773604 
695	 0.128505027540664 
696	 0.128687617545086 
697	 0.128868819363301 
698	 0.129058759141696 
699	 0.129240167341129 
700	 0.129370712305941 
701	 0.129556404925591 
702	 0.129754538461933 
703	 0.129918045049933 
704	 0.130078737718592 
705	 0.130274360750225 
706	 0.130451065645037 
707	 0.13053572426675 
708	 0.130727177073062 
709	 0.130938207196158 
710	 0.131103992186535 
711	 0.131237523014256 
712	 0.131359716363986 
713	 0.131486650540917 
714	 0.131629189253171 
715	 0.131790241179507 
716	 0.131947027729363 
717	 0.132078999674023 
718	 0.132175584226339 
719	 0.132307796542195 
720	 0.132457842544766 
721	 0.132599300199286 
722	 0.132717964212644 
723	 0.132812973935104 
724	 0.132890960872193 
725	 0.132965099986596 
726	 0.133058335127078 
727	 0.133166626359325 
728	 0.133257697227022 
729	 0.133282871828615 
730	 0.133368060482583 
731	 0.133455041309421 
732	 0.133494153244863 
733	 0.133541581388989 
734	 0.13355847749706 
735	 0.133559142747192 
736	 0.133573999565212 
737	 0.133588996713883 
738	 0.133597721995136 
739	 0.133597594763447 
740	 0.133590651714528 
741	 0.133612045066692 
742	 0.133616334264478 
743	 0.133574931788028 
744	 0.133557043911545 
745	 0.133488092989815 
746	 0.133399770930523 
747	 0.133359767046848 
748	 0.133298253528837 
749	 0.133235262755814 
750	 0.133183974976782 
751	 0.133139514855705 
752	 0.13305894922504 
753	 0.132959086641309 
754	 0.132864373872291 
755	 0.132775366264522 
756	 0.132687441767159 
757	 0.132590929724073 
758	 0.132478624467754 
759	 0.132380786832013 
760	 0.132271945709934 
761	 0.132146957324996 
762	 0.132032096702643 
763	 0.131913109848289 
764	 0.131773994788334 
765	 0.131613744078065 
766	 0.131470860948641 
767	 0.131360222929226 
768	 0.131257933255767 
769	 0.131118459647085 
770	 0.130903855359958 
771	 0.130720032477858 
772	 0.130594116981464 
773	 0.13044559039005 
774	 0.130334878386691 
775	 0.130188909852495 
776	 0.129970470950266 
777	 0.129813455547845 
778	 0.129682686470293 
779	 0.12955293264683 
780	 0.129406207422977 
781	 0.129259988312009 
782	 0.129113487556259 
783	 0.128959365600859 
784	 0.128786827015968 
785	 0.128618283574327 
786	 0.12847541728253 
787	 0.128347142264899 
788	 0.128137428513093 
789	 0.128002223613431 
790	 0.127877789705018 
791	 0.12766008578233 
792	 0.127506754942062 
793	 0.127350144306745 
794	 0.127177946654827 
795	 0.127031904123491 
796	 0.126878155235771 
797	 0.126740349044688 
798	 0.126621241239562 
799	 0.126470310723828 
800	 0.126309748452934 
801	 0.126161873950406 
802	 0.126038093203838 
803	 0.125907749027627 
804	 0.125783994616158 
805	 0.125648050822855 
806	 0.125471776312244 
807	 0.125323372297807 
808	 0.125179206335243 
809	 0.125023371631186 
810	 0.124864620653625 
811	 0.124792894782379 
812	 0.124700648881482 
813	 0.124523358512359 
814	 0.124443982751083 
815	 0.124297480665211 
816	 0.124122379030815 
817	 0.124021395268477 
818	 0.123955610250718 
819	 0.123856516748162 
820	 0.123716213458031 
821	 0.123582756077702 
822	 0.123484464097201 
823	 0.123369980352817 
824	 0.123237009965615 
825	 0.123184764652611 
826	 0.123078039064903 
827	 0.122942293239353 
828	 0.122839680504233 
829	 0.122802732742569 
830	 0.122726912138184 
831	 0.122626822966711 
832	 0.122561085026914 
833	 0.122457072756013 
834	 0.122314878300341 
835	 0.122186576622403 
836	 0.122154913148717 
837	 0.122121400444342 
838	 0.122059667430273 
839	 0.12196442526899 
840	 0.121842830142798 
841	 0.12176753514756 
842	 0.121717804867457 
843	 0.121659248620014 
844	 0.121606504177026 
845	 0.12159104610041 
846	 0.121554261673886 
847	 0.121435052902714 
848	 0.121408155739923 
849	 0.121381266208156 
850	 0.121314183451859 
851	 0.121229727791829 
852	 0.121158307286484 
853	 0.121118466508366 
854	 0.121102689664713 
855	 0.121071916154114 
856	 0.121061305496564 
857	 0.121061573561687 
858	 0.121047307964744 
859	 0.12097338866084 
860	 0.120942823442055 
861	 0.120910056839987 
862	 0.120822353240449 
863	 0.12084477555184 
864	 0.120857327971444 
865	 0.120840244287297 
866	 0.12084071618656 
867	 0.120863270290526 
868	 0.120884067801996 
869	 0.120894199632874 
870	 0.120902433726272 
871	 0.120896615845285 
872	 0.120868781087554 
873	 0.120831855140856 
874	 0.120828313474947 
875	 0.120829748208145 
876	 0.120865332014108 
877	 0.120923862699283 
878	 0.120843782015959 
879	 0.120851480916321 
880	 0.120925342680526 
881	 0.120977362232543 
882	 0.121057934850135 
883	 0.121079941540763 
884	 0.121054890334779 
885	 0.121048532262111 
886	 0.121062342165814 
887	 0.121116571471124 
888	 0.121180555771823 
889	 0.121190465089681 
890	 0.121190293846329 
891	 0.12122915942353 
892	 0.121298133598056 
893	 0.121321816366736 
894	 0.121366697687587 
895	 0.121435228238843 
896	 0.121507679368784 
897	 0.121548230797152 
898	 0.121654148626835 
899	 0.121708335613476 
900	 0.121662049096405 
901	 0.121801482940678 
902	 0.121883525941096 
903	 0.121901137920263 
904	 0.121936131475232 
905	 0.122081134297693 
906	 0.122129212482127 
907	 0.122137303001266 
908	 0.122246707350991 
909	 0.122296234987772 
910	 0.122394580691855 
911	 0.122558725966009 
912	 0.122716566812042 
913	 0.122699081641126 
914	 0.122780416440453 
915	 0.12295566381532 
916	 0.122971475058548 
917	 0.123011386127563 
918	 0.123130898154395 
919	 0.123286147711683 
920	 0.123351739712608 
921	 0.12343111930066 
922	 0.123503466820316 
923	 0.123569279150879 
924	 0.123685928636035 
925	 0.123835071312927 
926	 0.124010502965952 
927	 0.124173643976045 
928	 0.124229762445422 
929	 0.124300324581928 
930	 0.124412530024941 
931	 0.12454356856961 
932	 0.124616568177909 
933	 0.124786332857384 
934	 0.124950632333832 
935	 0.125017149597079 
936	 0.125153585816206 
937	 0.125243021239572 
938	 0.125286967180132 
939	 0.125347328924766 
940	 0.125539419123476 
941	 0.125751675504502 
942	 0.12596130790658 
943	 0.126163640617408 
944	 0.126269521231829 
945	 0.126398328934363 
946	 0.126527485109036 
947	 0.126593268697989 
948	 0.126661136420047 
949	 0.12683896006594 
950	 0.127033633130234 
951	 0.12711740612789 
952	 0.12735078399312 
953	 0.127480386725937 
954	 0.127536934198123 
955	 0.127689767018098 
956	 0.12783622868755 
957	 0.128016409920908 
958	 0.128120955993936 
959	 0.128062707344413 
960	 0.128396186682547 
961	 0.12864759138039 
962	 0.128812341947049 
963	 0.129131498602319 
964	 0.129094196256642 
965	 0.129194919588451 
966	 0.129434459223389 
967	 0.129505047982499 
968	 0.12969713452743 
969	 0.129839249845103 
970	 0.129913303354761 
971	 0.130016698084397 
972	 0.13012231176198 
973	 0.130285467349414 
974	 0.130462665725925 
975	 0.130567306031789 
976	 0.130678582482136 
977	 0.130877943009024 
978	 0.131068123112961 
979	 0.131105449956414 
980	 0.131255405525378 
981	 0.131484494793232 
982	 0.131668120187051 
983	 0.131712437327972 
984	 0.131928203557529 
985	 0.131906740040949 
986	 0.131805024963128 
987	 0.132018628284359 
988	 0.132314103183157 
989	 0.132420975149341 
990	 0.132526810823027 
991	 0.132892680223057 
992	 0.13297428380448 
993	 0.132920128280542 
994	 0.13297397324229 
995	 0.13324160497657 
996	 0.133177591209608 
997	 0.133262934918602 
998	 0.133453406273997 
999	 0.133584022205606 
1000	 0.133910878022573 
1001	 0.130436942253234 
1002	 0.130528133152152 
1003	 0.130592882697892 
1004	 0.130673380144693 
1005	 0.130763896388682 
1006	 0.130847564092469 
1007	 0.130932381242577 
1008	 0.131005510296981 
1009	 0.131117080456924 
1010	 0.131144326788283 
1011	 0.131166204802693 
1012	 0.131295604818351 
1013	 0.131345315682777 
1014	 0.131365591449221 
1015	 0.131454210398562 
1016	 0.131500504796316 
1017	 0.131578380431152 
1018	 0.131663141388218 
1019	 0.131810733308379 
1020	 0.131914062413929 
1021	 0.132001656943487 
1022	 0.132073710716264 
1023	 0.13210419908471 
1024	 0.132124614893245 
1025	 0.132128507173841 
1026	 0.132133940705992 
1027	 0.132193870139121 
1028	 0.13225391408516 
1029	 0.132282546474105 
1030	 0.132336391375273 
1031	 0.132395392947557 
1032	 0.13244060108513 
1033	 0.132490835395758 
1034	 0.132578724660907 
1035	 0.132629512268391 
1036	 0.132634496202142 
1037	 0.132686822151824 
1038	 0.132743106492505 
1039	 0.132754035379519 
1040	 0.13282667974498 
1041	 0.132864450934255 
1042	 0.132856834713579 
1043	 0.132933087906323 
1044	 0.132992700046335 
1045	 0.13303380456312 
1046	 0.133107048246161 
1047	 0.133200638543667 
1048	 0.133241490673553 
1049	 0.133273690617357 
1050	 0.133243706216723 
1051	 0.133242443875828 
1052	 0.133276535734713 
1053	 0.13330682879552 
1054	 0.133334066903894 
1055	 0.13331404424199 
1056	 0.13331699475994 
1057	 0.133339452060148 
1058	 0.133376169219566 
1059	 0.133407063466875 
1060	 0.133481068132531 
1061	 0.133490784128222 
1062	 0.133454300481691 
1063	 0.133461743780761 
1064	 0.133507581902095 
1065	 0.1335407011693 
1066	 0.1335364997748 
1067	 0.133511729103435 
1068	 0.133479286606512 
1069	 0.133456610915748 
1070	 0.133460212094379 
1071	 0.133529794402804 
1072	 0.133563234542272 
1073	 0.133601960603608 
1074	 0.13360010900364 
1075	 0.133563770980881 
1076	 0.133553197792477 
1077	 0.1335521804037 
1078	 0.133524398385307 
1079	 0.133555403887727 
1080	 0.133603196011362 
1081	 0.133611727745279 
1082	 0.133656936539934 
1083	 0.133697903909814 
1084	 0.133780514146364 
1085	 0.133778162552169 
1086	 0.133702701202712 
1087	 0.133693507484207 
1088	 0.133667550721836 
1089	 0.133663396007766 
1090	 0.133723975415736 
1091	 0.133797625759724 
1092	 0.133820697612704 
1093	 0.133825836900538 
1094	 0.133837931212308 
1095	 0.133862039458875 
1096	 0.133853340976384 
1097	 0.133838172488352 
1098	 0.133859715412911 
1099	 0.133877094966573 
1100	 0.1339199386217 
1101	 0.134044610346845 
1102	 0.134083758006633 
1103	 0.13408478171033 
1104	 0.134080958817239 
1105	 0.134079922209574 
1106	 0.134088092122211 
1107	 0.134122861316478 
1108	 0.134168156801303 
1109	 0.134180580905563 
1110	 0.134182792923384 
1111	 0.134215336375113 
1112	 0.13427012714168 
1113	 0.134306704916204 
1114	 0.134355545577137 
1115	 0.134393380089354 
1116	 0.134408135566676 
1117	 0.134439676612609 
1118	 0.134472996926335 
1119	 0.134526304742901 
1120	 0.13456290929419 
1121	 0.134597559082921 
1122	 0.134635402632167 
1123	 0.13465554190121 
1124	 0.134690072080569 
1125	 0.134726214961338 
1126	 0.134775257805958 
1127	 0.134844352692156 
1128	 0.134886327902344 
1129	 0.134926646248989 
1130	 0.134967340822581 
1131	 0.134991596696984 
1132	 0.135015702678202 
1133	 0.13503031614283 
1134	 0.135069263194259 
1135	 0.13511922566338 
1136	 0.135156346358934 
1137	 0.135222248519716 
1138	 0.135290159065497 
1139	 0.135345289145801 
1140	 0.135404158683948 
1141	 0.135430864912841 
1142	 0.135426314014449 
1143	 0.135452967470877 
1144	 0.135464461965575 
1145	 0.135483251544645 
1146	 0.135529978004264 
1147	 0.135568954117135 
1148	 0.13559292425433 
1149	 0.13562748023324 
1150	 0.135683393031725 
1151	 0.135721769180494 
1152	 0.135751949021282 
1153	 0.135791398405013 
1154	 0.135830232752178 
1155	 0.135878477009333 
1156	 0.135908876448397 
1157	 0.135930239383568 
1158	 0.135950982936066 
1159	 0.135956043085688 
1160	 0.135974064614313 
1161	 0.136006821333746 
1162	 0.136028264221075 
1163	 0.136041252534955 
1164	 0.136061318787696 
1165	 0.136078819730997 
1166	 0.136097772331333 
1167	 0.136125470258473 
1168	 0.136158895741671 
1169	 0.136178050781754 
1170	 0.136192134061166 
1171	 0.136201566993418 
1172	 0.136196235116439 
1173	 0.136206839913752 
1174	 0.136219187598938 
1175	 0.136236583179709 
1176	 0.136260985649746 
1177	 0.136288596620883 
1178	 0.13632751748485 
1179	 0.136354106834167 
1180	 0.136377203865542 
1181	 0.136402336880968 
1182	 0.136415221688306 
1183	 0.136433771302753 
1184	 0.136468344322307 
1185	 0.136521670351443 
1186	 0.136556803599904 
1187	 0.136595322871702 
1188	 0.136628884963177 
1189	 0.136652470951986 
1190	 0.136678513054224 
1191	 0.136709025646211 
1192	 0.1367345130109 
1193	 0.136756557160617 
1194	 0.136773149997917 
1195	 0.136784358085815 
1196	 0.136798027988517 
1197	 0.136808000413482 
1198	 0.136816972012129 
1199	 0.136825951044384 
1200	 0.136837501059227 
1201	 0.136848846483424 
1202	 0.136851725924141 
1203	 0.136871986736402 
1204	 0.136905143070988 
1205	 0.136929871916143 
1206	 0.136962655018882 
1207	 0.136986874082315 
1208	 0.13700754996938 
1209	 0.137021402480901 
1210	 0.137024369646739 
1211	 0.137036554934471 
1212	 0.137038366116359 
1213	 0.137055004816876 
1214	 0.137092489931138 
1215	 0.137120941690182 
1216	 0.137149311557208 
1217	 0.137186372983806 
1218	 0.137203697019144 
1219	 0.13720852954856 
1220	 0.137217915377523 
1221	 0.137216380869314 
1222	 0.137225560007435 
1223	 0.137240258748863 
1224	 0.137253022145015 
1225	 0.13726603929712 
1226	 0.137281797915792 
1227	 0.137308348139812 
1228	 0.13731992017056 
1229	 0.137309785554198 
1230	 0.137325523011155 
1231	 0.137348150255453 
1232	 0.137368245321778 
1233	 0.137395468238616 
1234	 0.137454510855581 
1235	 0.137470120163956 
1236	 0.137456794891382 
1237	 0.137469330709418 
1238	 0.137476198187685 
1239	 0.137491618142753 
1240	 0.13753133448401 
1241	 0.137546681783935 
1242	 0.137542623947845 
1243	 0.13755231145443 
1244	 0.137556455689844 
1245	 0.137569556174691 
1246	 0.137594383177569 
1247	 0.137619670207567 
1248	 0.137658043213189 
1249	 0.137681790537762 
1250	 0.137691621694226 
1251	 0.137703111386054 
1252	 0.137717624020583 
1253	 0.137721465057835 
1254	 0.137731519446159 
1255	 0.137754977761369 
1256	 0.137767152151415 
1257	 0.137768723790812 
1258	 0.137774335274166 
1259	 0.137789861887351 
1260	 0.137787122025042 
1261	 0.137759437112994 
1262	 0.137758602518267 
1263	 0.137759787062561 
1264	 0.137765415432987 
1265	 0.137797965524808 
1266	 0.137816113572525 
1267	 0.137819317030655 
1268	 0.137827328400996 
1269	 0.137852516096602 
1270	 0.137887948303612 
1271	 0.13791559447851 
1272	 0.137956048696402 
1273	 0.137984317981354 
1274	 0.137998247218675 
1275	 0.138021614908909 
1276	 0.13805384845248 
1277	 0.138077950439344 
1278	 0.138096289104949 
1279	 0.138116628162958 
1280	 0.13813425193288 
1281	 0.138153552402316 
1282	 0.138179005814534 
1283	 0.138195803509202 
1284	 0.138207689017461 
1285	 0.138218854202443 
1286	 0.13821889991232 
1287	 0.138235180482184 
1288	 0.138250766683255 
1289	 0.138271418599299 
1290	 0.138288213726185 
1291	 0.138309735513501 
1292	 0.138320837932869 
1293	 0.138325652997668 
1294	 0.138336101615107 
1295	 0.138347447183503 
1296	 0.138350613689644 
1297	 0.138350331764278 
1298	 0.138353455890682 
1299	 0.138352980927755 
1300	 0.138348478331923 
1301	 0.138347101824597 
1302	 0.138343497775166 
1303	 0.138325327416634 
1304	 0.138326888516251 
1305	 0.13831908476516 
1306	 0.138282394169864 
1307	 0.138255080476151 
1308	 0.138227490221408 
1309	 0.138209232002743 
1310	 0.138195322251757 
1311	 0.138199197882439 
1312	 0.138223473533409 
1313	 0.138226118420904 
1314	 0.138235884541154 
1315	 0.138239391480886 
1316	 0.138214536650411 
1317	 0.138216722749826 
1318	 0.138236910032339 
1319	 0.138253331675564 
1320	 0.13828739797429 
1321	 0.138302565245665 
1322	 0.138305216782915 
1323	 0.138315937791167 
1324	 0.13831453499131 
1325	 0.138296836528146 
1326	 0.138288751472375 
1327	 0.13828900524166 
1328	 0.138300074507568 
1329	 0.138330205424484 
1330	 0.13835156375365 
1331	 0.138372561579037 
1332	 0.138408118857682 
1333	 0.138449858072119 
1334	 0.138487703346337 
1335	 0.138549138108269 
1336	 0.138583945034266 
1337	 0.138593950071286 
1338	 0.138616764379161 
1339	 0.138634594375913 
1340	 0.13865873792137 
1341	 0.138693714534479 
1342	 0.138721451422681 
1343	 0.138748773869683 
1344	 0.138765921402441 
1345	 0.138798728349776 
1346	 0.138843039540696 
1347	 0.138885685973173 
1348	 0.138929295929177 
1349	 0.138951812071786 
1350	 0.138968682677841 
1351	 0.138997600329324 
1352	 0.139029077586063 
1353	 0.139061719608489 
1354	 0.139098519376196 
1355	 0.139140596012735 
1356	 0.139187995786105 
1357	 0.139227493032058 
1358	 0.139276487547564 
1359	 0.139311130715819 
1360	 0.139329182072619 
1361	 0.139355740489615 
1362	 0.139378351824608 
1363	 0.139405041728699 
1364	 0.139436633820467 
1365	 0.139463385653215 
1366	 0.139485465864075 
1367	 0.139519464949522 
1368	 0.139545686464982 
1369	 0.139568755968062 
1370	 0.139586040860812 
1371	 0.139591921285765 
1372	 0.13960137320178 
1373	 0.139618717120747 
1374	 0.139638471492728 
1375	 0.139672473740147 
1376	 0.139690672913356 
1377	 0.139701547843404 
1378	 0.139714731512088 
1379	 0.139725233635698 
1380	 0.13973494779435 
1381	 0.139753913269248 
1382	 0.139755929204456 
1383	 0.139739186767471 
1384	 0.139730637074603 
1385	 0.139720648630309 
1386	 0.139705216848703 
1387	 0.139697733304423 
1388	 0.139681650374984 
1389	 0.139660465111264 
1390	 0.139620424483745 
1391	 0.13959546386876 
1392	 0.139552339683131 
1393	 0.139501638326026 
1394	 0.13946086969723 
1395	 0.13939049400823 
1396	 0.139317787149418 
1397	 0.139238230508812 
1398	 0.139142162582432 
1399	 0.139051682140824 
1400	 0.13896194483914 
1401	 0.138870793077382 
1402	 0.138784884855989 
1403	 0.138682421476697 
1404	 0.13856979430579 
1405	 0.138458204919849 
1406	 0.138330325198762 
1407	 0.138215961729144 
1408	 0.138102004483602 
1409	 0.138000175299471 
1410	 0.137907209457897 
1411	 0.137817910695522 
1412	 0.137733425422083 
1413	 0.137664558840284 
1414	 0.137598611458822 
1415	 0.137538568619413 
1416	 0.137486636610774 
1417	 0.137438901996428 
1418	 0.137395708950308 
1419	 0.137348354046031 
1420	 0.137309435514333 
1421	 0.137276962621501 
1422	 0.137232909225529 
1423	 0.137195171305246 
1424	 0.137170249090105 
1425	 0.137155691615969 
1426	 0.137136999420313 
1427	 0.137129846628417 
1428	 0.137113291475164 
1429	 0.137086273968029 
1430	 0.137071979676619 
1431	 0.137063374697097 
1432	 0.137055224912043 
1433	 0.137047922450297 
1434	 0.137046872004363 
1435	 0.13705449433878 
1436	 0.137054032483346 
1437	 0.137052667280667 
1438	 0.137057179820521 
1439	 0.137060709117187 
1440	 0.137059298523315 
1441	 0.137072329083798 
1442	 0.137093380220216 
1443	 0.137099603463243 
1444	 0.137097974911206 
1445	 0.137091298562035 
1446	 0.137092759629093 
1447	 0.137105175370325 
1448	 0.137113960208403 
1449	 0.137125481416981 
1450	 0.137138049967739 
1451	 0.137151968039573 
1452	 0.137160722826155 
1453	 0.13718094543408 
1454	 0.137215002859157 
1455	 0.137231283136911 
1456	 0.137246186409457 
1457	 0.137256757968295 
1458	 0.137253239249979 
1459	 0.137259443554113 
1460	 0.13726474154526 
1461	 0.137277211524209 
1462	 0.137298658524834 
1463	 0.137313775390303 
1464	 0.137328852473106 
1465	 0.137347568900667 
1466	 0.137361991430448 
1467	 0.137384655316569 
1468	 0.137417809522847 
1469	 0.137445116525787 
1470	 0.13747126865791 
1471	 0.137499421575255 
1472	 0.137526136524534 
1473	 0.137561047245039 
1474	 0.137598952158175 
1475	 0.137635669083607 
1476	 0.137678425249027 
1477	 0.137715218351202 
1478	 0.137744159785148 
1479	 0.137793157252426 
1480	 0.137832128658946 
1481	 0.137855591432143 
1482	 0.137893445667068 
1483	 0.137936410052565 
1484	 0.137968583481329 
1485	 0.138003517074302 
1486	 0.138045038321059 
1487	 0.138082056384047 
1488	 0.138121051447808 
1489	 0.13817079320755 
1490	 0.138204385434146 
1491	 0.138219655121911 
1492	 0.138257770663909 
1493	 0.138307058350293 
1494	 0.13834711400079 
1495	 0.138395875544915 
1496	 0.138436120852277 
1497	 0.138465456686698 
1498	 0.138496864535343 
1499	 0.138528493638368 
1500	 0.138558947084764 
1501	 0.138577420716391 
1502	 0.138608498807641 
1503	 0.138643490179071 
1504	 0.138691388664012 
1505	 0.138740789027661 
1506	 0.138787574396825 
1507	 0.138822931036475 
1508	 0.138847354181151 
1509	 0.138869008661927 
1510	 0.138888828612781 
1511	 0.138890997142404 
1512	 0.138903449766507 
1513	 0.138922129085421 
1514	 0.138928205712796 
1515	 0.138970106967929 
1516	 0.139016353976954 
1517	 0.139049228474929 
1518	 0.13908744014147 
1519	 0.139112302756598 
1520	 0.139121282471747 
1521	 0.139133159799328 
1522	 0.139141663495654 
1523	 0.13914975886134 
1524	 0.139149609474343 
1525	 0.139163171645226 
1526	 0.139181492423556 
1527	 0.139200103259646 
1528	 0.139227158212633 
1529	 0.139249679787689 
1530	 0.139271379882197 
1531	 0.139291069194451 
1532	 0.139307436562993 
1533	 0.139330301304247 
1534	 0.139354083650427 
1535	 0.139380606868185 
1536	 0.139411666810589 
1537	 0.139443119122527 
1538	 0.139480813505843 
1539	 0.13950780876518 
1540	 0.139537931178944 
1541	 0.139557988426956 
1542	 0.139562727297299 
1543	 0.13956837342148 
1544	 0.139557690874579 
1545	 0.139566516511403 
1546	 0.139583088255189 
1547	 0.139607668404692 
1548	 0.139632721299914 
1549	 0.139653466050288 
1550	 0.139657564903604 
1551	 0.139649581706332 
1552	 0.139655251768563 
1553	 0.1396634145616 
1554	 0.139676156208743 
1555	 0.139707278849141 
1556	 0.139715116547364 
1557	 0.139718052584292 
1558	 0.139735121273342 
1559	 0.139743407852199 
1560	 0.13976239243817 
1561	 0.139799982122387 
1562	 0.139820643519728 
1563	 0.139834490708477 
1564	 0.139849965373276 
1565	 0.139864379437049 
1566	 0.139875765180361 
1567	 0.139884689530985 
1568	 0.139892151983246 
1569	 0.139896566904727 
1570	 0.139900481427524 
1571	 0.139900239379953 
1572	 0.139904906640451 
1573	 0.139915438259148 
1574	 0.139916690974717 
1575	 0.139911758745509 
1576	 0.139917919524581 
1577	 0.139921241945325 
1578	 0.139926221010168 
1579	 0.139947422838562 
1580	 0.139954487072785 
1581	 0.139946718780639 
1582	 0.139950254615295 
1583	 0.139948611672489 
1584	 0.13996092509467 
1585	 0.139994459645485 
1586	 0.1400101144824 
1587	 0.140021191133856 
1588	 0.140039001182685 
1589	 0.140046522526905 
1590	 0.140061850438403 
1591	 0.140094489542042 
1592	 0.140116895592449 
1593	 0.140133435509163 
1594	 0.140151114124498 
1595	 0.140166899978965 
1596	 0.140182479833887 
1597	 0.140200495162318 
1598	 0.140211076223481 
1599	 0.140229106890374 
1600	 0.140226612911189 
1601	 0.140198716620047 
1602	 0.140183209519867 
1603	 0.140161846122077 
1604	 0.140138151642751 
1605	 0.140115435892348 
1606	 0.140101346491974 
1607	 0.14009042175612 
1608	 0.140068821038452 
1609	 0.140073457412051 
1610	 0.140083777739027 
1611	 0.140078109929943 
1612	 0.140102022300308 
1613	 0.140137191880748 
1614	 0.140157917453092 
1615	 0.140177445515467 
1616	 0.140194373763177 
1617	 0.140195059068492 
1618	 0.14019213425686 
1619	 0.140205679240084 
1620	 0.140206004675053 
1621	 0.140201130903882 
1622	 0.140190439005902 
1623	 0.140181389903691 
1624	 0.14015713233995 
1625	 0.140165290813174 
1626	 0.140194847175455 
1627	 0.140199074405472 
1628	 0.140210044446028 
1629	 0.140214387837754 
1630	 0.140196114658655 
1631	 0.14019863478271 
1632	 0.140220108422808 
1633	 0.14022129863631 
1634	 0.140212688075457 
1635	 0.140214048766937 
1636	 0.140206803163015 
1637	 0.140220652546928 
1638	 0.140260446850389 
1639	 0.140265148729885 
1640	 0.140267541054192 
1641	 0.140259593749938 
1642	 0.140220366599387 
1643	 0.140206494249294 
1644	 0.140201068568327 
1645	 0.140198818324863 
1646	 0.140206860403323 
1647	 0.140204016791086 
1648	 0.140203386984926 
1649	 0.140194294751078 
1650	 0.140173191538836 
1651	 0.140159935484885 
1652	 0.14014811156629 
1653	 0.14013463581152 
1654	 0.140112467633676 
1655	 0.140113343420088 
1656	 0.140124036354179 
1657	 0.14013594417381 
1658	 0.140166919926815 
1659	 0.140187897897369 
1660	 0.140211440390834 
1661	 0.14021672445082 
1662	 0.140210349156961 
1663	 0.140213274840963 
1664	 0.140198100135404 
1665	 0.140204847231954 
1666	 0.140242751882918 
1667	 0.140249326217955 
1668	 0.140252978974568 
1669	 0.140239669017651 
1670	 0.14018814237047 
1671	 0.140177515370994 
1672	 0.140176659139333 
1673	 0.140178167958053 
1674	 0.140206457169429 
1675	 0.140217892441872 
1676	 0.140209395789817 
1677	 0.140226375575608 
1678	 0.140265798439455 
1679	 0.140282014069446 
1680	 0.140300467954835 
1681	 0.140312180607605 
1682	 0.140301336873415 
1683	 0.140305589399481 
1684	 0.140330144926648 
1685	 0.140326284061906 
1686	 0.14030302476758 
1687	 0.140294865499173 
1688	 0.140278850137743 
1689	 0.140266050644741 
1690	 0.140258423067541 
1691	 0.140262012018421 
1692	 0.140269181266161 
1693	 0.140273074075918 
1694	 0.14029687816817 
1695	 0.14029776258377 
1696	 0.140271751719246 
1697	 0.140268174941951 
1698	 0.140277779697498 
1699	 0.140270756296199 
1700	 0.140259024381617 
1701	 0.140252951318014 
1702	 0.140237222025051 
1703	 0.140229642400094 
1704	 0.140242387756898 
1705	 0.140231351022761 
1706	 0.140198639547763 
1707	 0.140184344453898 
1708	 0.140164451962807 
1709	 0.140162826418931 
1710	 0.140184765421497 
1711	 0.140188694922539 
1712	 0.14020572473571 
1713	 0.140189276723584 
1714	 0.140138150426748 
1715	 0.140118047351175 
1716	 0.140092179233179 
1717	 0.140072436039044 
1718	 0.140068593595122 
1719	 0.140072085614483 
1720	 0.140082690237765 
1721	 0.14007725727978 
1722	 0.140085947892852 
1723	 0.140070027643947 
1724	 0.140012970245249 
1725	 0.139990075699857 
1726	 0.13998390116354 
1727	 0.139967699070265 
1728	 0.139953941517952 
1729	 0.139945946354009 
1730	 0.139938542762924 
1731	 0.139922963587043 
1732	 0.139915988002709 
1733	 0.139899835961185 
1734	 0.139860287917052 
1735	 0.139845692864046 
1736	 0.139851946429059 
1737	 0.139828925563094 
1738	 0.139799647808269 
1739	 0.139770570779193 
1740	 0.139730316100649 
1741	 0.139690856918156 
1742	 0.139654433315819 
1743	 0.139622991622763 
1744	 0.139574053604528 
1745	 0.139553258788192 
1746	 0.139550167052104 
1747	 0.139557762109998 
1748	 0.13956433671626 
1749	 0.139558753650987 
1750	 0.139559411672949 
1751	 0.13951297938006 
1752	 0.139476919698412 
1753	 0.13943989106937 
1754	 0.139396857487338 
1755	 0.139382901669562 
1756	 0.139359461896886 
1757	 0.139346654049916 
1758	 0.139325842363643 
1759	 0.139294700969579 
1760	 0.139276267074673 
1761	 0.139241884232334 
1762	 0.139220689971643 
1763	 0.139214940481633 
1764	 0.139207429017607 
1765	 0.13921633561739 
1766	 0.139220093584227 
1767	 0.139208015513618 
1768	 0.139207061925782 
1769	 0.139209989136674 
1770	 0.139192213261903 
1771	 0.139174531913846 
1772	 0.139161503095217 
1773	 0.139128022282378 
1774	 0.13909674857253 
1775	 0.139103013524711 
1776	 0.139086845631944 
1777	 0.139038936252006 
1778	 0.139032721750622 
1779	 0.139010184137225 
1780	 0.138975551453805 
1781	 0.138992751849965 
1782	 0.138996653357311 
1783	 0.138977064879834 
1784	 0.138961956218855 
1785	 0.13894128523495 
1786	 0.138916885075348 
1787	 0.138887996910026 
1788	 0.138877448425714 
1789	 0.138872652144076 
1790	 0.13885199562916 
1791	 0.138822563842633 
1792	 0.138807335751351 
1793	 0.138794248943882 
1794	 0.13878722732067 
1795	 0.138799468127886 
1796	 0.138813049774824 
1797	 0.138812706181204 
1798	 0.138819248419284 
1799	 0.138864525076601 
1800	 0.138875810896267 
1801	 0.135332644861642 
1802	 0.135386146274295 
1803	 0.135384221322307 
1804	 0.135391590740609 
1805	 0.135417796055509 
1806	 0.13543591619013 
1807	 0.135468403175228 
1808	 0.135483958280412 
1809	 0.135514346408289 
1810	 0.135529839781669 
1811	 0.135511003552475 
1812	 0.135522838029969 
1813	 0.135541069592707 
1814	 0.135541283708409 
1815	 0.135550751070867 
1816	 0.135518988092438 
1817	 0.135504581005457 
1818	 0.135478981210647 
1819	 0.135492880390031 
1820	 0.135522803175396 
1821	 0.135558786278112 
1822	 0.13560362625322 
1823	 0.135643539365104 
1824	 0.135624073910973 
1825	 0.135585511644246 
1826	 0.135564826685013 
1827	 0.135560979430674 
1828	 0.135549910468062 
1829	 0.135556880369379 
1830	 0.135546971442288 
1831	 0.135532616887266 
1832	 0.135486687248035 
1833	 0.135466003994085 
1834	 0.135448588942338 
1835	 0.135439456802116 
1836	 0.135465449039884 
1837	 0.13546664337977 
1838	 0.135463765584738 
1839	 0.1354712516872 
1840	 0.13548901206124 
1841	 0.135482984086991 
1842	 0.135481643580417 
1843	 0.135485894555567 
1844	 0.135498107188564 
1845	 0.13548591751818 
1846	 0.135455523312488 
1847	 0.135466055017917 
1848	 0.135454284248103 
1849	 0.135426380211465 
1850	 0.13541306545393 
1851	 0.135417795624528 
1852	 0.135403610759605 
1853	 0.135387298716113 
1854	 0.135375178763831 
1855	 0.135369751055834 
1856	 0.135354992890331 
1857	 0.135312399811255 
1858	 0.135279031409543 
1859	 0.135250948035469 
1860	 0.135203585078945 
1861	 0.13513761371985 
1862	 0.135075728953001 
1863	 0.135021694487457 
1864	 0.134954698035869 
1865	 0.134891443939155 
1866	 0.134836306122231 
1867	 0.134787728759303 
1868	 0.134734929142132 
1869	 0.134661569199805 
1870	 0.134597586212437 
1871	 0.134505110419926 
1872	 0.134389333555967 
1873	 0.134242794246657 
1874	 0.134121037775747 
1875	 0.133970152821756 
1876	 0.133792399063279 
1877	 0.133624624037699 
1878	 0.13344275624314 
1879	 0.133253226680137 
1880	 0.133058830621925 
1881	 0.132884772915771 
1882	 0.132671341789238 
1883	 0.132436130147835 
1884	 0.132174479156088 
1885	 0.131910303411975 
1886	 0.131615975331096 
1887	 0.131315868131582 
1888	 0.131011435905875 
1889	 0.13066328263527 
1890	 0.130292146291195 
1891	 0.129924730761771 
1892	 0.12953369830704 
1893	 0.12914904087438 
1894	 0.12876450886435 
1895	 0.128385220496247 
1896	 0.127998179664223 
1897	 0.127592310482227 
1898	 0.127177503866605 
1899	 0.126767710062716 
1900	 0.126341606277312 
1901	 0.125896528187256 
1902	 0.125478416319109 
1903	 0.12507382405093 
1904	 0.124673084240108 
1905	 0.124278934574579 
1906	 0.123904320606513 
1907	 0.12354706374262 
1908	 0.123199778592601 
1909	 0.122864854396932 
1910	 0.122560574709513 
1911	 0.122259000943037 
1912	 0.121961491228585 
1913	 0.121693728633384 
1914	 0.121455035425363 
1915	 0.1212221487834 
1916	 0.121003915755382 
1917	 0.120800516805473 
1918	 0.120625049141659 
1919	 0.120459438521042 
1920	 0.120317802478608 
1921	 0.120207261814194 
1922	 0.120088069855318 
1923	 0.119976173521524 
1924	 0.119868356584644 
1925	 0.119763404506551 
1926	 0.119665809319533 
1927	 0.119573722843103 
1928	 0.119487242128185 
1929	 0.119409121414137 
1930	 0.119343622711601 
1931	 0.119286525720975 
1932	 0.11922610700612 
1933	 0.119184189992356 
1934	 0.119174381251755 
1935	 0.119172713371991 
1936	 0.119208153758204 
1937	 0.119222760309723 
1938	 0.119238722157242 
1939	 0.119249289650982 
1940	 0.119250481851543 
1941	 0.119247884892293 
1942	 0.119258702938016 
1943	 0.119292186597074 
1944	 0.119341183517964 
1945	 0.119403404147823 
1946	 0.119468252558661 
1947	 0.119556530733162 
1948	 0.119628435253347 
1949	 0.119691567021972 
1950	 0.119763582963142 
1951	 0.119836600149027 
1952	 0.119907306158602 
1953	 0.119995842989759 
1954	 0.120071074691837 
1955	 0.120149097404308 
1956	 0.120241375452853 
1957	 0.120321788917188 
1958	 0.120390043406343 
1959	 0.120482268008107 
1960	 0.120586062113087 
1961	 0.120675268082288 
1962	 0.120771189522645 
1963	 0.120871382107057 
1964	 0.120950639182144 
1965	 0.121053900996778 
1966	 0.121181768619633 
1967	 0.121310465978549 
1968	 0.121446023130655 
1969	 0.121599119059317 
1970	 0.121734227082478 
1971	 0.121872235158259 
1972	 0.12200079948629 
1973	 0.122109016841409 
1974	 0.122230328513251 
1975	 0.122352540843044 
1976	 0.122483016615219 
1977	 0.122598203170736 
1978	 0.122733042900779 
1979	 0.122867021888274 
1980	 0.12299796006945 
1981	 0.123139467978374 
1982	 0.123303930717282 
1983	 0.123445759173666 
1984	 0.123584521763658 
1985	 0.12371218829177 
1986	 0.12381241020614 
1987	 0.123937563638422 
1988	 0.124063061872121 
1989	 0.124206885279761 
1990	 0.124353790780747 
1991	 0.12449218321023 
1992	 0.124626834296968 
1993	 0.124753189942088 
1994	 0.124876469536733 
1995	 0.124991207773892 
1996	 0.125117460641024 
1997	 0.125244369169719 
1998	 0.125371024166587 
1999	 0.125506771650954 
2000	 0.125638774763882 
2001	 0.125767044823624 
2002	 0.125891017646867 
2003	 0.126007811240953 
2004	 0.126149844184179 
2005	 0.126298885214154 
2006	 0.126470497698322 
2007	 0.126611734582753 
2008	 0.126757894087508 
2009	 0.126888117189416 
2010	 0.126987562218428 
2011	 0.127095247365662 
2012	 0.127197693004114 
2013	 0.127313059766323 
2014	 0.127424638029475 
2015	 0.127552929187568 
2016	 0.127676460328326 
2017	 0.12779343983907 
2018	 0.127910642249097 
2019	 0.128009776877542 
2020	 0.128126597036229 
2021	 0.128259814105093 
2022	 0.128383650375868 
2023	 0.128512606473659 
2024	 0.128632114056636 
2025	 0.128736923321562 
2026	 0.128853727356772 
2027	 0.128977453274279 
2028	 0.129092072444182 
2029	 0.129206365229805 
2030	 0.129322947279512 
2031	 0.129439457922957 
2032	 0.129561066650206 
2033	 0.129664771382903 
2034	 0.129766462161183 
2035	 0.129861337808299 
2036	 0.12992046885562 
2037	 0.130009201212902 
2038	 0.130113890180455 
2039	 0.130217980173992 
2040	 0.130341074142979 
2041	 0.130454570812617 
2042	 0.13054483446029 
2043	 0.130640161814399 
2044	 0.130721617541559 
2045	 0.130778240458924 
2046	 0.130856532803509 
2047	 0.130937366681469 
2048	 0.131020862974365 
2049	 0.131126283218397 
2050	 0.13120304636717 
2051	 0.13125683851328 
2052	 0.131326934858371 
2053	 0.131392414912768 
2054	 0.131456543900185 
2055	 0.131528782795966 
2056	 0.131606830844504 
2057	 0.131669749605255 
2058	 0.131712280163851 
2059	 0.131772761839514 
2060	 0.131843189700398 
2061	 0.131900122756137 
2062	 0.131945796228033 
2063	 0.132011559964064 
2064	 0.132079590974483 
2065	 0.132148876102614 
2066	 0.132240807849153 
2067	 0.13231996637877 
2068	 0.132393258354569 
2069	 0.132453402876496 
2070	 0.132526285750203 
2071	 0.132607927558513 
2072	 0.132673218672848 
2073	 0.132730370085996 
2074	 0.13279616968013 
2075	 0.132860887196211 
2076	 0.132918606082447 
2077	 0.132977929488171 
2078	 0.133036951011017 
2079	 0.133076514844907 
2080	 0.133136032324559 
2081	 0.133219238223543 
2082	 0.133288999210124 
2083	 0.133367201081229 
2084	 0.133426628547985 
2085	 0.133492632010407 
2086	 0.133554045441068 
2087	 0.1336114224066 
2088	 0.133663246380454 
2089	 0.133727917499155 
2090	 0.133786312745861 
2091	 0.133857533469215 
2092	 0.13395159416057 
2093	 0.134030010068546 
2094	 0.134105579221947 
2095	 0.134179127172167 
2096	 0.134253413956466 
2097	 0.134320340298595 
2098	 0.134379276503922 
2099	 0.134439464887092 
2100	 0.134498740509692 
2101	 0.13454766578839 
2102	 0.134609569535273 
2103	 0.134682768738263 
2104	 0.134744591343638 
2105	 0.134802510360189 
2106	 0.13486851903943 
2107	 0.134922726286442 
2108	 0.134998202109702 
2109	 0.135100278067259 
2110	 0.135185869336316 
2111	 0.135268608298413 
2112	 0.135359675533272 
2113	 0.135458511586407 
2114	 0.13553908483147 
2115	 0.135627539972228 
2116	 0.135731659361072 
2117	 0.13580700441113 
2118	 0.135865195424547 
2119	 0.135926604230863 
2120	 0.135973105861665 
2121	 0.136033205527186 
2122	 0.136098061702733 
2123	 0.136159023292565 
2124	 0.13622432149477 
2125	 0.136283788232347 
2126	 0.136348862217766 
2127	 0.136395981536649 
2128	 0.136421035679854 
2129	 0.13646107954866 
2130	 0.136499991493768 
2131	 0.136532087181518 
2132	 0.136569632263111 
2133	 0.13662825462115 
2134	 0.136658709734668 
2135	 0.136675505386422 
2136	 0.136684708921297 
2137	 0.136679198663803 
2138	 0.136676565850987 
2139	 0.136676893282468 
2140	 0.136654934943756 
2141	 0.136613650214818 
2142	 0.136583261843562 
2143	 0.136529560023572 
2144	 0.13649656051107 
2145	 0.136503110546786 
2146	 0.136476846023891 
2147	 0.136434914268748 
2148	 0.13640051095037 
2149	 0.136340847094678 
2150	 0.13624876606605 
2151	 0.136182413445734 
2152	 0.136112650250087 
2153	 0.136051155657608 
2154	 0.136005000965867 
2155	 0.135944368129068 
2156	 0.13589134026378 
2157	 0.135816054938167 
2158	 0.135727686714155 
2159	 0.135631933423679 
2160	 0.135509726518833 
2161	 0.135400413650088 
2162	 0.135302055333558 
2163	 0.135185175461297 
2164	 0.135055877882901 
2165	 0.134932937959403 
2166	 0.134811459741198 
2167	 0.134673831159674 
2168	 0.134558265864439 
2169	 0.134460824140297 
2170	 0.134357223536807 
2171	 0.13425067174401 
2172	 0.134155529695644 
2173	 0.134071217460255 
2174	 0.133985929483791 
2175	 0.13390738359024 
2176	 0.133827050805978 
2177	 0.133756970745331 
2178	 0.133667759911263 
2179	 0.133565530357171 
2180	 0.133468912897698 
2181	 0.133348607182785 
2182	 0.133251029703095 
2183	 0.133169571482308 
2184	 0.133094834900628 
2185	 0.133022353793432 
2186	 0.13296685973426 
2187	 0.132893437581883 
2188	 0.132807951580094 
2189	 0.132739641620374 
2190	 0.132677854208936 
2191	 0.132608468083317 
2192	 0.132543257067293 
2193	 0.132480410869113 
2194	 0.132403054340768 
2195	 0.132342137289496 
2196	 0.132305828415831 
2197	 0.132255022359573 
2198	 0.132185474538687 
2199	 0.132142750261248 
2200	 0.132127140306733 
2201	 0.132088252066873 
2202	 0.132052355034917 
2203	 0.132016916911801 
2204	 0.131978178680497 
2205	 0.131912568042964 
2206	 0.131872442151349 
2207	 0.13185150006347 
2208	 0.131825854109519 
2209	 0.131796234174818 
2210	 0.131778150731212 
2211	 0.131763732306173 
2212	 0.131766297103557 
2213	 0.131804370351142 
2214	 0.131797338328197 
2215	 0.131768934177445 
2216	 0.131762015938858 
2217	 0.131726502128662 
2218	 0.131717540894332 
2219	 0.131774553101115 
2220	 0.131776680722388 
2221	 0.131734462680203 
2222	 0.13171337591013 
2223	 0.131707934641406 
2224	 0.131693825321838 
2225	 0.131704690965212 
2226	 0.131766531859063 
2227	 0.131777079871038 
2228	 0.131750263604089 
2229	 0.131776220993071 
2230	 0.131822321130175 
2231	 0.131848309238849 
2232	 0.131900002569579 
2233	 0.131929335010176 
2234	 0.131916212423668 
2235	 0.131936973447285 
2236	 0.131997504743137 
2237	 0.132013357246065 
2238	 0.132027274248625 
2239	 0.132015906634121 
2240	 0.131930054389465 
2241	 0.131906816823003 
2242	 0.131900861659908 
2243	 0.131905069357664 
2244	 0.131958084985473 
2245	 0.132002186106358 
2246	 0.131997116365475 
2247	 0.131994853850944 
2248	 0.132009754824446 
2249	 0.132022805267033 
2250	 0.132026603023843 
2251	 0.132050592361516 
2252	 0.132043590937411 
2253	 0.131994735116005 
2254	 0.131984059307206 
2255	 0.13198711404322 
2256	 0.131982624342432 
2257	 0.131995097662372 
2258	 0.131984296803231 
2259	 0.131942789736077 
2260	 0.131937986692332 
2261	 0.131932700968179 
2262	 0.131943770942788 
2263	 0.131993305889434 
2264	 0.13202714744942 
2265	 0.132073185791789 
2266	 0.132097288024652 
2267	 0.132097231393731 
2268	 0.132111786972435 
2269	 0.132119333585329 
2270	 0.132131103277969 
2271	 0.132149895632064 
2272	 0.132172213821047 
2273	 0.132169357356811 
2274	 0.132149417536263 
2275	 0.132155476602397 
2276	 0.132167005886308 
2277	 0.132174053047176 
2278	 0.132186847421716 
2279	 0.132215231201108 
2280	 0.132240305857706 
2281	 0.132288320946186 
2282	 0.132384294108771 
2283	 0.13243355551818 
2284	 0.132479266078299 
2285	 0.132493341976009 
2286	 0.132454975731906 
2287	 0.132451039675177 
2288	 0.132450700201064 
2289	 0.132446617404834 
2290	 0.132431274610923 
2291	 0.132456234201626 
2292	 0.132491959850106 
2293	 0.132539343465504 
2294	 0.132670442684863 
2295	 0.13272754375232 
2296	 0.132760936718318 
2297	 0.132737554676616 
2298	 0.132712019852306 
2299	 0.132727765608007 
2300	 0.132782230391017 
2301	 0.132870288592633 
2302	 0.132913983972725 
2303	 0.132931314007784 
2304	 0.132948911988436 
2305	 0.132915273554276 
2306	 0.132874321413589 
2307	 0.132816299690834 
2308	 0.132780541517175 
2309	 0.132709573694654 
2310	 0.132686963255716 
2311	 0.132712178800183 
2312	 0.132713440185508 
2313	 0.132729833754451 
2314	 0.13272068311247 
2315	 0.132694132538446 
2316	 0.1326842813343 
2317	 0.132649316639948 
2318	 0.132650843056971 
2319	 0.132699855479997 
2320	 0.132707351912325 
2321	 0.132700484041754 
2322	 0.132703686477042 
2323	 0.132689388984564 
2324	 0.132695725031682 
2325	 0.132737438831156 
2326	 0.132766031369974 
2327	 0.132795567842192 
2328	 0.132801659194191 
2329	 0.13282739567167 
2330	 0.132823694394526 
2331	 0.132834082270935 
2332	 0.1328580656154 
2333	 0.132863056858792 
2334	 0.132836883261603 
2335	 0.132820262920284 
2336	 0.132798119644631 
2337	 0.132797650513752 
2338	 0.13285169524 
2339	 0.13286688464337 
2340	 0.132898083964143 
2341	 0.132932141950279 
2342	 0.132938573590762 
2343	 0.132970224839068 
2344	 0.132950419905503 
2345	 0.132919291730644 
2346	 0.132866597954211 
2347	 0.132805493581744 
2348	 0.132717796348256 
2349	 0.132648479442347 
2350	 0.13255450805934 
2351	 0.132519681905394 
2352	 0.132504942927819 
2353	 0.13250160016498 
2354	 0.132577999588524 
2355	 0.13256575445161 
2356	 0.132520091418882 
2357	 0.132473890641128 
2358	 0.132349596570833 
2359	 0.132320472071659 
2360	 0.1323772322823 
2361	 0.132353047673018 
2362	 0.132321002539288 
2363	 0.132270792396083 
2364	 0.132174778582465 
2365	 0.132060953646857 
2366	 0.13193231594995 
2367	 0.131861277302306 
2368	 0.13175756520041 
2369	 0.131694290287862 
2370	 0.131720030686942 
2371	 0.131681028272628 
2372	 0.131669598880594 
2373	 0.131652335450601 
2374	 0.131577621281708 
2375	 0.13152158628688 
2376	 0.131449598957673 
2377	 0.131369747784786 
2378	 0.131283381532096 
2379	 0.13125930424565 
2380	 0.131235881928299 
2381	 0.131156816618559 
2382	 0.131107005914778 
2383	 0.131032135054703 
2384	 0.13091071767645 
2385	 0.130805401150083 
2386	 0.130758834132051 
2387	 0.130749058295668 
2388	 0.130684651033993 
2389	 0.130582710815104 
2390	 0.130519937345553 
2391	 0.130376262263278 
2392	 0.130210777088876 
2393	 0.130158117128305 
2394	 0.130081970389562 
2395	 0.130041678455156 
2396	 0.130089239945515 
2397	 0.13007949352388 
2398	 0.130000444213457 
2399	 0.129875546679371 
2400	 0.129802980542468 
2401	 0.129831896905751 
2402	 0.129828163540274 
2403	 0.129804154254974 
2404	 0.129690853332224 
2405	 0.129550139869546 
2406	 0.129508403911027 
2407	 0.129478746471072 
2408	 0.129539230630458 
2409	 0.129534550155272 
2410	 0.129400265646031 
2411	 0.12931183534706 
2412	 0.12919141163759 
2413	 0.129048204697862 
2414	 0.128989939251323 
2415	 0.128962939330536 
2416	 0.128870553566152 
2417	 0.128738329678599 
2418	 0.128646096520711 
2419	 0.128518483979378 
2420	 0.12840998544779 
2421	 0.12832949719079 
2422	 0.128308885986028 
2423	 0.128314423869123 
2424	 0.128264677828512 
2425	 0.12828627878249 
2426	 0.128182664831777 
2427	 0.12797582238572 
2428	 0.127842851623415 
2429	 0.127686412861953 
2430	 0.127589676056064 
2431	 0.127477666098267 
2432	 0.127394937442039 
2433	 0.127400771598725 
2434	 0.127316742259238 
2435	 0.127246974577768 
2436	 0.12713006361461 
2437	 0.12690931320706 
2438	 0.126736167077483 
2439	 0.126528033745478 
2440	 0.126444585410618 
2441	 0.126467665753763 
2442	 0.12642781070132 
2443	 0.126465270728766 
2444	 0.126412974127315 
2445	 0.126235245215302 
2446	 0.126106126032301 
2447	 0.125999303479966 
2448	 0.125892749760772 
2449	 0.125780729063205 
2450	 0.125710507624803 
2451	 0.125652596674658 
2452	 0.125529882418163 
2453	 0.125421958844322 
2454	 0.125307243731273 
2455	 0.125211322662071 
2456	 0.125050607811946 
2457	 0.124752043403453 
2458	 0.124552023556414 
2459	 0.124331078488943 
2460	 0.124196028574244 
2461	 0.124214447955584 
2462	 0.124233515703481 
2463	 0.124353755718976 
2464	 0.124235559996564 
2465	 0.124015901581458 
2466	 0.123901726064976 
2467	 0.1235657706844 
2468	 0.123466416433313 
2469	 0.123660454681145 
2470	 0.123498196281788 
2471	 0.12340170917499 
2472	 0.123168425305882 
2473	 0.122900171324874 
2474	 0.122798705342974 
2475	 0.122770237075037 
2476	 0.122725441191726 
2477	 0.122733507739282 
2478	 0.122669213103703 
2479	 0.122437015902942 
2480	 0.122326898974322 
2481	 0.122337166968244 
2482	 0.122375314258226 
2483	 0.122516969185746 
2484	 0.122545372058384 
2485	 0.122431923195642 
2486	 0.122138038006257 
2487	 0.121893151618944 
2488	 0.121867994906026 
2489	 0.121821206638853 
2490	 0.121968090668893 
2491	 0.121951174394758 
2492	 0.121775196725849 
2493	 0.121871463283957 
2494	 0.121779866653279 
2495	 0.12172215788584 
2496	 0.121948172454857 
2497	 0.12165516933041 
2498	 0.121033590485187 
2499	 0.120645652981608 
2500	 0.120184577150403 
