Wavelength	LMW_2200008.asd
350	 7.12805899843448E-02 
351	 8.06905721248535E-02 
352	 8.07857283450418E-02 
353	 7.23249791671933E-02 
354	 6.91359045048926E-02 
355	 6.90596139631093E-02 
356	 6.89235575498649E-02 
357	 6.73699885141496E-02 
358	 7.20682488977716E-02 
359	 7.15802142387964E-02 
360	 6.87189928457581E-02 
361	 7.37389639428471E-02 
362	 6.96415167244821E-02 
363	 6.35749936619712E-02 
364	 6.18652167758508E-02 
365	 6.48110461030725E-02 
366	 6.97192918924622E-02 
367	 7.10639998027349E-02 
368	 6.66724239826999E-02 
369	 6.87724054626044E-02 
370	 7.05648933610924E-02 
371	 6.91821118137538E-02 
372	 6.55660675112022E-02 
373	 6.70773563865613E-02 
374	 6.82624985455841E-02 
375	 6.72332482736639E-02 
376	 7.16093212728467E-02 
377	 7.01636521156198E-02 
378	 6.74175036584907E-02 
379	 6.96986967061478E-02 
380	 6.99738292322881E-02 
381	 6.83924362050817E-02 
382	 0.068083781512501 
383	 0.073100189907414 
384	 7.18253495855312E-02 
385	 6.97229417567683E-02 
386	 0.071034265945784 
387	 7.29987345503669E-02 
388	 7.46034095921227E-02 
389	 7.58293064289062E-02 
390	 7.67736283250637E-02 
391	 0.075668203668488 
392	 7.69077179321484E-02 
393	 7.99472176777319E-02 
394	 0.080182775000974 
395	 7.94192274518279E-02 
396	 7.96608057949126E-02 
397	 8.18153224792796E-02 
398	 8.47432364355927E-02 
399	 8.63351520674183E-02 
400	 8.76206801091525E-02 
401	 0.090164120736885 
402	 9.12383107642759E-02 
403	 9.09023151821551E-02 
404	 9.05186501496498E-02 
405	 9.23928517685292E-02 
406	 9.48093751477369E-02 
407	 9.72338195852879E-02 
408	 9.89169053972513E-02 
409	 9.75485113226611E-02 
410	 9.78376276252771E-02 
411	 9.93990171107831E-02 
412	 9.98112266605946E-02 
413	 0.101256623435761 
414	 0.101956856411681 
415	 0.10144411212661 
416	 0.101242923110581 
417	 0.102256505704742 
418	 0.103141586505001 
419	 0.102689143353365 
420	 0.102105682660614 
421	 0.101393943540252 
422	 0.101279442797221 
423	 0.102582978434555 
424	 0.101958525912531 
425	 0.10111794709448 
426	 0.101039466479226 
427	 0.100179078883254 
428	 9.90987099852594E-02 
429	 9.79624220798296E-02 
430	 9.68716222359464E-02 
431	 9.61491598934263E-02 
432	 9.54398572485522E-02 
433	 9.48958530078245E-02 
434	 0.095119612550653 
435	 9.44999115113738E-02 
436	 9.42279166094239E-02 
437	 0.095014597855972 
438	 9.48199807889358E-02 
439	 9.51488062030925E-02 
440	 9.59578914048002E-02 
441	 9.65269405981435E-02 
442	 9.73974800838488E-02 
443	 9.83104413441985E-02 
444	 9.90344028802978E-02 
445	 9.94608218960272E-02 
446	 0.100309763337605 
447	 0.101340423870533 
448	 0.102170088430833 
449	 0.10314869178561 
450	 0.104136919148496 
451	 0.105052112224631 
452	 0.105876303183462 
453	 0.106586335286192 
454	 0.107191041770439 
455	 0.107785702072587 
456	 0.108687236282329 
457	 0.109474445038043 
458	 0.109992227442249 
459	 0.110295023709122 
460	 0.110991289757013 
461	 0.111450937620975 
462	 0.111512313317645 
463	 0.111804769766133 
464	 0.112374534635471 
465	 0.112934193018855 
466	 0.113240521605032 
467	 0.11374635404201 
468	 0.113854024712027 
469	 0.113708294780788 
470	 0.114021174334003 
471	 0.114282274368925 
472	 0.114498738420418 
473	 0.114749360975963 
474	 0.115109155302887 
475	 0.115252760221555 
476	 0.115202096475111 
477	 0.115153305908048 
478	 0.115245439714217 
479	 0.115452358442074 
480	 0.115699380904314 
481	 0.115870883744489 
482	 0.116204448942719 
483	 0.116486550244487 
484	 0.11650961281654 
485	 0.116606066777225 
486	 0.116682905136194 
487	 0.116734554610771 
488	 0.116832670941715 
489	 0.116967959835384 
490	 0.117060853366068 
491	 0.117103582552376 
492	 0.117320026798987 
493	 0.117312534705762 
494	 0.117267674284337 
495	 0.117582134732818 
496	 0.11798828199271 
497	 0.118157166656421 
498	 0.118088805603887 
499	 0.118265585123881 
500	 0.118367235022127 
501	 0.118399037233342 
502	 0.118455853770288 
503	 0.118627000453449 
504	 0.118617586741821 
505	 0.118532058376578 
506	 0.118817867570862 
507	 0.119098332343519 
508	 0.119243510751179 
509	 0.119244175088888 
510	 0.119251237010848 
511	 0.119340890257117 
512	 0.119433625949533 
513	 0.119392350673035 
514	 0.119392888527454 
515	 0.119559769147546 
516	 0.119842049646225 
517	 0.119911262627551 
518	 0.119952927819222 
519	 0.119982037767627 
520	 0.120006094126527 
521	 0.120277973626581 
522	 0.120445585692487 
523	 0.120445050411829 
524	 0.120542454521552 
525	 0.120672780711871 
526	 0.120747112359965 
527	 0.120740716207321 
528	 0.120856921879619 
529	 0.120969938295327 
530	 0.121057659980869 
531	 0.121158515643378 
532	 0.121131390066956 
533	 0.121232368020467 
534	 0.121520002404001 
535	 0.121523856475601 
536	 0.121540170294765 
537	 0.121677662861167 
538	 0.121933774601386 
539	 0.122065552594897 
540	 0.122116780495706 
541	 0.122179855401884 
542	 0.122378631205834 
543	 0.12247237502597 
544	 0.122592554963537 
545	 0.122871877983844 
546	 0.12302963600848 
547	 0.12312748021263 
548	 0.123237594767691 
549	 0.123428815862026 
550	 0.123689773228355 
551	 0.123936832575628 
552	 0.124136382417125 
553	 0.124420372358973 
554	 0.124683573242418 
555	 0.124980757473646 
556	 0.125415586334965 
557	 0.125732611163703 
558	 0.126049315459582 
559	 0.126451387444354 
560	 0.126898695970209 
561	 0.127322490716333 
562	 0.127769457679326 
563	 0.128287628092385 
564	 0.128681964866465 
565	 0.129122890356885 
566	 0.129634402569257 
567	 0.13005780234812 
568	 0.130695754338702 
569	 0.131452437876155 
570	 0.132178748169275 
571	 0.132893664683701 
572	 0.133651967818869 
573	 0.134468080850029 
574	 0.135325452600901 
575	 0.136219930179944 
576	 0.137153629277149 
577	 0.138093283157733 
578	 0.138928326859488 
579	 0.139705972984573 
580	 0.140371123895045 
581	 0.140884423118853 
582	 0.141569267425821 
583	 0.1423578396247 
584	 0.143220713728286 
585	 0.144239400225129 
586	 0.145420074439561 
587	 0.146662194174876 
588	 0.147853253276023 
589	 0.14899223579406 
590	 0.150192059516689 
591	 0.151481643240667 
592	 0.15280901405879 
593	 0.154085318812795 
594	 0.15538301786698 
595	 0.156687543394736 
596	 0.157660958737311 
597	 0.15850261840852 
598	 0.159337996885762 
599	 0.160238191244217 
600	 0.161081017526086 
601	 0.161953980375266 
602	 0.162883873051272 
603	 0.163749571040841 
604	 0.164663283116016 
605	 0.165589944706722 
606	 0.1664560923101 
607	 0.167273851453967 
608	 0.168118989174558 
609	 0.169010327582721 
610	 0.169895835350519 
611	 0.170662855828784 
612	 0.171297487129615 
613	 0.171839155778404 
614	 0.172399052211151 
615	 0.172932743850095 
616	 0.173436897680854 
617	 0.173934837537418 
618	 0.174453438590634 
619	 0.174902753036598 
620	 0.175252942068651 
621	 0.175629138616754 
622	 0.176047328649344 
623	 0.176444519436286 
624	 0.176751035149459 
625	 0.177122075512712 
626	 0.177482207849284 
627	 0.1778057698023 
628	 0.178157003475159 
629	 0.178489525514235 
630	 0.178798483444619 
631	 0.179077873932936 
632	 0.179255890345671 
633	 0.179492608151492 
634	 0.179806208178408 
635	 0.180094818032526 
636	 0.180355873916683 
637	 0.180596425241805 
638	 0.180835365015098 
639	 0.181113509097411 
640	 0.181386350071559 
641	 0.181643241700091 
642	 0.181893983748358 
643	 0.182179934696384 
644	 0.182433247018162 
645	 0.182644037574631 
646	 0.182898465924963 
647	 0.183233949456089 
648	 0.183564153759406 
649	 0.183809863821621 
650	 0.184095491695588 
651	 0.184375556177815 
652	 0.184633644822874 
653	 0.184886323353423 
654	 0.185208686622682 
655	 0.185534309923477 
656	 0.185817766940335 
657	 0.186133620805015 
658	 0.186436850769577 
659	 0.186754258262281 
660	 0.187127180292465 
661	 0.187444990220386 
662	 0.187748864808113 
663	 0.188081807515727 
664	 0.188466858468891 
665	 0.188879485114562 
666	 0.189271821731643 
667	 0.189616866299058 
668	 0.189992472491907 
669	 0.19037915200742 
670	 0.190773302930024 
671	 0.191184302798467 
672	 0.191594708183536 
673	 0.192044561929655 
674	 0.192538187397911 
675	 0.192973522821414 
676	 0.193416549783102 
677	 0.193870147973007 
678	 0.194318065252569 
679	 0.194801968674979 
680	 0.195270476326067 
681	 0.195712544607502 
682	 0.196178653390278 
683	 0.196708760510947 
684	 0.197236639922261 
685	 0.197708626377872 
686	 0.198228933261382 
687	 0.198738081407947 
688	 0.199237282954755 
689	 0.199765954503599 
690	 0.200272168339227 
691	 0.200755684033629 
692	 0.201252122076657 
693	 0.201865116781994 
694	 0.202401307474936 
695	 0.202886501740602 
696	 0.203414897772795 
697	 0.203968459652498 
698	 0.204495405728207 
699	 0.205004532560624 
700	 0.205567761159795 
701	 0.206140284455113 
702	 0.206681941575207 
703	 0.207182449883789 
704	 0.207711599641945 
705	 0.208236407532153 
706	 0.208746313138284 
707	 0.209244088118749 
708	 0.209754460716589 
709	 0.210262764051522 
710	 0.210758433917879 
711	 0.211244824313098 
712	 0.211726507361353 
713	 0.212202645418257 
714	 0.212670733894505 
715	 0.213126660444725 
716	 0.213586186691544 
717	 0.214033150381807 
718	 0.214430614785826 
719	 0.214780593937152 
720	 0.215167106873567 
721	 0.215597162874798 
722	 0.215907759922322 
723	 0.216216642402902 
724	 0.216518564954489 
725	 0.216777913042924 
726	 0.217011666319413 
727	 0.217287609637032 
728	 0.217599531235295 
729	 0.217870844809315 
730	 0.218096386686745 
731	 0.218283078788787 
732	 0.218449551349378 
733	 0.218637104478399 
734	 0.218775531463881 
735	 0.218861333142124 
736	 0.218922772738376 
737	 0.21898272973681 
738	 0.219062680436739 
739	 0.219126202751116 
740	 0.219081565002415 
741	 0.219082641156777 
742	 0.219081772212531 
743	 0.219021233709757 
744	 0.218938198224561 
745	 0.21883271791136 
746	 0.218716957903477 
747	 0.218601551361883 
748	 0.218448308322623 
749	 0.218300820529285 
750	 0.218156497085303 
751	 0.217949988479582 
752	 0.217660046887516 
753	 0.217365160472981 
754	 0.217121095956445 
755	 0.216843655768576 
756	 0.216574598864407 
757	 0.216326368880871 
758	 0.216081015150613 
759	 0.215725028489845 
760	 0.215339888193703 
761	 0.214972346453358 
762	 0.214600500475178 
763	 0.214174195593214 
764	 0.213753132590598 
765	 0.213382587940923 
766	 0.212986057836495 
767	 0.212573802440659 
768	 0.212148424597156 
769	 0.211704127105656 
770	 0.211189503667894 
771	 0.21073254586723 
772	 0.210339945902331 
773	 0.209861837233749 
774	 0.209457211944371 
775	 0.209011582145446 
776	 0.208453278745305 
777	 0.207996656107626 
778	 0.207486220994983 
779	 0.206963495373953 
780	 0.206527858612454 
781	 0.20603979962055 
782	 0.205574089000532 
783	 0.205121105116706 
784	 0.204576167312898 
785	 0.204088024215389 
786	 0.203601127464771 
787	 0.203068508243353 
788	 0.202556714871686 
789	 0.202070807637665 
790	 0.201590880532459 
791	 0.201099822747137 
792	 0.20066901473494 
793	 0.200181343459956 
794	 0.199636751322639 
795	 0.199138797636018 
796	 0.198637138768869 
797	 0.198132052535765 
798	 0.197652971665853 
799	 0.197274132377453 
800	 0.196816974328473 
801	 0.196323728322452 
802	 0.195876193958559 
803	 0.195419880009642 
804	 0.194964910682654 
805	 0.194509269490026 
806	 0.194048387380988 
807	 0.193621280692918 
808	 0.193188074202493 
809	 0.192731323454708 
810	 0.192274494157633 
811	 0.191900408537176 
812	 0.191515708431988 
813	 0.191066819232148 
814	 0.190726991766713 
815	 0.190347704278128 
816	 0.189915563007966 
817	 0.189485125338396 
818	 0.189136982975037 
819	 0.188806993462344 
820	 0.188455967100321 
821	 0.18807656824497 
822	 0.187657003762391 
823	 0.187292218084953 
824	 0.187004757091274 
825	 0.186676947430986 
826	 0.186371381286635 
827	 0.186023331340107 
828	 0.185604497570052 
829	 0.185299088332098 
830	 0.185017692231618 
831	 0.184746578229651 
832	 0.184491314690331 
833	 0.184137045562547 
834	 0.183839463300345 
835	 0.183620809482431 
836	 0.183364675084002 
837	 0.183108030227743 
838	 0.182849598663665 
839	 0.182569287524642 
840	 0.182218984355204 
841	 0.182004337912675 
842	 0.181854335072932 
843	 0.181656044200638 
844	 0.181428405847278 
845	 0.181265328755949 
846	 0.181107031264178 
847	 0.180857274030531 
848	 0.180662702479586 
849	 0.180453923316827 
850	 0.180239805885961 
851	 0.18009786756629 
852	 0.179996747677131 
853	 0.179845039133682 
854	 0.179612622711797 
855	 0.179370234399541 
856	 0.179269225319117 
857	 0.179254622098829 
858	 0.179216346021486 
859	 0.17904322465909 
860	 0.178914007457691 
861	 0.178818745954527 
862	 0.178690172933378 
863	 0.178529153671597 
864	 0.178466677581854 
865	 0.178439375766763 
866	 0.178301070537261 
867	 0.178253111953446 
868	 0.178247489323442 
869	 0.178219947369317 
870	 0.178125636910231 
871	 0.178075061053793 
872	 0.178033338434245 
873	 0.1779851619499 
874	 0.177985285850961 
875	 0.177995695523749 
876	 0.178000040441882 
877	 0.177988950526285 
878	 0.177950385849769 
879	 0.177954791274235 
880	 0.178014417017575 
881	 0.178098537021007 
882	 0.178118379329365 
883	 0.178092773581174 
884	 0.178060967386725 
885	 0.178074517463364 
886	 0.17819015093318 
887	 0.178299775802573 
888	 0.17836305184644 
889	 0.178415465010608 
890	 0.178508488543173 
891	 0.178582916091218 
892	 0.178607655301765 
893	 0.17861038286249 
894	 0.178675790747461 
895	 0.178825176307103 
896	 0.179025966774226 
897	 0.179184671617318 
898	 0.179289801827561 
899	 0.17941048735286 
900	 0.179595976134159 
901	 0.179786852950072 
902	 0.179922043154048 
903	 0.180002833408185 
904	 0.18009091206554 
905	 0.180365332593708 
906	 0.180583633565995 
907	 0.18070743897146 
908	 0.180817842145987 
909	 0.180987771452404 
910	 0.181258812174126 
911	 0.181561209930798 
912	 0.181771240077005 
913	 0.181918838286719 
914	 0.182102808136129 
915	 0.182342164980764 
916	 0.18258056982466 
917	 0.182831096259277 
918	 0.183103362334588 
919	 0.18338398940754 
920	 0.183639143810534 
921	 0.183944114013898 
922	 0.18421209390615 
923	 0.184420321407446 
924	 0.184677541374084 
925	 0.185051612449633 
926	 0.185404485251658 
927	 0.185648772766017 
928	 0.185874189714203 
929	 0.18618435662948 
930	 0.186540485212703 
931	 0.186891548687028 
932	 0.187260885541103 
933	 0.187619957597198 
934	 0.187973743472372 
935	 0.188315027206898 
936	 0.188564098470657 
937	 0.18890357369371 
938	 0.189285696543372 
939	 0.189632820967241 
940	 0.190064522583334 
941	 0.190471578060567 
942	 0.190885192808604 
943	 0.191332421569293 
944	 0.191589735071488 
945	 0.191882424849203 
946	 0.192291446153267 
947	 0.19278451112305 
948	 0.193218634627465 
949	 0.193633945715565 
950	 0.193998963329095 
951	 0.194315898290805 
952	 0.194933602886853 
953	 0.195411586262483 
954	 0.195742692575073 
955	 0.196164462768568 
956	 0.19663656355436 
957	 0.197118333201923 
958	 0.197595460746242 
959	 0.198074019854367 
960	 0.198579154471247 
961	 0.19891999751401 
962	 0.199224928567403 
963	 0.19974538331093 
964	 0.200105439895987 
965	 0.200647186065181 
966	 0.201285466856796 
967	 0.201696892056642 
968	 0.202151649679159 
969	 0.202615736672682 
970	 0.203073399121055 
971	 0.20353240374144 
972	 0.20399112850022 
973	 0.204509193029998 
974	 0.205006891214452 
975	 0.205372899583396 
976	 0.205886961762028 
977	 0.206374238554266 
978	 0.206814084941053 
979	 0.2072913948431 
980	 0.207748448785054 
981	 0.208193350930875 
982	 0.208712262656595 
983	 0.209360351415679 
984	 0.209816719977625 
985	 0.2101791339749 
986	 0.210556825182302 
987	 0.211022316327089 
988	 0.211528863641744 
989	 0.211945308853922 
990	 0.212399490287814 
991	 0.21303629188624 
992	 0.213463526657289 
993	 0.213762111028805 
994	 0.214136651316761 
995	 0.214716218155738 
996	 0.215146120396564 
997	 0.215709284100998 
998	 0.216173881658327 
999	 0.21635774182143 
1000	 0.21697994088473 
1001	 0.21520778425784 
1002	 0.21563570994985 
1003	 0.216045973963762 
1004	 0.216448374081822 
1005	 0.216825475561844 
1006	 0.217190218309958 
1007	 0.217542881571117 
1008	 0.217912718468256 
1009	 0.218240538934469 
1010	 0.21862391676914 
1011	 0.219043100484424 
1012	 0.219390291387943 
1013	 0.219772462328992 
1014	 0.22014370954365 
1015	 0.220467102049385 
1016	 0.220849091744512 
1017	 0.221193463732049 
1018	 0.221522888606873 
1019	 0.221829749224823 
1020	 0.222176095854276 
1021	 0.222484351621766 
1022	 0.2228047197914 
1023	 0.223204493812987 
1024	 0.223541468898368 
1025	 0.223835176622102 
1026	 0.224147978117755 
1027	 0.224435772817498 
1028	 0.224727157583428 
1029	 0.224986456817927 
1030	 0.225262178705911 
1031	 0.225547051781387 
1032	 0.225824865984687 
1033	 0.226063378681052 
1034	 0.226332774591894 
1035	 0.226591150640567 
1036	 0.22678755230243 
1037	 0.226996328276929 
1038	 0.227242956090215 
1039	 0.227471215170228 
1040	 0.227695375845623 
1041	 0.227917024615574 
1042	 0.228097126459026 
1043	 0.228315467064993 
1044	 0.228548089936045 
1045	 0.22881688649932 
1046	 0.229014850781769 
1047	 0.229200017452038 
1048	 0.229383118921915 
1049	 0.229528777054337 
1050	 0.229716129548778 
1051	 0.229961804314606 
1052	 0.230198045690671 
1053	 0.230400634645769 
1054	 0.230635352997833 
1055	 0.230853066572819 
1056	 0.231056514863241 
1057	 0.231266441706023 
1058	 0.231465262217308 
1059	 0.231664292865846 
1060	 0.231874210348753 
1061	 0.23206256923809 
1062	 0.232237790151781 
1063	 0.232479376744298 
1064	 0.232715184491935 
1065	 0.232956971434984 
1066	 0.233188315356568 
1067	 0.233344549178807 
1068	 0.23349325616061 
1069	 0.233659227556551 
1070	 0.23386467279653 
1071	 0.234151255405439 
1072	 0.234361974189235 
1073	 0.234555740637209 
1074	 0.234746930262976 
1075	 0.234904480914446 
1076	 0.235046844456071 
1077	 0.2352204857342 
1078	 0.23539889058813 
1079	 0.235593593683308 
1080	 0.235788777304624 
1081	 0.235971151775265 
1082	 0.236164843441836 
1083	 0.23633587563523 
1084	 0.236484859888362 
1085	 0.236621317375375 
1086	 0.236723748262913 
1087	 0.236864587448026 
1088	 0.237014058801736 
1089	 0.237158343541348 
1090	 0.237291644076552 
1091	 0.237448172854753 
1092	 0.237584255641516 
1093	 0.237719113076172 
1094	 0.237912335611237 
1095	 0.238103769577504 
1096	 0.238241000485528 
1097	 0.238371317735165 
1098	 0.238525720466515 
1099	 0.238678970671547 
1100	 0.238830971666186 
1101	 0.239025284174393 
1102	 0.239164632248055 
1103	 0.239267667514254 
1104	 0.239351706910387 
1105	 0.239482829347285 
1106	 0.239633866033465 
1107	 0.239772984705846 
1108	 0.23994190946857 
1109	 0.240076419511457 
1110	 0.240191112726258 
1111	 0.24031551545985 
1112	 0.240445870944025 
1113	 0.240572783277335 
1114	 0.240691661020752 
1115	 0.24081832355615 
1116	 0.240950534639523 
1117	 0.241083456609463 
1118	 0.241219219006173 
1119	 0.241356747686355 
1120	 0.241477716077243 
1121	 0.24159491548462 
1122	 0.241691580751163 
1123	 0.241788111222038 
1124	 0.241903708206051 
1125	 0.242034169340703 
1126	 0.242145819146061 
1127	 0.242267157679051 
1128	 0.242374916529661 
1129	 0.242460368405359 
1130	 0.242561669077514 
1131	 0.242672317315313 
1132	 0.242769200841884 
1133	 0.24286041108737 
1134	 0.242957926227956 
1135	 0.243068081916093 
1136	 0.243156890357261 
1137	 0.243211741833981 
1138	 0.243245910242505 
1139	 0.24330328138492 
1140	 0.243332736519399 
1141	 0.243392780517708 
1142	 0.243502173682838 
1143	 0.243569752289299 
1144	 0.243616448729252 
1145	 0.243668439897078 
1146	 0.243704343815769 
1147	 0.243751936478152 
1148	 0.243801206937566 
1149	 0.243859012778492 
1150	 0.243921044990983 
1151	 0.24400261545129 
1152	 0.244071886838135 
1153	 0.24412088730207 
1154	 0.244166677597226 
1155	 0.244196863431165 
1156	 0.244231837671195 
1157	 0.244259033069494 
1158	 0.244295111651895 
1159	 0.244322097704327 
1160	 0.244374149187548 
1161	 0.244449145033974 
1162	 0.244513907287591 
1163	 0.244587564739796 
1164	 0.244656434157217 
1165	 0.244719644949789 
1166	 0.244779880465914 
1167	 0.244850714624471 
1168	 0.244935336803332 
1169	 0.244994563158452 
1170	 0.245041996168472 
1171	 0.245098688644293 
1172	 0.245137689545303 
1173	 0.245202024391493 
1174	 0.245292919185028 
1175	 0.245360416539127 
1176	 0.245427525488983 
1177	 0.245490629823556 
1178	 0.245537630244781 
1179	 0.245596485065205 
1180	 0.245653056177496 
1181	 0.245722107325536 
1182	 0.24580710509286 
1183	 0.24588373445362 
1184	 0.245960117134841 
1185	 0.246046421739189 
1186	 0.246121103690003 
1187	 0.246185042289434 
1188	 0.246252558523615 
1189	 0.246329972259161 
1190	 0.246384920855456 
1191	 0.246417510144922 
1192	 0.246468380596702 
1193	 0.246510430511003 
1194	 0.246563653868097 
1195	 0.246647784706842 
1196	 0.246705401397818 
1197	 0.246737139399657 
1198	 0.246789343659965 
1199	 0.246844904400226 
1200	 0.246895840644568 
1201	 0.246950034398817 
1202	 0.247019856996427 
1203	 0.247078325070105 
1204	 0.247128126469422 
1205	 0.247178191416063 
1206	 0.247232200648376 
1207	 0.247280765645773 
1208	 0.247320022193502 
1209	 0.247362383405448 
1210	 0.247407380290563 
1211	 0.247449713509582 
1212	 0.247489063738575 
1213	 0.247528037655418 
1214	 0.247568439325151 
1215	 0.247605097464576 
1216	 0.247639459435657 
1217	 0.247669741511931 
1218	 0.247704407447339 
1219	 0.247737572056233 
1220	 0.247773374683871 
1221	 0.24781596159924 
1222	 0.24784974104383 
1223	 0.247877901328594 
1224	 0.247909953439845 
1225	 0.247942782774407 
1226	 0.247970953652204 
1227	 0.247998954385513 
1228	 0.24802619159848 
1229	 0.248050515637805 
1230	 0.248071444451825 
1231	 0.248089338948984 
1232	 0.248109848312419 
1233	 0.248129697838129 
1234	 0.248147635713134 
1235	 0.248161700087312 
1236	 0.248174220562567 
1237	 0.248191140960918 
1238	 0.248200454164687 
1239	 0.248221172643991 
1240	 0.248259204254276 
1241	 0.248281461427356 
1242	 0.248297581839612 
1243	 0.248317464672814 
1244	 0.248333590537617 
1245	 0.248348805480226 
1246	 0.248365474326715 
1247	 0.24838320617148 
1248	 0.248392874667862 
1249	 0.248413725600027 
1250	 0.24844080201947 
1251	 0.248459927063126 
1252	 0.248470857685987 
1253	 0.248472506444464 
1254	 0.24848194587371 
1255	 0.248497340463992 
1256	 0.24849041445111 
1257	 0.248469505072857 
1258	 0.248461920731132 
1259	 0.248437472841823 
1260	 0.248427539126889 
1261	 0.248447450651017 
1262	 0.24844553170073 
1263	 0.248418461280638 
1264	 0.24841479330788 
1265	 0.248426301968685 
1266	 0.248427810817298 
1267	 0.248440637794473 
1268	 0.248441765676752 
1269	 0.248447527779629 
1270	 0.248441382545259 
1271	 0.248442191623035 
1272	 0.24845202338484 
1273	 0.248459382611233 
1274	 0.248462040330659 
1275	 0.248464148342441 
1276	 0.248474409235006 
1277	 0.248476032151643 
1278	 0.24847394988192 
1279	 0.248464274467176 
1280	 0.248424962277951 
1281	 0.248424662598733 
1282	 0.248444466152253 
1283	 0.248457566979254 
1284	 0.248488598720153 
1285	 0.248526875020877 
1286	 0.2485659560496 
1287	 0.248581827532586 
1288	 0.248610643791131 
1289	 0.248653565724218 
1290	 0.248690990729387 
1291	 0.248716148374755 
1292	 0.248759425758014 
1293	 0.24882107211386 
1294	 0.248868315219556 
1295	 0.248929279253831 
1296	 0.248955732456536 
1297	 0.24895884729967 
1298	 0.248965261370896 
1299	 0.248939882657955 
1300	 0.248939923423952 
1301	 0.248960260732697 
1302	 0.248968135297879 
1303	 0.248980073092683 
1304	 0.248987244899241 
1305	 0.248988795343156 
1306	 0.248982484275462 
1307	 0.24896693464888 
1308	 0.248965392358492 
1309	 0.248951089492865 
1310	 0.248924276050011 
1311	 0.248905680348342 
1312	 0.248896890501577 
1313	 0.248863471720659 
1314	 0.248817835266774 
1315	 0.248779152987666 
1316	 0.248722013951645 
1317	 0.248681301147646 
1318	 0.248660243266157 
1319	 0.248624297191867 
1320	 0.248593218020457 
1321	 0.248547136119262 
1322	 0.248486043885353 
1323	 0.248424835225409 
1324	 0.248376104015268 
1325	 0.248304669934215 
1326	 0.248245792974499 
1327	 0.248188734931195 
1328	 0.248107917139143 
1329	 0.248036617227326 
1330	 0.247967527830315 
1331	 0.247904390031053 
1332	 0.24783054379136 
1333	 0.247753167294571 
1334	 0.247681190287016 
1335	 0.247601607413407 
1336	 0.247523659683233 
1337	 0.24744441462663 
1338	 0.247382075010562 
1339	 0.247325532519281 
1340	 0.247275200590966 
1341	 0.247256843319147 
1342	 0.247209766797338 
1343	 0.24715045370832 
1344	 0.24707491474835 
1345	 0.24701958873496 
1346	 0.246973586034419 
1347	 0.246930292531421 
1348	 0.246891319864713 
1349	 0.246840626959595 
1350	 0.246783579585779 
1351	 0.246741511806906 
1352	 0.246718556635397 
1353	 0.246669596161241 
1354	 0.246620067939779 
1355	 0.246556693576221 
1356	 0.246467042418178 
1357	 0.246401147000139 
1358	 0.246332359952759 
1359	 0.246275344288197 
1360	 0.246247108790549 
1361	 0.246188605724867 
1362	 0.246121366182723 
1363	 0.246055261792336 
1364	 0.245975907138237 
1365	 0.245889596431977 
1366	 0.245800443308772 
1367	 0.245721475579473 
1368	 0.24561094789645 
1369	 0.245498393625378 
1370	 0.245381733998256 
1371	 0.245240405120552 
1372	 0.245108653500193 
1373	 0.244976669459875 
1374	 0.244819725236031 
1375	 0.244653014383592 
1376	 0.244474717428082 
1377	 0.244272351745006 
1378	 0.244070095429562 
1379	 0.243875542111053 
1380	 0.243645222611503 
1381	 0.243399680363804 
1382	 0.243122788566883 
1383	 0.242819902845572 
1384	 0.242496328404833 
1385	 0.242155847384805 
1386	 0.241790470228935 
1387	 0.241405347706144 
1388	 0.24099268999585 
1389	 0.240557827417931 
1390	 0.240084907443056 
1391	 0.239602343120861 
1392	 0.239088357942049 
1393	 0.238546620705179 
1394	 0.237993556355226 
1395	 0.237396862770684 
1396	 0.236780331031857 
1397	 0.236156698489829 
1398	 0.235515945625207 
1399	 0.234856771205755 
1400	 0.23417990321141 
1401	 0.233504109055001 
1402	 0.232799964246301 
1403	 0.232121339202571 
1404	 0.231451962710444 
1405	 0.230789698464666 
1406	 0.230118911454087 
1407	 0.229486391018897 
1408	 0.228862728783629 
1409	 0.228274220750576 
1410	 0.227714374419591 
1411	 0.227189108693728 
1412	 0.226691485551815 
1413	 0.226224213537603 
1414	 0.225803068938839 
1415	 0.225394691064031 
1416	 0.225019145226618 
1417	 0.22468406144959 
1418	 0.224369003812029 
1419	 0.224080591059837 
1420	 0.223793812828206 
1421	 0.223521409551017 
1422	 0.22325796113937 
1423	 0.222987341321235 
1424	 0.222750905303248 
1425	 0.222538571005634 
1426	 0.222333202593571 
1427	 0.222151798112121 
1428	 0.221973019064062 
1429	 0.221800103013571 
1430	 0.221636848284177 
1431	 0.221479436245962 
1432	 0.221337701628573 
1433	 0.221213141037217 
1434	 0.221092655891604 
1435	 0.220973862561218 
1436	 0.220874219385203 
1437	 0.220783436321457 
1438	 0.220707634090518 
1439	 0.220654376488413 
1440	 0.220612498415552 
1441	 0.220557597595472 
1442	 0.220498901450299 
1443	 0.220432488565459 
1444	 0.220362969326191 
1445	 0.220307899448913 
1446	 0.220254425597477 
1447	 0.22018746359987 
1448	 0.220130063642515 
1449	 0.220068543735121 
1450	 0.220002065859801 
1451	 0.219945281092387 
1452	 0.219901090216714 
1453	 0.219842198571358 
1454	 0.219776820412386 
1455	 0.219718546834386 
1456	 0.21966343340193 
1457	 0.219594362662279 
1458	 0.21952308079335 
1459	 0.219452272370389 
1460	 0.219362143037753 
1461	 0.219293222765644 
1462	 0.219228611006797 
1463	 0.219183214458292 
1464	 0.219136258640045 
1465	 0.219121559555074 
1466	 0.219111736563068 
1467	 0.219162466102369 
1468	 0.219266440458876 
1469	 0.219383917022424 
1470	 0.219544280176135 
1471	 0.219719189631751 
1472	 0.219916366114593 
1473	 0.220134690262834 
1474	 0.220378435704256 
1475	 0.22062796867746 
1476	 0.220863372360765 
1477	 0.221090276261679 
1478	 0.221311153614184 
1479	 0.221523625993969 
1480	 0.221725822514598 
1481	 0.221931562106041 
1482	 0.222130655073203 
1483	 0.222326232064461 
1484	 0.222516114391288 
1485	 0.22269669318432 
1486	 0.222880017564805 
1487	 0.223066234591779 
1488	 0.223236144819816 
1489	 0.22340072841024 
1490	 0.223566739147783 
1491	 0.223717991977571 
1492	 0.223876873901449 
1493	 0.224045408938856 
1494	 0.224203068958067 
1495	 0.224350335863173 
1496	 0.224500694970314 
1497	 0.224656514724892 
1498	 0.224801197558176 
1499	 0.224938820186444 
1500	 0.225080597861188 
1501	 0.225222931143762 
1502	 0.225353588970397 
1503	 0.225483300742387 
1504	 0.225600519825216 
1505	 0.225713220330414 
1506	 0.225825666374998 
1507	 0.225951928546733 
1508	 0.226081589186701 
1509	 0.226199441244226 
1510	 0.226294970873954 
1511	 0.226392027754903 
1512	 0.226496911415929 
1513	 0.226596726873313 
1514	 0.226726924638884 
1515	 0.226849569449072 
1516	 0.226948804286798 
1517	 0.227056855452035 
1518	 0.227166414178261 
1519	 0.227266364077701 
1520	 0.227357493134707 
1521	 0.227462914138767 
1522	 0.227568437910336 
1523	 0.227671780382604 
1524	 0.227789714498388 
1525	 0.227889590811442 
1526	 0.227971632988698 
1527	 0.22807210185397 
1528	 0.228184938126312 
1529	 0.228269413096556 
1530	 0.228348133729107 
1531	 0.228423073064973 
1532	 0.228473239613644 
1533	 0.228539562038293 
1534	 0.228612278290771 
1535	 0.228684800764804 
1536	 0.228756718056933 
1537	 0.228831089350151 
1538	 0.22890670031251 
1539	 0.228992377551705 
1540	 0.229095473124806 
1541	 0.229175403971349 
1542	 0.229253967715555 
1543	 0.229328450414631 
1544	 0.229368913981974 
1545	 0.229437818010509 
1546	 0.22953350680303 
1547	 0.229612480340546 
1548	 0.229678026840425 
1549	 0.229750855313509 
1550	 0.22980331419711 
1551	 0.22985659464249 
1552	 0.229944575312588 
1553	 0.230013262217489 
1554	 0.230065792628781 
1555	 0.23012011810679 
1556	 0.230160451816592 
1557	 0.230201692808261 
1558	 0.230236684147268 
1559	 0.230268210800772 
1560	 0.230306272375502 
1561	 0.23033966115236 
1562	 0.230379034631607 
1563	 0.230432474572188 
1564	 0.230467924964102 
1565	 0.230488127473015 
1566	 0.230523932286885 
1567	 0.230568154883624 
1568	 0.230594884814154 
1569	 0.230626392704631 
1570	 0.230644780303784 
1571	 0.230628054074291 
1572	 0.230651480384458 
1573	 0.23069549829109 
1574	 0.230727641114016 
1575	 0.230779581541202 
1576	 0.23080777004846 
1577	 0.230812437735064 
1578	 0.23083209562365 
1579	 0.230854462806484 
1580	 0.230873303458952 
1581	 0.230892808009967 
1582	 0.230912984336727 
1583	 0.230934430345862 
1584	 0.230945164981531 
1585	 0.230946277301737 
1586	 0.23096162299104 
1587	 0.230974566905931 
1588	 0.230990148190259 
1589	 0.231023455969434 
1590	 0.231047727467593 
1591	 0.231057064129116 
1592	 0.231076797772068 
1593	 0.23110381312951 
1594	 0.231130159436584 
1595	 0.231171742674398 
1596	 0.231195076934976 
1597	 0.231211687625199 
1598	 0.23121851233203 
1599	 0.231201235677466 
1600	 0.231193072164783 
1601	 0.231186739424119 
1602	 0.231179330015049 
1603	 0.231176205191685 
1604	 0.23116639441878 
1605	 0.231156254164157 
1606	 0.231135480910185 
1607	 0.231100915939011 
1608	 0.231074623614126 
1609	 0.23102965946264 
1610	 0.230985722683769 
1611	 0.230952242189537 
1612	 0.230929114368348 
1613	 0.230926489833428 
1614	 0.230916069000056 
1615	 0.230907540467034 
1616	 0.230901126212403 
1617	 0.230871174697608 
1618	 0.230840983737285 
1619	 0.23082422282203 
1620	 0.230802487061552 
1621	 0.230789576255713 
1622	 0.230799524473872 
1623	 0.230778503352463 
1624	 0.230738311481152 
1625	 0.230716084044095 
1626	 0.230689870010953 
1627	 0.230670868631402 
1628	 0.230670122305091 
1629	 0.230642914678078 
1630	 0.230603087315427 
1631	 0.230563868648895 
1632	 0.230510538421561 
1633	 0.23047484770493 
1634	 0.230447284418951 
1635	 0.23041219851573 
1636	 0.230378465340669 
1637	 0.230347742383583 
1638	 0.230312406204222 
1639	 0.230283457255771 
1640	 0.230264697131333 
1641	 0.230238670810288 
1642	 0.230211371555092 
1643	 0.230180856296548 
1644	 0.230145985506561 
1645	 0.230117392568287 
1646	 0.23009393959568 
1647	 0.23005519286236 
1648	 0.230014455382859 
1649	 0.229970229954205 
1650	 0.229910521037271 
1651	 0.229859499143326 
1652	 0.229815932540545 
1653	 0.229764081165721 
1654	 0.229700567084124 
1655	 0.229653515247421 
1656	 0.229603676046604 
1657	 0.229576438344089 
1658	 0.229573489635273 
1659	 0.229558037177554 
1660	 0.229566540637542 
1661	 0.229532930369749 
1662	 0.22947389764699 
1663	 0.229417384021863 
1664	 0.229331153747025 
1665	 0.229269994446619 
1666	 0.229209187238541 
1667	 0.229172226940574 
1668	 0.229165931312311 
1669	 0.229131475710256 
1670	 0.229107997325195 
1671	 0.229064184327156 
1672	 0.228999315896624 
1673	 0.228926012957412 
1674	 0.228827734089414 
1675	 0.228764644024574 
1676	 0.228705142966271 
1677	 0.228645549860719 
1678	 0.228619148113096 
1679	 0.228566144817557 
1680	 0.22848177159431 
1681	 0.228423150340163 
1682	 0.228373166721633 
1683	 0.228327222672696 
1684	 0.228299804934112 
1685	 0.228249643473375 
1686	 0.228185732752655 
1687	 0.22813675723746 
1688	 0.228080802129201 
1689	 0.228035051939829 
1690	 0.228017567373871 
1691	 0.227968324528561 
1692	 0.227910625472765 
1693	 0.227835551741768 
1694	 0.227734513999264 
1695	 0.227644872827388 
1696	 0.227538476000743 
1697	 0.227453945545671 
1698	 0.227390182572729 
1699	 0.227307848360396 
1700	 0.227216914763329 
1701	 0.22714462743868 
1702	 0.227066937146631 
1703	 0.227004572872487 
1704	 0.226983371982022 
1705	 0.226921195037301 
1706	 0.226834574577649 
1707	 0.226764817387647 
1708	 0.226685006358499 
1709	 0.226608927212862 
1710	 0.226548822362912 
1711	 0.226477561086375 
1712	 0.226390904125586 
1713	 0.226317828734558 
1714	 0.226246783444092 
1715	 0.226183580083163 
1716	 0.226130149779979 
1717	 0.226074902962424 
1718	 0.226031410600558 
1719	 0.225973977458882 
1720	 0.225917555088873 
1721	 0.225833809562433 
1722	 0.225732887920981 
1723	 0.225625163755683 
1724	 0.225505425456932 
1725	 0.225372323666834 
1726	 0.225216426661219 
1727	 0.225081139622812 
1728	 0.224930586729649 
1729	 0.224806618938936 
1730	 0.224713522888271 
1731	 0.224606949312134 
1732	 0.224505419973652 
1733	 0.224390405799671 
1734	 0.224269884453375 
1735	 0.224147749825206 
1736	 0.224016306600324 
1737	 0.223896150139165 
1738	 0.223782656395835 
1739	 0.223656859380783 
1740	 0.223530238390069 
1741	 0.223400281155499 
1742	 0.223256937768343 
1743	 0.223134426378767 
1744	 0.223028238058092 
1745	 0.222890970492321 
1746	 0.222748153035093 
1747	 0.222565714603419 
1748	 0.222416019491867 
1749	 0.222304234933436 
1750	 0.222198814973449 
1751	 0.222108198375945 
1752	 0.222009072438082 
1753	 0.221870727674418 
1754	 0.221736206542302 
1755	 0.221597641367713 
1756	 0.22143064491423 
1757	 0.221285459250683 
1758	 0.221141294103559 
1759	 0.220990021466175 
1760	 0.220850895324052 
1761	 0.220689842606964 
1762	 0.220546539107482 
1763	 0.220418849112626 
1764	 0.220291331027191 
1765	 0.22019821121171 
1766	 0.220095593215743 
1767	 0.219972485869891 
1768	 0.21986450763338 
1769	 0.219738481152602 
1770	 0.219586376163522 
1771	 0.219448294497511 
1772	 0.219329491351229 
1773	 0.219210449203361 
1774	 0.219093950964914 
1775	 0.218991980046073 
1776	 0.218866190304407 
1777	 0.218740039548557 
1778	 0.218622276166926 
1779	 0.218482497439561 
1780	 0.218365584973554 
1781	 0.218281805483198 
1782	 0.218206094359747 
1783	 0.218137912314282 
1784	 0.218054352477825 
1785	 0.217937719439822 
1786	 0.217836078627205 
1787	 0.217757580392658 
1788	 0.217653914596708 
1789	 0.217518000138481 
1790	 0.21742180939798 
1791	 0.217339149177995 
1792	 0.217257592062967 
1793	 0.217209586024575 
1794	 0.217142783583031 
1795	 0.217047232187547 
1796	 0.216970089450105 
1797	 0.216900747814472 
1798	 0.216828805825497 
1799	 0.216780612689089 
1800	 0.216707781631077 
1801	 0.209833023713695 
1802	 0.209781642158013 
1803	 0.209722479872188 
1804	 0.209689775182167 
1805	 0.209653624807088 
1806	 0.209585191825281 
1807	 0.209509619577085 
1808	 0.209452678307015 
1809	 0.209400141853022 
1810	 0.209349975302963 
1811	 0.20930235145072 
1812	 0.209274396247776 
1813	 0.209250342721612 
1814	 0.209218018534761 
1815	 0.209200368925908 
1816	 0.209170361782238 
1817	 0.209115234224713 
1818	 0.209022197580581 
1819	 0.208964625922088 
1820	 0.208904141416073 
1821	 0.208849847576302 
1822	 0.208808969809059 
1823	 0.208766356457596 
1824	 0.208732183844187 
1825	 0.20865763600502 
1826	 0.208581814628256 
1827	 0.208499497007261 
1828	 0.208385513994606 
1829	 0.208226339723712 
1830	 0.208099185612152 
1831	 0.207978789341193 
1832	 0.207826398644371 
1833	 0.20767763077383 
1834	 0.207504137059769 
1835	 0.207305520382326 
1836	 0.207088838468513 
1837	 0.206865324264032 
1838	 0.206670041579625 
1839	 0.206476515949454 
1840	 0.206283867526828 
1841	 0.206101973018478 
1842	 0.205934966974981 
1843	 0.205723607622247 
1844	 0.205487629852717 
1845	 0.205268869350855 
1846	 0.205056120595803 
1847	 0.204845771269012 
1848	 0.204626679576217 
1849	 0.204420043219146 
1850	 0.204231802776271 
1851	 0.204054013836403 
1852	 0.203871489008011 
1853	 0.203717763817926 
1854	 0.203562530134401 
1855	 0.203381376497203 
1856	 0.203192191099329 
1857	 0.202984316268837 
1858	 0.202757623040898 
1859	 0.202531701855369 
1860	 0.202273701545948 
1861	 0.201999015057968 
1862	 0.20169017580551 
1863	 0.201382029238892 
1864	 0.201032765646469 
1865	 0.2006481524609 
1866	 0.200281179626521 
1867	 0.199887112252951 
1868	 0.199449717603994 
1869	 0.198999118211478 
1870	 0.19850822769298 
1871	 0.197955848966292 
1872	 0.197354483311328 
1873	 0.196712373817637 
1874	 0.196001864515468 
1875	 0.195182680193457 
1876	 0.194298113315334 
1877	 0.193380074861296 
1878	 0.192375175277505 
1879	 0.191341368285726 
1880	 0.190246800674157 
1881	 0.189091499578163 
1882	 0.187865303724411 
1883	 0.186591049898966 
1884	 0.185220709413692 
1885	 0.183768666968864 
1886	 0.182245464018945 
1887	 0.180655821980625 
1888	 0.179056442314698 
1889	 0.177412634104206 
1890	 0.175736570981767 
1891	 0.174041851065546 
1892	 0.172279826674639 
1893	 0.170535846044696 
1894	 0.1687720222363 
1895	 0.167028910446287 
1896	 0.165275731701496 
1897	 0.163556692191175 
1898	 0.161853132683455 
1899	 0.160198758973307 
1900	 0.158634783093414 
1901	 0.157129783764223 
1902	 0.155709186626497 
1903	 0.154407176179667 
1904	 0.153133787015607 
1905	 0.151902222581087 
1906	 0.150771921723246 
1907	 0.149705833318171 
1908	 0.14869285471456 
1909	 0.147780901330975 
1910	 0.146921977639349 
1911	 0.146107207441694 
1912	 0.145355407910402 
1913	 0.14465794064489 
1914	 0.14401326379882 
1915	 0.143417590492988 
1916	 0.142884291094078 
1917	 0.142387320816236 
1918	 0.141941742536581 
1919	 0.141534069359993 
1920	 0.141156984860665 
1921	 0.140832555878173 
1922	 0.140543325637661 
1923	 0.140292907410116 
1924	 0.140081380329298 
1925	 0.13993832801012 
1926	 0.139784911500462 
1927	 0.13965400966699 
1928	 0.139534241044488 
1929	 0.139430531519513 
1930	 0.139362106508661 
1931	 0.139343368091321 
1932	 0.139353938033336 
1933	 0.139374905008345 
1934	 0.139424720350592 
1935	 0.139491415749367 
1936	 0.139579475706664 
1937	 0.139677792980582 
1938	 0.139802873452993 
1939	 0.139925808709932 
1940	 0.14005694465701 
1941	 0.140179534255859 
1942	 0.140327401282769 
1943	 0.140521988682878 
1944	 0.140727365853498 
1945	 0.140948575143912 
1946	 0.141165023973058 
1947	 0.141374182656739 
1948	 0.14161053017434 
1949	 0.141863344971104 
1950	 0.14211981594082 
1951	 0.142398745659163 
1952	 0.142677195079 
1953	 0.142952333205623 
1954	 0.143217662744874 
1955	 0.143484834813595 
1956	 0.14377494311073 
1957	 0.144065892961303 
1958	 0.144350889804884 
1959	 0.144659670674021 
1960	 0.144988899092396 
1961	 0.145323987630141 
1962	 0.145671695517932 
1963	 0.146026595488543 
1964	 0.146404195057735 
1965	 0.14676249069047 
1966	 0.147109377611584 
1967	 0.14749893758097 
1968	 0.147868878460414 
1969	 0.148226358058124 
1970	 0.148596837221854 
1971	 0.148975023432285 
1972	 0.149352623565169 
1973	 0.149741449967655 
1974	 0.150121554803419 
1975	 0.150498531090065 
1976	 0.150874219892325 
1977	 0.151249762672969 
1978	 0.151624498847433 
1979	 0.152015657668674 
1980	 0.152408104185877 
1981	 0.15279779375287 
1982	 0.153188945406393 
1983	 0.153582783351744 
1984	 0.15398054670438 
1985	 0.154371862929645 
1986	 0.154774467719639 
1987	 0.15515560667281 
1988	 0.15552249149213 
1989	 0.155879464809952 
1990	 0.156237207437198 
1991	 0.15659309827918 
1992	 0.156955887931323 
1993	 0.157324327394208 
1994	 0.157695506867194 
1995	 0.158069877833136 
1996	 0.158443821014968 
1997	 0.158839270039046 
1998	 0.159202637924654 
1999	 0.159529199444192 
2000	 0.159889705269387 
2001	 0.160258222995564 
2002	 0.160616402588389 
2003	 0.16099196747039 
2004	 0.161367236515998 
2005	 0.161722089632769 
2006	 0.162045479189234 
2007	 0.162390118999112 
2008	 0.162734004127296 
2009	 0.163081843725244 
2010	 0.163450341322562 
2011	 0.16378913287694 
2012	 0.164112792136395 
2013	 0.16444135719571 
2014	 0.164760512256754 
2015	 0.165068307800924 
2016	 0.165374570115741 
2017	 0.16567785219584 
2018	 0.165982506222408 
2019	 0.166261667441194 
2020	 0.166573905434082 
2021	 0.166925263869564 
2022	 0.167240325170363 
2023	 0.167553975320122 
2024	 0.167858352109974 
2025	 0.16813013252739 
2026	 0.168418067217334 
2027	 0.168708481699477 
2028	 0.169015644185292 
2029	 0.169297538184618 
2030	 0.169580575489686 
2031	 0.169837801654933 
2032	 0.170063503738768 
2033	 0.170310108776724 
2034	 0.170549283072396 
2035	 0.170797655276312 
2036	 0.171069606284672 
2037	 0.171313313833387 
2038	 0.171538825271166 
2039	 0.171770636419112 
2040	 0.171998617209519 
2041	 0.172218400354332 
2042	 0.172418612649221 
2043	 0.172638034763094 
2044	 0.172843369161487 
2045	 0.173020894257747 
2046	 0.173228194661533 
2047	 0.173460847622017 
2048	 0.173665706140057 
2049	 0.173875217505053 
2050	 0.17407022066178 
2051	 0.174228833718008 
2052	 0.174416200716686 
2053	 0.174614139621512 
2054	 0.174807202211519 
2055	 0.175005151822093 
2056	 0.175219084531145 
2057	 0.175413441706773 
2058	 0.175604334433068 
2059	 0.175777094474717 
2060	 0.17593747937559 
2061	 0.176095136763932 
2062	 0.176226630487196 
2063	 0.17637920947154 
2064	 0.176539667988114 
2065	 0.176699865750759 
2066	 0.176873786796269 
2067	 0.177035043767467 
2068	 0.177198211027834 
2069	 0.177345286741413 
2070	 0.177490121370064 
2071	 0.17762639798862 
2072	 0.177760667979402 
2073	 0.177890256487165 
2074	 0.178015096256023 
2075	 0.17810882804 
2076	 0.178255782611848 
2077	 0.178427772421539 
2078	 0.178594620123864 
2079	 0.178806833640617 
2080	 0.178989375649095 
2081	 0.179154435725007 
2082	 0.1793127852698 
2083	 0.179474382289558 
2084	 0.179607421708188 
2085	 0.179749632775553 
2086	 0.179879400554111 
2087	 0.180017425132351 
2088	 0.180153821825681 
2089	 0.180300777780651 
2090	 0.180459573270839 
2091	 0.180601497533593 
2092	 0.180748203971128 
2093	 0.180884680239364 
2094	 0.181008478988516 
2095	 0.181125605111317 
2096	 0.181218602540737 
2097	 0.181339072983751 
2098	 0.181464269165761 
2099	 0.181587671999347 
2100	 0.181735130209412 
2101	 0.181920242603195 
2102	 0.18207558672878 
2103	 0.182231940741405 
2104	 0.182378208036728 
2105	 0.182522239521169 
2106	 0.182650121362896 
2107	 0.182757021384945 
2108	 0.182876876638121 
2109	 0.182980465514917 
2110	 0.183102170733372 
2111	 0.183253957085834 
2112	 0.183382509922395 
2113	 0.183496281076478 
2114	 0.183624451869871 
2115	 0.183747603095917 
2116	 0.183855468440718 
2117	 0.183983087831692 
2118	 0.184130513505187 
2119	 0.184259598822544 
2120	 0.184394977319995 
2121	 0.184507190858095 
2122	 0.184600736263607 
2123	 0.18469918940299 
2124	 0.184788296172129 
2125	 0.184873000100664 
2126	 0.184953232503563 
2127	 0.185034275751243 
2128	 0.185111006462272 
2129	 0.185183814149147 
2130	 0.185264032665727 
2131	 0.185330005393876 
2132	 0.185393831871147 
2133	 0.185451512045514 
2134	 0.185496850717376 
2135	 0.185537290195077 
2136	 0.185567603455628 
2137	 0.18559531631969 
2138	 0.18559148311495 
2139	 0.185562707514554 
2140	 0.185538149333896 
2141	 0.185488248033193 
2142	 0.185442414494278 
2143	 0.185407318714427 
2144	 0.185356994068445 
2145	 0.185315568096393 
2146	 0.185232014084475 
2147	 0.18510127237592 
2148	 0.184987973389313 
2149	 0.184875812857611 
2150	 0.184731780550259 
2151	 0.184619229021129 
2152	 0.184549688607683 
2153	 0.184437838439423 
2154	 0.184302744957893 
2155	 0.18418240123625 
2156	 0.184064145906287 
2157	 0.1839318774943 
2158	 0.183808916431709 
2159	 0.183659949557928 
2160	 0.183479352176377 
2161	 0.183308257693825 
2162	 0.18311939883252 
2163	 0.182944836737591 
2164	 0.182791552405525 
2165	 0.182621305799262 
2166	 0.18243933131579 
2167	 0.182256908307042 
2168	 0.182067313636531 
2169	 0.181845472043849 
2170	 0.181658101563387 
2171	 0.181483107277526 
2172	 0.181313454049722 
2173	 0.181171215297851 
2174	 0.181001984183105 
2175	 0.180848000259232 
2176	 0.180647451325629 
2177	 0.18039435277327 
2178	 0.180167331010912 
2179	 0.179915735896243 
2180	 0.179683490126144 
2181	 0.179479746367485 
2182	 0.179265919270383 
2183	 0.179046953005606 
2184	 0.178831582043399 
2185	 0.178619140643256 
2186	 0.178402860612937 
2187	 0.178200435803265 
2188	 0.178012812039123 
2189	 0.177809521069286 
2190	 0.177596990603598 
2191	 0.177407469726956 
2192	 0.177213233679818 
2193	 0.177038062131881 
2194	 0.176906632912061 
2195	 0.176741253973259 
2196	 0.176556491828195 
2197	 0.176389854709472 
2198	 0.176211437511856 
2199	 0.176049086408288 
2200	 0.175907798070138 
2201	 0.175765490965407 
2202	 0.175613961325724 
2203	 0.175488547923904 
2204	 0.175379711546618 
2205	 0.175290751810262 
2206	 0.17519877326822 
2207	 0.175116196801733 
2208	 0.175056703779718 
2209	 0.175013907205463 
2210	 0.174960879729059 
2211	 0.174935527448108 
2212	 0.174884232941965 
2213	 0.174798693853468 
2214	 0.174742117409915 
2215	 0.174686276518322 
2216	 0.174654243160971 
2217	 0.174645228854544 
2218	 0.174633179891369 
2219	 0.174675670757096 
2220	 0.174652990321624 
2221	 0.174587461724301 
2222	 0.174523368982606 
2223	 0.17445356075471 
2224	 0.174372383843045 
2225	 0.174311519239765 
2226	 0.174278525100098 
2227	 0.174238412065782 
2228	 0.174188443301346 
2229	 0.174149463967595 
2230	 0.174133956516616 
2231	 0.174102861986219 
2232	 0.174068826019119 
2233	 0.174024202860177 
2234	 0.17398397533496 
2235	 0.173918586757518 
2236	 0.173830603299997 
2237	 0.173742752925493 
2238	 0.173638209259934 
2239	 0.173534009986731 
2240	 0.17346262298012 
2241	 0.173323087110093 
2242	 0.173136493434712 
2243	 0.172953713274187 
2244	 0.172735385182801 
2245	 0.172495230924892 
2246	 0.172286041368071 
2247	 0.172036533535056 
2248	 0.171761367935901 
2249	 0.171452395078493 
2250	 0.171133797632766 
2251	 0.17077534859735 
2252	 0.170452782968555 
2253	 0.170115263391107 
2254	 0.169814310689099 
2255	 0.16954561764811 
2256	 0.169269888607634 
2257	 0.16897448932989 
2258	 0.168750254418584 
2259	 0.168561359495056 
2260	 0.168391395777955 
2261	 0.168266221370791 
2262	 0.168171882799499 
2263	 0.168094452093269 
2264	 0.168042937920387 
2265	 0.168060369417783 
2266	 0.168062197210272 
2267	 0.168042583086142 
2268	 0.168073826139786 
2269	 0.168142299601837 
2270	 0.168208521292496 
2271	 0.168329110059193 
2272	 0.168448517109412 
2273	 0.168576816634091 
2274	 0.168740126795515 
2275	 0.168891528915267 
2276	 0.169046412317871 
2277	 0.169232342554299 
2278	 0.169436252111234 
2279	 0.169625575634325 
2280	 0.169837949188117 
2281	 0.170046313230835 
2282	 0.170245476600065 
2283	 0.170436557549055 
2284	 0.17066892201353 
2285	 0.170828234031926 
2286	 0.17092621264696 
2287	 0.171029913402992 
2288	 0.1711044936937 
2289	 0.171169634303041 
2290	 0.171235702796532 
2291	 0.171280936005255 
2292	 0.171289349479315 
2293	 0.171309224163497 
2294	 0.171321432348265 
2295	 0.171321912868183 
2296	 0.171321437244961 
2297	 0.171305328151783 
2298	 0.171283565403135 
2299	 0.171319227261361 
2300	 0.171357587473858 
2301	 0.171415853348795 
2302	 0.171476827075527 
2303	 0.171471560938901 
2304	 0.171473799064541 
2305	 0.171488023895532 
2306	 0.171487638678779 
2307	 0.171465686377212 
2308	 0.171481003529795 
2309	 0.171513495921328 
2310	 0.171528739362552 
2311	 0.17157020541971 
2312	 0.171576295723142 
2313	 0.17155132427819 
2314	 0.171520912034791 
2315	 0.171478072873394 
2316	 0.171431586122275 
2317	 0.171376805713552 
2318	 0.1713116186158 
2319	 0.171251127075944 
2320	 0.171153269827974 
2321	 0.17097917590269 
2322	 0.170887244395998 
2323	 0.170824246434869 
2324	 0.170754499303085 
2325	 0.17073426732861 
2326	 0.170715190176737 
2327	 0.170708890935432 
2328	 0.170642746301507 
2329	 0.170621568792272 
2330	 0.170565707984389 
2331	 0.170468582775592 
2332	 0.170379400762864 
2333	 0.17029941441216 
2334	 0.170204361969397 
2335	 0.170067308691118 
2336	 0.169955030734626 
2337	 0.169848085234806 
2338	 0.169717643932832 
2339	 0.169618736644006 
2340	 0.169548324302627 
2341	 0.169465699802175 
2342	 0.169367686720853 
2343	 0.169239917252074 
2344	 0.169075913208109 
2345	 0.168927845874614 
2346	 0.168754198061805 
2347	 0.168592256835406 
2348	 0.168459489602308 
2349	 0.16830273056901 
2350	 0.168114643514328 
2351	 0.16795775831008 
2352	 0.167804427427251 
2353	 0.167637109829296 
2354	 0.16748293836282 
2355	 0.167317304630394 
2356	 0.167156502392906 
2357	 0.166972794242398 
2358	 0.166777198427948 
2359	 0.16656095614655 
2360	 0.166309742195404 
2361	 0.16606899031388 
2362	 0.16580595166574 
2363	 0.165564939562955 
2364	 0.165342888838596 
2365	 0.165110795355764 
2366	 0.164867286841839 
2367	 0.164666518264973 
2368	 0.164503009337746 
2369	 0.164300400436253 
2370	 0.164140193370991 
2371	 0.163893981969664 
2372	 0.163593550009252 
2373	 0.163316116772263 
2374	 0.163026316666179 
2375	 0.162760617409538 
2376	 0.162447662574044 
2377	 0.162140307619328 
2378	 0.161870317166376 
2379	 0.161640262523999 
2380	 0.16153092287002 
2381	 0.161307378883967 
2382	 0.160987290668607 
2383	 0.160738992446817 
2384	 0.160418424834107 
2385	 0.160087622776551 
2386	 0.159793029005539 
2387	 0.159429904199204 
2388	 0.159050827015105 
2389	 0.158680400785498 
2390	 0.158341134419753 
2391	 0.157998321836426 
2392	 0.157676946785607 
2393	 0.157428337154016 
2394	 0.157189703379269 
2395	 0.15700054518555 
2396	 0.156735585692008 
2397	 0.156393018594157 
2398	 0.156125502417126 
2399	 0.15579087957329 
2400	 0.155422155610051 
2401	 0.155112654891952 
2402	 0.154774328135445 
2403	 0.154435363659682 
2404	 0.154124292672959 
2405	 0.153859593784019 
2406	 0.153598868413048 
2407	 0.153324746164983 
2408	 0.15313130150173 
2409	 0.152979940466779 
2410	 0.152737146889012 
2411	 0.15242975553159 
2412	 0.152114747709075 
2413	 0.151830774044027 
2414	 0.151645272885489 
2415	 0.151452623220296 
2416	 0.151228547745864 
2417	 0.151020353860909 
2418	 0.150716595481161 
2419	 0.150319331796699 
2420	 0.150071326621336 
2421	 0.149835757141481 
2422	 0.149592406165976 
2423	 0.149420372109613 
2424	 0.149123659825197 
2425	 0.148796229564455 
2426	 0.148459957081173 
2427	 0.148084259711912 
2428	 0.147741452407845 
2429	 0.147328247356095 
2430	 0.146949584559736 
2431	 0.146583581379441 
2432	 0.146276565565166 
2433	 0.146067427239813 
2434	 0.14575257340624 
2435	 0.145420743220903 
2436	 0.145123290569982 
2437	 0.144806291909944 
2438	 0.144435333013691 
2439	 0.144020654240974 
2440	 0.143681205436095 
2441	 0.143300859882687 
2442	 0.142954623482651 
2443	 0.142741128494853 
2444	 0.142467736313168 
2445	 0.142180119232086 
2446	 0.141798130015186 
2447	 0.141367517298147 
2448	 0.140983511535699 
2449	 0.140476655203111 
2450	 0.140123234610015 
2451	 0.139916252161293 
2452	 0.139650454075546 
2453	 0.139420264281389 
2454	 0.139141585762988 
2455	 0.138823863409225 
2456	 0.138486504480687 
2457	 0.13813352762686 
2458	 0.137766631815074 
2459	 0.137426314626753 
2460	 0.137053502601144 
2461	 0.136567730440893 
2462	 0.136264534172496 
2463	 0.136006747230863 
2464	 0.135759438009023 
2465	 0.135652375356539 
2466	 0.135410417727027 
2467	 0.135105620226648 
2468	 0.134852382449874 
2469	 0.134668823907843 
2470	 0.134475805745508 
2471	 0.13418865386869 
2472	 0.133988281364502 
2473	 0.133630899944186 
2474	 0.13352774336356 
2475	 0.133396748640752 
2476	 0.13303032222685 
2477	 0.132656705052729 
2478	 0.132109034706641 
2479	 0.131657533328353 
2480	 0.131364866008669 
2481	 0.131192185905446 
2482	 0.131069773401985 
2483	 0.130795535017423 
2484	 0.130536734754178 
2485	 0.130286955852633 
2486	 0.129965066706924 
2487	 0.129740137436126 
2488	 0.12943677233133 
2489	 0.128977467237254 
2490	 0.128687218016902 
2491	 0.128457350913798 
2492	 0.128145434596706 
2493	 0.12796218496547 
2494	 0.12797345207659 
2495	 0.127932402872639 
2496	 0.127757594592538 
2497	 0.127510322070155 
2498	 0.127120319620998 
2499	 0.126775402854711 
2500	 0.126735173561253 
