Wavelength	LMW_2300007.asd
350	 8.38030670172849E-02 
351	 8.98779549705514E-02 
352	 0.080133574275348 
353	 6.65352266002194E-02 
354	 7.97293926590331E-02 
355	 8.06050142849822E-02 
356	 0.076431438366668 
357	 0.081348597368623 
358	 8.91553690815468E-02 
359	 8.55601603899238E-02 
360	 7.66504699240875E-02 
361	 0.079558170183546 
362	 7.84156396665079E-02 
363	 8.13647965175625E-02 
364	 8.79121882152529E-02 
365	 7.92456859214614E-02 
366	 7.82079379886387E-02 
367	 8.15663842295627E-02 
368	 8.07585096874219E-02 
369	 0.076331427500946 
370	 7.64179628661217E-02 
371	 8.01773440904844E-02 
372	 8.07824102922484E-02 
373	 7.86701007321392E-02 
374	 8.00308151820742E-02 
375	 8.58430023901824E-02 
376	 8.73701903272201E-02 
377	 8.38311572492762E-02 
378	 8.12045311165375E-02 
379	 8.43314919188599E-02 
380	 0.084020101139026 
381	 8.25030951502635E-02 
382	 8.23246989096939E-02 
383	 8.53861325384639E-02 
384	 8.64059006261165E-02 
385	 8.62587488540112E-02 
386	 8.64178289720983E-02 
387	 8.78521813141819E-02 
388	 8.74555958865183E-02 
389	 8.67194114157007E-02 
390	 8.78453758265856E-02 
391	 8.90653547123713E-02 
392	 8.79312588531054E-02 
393	 8.66058564896272E-02 
394	 9.03587159305777E-02 
395	 9.02319150780538E-02 
396	 0.089618778517907 
397	 9.12090454295592E-02 
398	 9.20278685309196E-02 
399	 9.02006693053743E-02 
400	 8.95005817636241E-02 
401	 9.36773816356174E-02 
402	 9.39660962743516E-02 
403	 9.35784279729339E-02 
404	 9.34810211536172E-02 
405	 9.17552193063104E-02 
406	 9.31448433305881E-02 
407	 9.50557213851853E-02 
408	 9.52226741971064E-02 
409	 9.61544089209415E-02 
410	 9.58876501186394E-02 
411	 9.49749919358091E-02 
412	 9.49701924906639E-02 
413	 9.55054006477375E-02 
414	 0.096029217147534 
415	 9.61566172074054E-02 
416	 9.57085391917451E-02 
417	 9.59356153678834E-02 
418	 9.60843997802025E-02 
419	 9.55727675318916E-02 
420	 9.63182057275867E-02 
421	 9.57059045421111E-02 
422	 0.094587310862158 
423	 9.56781688275227E-02 
424	 9.59767190443476E-02 
425	 0.095477810812585 
426	 9.47823753301842E-02 
427	 9.48421835591891E-02 
428	 9.46261607992889E-02 
429	 0.094373436958156 
430	 9.45384386966333E-02 
431	 9.45999750587815E-02 
432	 9.41349718465444E-02 
433	 9.35809601185507E-02 
434	 9.40896381791568E-02 
435	 9.41787644058039E-02 
436	 9.39592925363621E-02 
437	 9.37644434193676E-02 
438	 9.35931050802191E-02 
439	 9.37360227555462E-02 
440	 9.41341893027283E-02 
441	 9.44807913827354E-02 
442	 9.40495868406221E-02 
443	 9.38195792907437E-02 
444	 9.41648201864694E-02 
445	 9.43126506029046E-02 
446	 9.47567194847797E-02 
447	 9.50894020950983E-02 
448	 9.49349100306136E-02 
449	 9.51141979152833E-02 
450	 0.095291446001819 
451	 9.53788924130497E-02 
452	 9.55210499651641E-02 
453	 9.56102798387205E-02 
454	 9.55846420446162E-02 
455	 0.09552495115763 
456	 9.58908871710202E-02 
457	 9.58908470993242E-02 
458	 9.57465685625167E-02 
459	 9.60009620212577E-02 
460	 9.57892279043101E-02 
461	 9.56823173046628E-02 
462	 9.59150444014471E-02 
463	 9.60866589593329E-02 
464	 9.61067826254082E-02 
465	 9.61435917577488E-02 
466	 9.63417704638121E-02 
467	 9.64136591382084E-02 
468	 9.64111831231293E-02 
469	 9.63877000367784E-02 
470	 9.63791950129788E-02 
471	 9.61756772431474E-02 
472	 9.60911960491194E-02 
473	 9.62666155643717E-02 
474	 9.62412711232388E-02 
475	 9.62166379868558E-02 
476	 9.62480694956847E-02 
477	 0.096309185874534 
478	 9.62090600053373E-02 
479	 9.61919706442999E-02 
480	 9.63040022084328E-02 
481	 9.62661862715078E-02 
482	 9.63838125534136E-02 
483	 9.65075111124222E-02 
484	 9.64661741200509E-02 
485	 9.65601188886603E-02 
486	 9.63621009278773E-02 
487	 9.60539923889213E-02 
488	 9.62736729477094E-02 
489	 9.62829367142169E-02 
490	 9.62492811098231E-02 
491	 9.63677852351432E-02 
492	 9.65349262544957E-02 
493	 9.65019679466498E-02 
494	 9.63364176991435E-02 
495	 0.096251729906802 
496	 9.62255217672447E-02 
497	 9.62660679036711E-02 
498	 9.63615217192939E-02 
499	 9.64838098460099E-02 
500	 9.63635095299618E-02 
501	 9.61382145157491E-02 
502	 9.60481996054369E-02 
503	 9.61910297586031E-02 
504	 9.62498917059252E-02 
505	 9.62057324157198E-02 
506	 9.63114121701792E-02 
507	 9.64137401052648E-02 
508	 9.64600478170895E-02 
509	 9.64153359326958E-02 
510	 9.62100444486691E-02 
511	 9.61148623074639E-02 
512	 0.096115490860052 
513	 9.60706478915383E-02 
514	 9.62296515696519E-02 
515	 9.64242989773271E-02 
516	 0.096500873469152 
517	 9.63953203186912E-02 
518	 9.63131374521341E-02 
519	 9.63382030828551E-02 
520	 9.64538877581437E-02 
521	 9.63877020739735E-02 
522	 9.63504776864109E-02 
523	 9.63750107561362E-02 
524	 9.62838690750127E-02 
525	 9.61705187279042E-02 
526	 0.096109559810887 
527	 9.61430421155872E-02 
528	 9.62415233065198E-02 
529	 9.62965816077151E-02 
530	 9.62809435267705E-02 
531	 9.62360417162623E-02 
532	 9.63036310377977E-02 
533	 0.096441010085537 
534	 9.65392885756033E-02 
535	 9.63795910650988E-02 
536	 9.63569660470931E-02 
537	 9.64798238984659E-02 
538	 9.65970575646398E-02 
539	 9.66574204447465E-02 
540	 9.66371487032655E-02 
541	 9.65855804109186E-02 
542	 9.66405621293193E-02 
543	 9.66752525523729E-02 
544	 9.67041410868416E-02 
545	 9.67637537816206E-02 
546	 9.68212243274984E-02 
547	 9.68742546691659E-02 
548	 9.69365033481336E-02 
549	 0.097031853447167 
550	 9.71234232614401E-02 
551	 0.09721111556371 
552	 9.73166216933154E-02 
553	 0.097503371363149 
554	 9.77019353741293E-02 
555	 9.78675000158147E-02 
556	 9.79885762569797E-02 
557	 9.82302721458983E-02 
558	 9.84502210163069E-02 
559	 9.86020755672089E-02 
560	 9.88767618235792E-02 
561	 9.90570909006018E-02 
562	 9.91881763864837E-02 
563	 9.93823741585292E-02 
564	 9.95934118741862E-02 
565	 9.97356136821394E-02 
566	 9.98007755228181E-02 
567	 9.98701968625124E-02 
568	 0.100185738451437 
569	 0.100657168416577 
570	 0.101135888791386 
571	 0.101599724753274 
572	 0.102048302268012 
573	 0.10248805168789 
574	 0.102930867768499 
575	 0.103387947182375 
576	 0.103839464455219 
577	 0.104256319617148 
578	 0.104598782977069 
579	 0.104898184999836 
580	 0.105175089238858 
581	 0.105459256994439 
582	 0.105857487897891 
583	 0.106276681910402 
584	 0.10669254003042 
585	 0.107208035675267 
586	 0.107691488844451 
587	 0.108146292010022 
588	 0.108619713659 
589	 0.109167149024399 
590	 0.10968920531297 
591	 0.110201960495726 
592	 0.110827247394268 
593	 0.111494974606195 
594	 0.112186939221226 
595	 0.112847993518734 
596	 0.113292374751657 
597	 0.11371331347477 
598	 0.114116595432914 
599	 0.114413539695811 
600	 0.114606998713666 
601	 0.114872089867555 
602	 0.115275255052525 
603	 0.11567091538397 
604	 0.115992024646186 
605	 0.116274954857428 
606	 0.116587778359043 
607	 0.116896838791476 
608	 0.117243721651485 
609	 0.117621910373054 
610	 0.117966454550988 
611	 0.118225746494853 
612	 0.11846689724207 
613	 0.118740474009497 
614	 0.118935635786558 
615	 0.119095392227319 
616	 0.119256206718349 
617	 0.119444752417508 
618	 0.119647082160924 
619	 0.119803201188786 
620	 0.119903646787119 
621	 0.120060503336299 
622	 0.120213473272427 
623	 0.120335352345309 
624	 0.120424197753354 
625	 0.120568301728054 
626	 0.120682855714453 
627	 0.120753001874298 
628	 0.120873451987036 
629	 0.120984977711095 
630	 0.121080804461202 
631	 0.12116074777564 
632	 0.121190253418626 
633	 0.121230946529336 
634	 0.121305083913269 
635	 0.121399622411726 
636	 0.12151629497039 
637	 0.121616380802554 
638	 0.121670191592916 
639	 0.121669101565087 
640	 0.121763701608555 
641	 0.121901754335522 
642	 0.12195443101162 
643	 0.122034243382542 
644	 0.122112625558439 
645	 0.122173824133359 
646	 0.122238022252812 
647	 0.122335379666833 
648	 0.122452637911407 
649	 0.122553164255306 
650	 0.122559658766458 
651	 0.122620605352052 
652	 0.12274783021691 
653	 0.122833914105007 
654	 0.12295322962361 
655	 0.123050690404888 
656	 0.123105651063234 
657	 0.123240302292534 
658	 0.123374768092388 
659	 0.123478643297288 
660	 0.123553519100064 
661	 0.123663690582091 
662	 0.123751987119427 
663	 0.123834247031127 
664	 0.124051737319892 
665	 0.124189382521705 
666	 0.124281238960248 
667	 0.124406282560573 
668	 0.12450054505162 
669	 0.124605918095559 
670	 0.124748917133628 
671	 0.124931696152303 
672	 0.125019030962028 
673	 0.125104851681573 
674	 0.125271845372841 
675	 0.125491099248008 
676	 0.125653202489886 
677	 0.125763664393045 
678	 0.125883283508766 
679	 0.126027908303008 
680	 0.126201585063707 
681	 0.126394129021935 
682	 0.126580600275755 
683	 0.126757290766387 
684	 0.126921889675994 
685	 0.127080554001751 
686	 0.127263825404268 
687	 0.127442884521103 
688	 0.127630651197853 
689	 0.127856793033161 
690	 0.127975636978351 
691	 0.128067845645405 
692	 0.12821365738707 
693	 0.128430954494697 
694	 0.128627387109324 
695	 0.12878579885748 
696	 0.128935217597042 
697	 0.129181163091002 
698	 0.129392231268417 
699	 0.129539863330665 
700	 0.129716694247073 
701	 0.129907814805856 
702	 0.13007737496098 
703	 0.130217397707497 
704	 0.130419133686783 
705	 0.13058773206295 
706	 0.130725931154771 
707	 0.130883870738001 
708	 0.131036282661109 
709	 0.131238717260408 
710	 0.131470236868451 
711	 0.131590487017485 
712	 0.131723601114264 
713	 0.131849894084151 
714	 0.131948697795154 
715	 0.132154989732806 
716	 0.132336193913678 
717	 0.132458384432196 
718	 0.132568780344472 
719	 0.132715099483643 
720	 0.132852234616734 
721	 0.13295497657953 
722	 0.13306543254331 
723	 0.133154950530373 
724	 0.133238902975168 
725	 0.133337742065094 
726	 0.133417486244794 
727	 0.133515138518526 
728	 0.133613109049754 
729	 0.133646840885116 
730	 0.133708358242094 
731	 0.133774633267946 
732	 0.133819452984573 
733	 0.133862734611217 
734	 0.133883198025614 
735	 0.133897448925092 
736	 0.133926043455137 
737	 0.133908512833588 
738	 0.133901695273473 
739	 0.133922894464619 
740	 0.133936914331535 
741	 0.133927965467415 
742	 0.133912905643232 
743	 0.133901809973686 
744	 0.133864180490856 
745	 0.133812105439575 
746	 0.133759689477225 
747	 0.133714178875138 
748	 0.133623038276374 
749	 0.133547555534313 
750	 0.13350573687666 
751	 0.133451522621463 
752	 0.133359948782267 
753	 0.133265105897368 
754	 0.133195033718494 
755	 0.133115574054427 
756	 0.133031711602185 
757	 0.132933197791436 
758	 0.13280946080069 
759	 0.132702958652999 
760	 0.132579293949436 
761	 0.132435480143971 
762	 0.132315655659993 
763	 0.132181979384165 
764	 0.132043186588293 
765	 0.131910140265826 
766	 0.13176387909402 
767	 0.131637608827473 
768	 0.131531851095732 
769	 0.131421323013961 
770	 0.131238149723349 
771	 0.131048058528405 
772	 0.130890536084671 
773	 0.130757464715202 
774	 0.130640549395618 
775	 0.130493281719153 
776	 0.130297111828252 
777	 0.130124153819533 
778	 0.129980448681337 
779	 0.12983910276182 
780	 0.129667832059447 
781	 0.129519550645745 
782	 0.129373443116682 
783	 0.129212389346955 
784	 0.129031741333305 
785	 0.128861971777742 
786	 0.128724421990345 
787	 0.128600854913349 
788	 0.128376829036745 
789	 0.128217425750735 
790	 0.128078869540473 
791	 0.127872456598656 
792	 0.12772253137576 
793	 0.127587514807739 
794	 0.127440927775282 
795	 0.12727948180583 
796	 0.127127232314705 
797	 0.126979765542276 
798	 0.12683546581576 
799	 0.126708754057418 
800	 0.126542791187958 
801	 0.126361381789014 
802	 0.126208366185577 
803	 0.126099805696129 
804	 0.125987778184174 
805	 0.125839864226099 
806	 0.125648096526576 
807	 0.125488986093208 
808	 0.125346218065987 
809	 0.125202321197845 
810	 0.125053727644225 
811	 0.124953455553799 
812	 0.124821849444453 
813	 0.124625442719852 
814	 0.124543767250183 
815	 0.124392165651644 
816	 0.124228316495205 
817	 0.124171053432854 
818	 0.124090602087141 
819	 0.123982558902708 
820	 0.123857738997238 
821	 0.123735260901763 
822	 0.12362395099583 
823	 0.12351647248261 
824	 0.123413682255761 
825	 0.12333572522054 
826	 0.123222014849572 
827	 0.12311068523585 
828	 0.123034323070304 
829	 0.122912953468738 
830	 0.122817639274341 
831	 0.122732743076951 
832	 0.122612757397714 
833	 0.122511061128725 
834	 0.122426047935386 
835	 0.122342083991722 
836	 0.122240908338205 
837	 0.122211414693385 
838	 0.122135729388893 
839	 0.121977868135101 
840	 0.121894689637425 
841	 0.121840216789265 
842	 0.121789526048972 
843	 0.121729931533274 
844	 0.121675357442066 
845	 0.121654567631636 
846	 0.121632388824029 
847	 0.121558199985304 
848	 0.121478660286057 
849	 0.121410007956375 
850	 0.121339959025667 
851	 0.121241149878409 
852	 0.121180605483444 
853	 0.121152489941427 
854	 0.121140276715686 
855	 0.121129230120762 
856	 0.121089908341543 
857	 0.121065138095632 
858	 0.121070752091192 
859	 0.121004893571618 
860	 0.120964845531659 
861	 0.120928861081503 
862	 0.120857638652795 
863	 0.120825518723674 
864	 0.120829462224485 
865	 0.120838028633042 
866	 0.120817257136768 
867	 0.120843160107466 
868	 0.120838739851796 
869	 0.120815733661475 
870	 0.120873579527097 
871	 0.120849625714543 
872	 0.12081285326003 
873	 0.12080322104024 
874	 0.120751625233039 
875	 0.120804704215734 
876	 0.120863521079972 
877	 0.120838449755668 
878	 0.120825506426487 
879	 0.120851655498671 
880	 0.120910237214898 
881	 0.120963234592943 
882	 0.120916908105539 
883	 0.120924295167383 
884	 0.1209797557099 
885	 0.120995661182548 
886	 0.121008640653639 
887	 0.121026063235019 
888	 0.121055919702622 
889	 0.121105219216914 
890	 0.121169119396149 
891	 0.121185392515128 
892	 0.121178056999499 
893	 0.121272878905471 
894	 0.121309275757298 
895	 0.12132602009166 
896	 0.121371218352881 
897	 0.121436833893495 
898	 0.121503843109069 
899	 0.121566036854728 
900	 0.121629381445162 
901	 0.121721328531377 
902	 0.121806992646229 
903	 0.121851313877083 
904	 0.121857132383472 
905	 0.121956736081991 
906	 0.122051702364069 
907	 0.122112794523072 
908	 0.122157023598935 
909	 0.122234126161365 
910	 0.122278577029971 
911	 0.122346451047294 
912	 0.122531995871612 
913	 0.12259986806123 
914	 0.122672205536072 
915	 0.122775777509413 
916	 0.122835091954942 
917	 0.122910655376002 
918	 0.123038446416041 
919	 0.123169373880762 
920	 0.123183373183918 
921	 0.123294330749105 
922	 0.123398417653936 
923	 0.12345186845902 
924	 0.123573353785434 
925	 0.123690537858775 
926	 0.123854849119624 
927	 0.12404666736226 
928	 0.124080247372776 
929	 0.124135782675247 
930	 0.12426684341634 
931	 0.124433227052855 
932	 0.124461008380081 
933	 0.124643388098971 
934	 0.124829764071231 
935	 0.124873806071764 
936	 0.125041655945673 
937	 0.125138978124007 
938	 0.125204056288072 
939	 0.125329556228161 
940	 0.125514003455891 
941	 0.125686104363422 
942	 0.125838806198219 
943	 0.125984421173721 
944	 0.126086692566446 
945	 0.126212201867626 
946	 0.126377526887157 
947	 0.126547755466639 
948	 0.126589081922232 
949	 0.126709329855399 
950	 0.12688367836497 
951	 0.127001782301599 
952	 0.127229529173335 
953	 0.127297432538125 
954	 0.127306810891104 
955	 0.127516902391094 
956	 0.127776590298784 
957	 0.127883643269233 
958	 0.127924426850982 
959	 0.12811865504108 
960	 0.128333304323524 
961	 0.12850418164361 
962	 0.128669605450712 
963	 0.128892315655959 
964	 0.12896866984682 
965	 0.129066315893842 
966	 0.129241172652358 
967	 0.12943837304432 
968	 0.129566103171915 
969	 0.129686719078611 
970	 0.129781609345912 
971	 0.129811195525162 
972	 0.130001545923349 
973	 0.130120066337307 
974	 0.130167481530555 
975	 0.130313387253178 
976	 0.130585203435623 
977	 0.13078284142554 
978	 0.130884520365484 
979	 0.130996140827215 
980	 0.131129904957681 
981	 0.131269745564594 
982	 0.131411838893677 
983	 0.131548870392496 
984	 0.131594718507745 
985	 0.131720593808409 
986	 0.131885886061969 
987	 0.131969770335763 
988	 0.132153098971183 
989	 0.132248645505222 
990	 0.132333201366915 
991	 0.132557582347519 
992	 0.1327202976167 
993	 0.132850568953304 
994	 0.132959069886318 
995	 0.13304851470136 
996	 0.133120547540787 
997	 0.133255901151226 
998	 0.133341579702981 
999	 0.133339749834243 
1000	 0.13374390207489 
1001	 0.130083459373904 
1002	 0.130156792879264 
1003	 0.130221495239675 
1004	 0.130298289923937 
1005	 0.130390375230144 
1006	 0.130468363913373 
1007	 0.130530798854812 
1008	 0.130629561151792 
1009	 0.130744011666865 
1010	 0.130846208326072 
1011	 0.130953186893782 
1012	 0.131017568985625 
1013	 0.131083812438329 
1014	 0.131200000269567 
1015	 0.131292534128034 
1016	 0.131357048476938 
1017	 0.131420934276496 
1018	 0.131472839750148 
1019	 0.131469875829456 
1020	 0.131490971328511 
1021	 0.131604757551319 
1022	 0.13173749685806 
1023	 0.131872158083046 
1024	 0.132001249249519 
1025	 0.132047123067054 
1026	 0.132011790085948 
1027	 0.132010703480338 
1028	 0.13207170912928 
1029	 0.132144323436077 
1030	 0.132226190600562 
1031	 0.132271824035866 
1032	 0.132287982561867 
1033	 0.132231473256557 
1034	 0.132260311008111 
1035	 0.132414408991089 
1036	 0.132505738814019 
1037	 0.132608870892843 
1038	 0.132722432984458 
1039	 0.132699622466493 
1040	 0.132680141944742 
1041	 0.132692288676737 
1042	 0.132704497283879 
1043	 0.132730991585817 
1044	 0.132767884373859 
1045	 0.132839462266012 
1046	 0.132925646982664 
1047	 0.132972541389697 
1048	 0.133013424453632 
1049	 0.133018700580398 
1050	 0.13299095966483 
1051	 0.13301148190772 
1052	 0.13305194696151 
1053	 0.133122024596461 
1054	 0.13323304074514 
1055	 0.13327174488605 
1056	 0.133214961738815 
1057	 0.133208024564985 
1058	 0.133183616526507 
1059	 0.133190500273434 
1060	 0.133220588468091 
1061	 0.13327402092044 
1062	 0.133308929163258 
1063	 0.1333285370132 
1064	 0.133328855426752 
1065	 0.133345656673534 
1066	 0.133344833076531 
1067	 0.133340074790627 
1068	 0.133380534059754 
1069	 0.133396290046119 
1070	 0.133430345791079 
1071	 0.133528101221721 
1072	 0.133528367464031 
1073	 0.13347623491668 
1074	 0.133467584967444 
1075	 0.13342655123739 
1076	 0.133375221016509 
1077	 0.133434693097306 
1078	 0.133475026091679 
1079	 0.133519990213507 
1080	 0.133573982858681 
1081	 0.13358206541464 
1082	 0.133592405434776 
1083	 0.133588355726909 
1084	 0.133548889169546 
1085	 0.133539797310464 
1086	 0.133530981988542 
1087	 0.133534432084568 
1088	 0.133545485861446 
1089	 0.1335834352045 
1090	 0.133592575071013 
1091	 0.13360340652239 
1092	 0.133631780353846 
1093	 0.133670057223371 
1094	 0.133712452556182 
1095	 0.133741926264032 
1096	 0.133775999179006 
1097	 0.133790062064712 
1098	 0.133818971380629 
1099	 0.1338770183543 
1100	 0.133918203405176 
1101	 0.133939273087912 
1102	 0.133972709270858 
1103	 0.13402577602049 
1104	 0.134046797088398 
1105	 0.134037003568085 
1106	 0.134063361055036 
1107	 0.134088820282855 
1108	 0.13409455673792 
1109	 0.13412318160333 
1110	 0.134141195217569 
1111	 0.134176153181326 
1112	 0.134219339219619 
1113	 0.134255691042422 
1114	 0.134307636647517 
1115	 0.134342657772079 
1116	 0.134351381810652 
1117	 0.134374458962477 
1118	 0.134391895886794 
1119	 0.134435767311252 
1120	 0.134483859685019 
1121	 0.134508283011363 
1122	 0.134559245007288 
1123	 0.134609077048883 
1124	 0.134650129314835 
1125	 0.134692823542304 
1126	 0.134740496233963 
1127	 0.134792656928837 
1128	 0.134824315220731 
1129	 0.13484408573332 
1130	 0.134874760068084 
1131	 0.134878499024889 
1132	 0.134913628903956 
1133	 0.134993655826067 
1134	 0.135046795328923 
1135	 0.135105322181083 
1136	 0.135139867576597 
1137	 0.135169400027901 
1138	 0.135193502892917 
1139	 0.135226894824066 
1140	 0.135265271088421 
1141	 0.135306092853846 
1142	 0.135358632289324 
1143	 0.135389940010057 
1144	 0.135410939480641 
1145	 0.135433070039507 
1146	 0.135433775639165 
1147	 0.135457222294178 
1148	 0.135497038379983 
1149	 0.135534485645488 
1150	 0.13558486296543 
1151	 0.13562834235584 
1152	 0.135650965446744 
1153	 0.135660995027842 
1154	 0.135694238222505 
1155	 0.135730882597592 
1156	 0.13575737962121 
1157	 0.135801956009485 
1158	 0.1358257415523 
1159	 0.135820925940183 
1160	 0.135834943210696 
1161	 0.135856610092242 
1162	 0.135874335771874 
1163	 0.135883270809461 
1164	 0.135906527521095 
1165	 0.135934864706595 
1166	 0.135971949741186 
1167	 0.136016186703322 
1168	 0.136050729130241 
1169	 0.136066126693626 
1170	 0.136058243045907 
1171	 0.13607125762342 
1172	 0.136082828255948 
1173	 0.136090393352255 
1174	 0.136099140146023 
1175	 0.136115106251914 
1176	 0.136129277540004 
1177	 0.136142256532716 
1178	 0.136159506905558 
1179	 0.136185398481855 
1180	 0.136204851444485 
1181	 0.136232777348997 
1182	 0.136279060903218 
1183	 0.13632929988604 
1184	 0.136359732891835 
1185	 0.136379140490715 
1186	 0.136406792733284 
1187	 0.136423768621615 
1188	 0.136453826738864 
1189	 0.136503284708765 
1190	 0.136529413804731 
1191	 0.136541943960843 
1192	 0.136565986246997 
1193	 0.136582371485877 
1194	 0.136605909412737 
1195	 0.136661086627375 
1196	 0.136679923215617 
1197	 0.136657833909943 
1198	 0.136666291588188 
1199	 0.136679403327047 
1200	 0.136682127958833 
1201	 0.136700484790976 
1202	 0.136749965700731 
1203	 0.136774042700163 
1204	 0.136781350217017 
1205	 0.136800880775057 
1206	 0.136827568453107 
1207	 0.136846659977788 
1208	 0.136863892543855 
1209	 0.136881081187256 
1210	 0.136894898613484 
1211	 0.136908327388651 
1212	 0.136921585820887 
1213	 0.136935164255442 
1214	 0.136939060419141 
1215	 0.136955441893358 
1216	 0.13697796138572 
1217	 0.137006756461302 
1218	 0.137036415425459 
1219	 0.137083983583447 
1220	 0.137103588028113 
1221	 0.137108816803009 
1222	 0.137121997553841 
1223	 0.137118512322153 
1224	 0.137132529361893 
1225	 0.137163402531554 
1226	 0.137184821210356 
1227	 0.137209834776335 
1228	 0.137228730571421 
1229	 0.137242446749738 
1230	 0.137256087574209 
1231	 0.137262923932197 
1232	 0.137274167617431 
1233	 0.137286880992056 
1234	 0.137299695818823 
1235	 0.137315238670639 
1236	 0.137335362193894 
1237	 0.137353401592189 
1238	 0.137372449627448 
1239	 0.137391007948978 
1240	 0.137411548586885 
1241	 0.137426724326444 
1242	 0.137441152763731 
1243	 0.137451006777058 
1244	 0.137452244984418 
1245	 0.137458644599496 
1246	 0.13745962197609 
1247	 0.13747123457197 
1248	 0.137495436140843 
1249	 0.137512393014758 
1250	 0.13753580261625 
1251	 0.137547937137329 
1252	 0.137562230753515 
1253	 0.137564197687321 
1254	 0.137585936988936 
1255	 0.137629227205723 
1256	 0.137639296037822 
1257	 0.137638251828018 
1258	 0.13764505762442 
1259	 0.13762817544439 
1260	 0.137632543801232 
1261	 0.137664462872145 
1262	 0.137679030343315 
1263	 0.137682285626967 
1264	 0.13769348028206 
1265	 0.137708634288093 
1266	 0.137719373012849 
1267	 0.137729142106521 
1268	 0.137745351739366 
1269	 0.137755766516514 
1270	 0.137755497441353 
1271	 0.137771823744374 
1272	 0.137799513327064 
1273	 0.137818800706369 
1274	 0.137841249736265 
1275	 0.137860078824305 
1276	 0.137874473072781 
1277	 0.13788740631444 
1278	 0.137896893253606 
1279	 0.137914477905754 
1280	 0.137927149619844 
1281	 0.137948969837387 
1282	 0.137988349371094 
1283	 0.138016514134173 
1284	 0.138043577540541 
1285	 0.138071375197764 
1286	 0.138078432483104 
1287	 0.138098371704186 
1288	 0.138116534527348 
1289	 0.138132515010196 
1290	 0.13815078679071 
1291	 0.138175412809092 
1292	 0.13818752122239 
1293	 0.138200961419729 
1294	 0.138200615535178 
1295	 0.138183630806179 
1296	 0.138179136456433 
1297	 0.138167480025238 
1298	 0.13815960376363 
1299	 0.138165994566247 
1300	 0.138160677856917 
1301	 0.138137919277524 
1302	 0.138132690400607 
1303	 0.138137162970403 
1304	 0.13813548404484 
1305	 0.138141325573992 
1306	 0.138151701687107 
1307	 0.138126834118965 
1308	 0.138087461790062 
1309	 0.138069207887628 
1310	 0.138042786452586 
1311	 0.138030233428957 
1312	 0.138043841882819 
1313	 0.138040812588362 
1314	 0.138023104142793 
1315	 0.13802851982127 
1316	 0.138046347634914 
1317	 0.138052537733601 
1318	 0.138069453918591 
1319	 0.138077122786515 
1320	 0.138073698332076 
1321	 0.138073452042854 
1322	 0.138068520919219 
1323	 0.138066512732027 
1324	 0.138092842726873 
1325	 0.138119049607153 
1326	 0.138154132446949 
1327	 0.138187227459593 
1328	 0.13819698739707 
1329	 0.138203996802085 
1330	 0.138215679596483 
1331	 0.138223197702535 
1332	 0.138248819081786 
1333	 0.13828696431352 
1334	 0.138313131169329 
1335	 0.138346851590079 
1336	 0.138376364728032 
1337	 0.138390035781576 
1338	 0.138418075369738 
1339	 0.138465884825038 
1340	 0.138493513946025 
1341	 0.138501586996353 
1342	 0.138532237466732 
1343	 0.138564269118919 
1344	 0.138603479908981 
1345	 0.138655621220778 
1346	 0.13870299911444 
1347	 0.138727743841284 
1348	 0.138753007070833 
1349	 0.138772665783158 
1350	 0.138781080709614 
1351	 0.138810759363142 
1352	 0.138849713213642 
1353	 0.138880098311918 
1354	 0.138924050427657 
1355	 0.138958722426916 
1356	 0.138976030863516 
1357	 0.139007802681071 
1358	 0.139049456767836 
1359	 0.139085206673546 
1360	 0.139125317722068 
1361	 0.139158721099085 
1362	 0.139190212289413 
1363	 0.139212921537317 
1364	 0.139218043034861 
1365	 0.139240488855678 
1366	 0.139265908839178 
1367	 0.139298453263796 
1368	 0.139329330040248 
1369	 0.139357658137005 
1370	 0.13936832585908 
1371	 0.139363314321051 
1372	 0.139356541277008 
1373	 0.139361141159489 
1374	 0.139368180821622 
1375	 0.139375628036758 
1376	 0.139390206577138 
1377	 0.139413489572582 
1378	 0.139431292138367 
1379	 0.139456133143882 
1380	 0.139466684075262 
1381	 0.139473532596823 
1382	 0.13947676662343 
1383	 0.139473184075388 
1384	 0.139463110980881 
1385	 0.139448768257695 
1386	 0.139429407598422 
1387	 0.139397099849568 
1388	 0.13936921186787 
1389	 0.139347567141695 
1390	 0.139316710932427 
1391	 0.139271488013898 
1392	 0.139212074235291 
1393	 0.139146801927803 
1394	 0.139070604956198 
1395	 0.138991290079254 
1396	 0.138916434352166 
1397	 0.138833358607438 
1398	 0.138744089994475 
1399	 0.13864716635538 
1400	 0.13854937029957 
1401	 0.138437371666612 
1402	 0.138297848283205 
1403	 0.138187993275245 
1404	 0.138093120758793 
1405	 0.137982164570726 
1406	 0.137878488429496 
1407	 0.137769510898226 
1408	 0.137633796313528 
1409	 0.137520883994258 
1410	 0.137427366164082 
1411	 0.137328115172441 
1412	 0.137229796529338 
1413	 0.137136737609857 
1414	 0.137040944081519 
1415	 0.136956238352646 
1416	 0.136903020875707 
1417	 0.136853894548055 
1418	 0.136819274988279 
1419	 0.13679123669156 
1420	 0.136739316312732 
1421	 0.136696272293089 
1422	 0.136667726141971 
1423	 0.136640850354708 
1424	 0.136619916748443 
1425	 0.13661840721118 
1426	 0.136599602804282 
1427	 0.136572934237427 
1428	 0.136552750062722 
1429	 0.13652588879017 
1430	 0.136508022383823 
1431	 0.136494494256813 
1432	 0.136486280589536 
1433	 0.136486381041813 
1434	 0.13648743517103 
1435	 0.136490219390503 
1436	 0.136500568340306 
1437	 0.136512169819459 
1438	 0.136529216342125 
1439	 0.136560446340497 
1440	 0.136585660759811 
1441	 0.136603166914947 
1442	 0.136619417743278 
1443	 0.136608799159076 
1444	 0.13660121774818 
1445	 0.136602223511297 
1446	 0.136599017783169 
1447	 0.13662004145539 
1448	 0.136641326858644 
1449	 0.136655568425531 
1450	 0.136674744002048 
1451	 0.136685531933449 
1452	 0.136690484700847 
1453	 0.13670266205341 
1454	 0.136712037277989 
1455	 0.136721135118192 
1456	 0.136729516258152 
1457	 0.136748207603008 
1458	 0.136771082105993 
1459	 0.136792709784098 
1460	 0.136829360378976 
1461	 0.136852224961001 
1462	 0.136858490786032 
1463	 0.136875733829262 
1464	 0.136893736676614 
1465	 0.136913717671848 
1466	 0.13693756940076 
1467	 0.136968116107963 
1468	 0.137003132720652 
1469	 0.137039197962143 
1470	 0.137089487978666 
1471	 0.137118631523679 
1472	 0.137143204130159 
1473	 0.137180317646565 
1474	 0.137200669769725 
1475	 0.137229545750905 
1476	 0.137272219913682 
1477	 0.13730258784841 
1478	 0.137339074938799 
1479	 0.137387410883611 
1480	 0.137435548615665 
1481	 0.13747534607691 
1482	 0.137516019202191 
1483	 0.137558528483575 
1484	 0.137599054081829 
1485	 0.137636842777009 
1486	 0.137673729056211 
1487	 0.137711702871079 
1488	 0.137742633513709 
1489	 0.137761941866308 
1490	 0.137795938301147 
1491	 0.13783300150398 
1492	 0.137872614600643 
1493	 0.137920298880799 
1494	 0.137968652038411 
1495	 0.138026680838916 
1496	 0.138068446081173 
1497	 0.138104325160782 
1498	 0.138143847013128 
1499	 0.138167720735882 
1500	 0.138199808041389 
1501	 0.138247965733469 
1502	 0.13828255680924 
1503	 0.138303306496383 
1504	 0.138338087946362 
1505	 0.138371677674458 
1506	 0.138410519364221 
1507	 0.138450826545754 
1508	 0.138492042639739 
1509	 0.138540404367798 
1510	 0.138569433900819 
1511	 0.138580738594223 
1512	 0.138600694471496 
1513	 0.138622142254072 
1514	 0.138647338098496 
1515	 0.138685043136527 
1516	 0.138723267409852 
1517	 0.138760378909947 
1518	 0.138796043929316 
1519	 0.138819936086834 
1520	 0.138839416114845 
1521	 0.138864599557708 
1522	 0.138886654815016 
1523	 0.138896437807386 
1524	 0.138907159225377 
1525	 0.138921245501523 
1526	 0.138912330565817 
1527	 0.138926129451209 
1528	 0.138969120833476 
1529	 0.138984595855813 
1530	 0.138988711053336 
1531	 0.139001865188743 
1532	 0.13900682153061 
1533	 0.139020414371317 
1534	 0.139045696686662 
1535	 0.13906347440834 
1536	 0.139074245305785 
1537	 0.139093834384674 
1538	 0.139112033179765 
1539	 0.139141636798757 
1540	 0.139187542753153 
1541	 0.139221248979683 
1542	 0.139267712538328 
1543	 0.139293906015994 
1544	 0.139296888866236 
1545	 0.139312170175091 
1546	 0.13933128548929 
1547	 0.139330747674996 
1548	 0.139330822009221 
1549	 0.139336578503228 
1550	 0.139341687664117 
1551	 0.139345540951337 
1552	 0.139368750677349 
1553	 0.139379083768045 
1554	 0.139379265552661 
1555	 0.139387625595081 
1556	 0.13939829780671 
1557	 0.139427101042383 
1558	 0.139450123487733 
1559	 0.13946716299843 
1560	 0.139484338607559 
1561	 0.13948710157103 
1562	 0.139513965876078 
1563	 0.139562578529025 
1564	 0.139582353150225 
1565	 0.139599786929023 
1566	 0.139618539009505 
1567	 0.139617397632602 
1568	 0.139629745294122 
1569	 0.139664341962802 
1570	 0.13967238364046 
1571	 0.139660154682792 
1572	 0.139663168883322 
1573	 0.139664764319892 
1574	 0.13966364906907 
1575	 0.139671583427835 
1576	 0.139667189407841 
1577	 0.139637199549213 
1578	 0.139643355019241 
1579	 0.139672005507145 
1580	 0.139685659563902 
1581	 0.139717960333301 
1582	 0.139729869989818 
1583	 0.139713176227355 
1584	 0.139714854350652 
1585	 0.139726647312065 
1586	 0.139728736144272 
1587	 0.139724571448741 
1588	 0.139730201014096 
1589	 0.13973390273644 
1590	 0.139742634606571 
1591	 0.139765850673836 
1592	 0.13978287658534 
1593	 0.139794470775438 
1594	 0.139808983695005 
1595	 0.139821371328209 
1596	 0.139841082688651 
1597	 0.139876639979005 
1598	 0.13989273531314 
1599	 0.139908738002952 
1600	 0.139914822304661 
1601	 0.139903196365576 
1602	 0.139887591712748 
1603	 0.139855995287895 
1604	 0.139838325665359 
1605	 0.139817745607781 
1606	 0.139803240650761 
1607	 0.139803163562525 
1608	 0.139802519075374 
1609	 0.139802435229322 
1610	 0.139807889964064 
1611	 0.139812446180345 
1612	 0.139828754998397 
1613	 0.139851382926658 
1614	 0.139856628547529 
1615	 0.139849730926322 
1616	 0.139848885124884 
1617	 0.139852599177012 
1618	 0.139856880363312 
1619	 0.139877692701021 
1620	 0.139900645050208 
1621	 0.139908846134951 
1622	 0.139903158687968 
1623	 0.139905638877553 
1624	 0.139909468992058 
1625	 0.139903783702615 
1626	 0.139892766072817 
1627	 0.139885384630258 
1628	 0.139869232533867 
1629	 0.13986626586455 
1630	 0.139871862278046 
1631	 0.139877122692104 
1632	 0.139885330034344 
1633	 0.139895725440066 
1634	 0.139912812175483 
1635	 0.139921913691647 
1636	 0.139930234510241 
1637	 0.139936111545344 
1638	 0.139936481496141 
1639	 0.13993798522827 
1640	 0.139937726468838 
1641	 0.139943330111611 
1642	 0.139954963585315 
1643	 0.139953172115483 
1644	 0.139944936008532 
1645	 0.139947785174021 
1646	 0.13994340303236 
1647	 0.139948527368615 
1648	 0.139976681439436 
1649	 0.139978850695196 
1650	 0.139968901731779 
1651	 0.139959960275625 
1652	 0.139936675432614 
1653	 0.139927852123071 
1654	 0.139920165923548 
1655	 0.13992230636517 
1656	 0.139936407830252 
1657	 0.139946004665967 
1658	 0.139964832554935 
1659	 0.139971323563188 
1660	 0.139982831995663 
1661	 0.139966184765176 
1662	 0.139916089853427 
1663	 0.139899911164597 
1664	 0.139873118398218 
1665	 0.139869997756334 
1666	 0.139911889349734 
1667	 0.13991727720158 
1668	 0.139911555694356 
1669	 0.139904745898962 
1670	 0.139876476738223 
1671	 0.139873718429157 
1672	 0.139887555582901 
1673	 0.139887629738552 
1674	 0.139888100014317 
1675	 0.139897008920343 
1676	 0.139896698021463 
1677	 0.139910693267647 
1678	 0.139955523436711 
1679	 0.139968728839127 
1680	 0.139971717035277 
1681	 0.139968692239246 
1682	 0.139943618375826 
1683	 0.13993336411094 
1684	 0.139925643161686 
1685	 0.139918572827898 
1686	 0.13991870349817 
1687	 0.139911028409718 
1688	 0.139891734080132 
1689	 0.139890337181963 
1690	 0.13989829176199 
1691	 0.139899807637697 
1692	 0.139918404631843 
1693	 0.139914200854145 
1694	 0.139885018208513 
1695	 0.139873558608888 
1696	 0.139856261078353 
1697	 0.139853142781014 
1698	 0.139866668898711 
1699	 0.139874024200716 
1700	 0.139899671372522 
1701	 0.139890785535764 
1702	 0.13984989182286 
1703	 0.139840084524296 
1704	 0.139831761861512 
1705	 0.13981343754234 
1706	 0.139811572663565 
1707	 0.13980312282901 
1708	 0.139765528486629 
1709	 0.139754600967697 
1710	 0.139768902780756 
1711	 0.139768474810429 
1712	 0.139767757070957 
1713	 0.139764355471155 
1714	 0.1397629911549 
1715	 0.139753252899048 
1716	 0.139738418710078 
1717	 0.139717596012526 
1718	 0.1396815400384 
1719	 0.139663097930918 
1720	 0.139643947608535 
1721	 0.139637549168216 
1722	 0.139660206824066 
1723	 0.139644863214876 
1724	 0.13960393280163 
1725	 0.139599885612937 
1726	 0.139600536861781 
1727	 0.139585000773599 
1728	 0.139591270263262 
1729	 0.139577691553881 
1730	 0.139526565089562 
1731	 0.139510411661342 
1732	 0.139521182018462 
1733	 0.139510222418061 
1734	 0.139490579145462 
1735	 0.139474352261416 
1736	 0.139457121824949 
1737	 0.139435198689534 
1738	 0.139415144248316 
1739	 0.139391567192048 
1740	 0.139363073648962 
1741	 0.139327751379181 
1742	 0.139281500288203 
1743	 0.139257440776866 
1744	 0.139232552796264 
1745	 0.139212942903667 
1746	 0.139219718008378 
1747	 0.139184248335912 
1748	 0.13916643680636 
1749	 0.139167806058182 
1750	 0.139133632147251 
1751	 0.139099897492759 
1752	 0.139098828875469 
1753	 0.139103917552465 
1754	 0.139096687397258 
1755	 0.139096414811123 
1756	 0.139096437870509 
1757	 0.1390692774475 
1758	 0.139030973087307 
1759	 0.138991735595652 
1760	 0.138949333474102 
1761	 0.138897140222092 
1762	 0.138864134328393 
1763	 0.138860537042812 
1764	 0.138836681184904 
1765	 0.138801012749156 
1766	 0.138792368021651 
1767	 0.138780401373706 
1768	 0.138758525729416 
1769	 0.138754571294377 
1770	 0.138742231173184 
1771	 0.138740607104869 
1772	 0.138733013735467 
1773	 0.138710153989508 
1774	 0.138692237769013 
1775	 0.138662668013422 
1776	 0.138618077346397 
1777	 0.138552472123698 
1778	 0.138518391628389 
1779	 0.138502342991728 
1780	 0.138491408440817 
1781	 0.138514285713062 
1782	 0.138529838013553 
1783	 0.138527188652235 
1784	 0.138524017976572 
1785	 0.138541171270792 
1786	 0.138522932514583 
1787	 0.138448678269214 
1788	 0.138422196493461 
1789	 0.138400560161843 
1790	 0.138394365907402 
1791	 0.138447864954979 
1792	 0.1384618503325 
1793	 0.138445677322147 
1794	 0.13844586942596 
1795	 0.138444142033685 
1796	 0.13843017789455 
1797	 0.138410437632633 
1798	 0.138405118411416 
1799	 0.138399090995489 
1800	 0.138399447770265 
1801	 0.134663377906978 
1802	 0.134662346200081 
1803	 0.134681940181593 
1804	 0.134734669857895 
1805	 0.134756941427043 
1806	 0.134794779630322 
1807	 0.134839875993833 
1808	 0.134859566817567 
1809	 0.134855768989429 
1810	 0.134876264119381 
1811	 0.134912543472754 
1812	 0.134896896348981 
1813	 0.134903339389928 
1814	 0.134916240015258 
1815	 0.13489964681792 
1816	 0.134905566199546 
1817	 0.134915008594452 
1818	 0.134937783248018 
1819	 0.134947705721651 
1820	 0.134957390378733 
1821	 0.134965397990673 
1822	 0.13496018657061 
1823	 0.134964999608248 
1824	 0.134980771728733 
1825	 0.135015794101031 
1826	 0.135035046675672 
1827	 0.135031466578151 
1828	 0.135019041858308 
1829	 0.134970227365562 
1830	 0.134936270507096 
1831	 0.134892505679922 
1832	 0.13487490452048 
1833	 0.134870642169017 
1834	 0.134852574119431 
1835	 0.134857695126852 
1836	 0.134863547289346 
1837	 0.13485609815573 
1838	 0.134866461721285 
1839	 0.134873552008803 
1840	 0.134888390196491 
1841	 0.134888467483071 
1842	 0.134867149024221 
1843	 0.134854629294996 
1844	 0.134825760664358 
1845	 0.134799829333185 
1846	 0.134820212511248 
1847	 0.134814598220952 
1848	 0.134777973635603 
1849	 0.134783112680835 
1850	 0.134772084810214 
1851	 0.134749044133193 
1852	 0.134704765659607 
1853	 0.134696256196461 
1854	 0.134666264986112 
1855	 0.134619892235544 
1856	 0.134599939515769 
1857	 0.134589711425985 
1858	 0.134560422353466 
1859	 0.134505304309926 
1860	 0.134449946989932 
1861	 0.134393145679303 
1862	 0.13431014924562 
1863	 0.13422052509379 
1864	 0.134170097969111 
1865	 0.134090805092419 
1866	 0.13400760821881 
1867	 0.133946855458857 
1868	 0.133851860658775 
1869	 0.133769248730451 
1870	 0.133712284661906 
1871	 0.133618627506577 
1872	 0.133507868161839 
1873	 0.133374475579042 
1874	 0.133241646517771 
1875	 0.133083590342456 
1876	 0.132915872981448 
1877	 0.132744064305564 
1878	 0.132534330352838 
1879	 0.132313744198735 
1880	 0.132089595300728 
1881	 0.1318499395304 
1882	 0.131614528166872 
1883	 0.131390118355337 
1884	 0.131131332720077 
1885	 0.130851468447604 
1886	 0.130541434583393 
1887	 0.130201537570559 
1888	 0.129834708597015 
1889	 0.129463231921539 
1890	 0.129100470787206 
1891	 0.128721878364581 
1892	 0.128340695337442 
1893	 0.127934998775477 
1894	 0.127516375526986 
1895	 0.12707441439249 
1896	 0.126607035715909 
1897	 0.126144342875745 
1898	 0.125679894444871 
1899	 0.125224082877203 
1900	 0.124778774232712 
1901	 0.124317522207194 
1902	 0.123885251412825 
1903	 0.123484040046629 
1904	 0.123067969660554 
1905	 0.122644227868149 
1906	 0.122259055992207 
1907	 0.121884212606051 
1908	 0.121497802483332 
1909	 0.121152122286443 
1910	 0.120827467488433 
1911	 0.12052631870734 
1912	 0.120254512255858 
1913	 0.119990018877199 
1914	 0.119751409813779 
1915	 0.11952772840993 
1916	 0.11931997467368 
1917	 0.119103796531216 
1918	 0.118932651531881 
1919	 0.11876586842804 
1920	 0.118597205182334 
1921	 0.118460631594557 
1922	 0.118312097898004 
1923	 0.118180752037682 
1924	 0.118071186206435 
1925	 0.117988154534556 
1926	 0.117893627563416 
1927	 0.117811128181148 
1928	 0.117729675386936 
1929	 0.117655881374349 
1930	 0.117603711118384 
1931	 0.117580621097954 
1932	 0.117575378054114 
1933	 0.117550394153735 
1934	 0.117534853932161 
1935	 0.117528748809841 
1936	 0.117515902070569 
1937	 0.117530010756565 
1938	 0.117572188918642 
1939	 0.117603032878935 
1940	 0.117636523929253 
1941	 0.117690995238574 
1942	 0.117728097327081 
1943	 0.117780816210673 
1944	 0.117842364294108 
1945	 0.117885002833981 
1946	 0.117945821539083 
1947	 0.118008206327951 
1948	 0.118083036407453 
1949	 0.118183702846136 
1950	 0.118268436000234 
1951	 0.118350907158963 
1952	 0.11843601106719 
1953	 0.118517106502391 
1954	 0.118589456322286 
1955	 0.118656993004453 
1956	 0.118734161976159 
1957	 0.118836481360496 
1958	 0.118953024224747 
1959	 0.119069937462806 
1960	 0.11922966007519 
1961	 0.119352113138445 
1962	 0.119444045904272 
1963	 0.119549567921724 
1964	 0.119638063743662 
1965	 0.11974750799934 
1966	 0.119890791654627 
1967	 0.120042755159899 
1968	 0.120184762704112 
1969	 0.120350686065635 
1970	 0.120486519900776 
1971	 0.120608802349224 
1972	 0.120721494756971 
1973	 0.120802132155212 
1974	 0.120913043372236 
1975	 0.121024084814141 
1976	 0.121134755491811 
1977	 0.121283057303779 
1978	 0.121443333265162 
1979	 0.121593667281575 
1980	 0.121742575159996 
1981	 0.121886170043715 
1982	 0.122030752867925 
1983	 0.122163868009319 
1984	 0.122286554666975 
1985	 0.122410740993818 
1986	 0.122525904016107 
1987	 0.122645796741221 
1988	 0.122752666811553 
1989	 0.122880922943004 
1990	 0.123046194307802 
1991	 0.123194205994581 
1992	 0.123351708778498 
1993	 0.123546829440492 
1994	 0.123697874658254 
1995	 0.12382005259108 
1996	 0.123957757292653 
1997	 0.124087703975619 
1998	 0.124217159975762 
1999	 0.124343295070776 
2000	 0.124476482541137 
2001	 0.124607672069947 
2002	 0.124746571920067 
2003	 0.124885220402794 
2004	 0.125036427030294 
2005	 0.125175533051027 
2006	 0.12531664042715 
2007	 0.125438021853001 
2008	 0.125542929910358 
2009	 0.12565504874004 
2010	 0.125750863035763 
2011	 0.125861698264052 
2012	 0.125975930683275 
2013	 0.126101296822684 
2014	 0.126243495238393 
2015	 0.126378654234182 
2016	 0.126485983257991 
2017	 0.126638556685135 
2018	 0.126773829173399 
2019	 0.126901093679534 
2020	 0.12702178707512 
2021	 0.127146044690004 
2022	 0.127269231605749 
2023	 0.12737513636449 
2024	 0.127493397183655 
2025	 0.127632136004927 
2026	 0.127757245998356 
2027	 0.127868394982812 
2028	 0.127995105945844 
2029	 0.128106539517921 
2030	 0.128207267709832 
2031	 0.128319665743597 
2032	 0.128430605324058 
2033	 0.128541334264297 
2034	 0.128667712971399 
2035	 0.12877172586988 
2036	 0.128859357916657 
2037	 0.128955068953991 
2038	 0.129034261971984 
2039	 0.129130209390653 
2040	 0.129243868666506 
2041	 0.129345511828628 
2042	 0.12944757670542 
2043	 0.129569405843151 
2044	 0.129674937821581 
2045	 0.129777162165607 
2046	 0.129870099234211 
2047	 0.129967733828241 
2048	 0.130039339509813 
2049	 0.130074751664695 
2050	 0.130141397325861 
2051	 0.130208859221605 
2052	 0.130273863375013 
2053	 0.130364676073511 
2054	 0.130436169430845 
2055	 0.130482478999137 
2056	 0.130533373105541 
2057	 0.130597556508178 
2058	 0.130664255482952 
2059	 0.13073314349931 
2060	 0.130818778433344 
2061	 0.130889801772341 
2062	 0.13095759728334 
2063	 0.131021646465652 
2064	 0.131070299101707 
2065	 0.131133786836832 
2066	 0.131196598450847 
2067	 0.131267414662778 
2068	 0.131345762734542 
2069	 0.131443050526321 
2070	 0.131521801827815 
2071	 0.131601275241961 
2072	 0.131667439260393 
2073	 0.13172007177534 
2074	 0.131780697301838 
2075	 0.131831724368189 
2076	 0.131894730449873 
2077	 0.131969928940204 
2078	 0.132037275739378 
2079	 0.132110965441173 
2080	 0.132174189154963 
2081	 0.132219612718045 
2082	 0.132279430369439 
2083	 0.13234632336535 
2084	 0.132400833193777 
2085	 0.13247406635557 
2086	 0.13256608345479 
2087	 0.132642294424986 
2088	 0.132725330478925 
2089	 0.132789327817011 
2090	 0.132837206161566 
2091	 0.132892265799993 
2092	 0.13293305678065 
2093	 0.132988850947732 
2094	 0.133054956801549 
2095	 0.133120266058256 
2096	 0.133189644455363 
2097	 0.133258997583116 
2098	 0.133333651266303 
2099	 0.133398079776963 
2100	 0.133479262198571 
2101	 0.133577198762626 
2102	 0.133648447180596 
2103	 0.133716400009012 
2104	 0.133782896429102 
2105	 0.133813576287578 
2106	 0.133888926254872 
2107	 0.1340180747809 
2108	 0.134090449801632 
2109	 0.134141953403417 
2110	 0.134208508653795 
2111	 0.13422864581584 
2112	 0.134289427013349 
2113	 0.134390087392223 
2114	 0.134504108151078 
2115	 0.134585186017962 
2116	 0.134664343621508 
2117	 0.134737259399696 
2118	 0.134782115528187 
2119	 0.134855340701141 
2120	 0.134947249183064 
2121	 0.135023493290641 
2122	 0.135100487171502 
2123	 0.135177121678443 
2124	 0.135259773256436 
2125	 0.135319579689382 
2126	 0.135364083528139 
2127	 0.135414416920326 
2128	 0.135447056783167 
2129	 0.135483859920272 
2130	 0.135521969002809 
2131	 0.135574611883085 
2132	 0.135621910650795 
2133	 0.135669776293028 
2134	 0.135706657627539 
2135	 0.135755357766105 
2136	 0.13577226743664 
2137	 0.135754143056019 
2138	 0.135756709174896 
2139	 0.135766388259196 
2140	 0.135752122070376 
2141	 0.135742007350595 
2142	 0.135709085495734 
2143	 0.135627701552233 
2144	 0.135573215166031 
2145	 0.135528505567725 
2146	 0.135475440623679 
2147	 0.135440410571631 
2148	 0.135384286166593 
2149	 0.135312166574132 
2150	 0.135212252878397 
2151	 0.135136447762626 
2152	 0.135051975000193 
2153	 0.134981939052978 
2154	 0.134943441944148 
2155	 0.134867011931797 
2156	 0.134757444408254 
2157	 0.134683175296998 
2158	 0.134618942747276 
2159	 0.134541576202428 
2160	 0.13450052710734 
2161	 0.13441731641014 
2162	 0.134292085199152 
2163	 0.134170895424397 
2164	 0.134034347130812 
2165	 0.13388624286894 
2166	 0.133769646464405 
2167	 0.133657736287544 
2168	 0.133558796137637 
2169	 0.133492827117249 
2170	 0.133399974593952 
2171	 0.133295839408596 
2172	 0.133203270587374 
2173	 0.133105364868272 
2174	 0.133016358921644 
2175	 0.132942818885845 
2176	 0.132861988087313 
2177	 0.132784205030991 
2178	 0.132698131445751 
2179	 0.132606233633988 
2180	 0.132514612973013 
2181	 0.132404370744589 
2182	 0.132315124814799 
2183	 0.132248805956196 
2184	 0.132168887406465 
2185	 0.132089362775753 
2186	 0.132017916616096 
2187	 0.131940045100713 
2188	 0.131859252143075 
2189	 0.131763878736361 
2190	 0.131648794271529 
2191	 0.131566166811717 
2192	 0.131479292539544 
2193	 0.131406716455969 
2194	 0.131367618532865 
2195	 0.131318473312897 
2196	 0.131262556584049 
2197	 0.131214610953362 
2198	 0.13118267298327 
2199	 0.131146296511111 
2200	 0.131099238525104 
2201	 0.131063967065266 
2202	 0.131045320984515 
2203	 0.131009239560209 
2204	 0.130986568244531 
2205	 0.130980241630537 
2206	 0.13095521946075 
2207	 0.130917384998612 
2208	 0.130896431566644 
2209	 0.130870368873476 
2210	 0.130859878486506 
2211	 0.130879256095625 
2212	 0.13086994310857 
2213	 0.130844659477162 
2214	 0.130833783779414 
2215	 0.130822979185121 
2216	 0.130806184533052 
2217	 0.13080184601204 
2218	 0.130785580479672 
2219	 0.130741514311615 
2220	 0.130717276963327 
2221	 0.130686582206938 
2222	 0.130680820870712 
2223	 0.130725245173465 
2224	 0.13075080677086 
2225	 0.130778074563819 
2226	 0.130826711605427 
2227	 0.130860922783657 
2228	 0.130875623357941 
2229	 0.130903861777689 
2230	 0.130949499334787 
2231	 0.130971868066612 
2232	 0.130983630136054 
2233	 0.13099254151632 
2234	 0.130995176251517 
2235	 0.130991684904951 
2236	 0.130984404589508 
2237	 0.130966838383433 
2238	 0.130917356853015 
2239	 0.130904209137238 
2240	 0.130908812368591 
2241	 0.1309045520021 
2242	 0.130930374273056 
2243	 0.130932402779463 
2244	 0.130896574107754 
2245	 0.130878486557057 
2246	 0.130909625038156 
2247	 0.130933090088496 
2248	 0.130942629200936 
2249	 0.130973659659971 
2250	 0.130976117466099 
2251	 0.130931452650083 
2252	 0.130938727550029 
2253	 0.130981506697814 
2254	 0.13099600138174 
2255	 0.131016457214951 
2256	 0.131015084270443 
2257	 0.130976161707836 
2258	 0.130970968469502 
2259	 0.130982941226682 
2260	 0.130981966823205 
2261	 0.130992978396699 
2262	 0.130998316169597 
2263	 0.13095843264532 
2264	 0.130977480558378 
2265	 0.131051769554641 
2266	 0.131087771470333 
2267	 0.131137997202523 
2268	 0.131182314774905 
2269	 0.131202246711711 
2270	 0.131225199746798 
2271	 0.131244643905819 
2272	 0.13128233631333 
2273	 0.131293265984884 
2274	 0.131279765018676 
2275	 0.131276534129323 
2276	 0.131269251403149 
2277	 0.131266614593903 
2278	 0.131256666739446 
2279	 0.13127155639022 
2280	 0.131294856481124 
2281	 0.131324130226383 
2282	 0.131373274973661 
2283	 0.131422746918445 
2284	 0.131500548461451 
2285	 0.131529982627657 
2286	 0.131535744818735 
2287	 0.131543335899406 
2288	 0.131509146592698 
2289	 0.131504098326633 
2290	 0.131520064024193 
2291	 0.131539886543051 
2292	 0.131554860970308 
2293	 0.131581510106769 
2294	 0.131642459088493 
2295	 0.131675981247481 
2296	 0.131681577390285 
2297	 0.131725362912491 
2298	 0.131759798260011 
2299	 0.131785338701044 
2300	 0.131832413196872 
2301	 0.131879137863235 
2302	 0.131898959381672 
2303	 0.131868789020238 
2304	 0.131832157403234 
2305	 0.131800827290028 
2306	 0.131779549275992 
2307	 0.131784260336223 
2308	 0.131739333364283 
2309	 0.131666782978804 
2310	 0.131620431444678 
2311	 0.13153552163047 
2312	 0.131514339580897 
2313	 0.131558706412007 
2314	 0.131557873218154 
2315	 0.131559723839569 
2316	 0.131561228188583 
2317	 0.131551016315976 
2318	 0.131540044609956 
2319	 0.131526090262252 
2320	 0.131522276907105 
2321	 0.131522015939657 
2322	 0.131512622971269 
2323	 0.131502829223045 
2324	 0.131511283177778 
2325	 0.131515417000886 
2326	 0.13153180842369 
2327	 0.131573395639953 
2328	 0.131609149809679 
2329	 0.131675256291465 
2330	 0.131669175110823 
2331	 0.13166329704392 
2332	 0.131666787761149 
2333	 0.131643274657155 
2334	 0.131636468893873 
2335	 0.131583351408525 
2336	 0.131555400318143 
2337	 0.131565606458718 
2338	 0.131538992944213 
2339	 0.131579939962555 
2340	 0.131655937424529 
2341	 0.131663917924131 
2342	 0.131689759412428 
2343	 0.131678847775428 
2344	 0.131610059668331 
2345	 0.131590674706355 
2346	 0.131573491445674 
2347	 0.13153712866269 
2348	 0.131509477468168 
2349	 0.131501462571384 
2350	 0.131510702592693 
2351	 0.13147323340867 
2352	 0.131425737949142 
2353	 0.131394972192765 
2354	 0.131289905218688 
2355	 0.131243274675978 
2356	 0.131289854036962 
2357	 0.131281405266396 
2358	 0.131255084225802 
2359	 0.131228121576479 
2360	 0.131198264377458 
2361	 0.131156075270249 
2362	 0.131102958569747 
2363	 0.131052082443348 
2364	 0.130964879907729 
2365	 0.130903291628376 
2366	 0.130880362730229 
2367	 0.130821113247939 
2368	 0.130764514103431 
2369	 0.130692868113518 
2370	 0.130588235579349 
2371	 0.130472678752098 
2372	 0.13038046586656 
2373	 0.130348254984865 
2374	 0.130406871762257 
2375	 0.130379284041436 
2376	 0.13028546096123 
2377	 0.130246304111687 
2378	 0.130157206973902 
2379	 0.130040444246325 
2380	 0.129988003766887 
2381	 0.129954719713086 
2382	 0.129800596965663 
2383	 0.129682243629634 
2384	 0.129648553002122 
2385	 0.129514401283938 
2386	 0.129510622885956 
2387	 0.129545214474407 
2388	 0.129442904452518 
2389	 0.129361989429412 
2390	 0.129229690746638 
2391	 0.129051843830834 
2392	 0.128915655742207 
2393	 0.128831243217963 
2394	 0.128775445934011 
2395	 0.128747119065256 
2396	 0.12874795424537 
2397	 0.128691696070599 
2398	 0.128545022980791 
2399	 0.128442116766284 
2400	 0.128461534600286 
2401	 0.12848922401822 
2402	 0.128515249685773 
2403	 0.128513170664451 
2404	 0.128379649567435 
2405	 0.128200908813022 
2406	 0.128043103167324 
2407	 0.12786613111317 
2408	 0.127774789495898 
2409	 0.127742838177778 
2410	 0.12765100708559 
2411	 0.127528776486081 
2412	 0.127387142430487 
2413	 0.12727163364262 
2414	 0.127203702245424 
2415	 0.12719804773862 
2416	 0.127176618111556 
2417	 0.127147614080953 
2418	 0.127082470455972 
2419	 0.127052483687941 
2420	 0.126962164488844 
2421	 0.12676897172835 
2422	 0.126687249737393 
2423	 0.126614963225294 
2424	 0.126592980112298 
2425	 0.126700858223136 
2426	 0.126665471343161 
2427	 0.126545586734308 
2428	 0.126423624723348 
2429	 0.12626858014627 
2430	 0.12616886757453 
2431	 0.126117525011877 
2432	 0.126033883189434 
2433	 0.125895522799783 
2434	 0.125759049620525 
2435	 0.125620972497519 
2436	 0.125495865201052 
2437	 0.125373909523547 
2438	 0.125276903373372 
2439	 0.125208653439668 
2440	 0.125102899218724 
2441	 0.125007432761468 
2442	 0.124932594057865 
2443	 0.124817965115521 
2444	 0.124698907847834 
2445	 0.124617444401115 
2446	 0.124564759947187 
2447	 0.124490525490206 
2448	 0.124405597576623 
2449	 0.124398448216332 
2450	 0.124257501395064 
2451	 0.123934659618803 
2452	 0.123811072418427 
2453	 0.123792863137882 
2454	 0.123695728696413 
2455	 0.123676592301967 
2456	 0.123615352762326 
2457	 0.123455619319975 
2458	 0.123337771291652 
2459	 0.123269822112635 
2460	 0.12313684948081 
2461	 0.122964991186577 
2462	 0.122770031610691 
2463	 0.122500630939556 
2464	 0.122307269031456 
2465	 0.122136585275151 
2466	 0.122021071406005 
2467	 0.121970960449974 
2468	 0.121906747454556 
2469	 0.121897586941767 
2470	 0.12177891713283 
2471	 0.121570179050866 
2472	 0.121383874268916 
2473	 0.121273819871532 
2474	 0.121246204486259 
2475	 0.121417453416703 
2476	 0.12143404394356 
2477	 0.121274471511111 
2478	 0.121215254662781 
2479	 0.121049509180263 
2480	 0.120976039194916 
2481	 0.120907967794555 
2482	 0.120519906581016 
2483	 0.120215639195553 
2484	 0.120095885878744 
2485	 0.120089442919015 
2486	 0.120352959237464 
2487	 0.120714936161183 
2488	 0.120607221940591 
2489	 0.120302966811845 
2490	 0.120136381036948 
2491	 0.119919192069484 
2492	 0.119916766890133 
2493	 0.120007222728152 
2494	 0.120070692172814 
2495	 0.11997767658544 
2496	 0.119839513652437 
2497	 0.119867578760731 
2498	 0.119732312877048 
2499	 0.119477643146186 
2500	 0.119263844911478 
