Wavelength	LMW_1500000.asd
350	 6.02066612152142E-02 
351	 5.77151394573587E-02 
352	 5.28643137888873E-02 
353	 4.58318813883825E-02 
354	 4.95217351441073E-02 
355	 0.050675429378974 
356	 0.047981616410516 
357	 4.55388317146489E-02 
358	 0.056325395153994 
359	 5.58365282629797E-02 
360	 4.70456073020609E-02 
361	 4.95627141523902E-02 
362	 5.25485010108027E-02 
363	 5.62337499418843E-02 
364	 5.82708498509636E-02 
365	 4.95619004118785E-02 
366	 4.95389850712385E-02 
367	 5.14548200020469E-02 
368	 4.69045647978775E-02 
369	 5.18387655658193E-02 
370	 5.40920261203896E-02 
371	 5.12735086452897E-02 
372	 4.85834525614102E-02 
373	 5.24142122124446E-02 
374	 5.54996092176956E-02 
375	 5.45912804616445E-02 
376	 5.67244467794183E-02 
377	 5.36892585896202E-02 
378	 5.13150343323117E-02 
379	 5.54496411225375E-02 
380	 5.38559477488548E-02 
381	 5.18000101193323E-02 
382	 5.21205056912566E-02 
383	 5.47480367275356E-02 
384	 5.29688926160472E-02 
385	 5.04868179760583E-02 
386	 5.03968284810802E-02 
387	 5.18730742928444E-02 
388	 5.27902689257588E-02 
389	 5.26047059322543E-02 
390	 5.18334967299183E-02 
391	 5.29365350404414E-02 
392	 5.27642879177045E-02 
393	 5.18360738912463E-02 
394	 5.35113507876943E-02 
395	 5.15859228959928E-02 
396	 5.07180905214588E-02 
397	 5.34333769080627E-02 
398	 5.40790878028014E-02 
399	 5.39904930971635E-02 
400	 5.47027545753254E-02 
401	 5.68256381056235E-02 
402	 5.48266682523517E-02 
403	 5.37938104072498E-02 
404	 5.48487699145736E-02 
405	 5.45848965457074E-02 
406	 5.43674531380327E-02 
407	 5.45624311822544E-02 
408	 5.49126620735318E-02 
409	 5.38913918314618E-02 
410	 5.36820358722599E-02 
411	 5.39648393095285E-02 
412	 5.36008934620286E-02 
413	 5.49832188996017E-02 
414	 5.54657958299129E-02 
415	 5.46792490681828E-02 
416	 5.56499459340072E-02 
417	 0.055900996560454 
418	 5.58275068831977E-02 
419	 5.60453638967856E-02 
420	 5.54165044524432E-02 
421	 5.50955873571365E-02 
422	 5.54222782371424E-02 
423	 5.60669306885242E-02 
424	 5.57927728288574E-02 
425	 5.55208996189493E-02 
426	 5.58136141805802E-02 
427	 5.61430683359816E-02 
428	 5.59533452670917E-02 
429	 5.57488294076762E-02 
430	 5.61250350671644E-02 
431	 5.62406031683217E-02 
432	 5.60122366761079E-02 
433	 5.59153188833986E-02 
434	 5.68258935947496E-02 
435	 5.69777921699424E-02 
436	 5.67227345322073E-02 
437	 5.66374465961632E-02 
438	 5.67145076518853E-02 
439	 5.68711032710195E-02 
440	 5.71870758493744E-02 
441	 5.77316619546567E-02 
442	 5.78289003457362E-02 
443	 5.77836726227375E-02 
444	 5.78600847748548E-02 
445	 5.81164793197964E-02 
446	 5.81789579465351E-02 
447	 5.81937181285231E-02 
448	 5.83731034831056E-02 
449	 5.84768845634291E-02 
450	 5.88645311039411E-02 
451	 5.92981055849661E-02 
452	 5.90843493231596E-02 
453	 5.88656688780154E-02 
454	 5.88828671205014E-02 
455	 5.91693726208885E-02 
456	 5.94926256964422E-02 
457	 5.96806588480856E-02 
458	 5.97260127962481E-02 
459	 5.97190707428254E-02 
460	 5.97420216189547E-02 
461	 5.96431885734523E-02 
462	 5.95610744124202E-02 
463	 6.00741134978502E-02 
464	 6.03497959214757E-02 
465	 0.060493584786837 
466	 6.07819558581878E-02 
467	 6.10409942414766E-02 
468	 6.13389623665156E-02 
469	 6.14944109124444E-02 
470	 6.11970434389107E-02 
471	 6.14399644455762E-02 
472	 6.18276824919867E-02 
473	 6.19510760329632E-02 
474	 6.19118217364672E-02 
475	 6.20804683215419E-02 
476	 6.23926648468625E-02 
477	 6.25767597775887E-02 
478	 6.24725582691322E-02 
479	 6.25444077726282E-02 
480	 6.28645708556478E-02 
481	 6.28925443574355E-02 
482	 6.31159974810833E-02 
483	 0.063450652412252 
484	 6.36948744150821E-02 
485	 6.38586604580049E-02 
486	 6.39094903390788E-02 
487	 6.39288055171767E-02 
488	 6.40787241104823E-02 
489	 6.42341334845774E-02 
490	 6.44019704929666E-02 
491	 6.45694994499944E-02 
492	 6.46099733149348E-02 
493	 6.46811615995182E-02 
494	 6.48033443398755E-02 
495	 6.49267988353604E-02 
496	 6.50094090177437E-02 
497	 6.51068443922353E-02 
498	 6.52553962399954E-02 
499	 6.54512140554434E-02 
500	 6.56397887796847E-02 
501	 6.57860241234423E-02 
502	 6.58770838582553E-02 
503	 6.59668749684414E-02 
504	 6.59408746407976E-02 
505	 6.58977410385197E-02 
506	 6.61108392663613E-02 
507	 0.066254454032915 
508	 6.63618863979336E-02 
509	 6.64774317556896E-02 
510	 6.64639417179264E-02 
511	 0.066523925042035 
512	 6.66408017852424E-02 
513	 6.66946558897335E-02 
514	 0.066805361645699 
515	 6.68367608366187E-02 
516	 6.67901452788692E-02 
517	 6.69536703698396E-02 
518	 6.70486401629184E-02 
519	 6.70511149459969E-02 
520	 6.70414914105055E-02 
521	 6.71656358326704E-02 
522	 6.73124320247963E-02 
523	 6.74191997975939E-02 
524	 0.067490365355342 
525	 6.74160521331615E-02 
526	 6.74142265346537E-02 
527	 6.76011112564046E-02 
528	 6.75316601401453E-02 
529	 0.067547735900071 
530	 0.067671299544188 
531	 0.067722141641975 
532	 6.78127479208661E-02 
533	 6.79273297084376E-02 
534	 6.80145162836082E-02 
535	 0.067964697030106 
536	 6.80066725502717E-02 
537	 6.81057595742186E-02 
538	 0.068138985338012 
539	 6.81716981063746E-02 
540	 6.82169443337437E-02 
541	 6.82678200730491E-02 
542	 6.82958657975554E-02 
543	 0.068340133504708 
544	 6.83731266429744E-02 
545	 6.83778321036827E-02 
546	 0.068456586984511 
547	 6.85110465737706E-02 
548	 0.06856756289284 
549	 6.87433708147692E-02 
550	 6.86827770627754E-02 
551	 6.86013875881476E-02 
552	 6.86942586113126E-02 
553	 6.88480295485676E-02 
554	 6.88489874625652E-02 
555	 6.87884303040704E-02 
556	 6.88918840103144E-02 
557	 6.89460520618838E-02 
558	 6.89844019147695E-02 
559	 0.069042512334296 
560	 6.91186348499887E-02 
561	 6.90931535802027E-02 
562	 6.90451782825737E-02 
563	 6.90953714470553E-02 
564	 6.91725190148511E-02 
565	 6.91970851782554E-02 
566	 6.91821967513275E-02 
567	 6.92423844328443E-02 
568	 6.93286244174889E-02 
569	 6.94157693666832E-02 
570	 6.94704989306453E-02 
571	 6.94048488268297E-02 
572	 6.93981485523808E-02 
573	 6.94693869908192E-02 
574	 6.95176893901742E-02 
575	 6.94920095123281E-02 
576	 6.94919773500199E-02 
577	 6.95501863030824E-02 
578	 6.94859640051318E-02 
579	 6.94849177757296E-02 
580	 6.95179320670742E-02 
581	 0.069479385112352 
582	 6.94237569249218E-02 
583	 6.93718385597551E-02 
584	 6.93361343757399E-02 
585	 6.93202420636653E-02 
586	 6.93442764686659E-02 
587	 6.93813459106678E-02 
588	 6.93925608664098E-02 
589	 6.93483366445409E-02 
590	 6.93502082920531E-02 
591	 0.069368582065451 
592	 6.92638529682496E-02 
593	 6.92554568035303E-02 
594	 6.92889573016089E-02 
595	 6.92885723016884E-02 
596	 6.92723992689244E-02 
597	 6.92424468452779E-02 
598	 6.92255058053431E-02 
599	 6.92598683827284E-02 
600	 0.069373407157816 
601	 6.94180561951635E-02 
602	 0.069345449960021 
603	 6.93140485948505E-02 
604	 6.93107798026084E-02 
605	 6.93058812544241E-02 
606	 6.92761628552711E-02 
607	 6.93048633454958E-02 
608	 6.93150225447133E-02 
609	 6.93186688394554E-02 
610	 6.94349422011888E-02 
611	 6.94183964314527E-02 
612	 6.93892442101689E-02 
613	 6.94690866226511E-02 
614	 6.94707267134829E-02 
615	 6.94466748437767E-02 
616	 6.94248764869233E-02 
617	 6.94188489244532E-02 
618	 0.069491066489669 
619	 6.95121336342073E-02 
620	 0.069437092748364 
621	 6.94606299471096E-02 
622	 6.95134247152354E-02 
623	 6.95506762962682E-02 
624	 6.95454069137197E-02 
625	 6.95575173604515E-02 
626	 6.95952921320132E-02 
627	 6.96408599057034E-02 
628	 6.96482660141697E-02 
629	 6.96758083490636E-02 
630	 6.96959922413587E-02 
631	 6.96828515809958E-02 
632	 6.97103918871861E-02 
633	 6.97371055886895E-02 
634	 6.97494974652076E-02 
635	 6.97614869146371E-02 
636	 6.98174436342214E-02 
637	 6.98607889817447E-02 
638	 6.98482335162027E-02 
639	 6.98003823171786E-02 
640	 6.98232841650163E-02 
641	 6.98998733620664E-02 
642	 6.99555913101549E-02 
643	 6.99998080863672E-02 
644	 0.070022640084425 
645	 7.00379540191146E-02 
646	 7.00959060149577E-02 
647	 7.01144319091861E-02 
648	 7.01202313111052E-02 
649	 7.01575101567273E-02 
650	 7.01992800302063E-02 
651	 7.02435490295534E-02 
652	 7.02831576314929E-02 
653	 0.070307217170254 
654	 7.03201716224666E-02 
655	 7.03398268689072E-02 
656	 7.03739694446444E-02 
657	 7.03985021419899E-02 
658	 7.04369693984689E-02 
659	 7.04900949405596E-02 
660	 7.05418782900993E-02 
661	 7.05397132040197E-02 
662	 7.05566132218122E-02 
663	 7.06140053666114E-02 
664	 0.070642020147772 
665	 7.06638317293365E-02 
666	 7.06857960612757E-02 
667	 7.07141881858956E-02 
668	 7.07732711559244E-02 
669	 7.08058123071065E-02 
670	 7.08108877228737E-02 
671	 7.08350763703796E-02 
672	 7.08677237422962E-02 
673	 7.09199086125379E-02 
674	 0.070981135755298 
675	 7.09826282537165E-02 
676	 7.09648096183414E-02 
677	 7.09728941418672E-02 
678	 7.10381014258872E-02 
679	 7.10766217173955E-02 
680	 7.10982604125722E-02 
681	 7.11194639584359E-02 
682	 0.071154030138871 
683	 7.11608688357506E-02 
684	 7.11730143682122E-02 
685	 7.12226467861798E-02 
686	 7.12692150013636E-02 
687	 7.12968806499484E-02 
688	 7.13150861508312E-02 
689	 7.13453561007218E-02 
690	 7.13156247927966E-02 
691	 7.12999828032487E-02 
692	 7.13350652261275E-02 
693	 7.13404916827776E-02 
694	 0.071360202369776 
695	 7.13827250962228E-02 
696	 7.13886409928949E-02 
697	 7.14254803581595E-02 
698	 7.14468161286895E-02 
699	 7.14537485074812E-02 
700	 0.07149924955657 
701	 0.071487267494459 
702	 7.14687582473569E-02 
703	 7.14817101976091E-02 
704	 7.14281139297852E-02 
705	 7.14303586575152E-02 
706	 7.14708087828414E-02 
707	 7.14677708423597E-02 
708	 7.14792425978829E-02 
709	 7.14878406390148E-02 
710	 7.14886168085256E-02 
711	 7.15051024724842E-02 
712	 0.071523058389271 
713	 7.15222531303025E-02 
714	 7.14990111176078E-02 
715	 0.071517130843285 
716	 7.15326115319382E-02 
717	 7.15338032071293E-02 
718	 7.15328007045457E-02 
719	 7.15026991957298E-02 
720	 7.14909640191475E-02 
721	 7.15123288605063E-02 
722	 7.14990642460249E-02 
723	 7.14841465319311E-02 
724	 7.14820155781461E-02 
725	 7.14943184105142E-02 
726	 7.14912441962863E-02 
727	 7.14691796922662E-02 
728	 7.14366267962954E-02 
729	 7.14126822549713E-02 
730	 7.14296873110316E-02 
731	 7.14346916010615E-02 
732	 7.13993705669902E-02 
733	 7.13901568194695E-02 
734	 7.13935968535181E-02 
735	 7.13896294677644E-02 
736	 0.071361368470097 
737	 7.13425228874511E-02 
738	 7.13036379559047E-02 
739	 7.12633528346846E-02 
740	 7.12927151952902E-02 
741	 7.12861581619678E-02 
742	 7.12518582026408E-02 
743	 0.071220435907853 
744	 7.12166479649941E-02 
745	 7.11685535272396E-02 
746	 7.11223312023664E-02 
747	 7.11523743818579E-02 
748	 7.10994013055673E-02 
749	 0.071034492145292 
750	 7.10027642609577E-02 
751	 0.070992087094772 
752	 7.10066403949068E-02 
753	 7.09999116267073E-02 
754	 7.09477009007316E-02 
755	 7.09184391724047E-02 
756	 7.09146666202493E-02 
757	 7.09161740389733E-02 
758	 7.08954842036073E-02 
759	 0.070880180817156 
760	 7.08504414510872E-02 
761	 7.08116986349178E-02 
762	 7.08046588792271E-02 
763	 7.08013452291525E-02 
764	 7.07716595110824E-02 
765	 7.07129552681861E-02 
766	 7.07028051120065E-02 
767	 7.06893581526307E-02 
768	 7.06699508368125E-02 
769	 7.06616291756211E-02 
770	 7.06328852113739E-02 
771	 0.070602242901917 
772	 7.05853155477559E-02 
773	 7.05874687105746E-02 
774	 7.05724139833794E-02 
775	 7.05370127739746E-02 
776	 7.04933879233332E-02 
777	 7.04690123042907E-02 
778	 0.070464555346495 
779	 7.04593470778803E-02 
780	 7.04292544496724E-02 
781	 7.03962182897243E-02 
782	 7.03982752434009E-02 
783	 7.04058065438349E-02 
784	 0.070326453678374 
785	 7.03306209601618E-02 
786	 7.03192664343195E-02 
787	 7.02350494633527E-02 
788	 7.02499294507825E-02 
789	 7.02640482800057E-02 
790	 7.02362664876193E-02 
791	 7.01622133285659E-02 
792	 7.01072851494628E-02 
793	 7.00786519499507E-02 
794	 7.00677902483534E-02 
795	 7.00550136280908E-02 
796	 7.00277798631218E-02 
797	 7.00068253393417E-02 
798	 7.00018604365871E-02 
799	 6.99927483992799E-02 
800	 6.99795177155279E-02 
801	 6.99481697022321E-02 
802	 6.98964448217266E-02 
803	 6.98774263481648E-02 
804	 6.98605555830996E-02 
805	 6.98485936815881E-02 
806	 6.98579970310047E-02 
807	 6.98257555459086E-02 
808	 6.98028501582844E-02 
809	 6.97943455721012E-02 
810	 6.97321901782652E-02 
811	 6.97218931190022E-02 
812	 6.96924105725465E-02 
813	 6.95998299978029E-02 
814	 6.95810333523808E-02 
815	 6.95786730023365E-02 
816	 6.95794767899776E-02 
817	 6.95820705050132E-02 
818	 6.95606616653696E-02 
819	 6.95338588401817E-02 
820	 6.95110389830972E-02 
821	 0.069489465776248 
822	 6.94480705528155E-02 
823	 6.94151114561344E-02 
824	 6.93992067570767E-02 
825	 6.93647483576515E-02 
826	 6.93440804712368E-02 
827	 6.93316365521205E-02 
828	 6.93136271036483E-02 
829	 6.92859751236894E-02 
830	 6.92407061625387E-02 
831	 6.92089651417278E-02 
832	 6.92260515914619E-02 
833	 0.069236835688015 
834	 6.92040218895307E-02 
835	 6.91535669190979E-02 
836	 6.91601505006045E-02 
837	 6.91430180103606E-02 
838	 0.069129803469175 
839	 6.91298914861894E-02 
840	 6.90926249874676E-02 
841	 6.90525450572767E-02 
842	 6.90177728087044E-02 
843	 6.89910545731169E-02 
844	 6.89817006916373E-02 
845	 0.068985323346706 
846	 6.89598924172027E-02 
847	 6.88765601463831E-02 
848	 6.88733196913904E-02 
849	 6.88745313189962E-02 
850	 6.88583580790729E-02 
851	 6.88558329868858E-02 
852	 6.88129774373282E-02 
853	 0.068825006835842 
854	 6.88832679491888E-02 
855	 6.88073875756483E-02 
856	 0.068793840611265 
857	 6.88019527393383E-02 
858	 6.87714120042985E-02 
859	 6.87348108407454E-02 
860	 6.87412417756775E-02 
861	 0.068752904112987 
862	 6.87188643398802E-02 
863	 6.86825512691462E-02 
864	 6.86821095510042E-02 
865	 6.86944323046648E-02 
866	 6.86639536438578E-02 
867	 6.85963793476406E-02 
868	 6.85650147081851E-02 
869	 6.85863263936127E-02 
870	 6.86097804225821E-02 
871	 6.85870510218786E-02 
872	 6.85725784791149E-02 
873	 6.85712559300192E-02 
874	 6.84818176258145E-02 
875	 6.84580262080879E-02 
876	 6.84680320696443E-02 
877	 0.068461722381188 
878	 6.84742693907042E-02 
879	 6.84633728258849E-02 
880	 6.84277864708266E-02 
881	 6.83934782127816E-02 
882	 6.84243457936424E-02 
883	 6.84672825015605E-02 
884	 6.84763899137561E-02 
885	 6.84280834342529E-02 
886	 0.068375705022246 
887	 6.83638236866812E-02 
888	 6.83874371501596E-02 
889	 0.06840078665445 
890	 6.84003350078825E-02 
891	 6.83790897131316E-02 
892	 6.83564799159213E-02 
893	 6.83758068655518E-02 
894	 6.83116128286878E-02 
895	 6.82625930916341E-02 
896	 0.068283804443457 
897	 6.82727969492875E-02 
898	 6.82762426560309E-02 
899	 0.06829492243466 
900	 6.83088125565101E-02 
901	 6.82710788457308E-02 
902	 6.82446567706591E-02 
903	 6.82410387093597E-02 
904	 6.82511404477333E-02 
905	 6.82675610287087E-02 
906	 0.068269568615836 
907	 6.82751727616318E-02 
908	 6.83024186020789E-02 
909	 6.82692888661269E-02 
910	 6.82329364002709E-02 
911	 6.82134270034698E-02 
912	 6.82016266260553E-02 
913	 6.82065317211241E-02 
914	 6.82281421789312E-02 
915	 6.82461681345678E-02 
916	 6.82287082684011E-02 
917	 6.81904573123632E-02 
918	 6.81752631784973E-02 
919	 6.81821372459556E-02 
920	 6.81593325045308E-02 
921	 6.81454238581781E-02 
922	 6.81331758981375E-02 
923	 6.81318510650163E-02 
924	 6.81797290398363E-02 
925	 6.81536297064466E-02 
926	 6.81616731818466E-02 
927	 6.82274212363972E-02 
928	 6.81345128730066E-02 
929	 6.81444758425508E-02 
930	 6.81856092159833E-02 
931	 6.81599743065335E-02 
932	 6.81087338298661E-02 
933	 0.068173787477853 
934	 6.82420376039255E-02 
935	 6.82003045348068E-02 
936	 6.81709735363779E-02 
937	 6.81151194869861E-02 
938	 6.80955673885034E-02 
939	 6.81548028726976E-02 
940	 6.81622181421721E-02 
941	 6.81807174399368E-02 
942	 0.068226036222919 
943	 6.82720883683333E-02 
944	 0.068217518045782 
945	 6.81224017833869E-02 
946	 6.80589950352498E-02 
947	 6.80681708737579E-02 
948	 6.80518833915016E-02 
949	 6.80141084933849E-02 
950	 6.80051992818296E-02 
951	 6.80707834291541E-02 
952	 6.81346518965043E-02 
953	 0.068098886891772 
954	 6.80505433209904E-02 
955	 6.81324568047803E-02 
956	 6.81886370171394E-02 
957	 6.81988388791702E-02 
958	 0.068174124007899 
959	 6.81395837606124E-02 
960	 6.80849439800146E-02 
961	 6.80409036624781E-02 
962	 6.80847869330612E-02 
963	 6.82495236209165E-02 
964	 6.81769982122497E-02 
965	 6.81535086883865E-02 
966	 6.81913651588732E-02 
967	 0.068135722338329 
968	 6.82236140264103E-02 
969	 6.81734979312447E-02 
970	 6.80265012259053E-02 
971	 6.80300144841362E-02 
972	 6.81035737628431E-02 
973	 0.068100052036332 
974	 6.80943783454196E-02 
975	 6.82398844348645E-02 
976	 6.81893109969066E-02 
977	 6.82311774135392E-02 
978	 6.82559671709157E-02 
979	 6.79899470104789E-02 
980	 0.067906667022779 
981	 6.79273169830412E-02 
982	 6.79895899367709E-02 
983	 6.80428924009765E-02 
984	 6.79343117771051E-02 
985	 6.79564718049706E-02 
986	 6.80430644761083E-02 
987	 6.79904778753929E-02 
988	 6.80979454376867E-02 
989	 6.81308135207089E-02 
990	 6.81387017802565E-02 
991	 0.068252267650982 
992	 6.82153115366795E-02 
993	 6.80668166568999E-02 
994	 6.80696993752126E-02 
995	 6.83522132657184E-02 
996	 6.81666802326295E-02 
997	 0.068000146461046 
998	 6.80567190255058E-02 
999	 6.82841866374657E-02 
1000	 6.82706940832894E-02 
1001	 6.73918667934612E-02 
1002	 6.74568356884706E-02 
1003	 6.74822168504337E-02 
1004	 6.75080137838718E-02 
1005	 6.75417221577245E-02 
1006	 6.75327847523384E-02 
1007	 6.74757189184903E-02 
1008	 6.74982964455886E-02 
1009	 6.74644740663228E-02 
1010	 6.74100629902987E-02 
1011	 6.74194451963827E-02 
1012	 6.73858660522427E-02 
1013	 0.067369704190584 
1014	 6.74447313657147E-02 
1015	 6.74862520097482E-02 
1016	 6.74976511783204E-02 
1017	 6.75067629411002E-02 
1018	 6.75377185731301E-02 
1019	 6.74823014868984E-02 
1020	 6.74129255543908E-02 
1021	 6.73786326771653E-02 
1022	 6.73018693947297E-02 
1023	 6.72744137580434E-02 
1024	 6.72915036207997E-02 
1025	 6.73091265611114E-02 
1026	 6.73709974375484E-02 
1027	 6.73931418968711E-02 
1028	 6.73542298461427E-02 
1029	 0.067300736055152 
1030	 6.72382880284265E-02 
1031	 6.72003205761301E-02 
1032	 6.71667581153276E-02 
1033	 6.71727924252824E-02 
1034	 6.71688439688981E-02 
1035	 6.71263454384035E-02 
1036	 6.70979800560358E-02 
1037	 0.067041894103018 
1038	 6.69738338600283E-02 
1039	 6.69965050103713E-02 
1040	 6.70078829331068E-02 
1041	 6.69857499768915E-02 
1042	 6.69799602587303E-02 
1043	 6.69438503727965E-02 
1044	 6.69338055730655E-02 
1045	 6.69219870184575E-02 
1046	 6.69399815785663E-02 
1047	 6.69565443477542E-02 
1048	 6.69521230809081E-02 
1049	 6.69147423773957E-02 
1050	 6.68697401174954E-02 
1051	 6.68548899977051E-02 
1052	 6.68456834813394E-02 
1053	 6.68288413855942E-02 
1054	 6.68573640928741E-02 
1055	 6.68606352543265E-02 
1056	 6.68756566133275E-02 
1057	 6.69030003499118E-02 
1058	 6.69431117505119E-02 
1059	 6.69665441680676E-02 
1060	 6.69899669140128E-02 
1061	 6.70312147504358E-02 
1062	 6.70636241953854E-02 
1063	 6.70802496107189E-02 
1064	 6.70681635037914E-02 
1065	 6.70548925199436E-02 
1066	 6.70150699722624E-02 
1067	 6.70227306713137E-02 
1068	 6.70813649056677E-02 
1069	 6.70961941978713E-02 
1070	 6.71196868340802E-02 
1071	 6.71641429598241E-02 
1072	 6.71675541596174E-02 
1073	 6.71372476690142E-02 
1074	 6.71462049927914E-02 
1075	 6.71492117182008E-02 
1076	 6.71528571234185E-02 
1077	 6.72251756858041E-02 
1078	 6.72475698052082E-02 
1079	 6.72274760351836E-02 
1080	 6.72304141333152E-02 
1081	 6.72394899088994E-02 
1082	 6.72465842115249E-02 
1083	 6.72442619844435E-02 
1084	 6.72478407446863E-02 
1085	 6.72698372702112E-02 
1086	 6.72983328364423E-02 
1087	 6.73042018655272E-02 
1088	 6.73352957979487E-02 
1089	 6.73332553215711E-02 
1090	 0.067274966795412 
1091	 6.72174946483625E-02 
1092	 6.71991938885817E-02 
1093	 6.72065795686461E-02 
1094	 6.72427316459864E-02 
1095	 6.72725521248974E-02 
1096	 6.72802493242308E-02 
1097	 6.72927183586433E-02 
1098	 6.73000298281555E-02 
1099	 0.067298100163077 
1100	 6.72897124813106E-02 
1101	 6.72891509161119E-02 
1102	 6.72715635321768E-02 
1103	 6.72268557377224E-02 
1104	 6.72047673193422E-02 
1105	 6.71926674579644E-02 
1106	 6.71598583368824E-02 
1107	 6.71422282015837E-02 
1108	 6.71163111603509E-02 
1109	 6.70992057139563E-02 
1110	 6.70915262288766E-02 
1111	 6.70747572726787E-02 
1112	 6.70671963053297E-02 
1113	 6.70514192422893E-02 
1114	 6.70112158789643E-02 
1115	 6.69976184490724E-02 
1116	 0.067004126369468 
1117	 6.70043905757827E-02 
1118	 6.70243834799889E-02 
1119	 6.70129402391108E-02 
1120	 6.69983239182211E-02 
1121	 6.69693578023191E-02 
1122	 6.69436593182834E-02 
1123	 6.69392194599292E-02 
1124	 6.69246751164905E-02 
1125	 6.69164973254221E-02 
1126	 6.69089012496607E-02 
1127	 6.68946737129822E-02 
1128	 6.68871389339131E-02 
1129	 6.69011270404986E-02 
1130	 6.68864913336269E-02 
1131	 6.68444737734162E-02 
1132	 6.68248401445448E-02 
1133	 6.68010292184707E-02 
1134	 6.67860752731591E-02 
1135	 6.67851704333224E-02 
1136	 6.67952819540546E-02 
1137	 0.066787170454531 
1138	 6.67716166133363E-02 
1139	 6.67587107847993E-02 
1140	 6.67397105401455E-02 
1141	 6.67211096347409E-02 
1142	 0.066708485689776 
1143	 6.66862870835966E-02 
1144	 6.66481513112233E-02 
1145	 6.66313599638928E-02 
1146	 6.66174145195933E-02 
1147	 6.66062286705899E-02 
1148	 6.66187494257287E-02 
1149	 6.66118013044505E-02 
1150	 6.65868770493109E-02 
1151	 6.65766045582657E-02 
1152	 6.65674953393531E-02 
1153	 6.65538818343076E-02 
1154	 6.65502967946742E-02 
1155	 6.65665456087984E-02 
1156	 6.65582273832133E-02 
1157	 6.65376037467187E-02 
1158	 6.65283597252747E-02 
1159	 6.65104924048865E-02 
1160	 6.64998613186705E-02 
1161	 6.65008075191127E-02 
1162	 6.64975145165796E-02 
1163	 6.64972876030517E-02 
1164	 6.64921877823726E-02 
1165	 6.64917101198642E-02 
1166	 0.066475752087154 
1167	 6.64720904160354E-02 
1168	 6.64453657690058E-02 
1169	 6.64347258609634E-02 
1170	 6.64324391000846E-02 
1171	 0.06642583245005 
1172	 6.64163229368958E-02 
1173	 6.64134092269856E-02 
1174	 6.64148742148556E-02 
1175	 6.64079919016987E-02 
1176	 6.64009959338088E-02 
1177	 6.63953247218125E-02 
1178	 6.63753137575666E-02 
1179	 6.63752033662312E-02 
1180	 6.64036066002554E-02 
1181	 6.64059473177518E-02 
1182	 6.64018188662698E-02 
1183	 6.63970558574887E-02 
1184	 6.63919837908874E-02 
1185	 6.63605617307726E-02 
1186	 6.63698386770369E-02 
1187	 6.64111639998512E-02 
1188	 6.64248038596986E-02 
1189	 6.64434816022792E-02 
1190	 0.066454174680989 
1191	 6.64471070723194E-02 
1192	 6.64493743007095E-02 
1193	 6.64589652933316E-02 
1194	 6.64624034498686E-02 
1195	 6.64610485246518E-02 
1196	 6.64619313791147E-02 
1197	 6.64553133818768E-02 
1198	 6.64588266142695E-02 
1199	 6.64672605029474E-02 
1200	 6.64812466187473E-02 
1201	 6.64932141899894E-02 
1202	 0.066512399790271 
1203	 6.65273424264648E-02 
1204	 6.65386680592006E-02 
1205	 6.65520737227486E-02 
1206	 6.65672569126224E-02 
1207	 6.65819217034375E-02 
1208	 6.66024151417354E-02 
1209	 6.66108138442632E-02 
1210	 6.66060432296556E-02 
1211	 6.66143209913081E-02 
1212	 6.66230979568669E-02 
1213	 6.66300392822476E-02 
1214	 6.66466009603986E-02 
1215	 6.66602993314225E-02 
1216	 6.66713872075403E-02 
1217	 6.66726941960523E-02 
1218	 6.66840044288615E-02 
1219	 6.67055580275034E-02 
1220	 6.67128415122409E-02 
1221	 6.67121644976449E-02 
1222	 6.67190455283359E-02 
1223	 6.67212872970161E-02 
1224	 6.67280428193333E-02 
1225	 6.67439159449779E-02 
1226	 6.67549815113465E-02 
1227	 0.066759296825119 
1228	 6.67706484435999E-02 
1229	 6.67942269305894E-02 
1230	 6.68042748686204E-02 
1231	 0.066801775709621 
1232	 6.68116088064285E-02 
1233	 6.68232950267187E-02 
1234	 6.68339395336523E-02 
1235	 6.68370992321072E-02 
1236	 6.68459734925509E-02 
1237	 6.68508568773693E-02 
1238	 6.68439970469178E-02 
1239	 6.68391055869936E-02 
1240	 6.68343734193278E-02 
1241	 6.68381825843731E-02 
1242	 6.68404550577469E-02 
1243	 6.68439885381035E-02 
1244	 6.68626573424475E-02 
1245	 6.68715725773552E-02 
1246	 6.68618219623696E-02 
1247	 6.68686871006305E-02 
1248	 0.06688156726041 
1249	 6.69058742538377E-02 
1250	 6.69262333836427E-02 
1251	 0.066928464946855 
1252	 6.69370643966834E-02 
1253	 6.69384384628894E-02 
1254	 6.69373328631798E-02 
1255	 6.69389464659384E-02 
1256	 6.69358486788633E-02 
1257	 6.69150815178962E-02 
1258	 6.69130084225254E-02 
1259	 6.69223164879509E-02 
1260	 6.69272983445652E-02 
1261	 0.066945167546468 
1262	 6.69475562366005E-02 
1263	 6.69353974296474E-02 
1264	 6.69317707569475E-02 
1265	 6.69235639614197E-02 
1266	 6.69187423310123E-02 
1267	 6.69229132572556E-02 
1268	 6.69224112839943E-02 
1269	 6.69237404342972E-02 
1270	 6.69218527778048E-02 
1271	 6.69293489309299E-02 
1272	 6.69475435006581E-02 
1273	 6.69529195748969E-02 
1274	 6.69503803300459E-02 
1275	 6.69602171547316E-02 
1276	 6.69661503074297E-02 
1277	 0.066980585376407 
1278	 6.70095808868388E-02 
1279	 6.70377413077153E-02 
1280	 6.70617785104563E-02 
1281	 6.70933332497183E-02 
1282	 6.71466636647378E-02 
1283	 6.71819315900888E-02 
1284	 6.72036522971797E-02 
1285	 6.72346352258838E-02 
1286	 6.72748233867899E-02 
1287	 6.72971484261427E-02 
1288	 6.73344226705387E-02 
1289	 0.067384511970085 
1290	 6.74330178073646E-02 
1291	 6.74836449502099E-02 
1292	 6.75259238081101E-02 
1293	 6.75679730219466E-02 
1294	 0.067618352551596 
1295	 0.067661669346553 
1296	 6.77139086103378E-02 
1297	 6.77912714873405E-02 
1298	 6.78446325254424E-02 
1299	 6.78794873385482E-02 
1300	 6.79232384268207E-02 
1301	 6.79629814971035E-02 
1302	 6.80022954113361E-02 
1303	 6.80403046478673E-02 
1304	 6.80922284548851E-02 
1305	 6.81270414991747E-02 
1306	 6.81575227477665E-02 
1307	 6.81923244811463E-02 
1308	 6.82200863320205E-02 
1309	 6.82417384389778E-02 
1310	 6.82606978967826E-02 
1311	 6.82768634412249E-02 
1312	 6.82800848379986E-02 
1313	 6.82956679415987E-02 
1314	 6.83239594544643E-02 
1315	 6.83317922723793E-02 
1316	 6.83226464471352E-02 
1317	 6.83331376601602E-02 
1318	 6.83535084594024E-02 
1319	 6.83585851499802E-02 
1320	 6.83703603336371E-02 
1321	 6.83740027498258E-02 
1322	 6.83587829032777E-02 
1323	 6.83406255996104E-02 
1324	 6.83489822982429E-02 
1325	 6.83495666668127E-02 
1326	 6.83320535169416E-02 
1327	 6.83128189825067E-02 
1328	 6.82916658460676E-02 
1329	 6.82800758695944E-02 
1330	 6.82695520332642E-02 
1331	 6.82764877008471E-02 
1332	 6.82649049677481E-02 
1333	 6.82387777770541E-02 
1334	 6.82267386455348E-02 
1335	 6.82129075090863E-02 
1336	 6.82075693126139E-02 
1337	 6.82237060958924E-02 
1338	 6.82169117827217E-02 
1339	 6.82019193675237E-02 
1340	 6.81868223014025E-02 
1341	 6.81570848145556E-02 
1342	 0.068133474921283 
1343	 6.81083107770345E-02 
1344	 6.80973120039201E-02 
1345	 6.80846197252014E-02 
1346	 6.80513074346748E-02 
1347	 6.80290294522996E-02 
1348	 6.80124424476691E-02 
1349	 6.79765069953573E-02 
1350	 6.79387069827022E-02 
1351	 0.0679038292004 
1352	 6.78588394550518E-02 
1353	 6.78211031384132E-02 
1354	 6.77990002287214E-02 
1355	 6.77579421891061E-02 
1356	 6.77023738545541E-02 
1357	 6.76577153747159E-02 
1358	 6.75965289664666E-02 
1359	 0.067566476452551 
1360	 6.75575233082669E-02 
1361	 6.75469973158693E-02 
1362	 6.75540277867318E-02 
1363	 0.067554982589186 
1364	 6.75497720417082E-02 
1365	 6.75555323272413E-02 
1366	 6.75629330991306E-02 
1367	 6.75875508504574E-02 
1368	 6.76135486423936E-02 
1369	 6.76327308552497E-02 
1370	 6.76421196933627E-02 
1371	 6.76455544106179E-02 
1372	 6.76544627146105E-02 
1373	 6.76545032698593E-02 
1374	 6.76475467292228E-02 
1375	 0.067645296922208 
1376	 6.76203255096031E-02 
1377	 6.75769078994344E-02 
1378	 6.75334090378481E-02 
1379	 6.74696983792235E-02 
1380	 6.74284939891694E-02 
1381	 6.73805982301063E-02 
1382	 6.73564992654464E-02 
1383	 6.73573876697102E-02 
1384	 6.73500676398338E-02 
1385	 6.73559363306095E-02 
1386	 6.73572350053125E-02 
1387	 6.73569193500931E-02 
1388	 6.73586703707892E-02 
1389	 6.73721242522907E-02 
1390	 6.73624626218928E-02 
1391	 6.73499136453297E-02 
1392	 6.73330063740473E-02 
1393	 6.73010083023646E-02 
1394	 6.72762911770229E-02 
1395	 6.72641521799075E-02 
1396	 6.72460776982896E-02 
1397	 6.72363353050955E-02 
1398	 6.72360223573417E-02 
1399	 6.72375784113958E-02 
1400	 0.067246691595146 
1401	 0.067242410807228 
1402	 6.72376070392572E-02 
1403	 6.72323958582508E-02 
1404	 6.72040446829826E-02 
1405	 6.72058621554538E-02 
1406	 6.72338536691715E-02 
1407	 6.72443713814861E-02 
1408	 6.72648454662546E-02 
1409	 6.72773555054852E-02 
1410	 6.72684926592797E-02 
1411	 6.72741247712728E-02 
1412	 6.72833874408232E-02 
1413	 6.73000278451201E-02 
1414	 6.73209074831024E-02 
1415	 6.73410509003135E-02 
1416	 6.73654857946232E-02 
1417	 6.73876000698733E-02 
1418	 6.74029071401929E-02 
1419	 6.74335811268144E-02 
1420	 6.74606315958165E-02 
1421	 6.74723283091461E-02 
1422	 6.74898425797248E-02 
1423	 6.75041564166454E-02 
1424	 6.75208581710189E-02 
1425	 0.067540897337601 
1426	 6.75552662539746E-02 
1427	 6.75609286696345E-02 
1428	 6.75810833639591E-02 
1429	 6.76047684892446E-02 
1430	 6.76258481369381E-02 
1431	 0.067662091177081 
1432	 6.76867573602901E-02 
1433	 6.76989301032477E-02 
1434	 6.77169891675598E-02 
1435	 0.067725920404212 
1436	 6.77484450178632E-02 
1437	 0.067793042583656 
1438	 6.78176690519951E-02 
1439	 0.067834155128543 
1440	 6.78638925065596E-02 
1441	 6.78794875343779E-02 
1442	 6.78687078599332E-02 
1443	 6.78892245212684E-02 
1444	 6.79168909188257E-02 
1445	 6.79377608902697E-02 
1446	 0.067965490378884 
1447	 6.79741525951549E-02 
1448	 6.79790208163506E-02 
1449	 6.79893442810889E-02 
1450	 6.79908349371888E-02 
1451	 6.80044613341288E-02 
1452	 6.80269350125454E-02 
1453	 6.80512435998167E-02 
1454	 6.80842935663758E-02 
1455	 6.81055247849841E-02 
1456	 0.068127120732324 
1457	 6.81427696148895E-02 
1458	 6.81438902350484E-02 
1459	 6.81588224036008E-02 
1460	 6.81793225262522E-02 
1461	 6.81977560313532E-02 
1462	 0.0682217049108 
1463	 6.82423402420054E-02 
1464	 6.82626409477353E-02 
1465	 6.82808382846295E-02 
1466	 6.82916685187575E-02 
1467	 6.83098931466087E-02 
1468	 6.83374237872789E-02 
1469	 6.83527202065553E-02 
1470	 0.068359757239349 
1471	 6.83821716538609E-02 
1472	 6.83914463011227E-02 
1473	 6.83905268886547E-02 
1474	 6.84034065383849E-02 
1475	 6.84158614472588E-02 
1476	 6.84265112869061E-02 
1477	 6.84426493796136E-02 
1478	 6.84598352736523E-02 
1479	 6.84761727395473E-02 
1480	 6.84897598990616E-02 
1481	 6.84943682448849E-02 
1482	 6.85010234594516E-02 
1483	 6.85003237475308E-02 
1484	 6.85128131123714E-02 
1485	 6.85339771694897E-02 
1486	 6.85468943146198E-02 
1487	 6.85628983269946E-02 
1488	 6.85769374044133E-02 
1489	 6.85833178529721E-02 
1490	 6.85977895806983E-02 
1491	 0.068622549193483 
1492	 6.86328580358993E-02 
1493	 6.86336252773595E-02 
1494	 6.86393011562949E-02 
1495	 6.86378539996009E-02 
1496	 0.068650719445088 
1497	 6.86771374356915E-02 
1498	 6.86948377363367E-02 
1499	 0.068716688083503 
1500	 6.87311435559508E-02 
1501	 6.87395916570183E-02 
1502	 6.87462976667962E-02 
1503	 6.87495662759408E-02 
1504	 6.87498797954443E-02 
1505	 6.87579201055097E-02 
1506	 6.87623676212527E-02 
1507	 6.87604690040032E-02 
1508	 6.87703602190425E-02 
1509	 6.87758492175002E-02 
1510	 6.87804390972745E-02 
1511	 6.88079684942045E-02 
1512	 6.88270597672344E-02 
1513	 6.88355283283287E-02 
1514	 6.88459590475098E-02 
1515	 6.88488858741488E-02 
1516	 6.88556033723008E-02 
1517	 6.88633891852947E-02 
1518	 6.88774395546043E-02 
1519	 6.88801461922611E-02 
1520	 6.88753742086762E-02 
1521	 6.88810947511864E-02 
1522	 6.88819387896639E-02 
1523	 6.88975807644841E-02 
1524	 6.89334560655572E-02 
1525	 0.068946963199172 
1526	 6.89575643085942E-02 
1527	 6.89639895412651E-02 
1528	 6.89524492117023E-02 
1529	 6.89546356279641E-02 
1530	 6.89641294485101E-02 
1531	 6.89737930202825E-02 
1532	 6.89909104349544E-02 
1533	 6.90012558766741E-02 
1534	 0.06901241332868 
1535	 6.90125531403401E-02 
1536	 6.89929927592681E-02 
1537	 6.89949786158903E-02 
1538	 6.90077827587307E-02 
1539	 6.90113426076334E-02 
1540	 6.90222297092526E-02 
1541	 6.90319246131891E-02 
1542	 6.90338275014433E-02 
1543	 6.90369222719168E-02 
1544	 6.90454434493765E-02 
1545	 6.90497256157683E-02 
1546	 6.90401171767984E-02 
1547	 6.90450344765496E-02 
1548	 0.069062690750697 
1549	 6.90750690204537E-02 
1550	 6.90843384151767E-02 
1551	 6.90819947716573E-02 
1552	 6.90652711712907E-02 
1553	 6.90638497550082E-02 
1554	 6.90812991436431E-02 
1555	 6.90928432265623E-02 
1556	 0.069104369821412 
1557	 6.91303156213502E-02 
1558	 6.91547074122527E-02 
1559	 6.91674665726866E-02 
1560	 6.91658675768324E-02 
1561	 6.91526880130213E-02 
1562	 6.91430523474473E-02 
1563	 0.069112139094986 
1564	 6.91115424509988E-02 
1565	 6.91301447644102E-02 
1566	 6.91370577997214E-02 
1567	 6.91504464658463E-02 
1568	 6.91599151288929E-02 
1569	 6.91659874244328E-02 
1570	 6.91726191352805E-02 
1571	 0.069181508219213 
1572	 6.91869908886852E-02 
1573	 6.91881555520725E-02 
1574	 6.91882803880828E-02 
1575	 6.91868325573719E-02 
1576	 6.91881342353732E-02 
1577	 6.91822659870716E-02 
1578	 6.91902075184642E-02 
1579	 6.92092125541824E-02 
1580	 6.92254990442699E-02 
1581	 0.069257736573278 
1582	 6.92664060926149E-02 
1583	 6.92584535606361E-02 
1584	 6.92589906146948E-02 
1585	 6.92522801787193E-02 
1586	 6.92452664959946E-02 
1587	 6.92413353561051E-02 
1588	 6.92394464445631E-02 
1589	 6.92335784071263E-02 
1590	 6.92274819455715E-02 
1591	 6.92282255319075E-02 
1592	 6.92252967973641E-02 
1593	 0.069214402059272 
1594	 6.92087832252457E-02 
1595	 6.92085770623034E-02 
1596	 6.92029124176926E-02 
1597	 6.91889010729842E-02 
1598	 6.91858205254928E-02 
1599	 6.91829247916654E-02 
1600	 0.069190225701984 
1601	 6.92191037151343E-02 
1602	 6.92337080481387E-02 
1603	 6.92560799845947E-02 
1604	 6.92596038786288E-02 
1605	 6.92252412166798E-02 
1606	 6.92212012456615E-02 
1607	 6.92233737959345E-02 
1608	 6.92339779085593E-02 
1609	 6.92405427437021E-02 
1610	 6.92495877817926E-02 
1611	 6.92435018669225E-02 
1612	 6.92088335067839E-02 
1613	 6.92041963215783E-02 
1614	 6.92202612064243E-02 
1615	 6.92121427360979E-02 
1616	 6.92141803030421E-02 
1617	 0.069222834167406 
1618	 6.92168538641731E-02 
1619	 6.92235576363028E-02 
1620	 6.92327625461866E-02 
1621	 6.92402392016246E-02 
1622	 6.92431359500291E-02 
1623	 6.92501805298582E-02 
1624	 6.92646029964448E-02 
1625	 6.92688106680146E-02 
1626	 0.06926984736247 
1627	 6.92633010127452E-02 
1628	 6.92434788459797E-02 
1629	 6.92455995416173E-02 
1630	 0.069255841718911 
1631	 6.92509112393618E-02 
1632	 6.92525449206274E-02 
1633	 6.92485380167762E-02 
1634	 6.92261739296972E-02 
1635	 6.92205839123965E-02 
1636	 6.92326218447557E-02 
1637	 6.92249700245656E-02 
1638	 6.92052838126127E-02 
1639	 6.91958569946377E-02 
1640	 6.91779621501907E-02 
1641	 6.91812366149774E-02 
1642	 6.92108186406379E-02 
1643	 6.92054582811925E-02 
1644	 6.91941275402401E-02 
1645	 6.91820983905481E-02 
1646	 6.91414646930606E-02 
1647	 6.91317386962104E-02 
1648	 6.91418053281883E-02 
1649	 6.91469642723046E-02 
1650	 0.069160669039002 
1651	 6.91658920898673E-02 
1652	 6.91711342429657E-02 
1653	 6.91735139449373E-02 
1654	 6.91705354034494E-02 
1655	 0.069169473897144 
1656	 0.069167035881976 
1657	 6.91676836241899E-02 
1658	 6.91717431730428E-02 
1659	 6.91693362127637E-02 
1660	 6.91659652174379E-02 
1661	 6.91623322761988E-02 
1662	 6.91516788426937E-02 
1663	 6.91471262242406E-02 
1664	 6.91504251167787E-02 
1665	 0.069144331805665 
1666	 0.069136187181965 
1667	 6.91242621102463E-02 
1668	 6.91003597171051E-02 
1669	 6.90905679159815E-02 
1670	 6.90802531818638E-02 
1671	 6.90826063684412E-02 
1672	 6.91020009531735E-02 
1673	 6.91120042462176E-02 
1674	 6.91277230409543E-02 
1675	 6.91364412144182E-02 
1676	 6.91369914727857E-02 
1677	 6.91423925575566E-02 
1678	 6.91593601096221E-02 
1679	 6.91507384140845E-02 
1680	 6.91198886268932E-02 
1681	 6.91116017285585E-02 
1682	 6.90954867583354E-02 
1683	 6.90883784421106E-02 
1684	 6.91087577736034E-02 
1685	 6.91077891258223E-02 
1686	 6.90921862386257E-02 
1687	 6.90817791470964E-02 
1688	 6.90638877435403E-02 
1689	 6.90621594643271E-02 
1690	 6.90726602453023E-02 
1691	 6.90690099734646E-02 
1692	 6.90664132509984E-02 
1693	 0.069066330505283 
1694	 6.90574022400715E-02 
1695	 6.90537986106392E-02 
1696	 6.90644041822354E-02 
1697	 0.069062656757973 
1698	 6.90456954386649E-02 
1699	 6.90414503388971E-02 
1700	 6.90411943126673E-02 
1701	 6.90406080322774E-02 
1702	 6.90420134456651E-02 
1703	 6.90502842141792E-02 
1704	 6.90702387073193E-02 
1705	 6.90733738654316E-02 
1706	 6.90737163840244E-02 
1707	 6.90714785975834E-02 
1708	 6.90508846971503E-02 
1709	 0.06904435917477 
1710	 6.90493381210782E-02 
1711	 6.90483875699039E-02 
1712	 6.90505810912899E-02 
1713	 6.90460989945209E-02 
1714	 6.90293720902886E-02 
1715	 6.90279605637845E-02 
1716	 6.90339476707669E-02 
1717	 6.90339262260086E-02 
1718	 6.90435911264043E-02 
1719	 6.90462330974509E-02 
1720	 6.90328952427004E-02 
1721	 6.90324514868638E-02 
1722	 6.90457007571634E-02 
1723	 6.90431621463804E-02 
1724	 0.069043607152245 
1725	 6.90264839649321E-02 
1726	 6.89814259082386E-02 
1727	 6.89704299013815E-02 
1728	 6.89680405992208E-02 
1729	 6.89591748743809E-02 
1730	 6.89576470817369E-02 
1731	 6.89628503970121E-02 
1732	 6.89674735668611E-02 
1733	 6.89711654353083E-02 
1734	 6.89995744179873E-02 
1735	 6.89953906225987E-02 
1736	 6.89571659686014E-02 
1737	 6.89513783499563E-02 
1738	 6.89530625236121E-02 
1739	 6.89469715554193E-02 
1740	 0.068954093342763 
1741	 6.89404931590064E-02 
1742	 6.89088477292215E-02 
1743	 6.88949491256342E-02 
1744	 6.88749586427336E-02 
1745	 6.88735263571326E-02 
1746	 0.068890998593581 
1747	 6.88843921591444E-02 
1748	 6.88934882837189E-02 
1749	 6.88983791734255E-02 
1750	 6.88526095056114E-02 
1751	 6.88223099189221E-02 
1752	 6.88166579320687E-02 
1753	 6.87661814146896E-02 
1754	 6.87538021613969E-02 
1755	 6.87688043572031E-02 
1756	 6.87425029870225E-02 
1757	 6.87198104806459E-02 
1758	 6.86938170999916E-02 
1759	 6.86548777725982E-02 
1760	 0.068628808663492 
1761	 6.86402297429499E-02 
1762	 6.86659959606697E-02 
1763	 6.86696456392863E-02 
1764	 6.86944232317768E-02 
1765	 6.87039298269358E-02 
1766	 6.86785822705859E-02 
1767	 6.86715865103509E-02 
1768	 6.86388624229191E-02 
1769	 6.86066891897239E-02 
1770	 6.86058800684621E-02 
1771	 6.85818369565324E-02 
1772	 6.85652132944714E-02 
1773	 0.068566372737316 
1774	 6.85528628138208E-02 
1775	 6.85489319017057E-02 
1776	 6.85435745277107E-02 
1777	 6.85135364400622E-02 
1778	 6.84952380445325E-02 
1779	 6.84936550052826E-02 
1780	 6.84837706941104E-02 
1781	 6.84708399074838E-02 
1782	 6.84456890719664E-02 
1783	 6.84156278249309E-02 
1784	 6.84088681033034E-02 
1785	 6.84303672024868E-02 
1786	 6.84401342722328E-02 
1787	 6.84494496516793E-02 
1788	 6.84554116810688E-02 
1789	 6.84615604856914E-02 
1790	 6.84558826327185E-02 
1791	 6.84464691535746E-02 
1792	 6.84360992032844E-02 
1793	 6.84146248196396E-02 
1794	 0.068397874038338 
1795	 6.83696147756195E-02 
1796	 6.83752163733662E-02 
1797	 6.84046824720075E-02 
1798	 6.84008796635758E-02 
1799	 6.84212070664127E-02 
1800	 6.84097026330566E-02 
1801	 6.55490768700564E-02 
1802	 6.56045268435281E-02 
1803	 0.065695843972586 
1804	 0.065811492889201 
1805	 6.59054661594386E-02 
1806	 6.59824325593554E-02 
1807	 6.60563285112145E-02 
1808	 6.61030939828597E-02 
1809	 6.60861630271001E-02 
1810	 6.61196181129775E-02 
1811	 6.61772781758552E-02 
1812	 6.62135591941965E-02 
1813	 0.066231638333917 
1814	 6.62475657070345E-02 
1815	 6.62581747486749E-02 
1816	 0.066278804076682 
1817	 6.62880738734757E-02 
1818	 6.63087108209814E-02 
1819	 6.63302570685503E-02 
1820	 6.63393916194693E-02 
1821	 6.63427929177777E-02 
1822	 6.63895406922785E-02 
1823	 6.64170207476916E-02 
1824	 6.64278408300339E-02 
1825	 6.64459416504206E-02 
1826	 6.64546768900749E-02 
1827	 6.64678884864732E-02 
1828	 6.64746847488401E-02 
1829	 6.64802582872378E-02 
1830	 6.64844146405658E-02 
1831	 6.64889099119046E-02 
1832	 6.64746786165941E-02 
1833	 6.64660329180899E-02 
1834	 6.64514720404876E-02 
1835	 0.066405279658427 
1836	 6.64003838016138E-02 
1837	 0.066427699892329 
1838	 6.64265564143201E-02 
1839	 6.64396045288066E-02 
1840	 6.64745604238337E-02 
1841	 6.64971051293561E-02 
1842	 6.64773290152289E-02 
1843	 6.65063872623684E-02 
1844	 6.65558376019664E-02 
1845	 6.65893709359973E-02 
1846	 6.66517458578336E-02 
1847	 6.67131467328844E-02 
1848	 6.67383396211083E-02 
1849	 6.67704658894397E-02 
1850	 6.67986259029384E-02 
1851	 6.68317203480638E-02 
1852	 6.68265158461597E-02 
1853	 6.68174728024941E-02 
1854	 6.68181523697922E-02 
1855	 6.68172670382792E-02 
1856	 6.68393935772395E-02 
1857	 6.68764143779006E-02 
1858	 0.066892314307204 
1859	 6.68971129601929E-02 
1860	 6.69072941805084E-02 
1861	 6.69176611169419E-02 
1862	 6.69180751847768E-02 
1863	 6.69141103848047E-02 
1864	 6.69051594986158E-02 
1865	 6.68723314431975E-02 
1866	 0.066826270230909 
1867	 6.67837145015977E-02 
1868	 6.67480122640465E-02 
1869	 6.67167850043175E-02 
1870	 6.66845243802716E-02 
1871	 6.66816565657447E-02 
1872	 6.67023527872844E-02 
1873	 6.67394160846204E-02 
1874	 6.67594454164454E-02 
1875	 6.68172070303601E-02 
1876	 6.68861138759488E-02 
1877	 6.69249690915783E-02 
1878	 6.69787935972603E-02 
1879	 6.70196518669779E-02 
1880	 6.70404049554458E-02 
1881	 6.70332630001996E-02 
1882	 6.70348344502617E-02 
1883	 6.70295445873363E-02 
1884	 6.70140513494773E-02 
1885	 6.70089514804291E-02 
1886	 0.066989442211339 
1887	 6.69581847365696E-02 
1888	 6.69427734859717E-02 
1889	 6.69114822042149E-02 
1890	 0.0668614274582 
1891	 6.68179899209065E-02 
1892	 6.67743543933708E-02 
1893	 0.066723287247948 
1894	 6.66641527154026E-02 
1895	 0.066613949101964 
1896	 6.65734126704757E-02 
1897	 6.65193098817888E-02 
1898	 6.64485682260937E-02 
1899	 6.63701429724336E-02 
1900	 6.62947024497498E-02 
1901	 6.62172056047854E-02 
1902	 6.61569357337465E-02 
1903	 6.61221687135328E-02 
1904	 6.60898068700011E-02 
1905	 6.60610661290721E-02 
1906	 6.60466297671246E-02 
1907	 6.60320178750526E-02 
1908	 6.60049980322705E-02 
1909	 6.59711044493093E-02 
1910	 6.59306297683321E-02 
1911	 6.58951308180198E-02 
1912	 6.58662077938879E-02 
1913	 6.58343767473972E-02 
1914	 6.58059735329474E-02 
1915	 6.57700786557394E-02 
1916	 6.57294461143468E-02 
1917	 6.56824578158477E-02 
1918	 6.56472827037901E-02 
1919	 6.56350122820776E-02 
1920	 6.56253290526532E-02 
1921	 6.56263455292667E-02 
1922	 6.56218082806746E-02 
1923	 6.56066876054407E-02 
1924	 6.56111384371236E-02 
1925	 6.56319728327323E-02 
1926	 6.56445303360797E-02 
1927	 6.56706668190206E-02 
1928	 6.56864969854155E-02 
1929	 6.56721870492777E-02 
1930	 6.56528909082626E-02 
1931	 6.56552113390692E-02 
1932	 6.56655088027622E-02 
1933	 6.56818178953446E-02 
1934	 6.56964815531123E-02 
1935	 6.56980544465589E-02 
1936	 6.56758112073282E-02 
1937	 6.56668738909619E-02 
1938	 6.56527403219711E-02 
1939	 6.56536891517471E-02 
1940	 6.56681940673387E-02 
1941	 6.56724575140249E-02 
1942	 6.56828881367844E-02 
1943	 6.56923387663566E-02 
1944	 0.065701896677839 
1945	 6.57287904981835E-02 
1946	 6.57514249892645E-02 
1947	 6.57923190868138E-02 
1948	 6.58117173496489E-02 
1949	 6.58144642830981E-02 
1950	 6.58235291796958E-02 
1951	 6.58304668852539E-02 
1952	 0.065834795046202 
1953	 6.58354960394007E-02 
1954	 6.58463261477771E-02 
1955	 6.58456127050674E-02 
1956	 6.58486897694501E-02 
1957	 6.58550077906761E-02 
1958	 6.58563244716287E-02 
1959	 6.58732541138031E-02 
1960	 6.59029679685544E-02 
1961	 6.59304110583021E-02 
1962	 6.59693390476273E-02 
1963	 0.066007526698275 
1964	 6.60488368024488E-02 
1965	 6.60772144841211E-02 
1966	 6.61262842517877E-02 
1967	 6.61688169247771E-02 
1968	 6.62001687603624E-02 
1969	 6.62251849096536E-02 
1970	 6.62518241572461E-02 
1971	 6.62658408600949E-02 
1972	 6.62906108713523E-02 
1973	 0.066328376165089 
1974	 0.066353515206275 
1975	 6.63732464329873E-02 
1976	 6.63883500356474E-02 
1977	 6.64090780755439E-02 
1978	 6.64354787911939E-02 
1979	 6.64812869308544E-02 
1980	 6.65262838642285E-02 
1981	 6.65550028974085E-02 
1982	 6.65710155730497E-02 
1983	 6.65997124541336E-02 
1984	 6.66194458826591E-02 
1985	 6.66468687072094E-02 
1986	 6.66902787238181E-02 
1987	 6.67248537258839E-02 
1988	 6.67583889002053E-02 
1989	 6.67846862672474E-02 
1990	 6.68009893977428E-02 
1991	 6.68324997880578E-02 
1992	 6.68579009502996E-02 
1993	 6.68772824052745E-02 
1994	 6.68997876556637E-02 
1995	 6.69223395954231E-02 
1996	 6.69498386443095E-02 
1997	 6.69855350157464E-02 
1998	 6.70117072673369E-02 
1999	 6.70266462998796E-02 
2000	 0.06705863501611 
2001	 6.71006216166349E-02 
2002	 0.067122385045227 
2003	 6.71691235199113E-02 
2004	 6.72450977118024E-02 
2005	 6.72908422633313E-02 
2006	 6.73292775999609E-02 
2007	 6.73640706132418E-02 
2008	 6.73780489918238E-02 
2009	 6.74105783107696E-02 
2010	 6.74629809262667E-02 
2011	 0.067487011113654 
2012	 6.74994687594075E-02 
2013	 6.75192003439664E-02 
2014	 6.75142990880955E-02 
2015	 6.75248593850043E-02 
2016	 6.75594361439788E-02 
2017	 6.75992721016323E-02 
2018	 6.76420111383928E-02 
2019	 6.77039321558403E-02 
2020	 6.77382831986122E-02 
2021	 6.77611189827116E-02 
2022	 6.77897564264632E-02 
2023	 6.78024976591834E-02 
2024	 6.78237771684811E-02 
2025	 6.78400312828752E-02 
2026	 6.78818315434769E-02 
2027	 6.79350192107522E-02 
2028	 6.79964111898947E-02 
2029	 0.068057731530733 
2030	 6.81543225731386E-02 
2031	 6.82026794622768E-02 
2032	 0.068226148615356 
2033	 6.82490516870714E-02 
2034	 6.82433342182242E-02 
2035	 6.82642535892717E-02 
2036	 0.068290533169696 
2037	 0.06832159829188 
2038	 0.068374117961974 
2039	 6.84087534695634E-02 
2040	 6.84394195106756E-02 
2041	 6.84627738892473E-02 
2042	 6.84676776372468E-02 
2043	 6.84804591140627E-02 
2044	 6.85044973696018E-02 
2045	 0.068529454307181 
2046	 6.85622517489449E-02 
2047	 6.86233909207045E-02 
2048	 6.86518663471462E-02 
2049	 0.068668998408541 
2050	 6.86825696306767E-02 
2051	 6.86703599693161E-02 
2052	 0.06867734563625 
2053	 6.86926756810608E-02 
2054	 6.87053950645726E-02 
2055	 0.068718961369526 
2056	 6.87351540199048E-02 
2057	 6.87671706542278E-02 
2058	 6.88073773582774E-02 
2059	 6.88467390335362E-02 
2060	 6.89207409875589E-02 
2061	 6.89423694340812E-02 
2062	 6.89216557427964E-02 
2063	 6.89314644346841E-02 
2064	 6.89246880544695E-02 
2065	 6.89358065425938E-02 
2066	 6.89728569361016E-02 
2067	 6.90065472600835E-02 
2068	 6.90493765416721E-02 
2069	 6.90746047945673E-02 
2070	 6.91079250671516E-02 
2071	 6.91554298850015E-02 
2072	 6.91770781758554E-02 
2073	 6.91805829409282E-02 
2074	 6.91967326021842E-02 
2075	 6.91991722088394E-02 
2076	 6.92203553675883E-02 
2077	 6.92568845595555E-02 
2078	 6.92883952613829E-02 
2079	 6.93352418423957E-02 
2080	 6.93635217176859E-02 
2081	 6.93782600094955E-02 
2082	 6.93995118844454E-02 
2083	 0.069414044307036 
2084	 6.94264739921902E-02 
2085	 6.94460025055027E-02 
2086	 0.069474292317448 
2087	 6.94969356430319E-02 
2088	 6.95250935993314E-02 
2089	 6.95370211889217E-02 
2090	 6.95367872099785E-02 
2091	 6.95466535840335E-02 
2092	 6.95448213880544E-02 
2093	 6.95560651130441E-02 
2094	 6.95775743043329E-02 
2095	 6.96042624751159E-02 
2096	 6.96479095084076E-02 
2097	 6.96730534971079E-02 
2098	 6.96842522450179E-02 
2099	 6.97173625186216E-02 
2100	 6.97389509779687E-02 
2101	 6.97448997023975E-02 
2102	 6.97681993814785E-02 
2103	 6.98030422669244E-02 
2104	 6.98334380172996E-02 
2105	 6.98596136200659E-02 
2106	 0.069895574675505 
2107	 6.99447422146274E-02 
2108	 6.99842017850995E-02 
2109	 7.00299426618418E-02 
2110	 7.00651211417752E-02 
2111	 0.070077305813019 
2112	 7.01085096596622E-02 
2113	 7.01435693106208E-02 
2114	 7.01866507919017E-02 
2115	 7.02252086084852E-02 
2116	 7.02801017980851E-02 
2117	 7.03109880760133E-02 
2118	 7.03251293062202E-02 
2119	 7.03479769939125E-02 
2120	 7.03718392021447E-02 
2121	 0.070383479399015 
2122	 7.03803416268705E-02 
2123	 7.03956981218305E-02 
2124	 7.04091530495221E-02 
2125	 7.04274775509499E-02 
2126	 7.04815882848691E-02 
2127	 7.04991107676266E-02 
2128	 7.04742474370658E-02 
2129	 7.04798752184905E-02 
2130	 0.070489295416597 
2131	 7.04996124294609E-02 
2132	 7.05021100331767E-02 
2133	 7.05229561970592E-02 
2134	 7.05248045412052E-02 
2135	 7.04955195339137E-02 
2136	 0.070495522726566 
2137	 7.05192874093996E-02 
2138	 7.05212286822589E-02 
2139	 7.05261923879494E-02 
2140	 7.05151684417675E-02 
2141	 7.04806673560369E-02 
2142	 7.04582246214059E-02 
2143	 7.04347427317017E-02 
2144	 7.04098736474925E-02 
2145	 7.04022603220444E-02 
2146	 7.03706383136249E-02 
2147	 7.03251169699829E-02 
2148	 7.02593240856375E-02 
2149	 7.02189479540838E-02 
2150	 7.01760246455661E-02 
2151	 7.01305707412333E-02 
2152	 7.01040774126942E-02 
2153	 0.070059369820496 
2154	 6.99891470419751E-02 
2155	 6.99400682720375E-02 
2156	 6.99027793902639E-02 
2157	 6.98588413060236E-02 
2158	 6.98139602419128E-02 
2159	 6.97733299216168E-02 
2160	 6.97430559181085E-02 
2161	 0.069696130786232 
2162	 6.96520171322602E-02 
2163	 6.95936480672851E-02 
2164	 6.95061230210139E-02 
2165	 6.94278390943564E-02 
2166	 6.93583242814083E-02 
2167	 6.92898115694768E-02 
2168	 6.92211411965529E-02 
2169	 6.91630346344749E-02 
2170	 6.90981945460732E-02 
2171	 6.90166163523217E-02 
2172	 6.89638266211289E-02 
2173	 6.89326284883612E-02 
2174	 6.88843739089379E-02 
2175	 6.88389841398197E-02 
2176	 6.87989141862043E-02 
2177	 6.87479931914548E-02 
2178	 6.87102984325011E-02 
2179	 6.86970802506218E-02 
2180	 6.86696474698029E-02 
2181	 6.86416758617338E-02 
2182	 6.86043617663045E-02 
2183	 6.85615016053495E-02 
2184	 6.85082278929181E-02 
2185	 6.84583125216541E-02 
2186	 6.83975202725415E-02 
2187	 6.83552104920325E-02 
2188	 6.83248999867614E-02 
2189	 6.82819550180912E-02 
2190	 0.068242674121831 
2191	 6.81986648192507E-02 
2192	 6.81368379181122E-02 
2193	 6.80951729798766E-02 
2194	 6.80676012404387E-02 
2195	 6.80337178347386E-02 
2196	 6.79930548594098E-02 
2197	 6.79738791566859E-02 
2198	 6.79727142358504E-02 
2199	 6.79587475594974E-02 
2200	 6.79620385385529E-02 
2201	 6.79530504013033E-02 
2202	 6.79231699425107E-02 
2203	 0.067896545202784 
2204	 6.78736129663411E-02 
2205	 6.78487894984262E-02 
2206	 6.78350800479906E-02 
2207	 6.78254862706466E-02 
2208	 6.78206763565085E-02 
2209	 0.067833791982833 
2210	 6.78296195533502E-02 
2211	 6.78180326186599E-02 
2212	 6.78087630339066E-02 
2213	 6.77921036923432E-02 
2214	 6.77799481973242E-02 
2215	 6.77601292296391E-02 
2216	 6.77637094446036E-02 
2217	 6.77866881590695E-02 
2218	 6.77981416332198E-02 
2219	 6.78303708925008E-02 
2220	 6.78424878812506E-02 
2221	 0.067842777247583 
2222	 6.78284816261798E-02 
2223	 6.77940170079167E-02 
2224	 6.77766546276381E-02 
2225	 6.77673652385377E-02 
2226	 6.77561294029275E-02 
2227	 6.77540778362946E-02 
2228	 6.77713518936095E-02 
2229	 6.77788493210846E-02 
2230	 6.77713777001773E-02 
2231	 6.77912267950838E-02 
2232	 6.78422951780077E-02 
2233	 6.78602315135446E-02 
2234	 6.78833606984623E-02 
2235	 6.78907336929674E-02 
2236	 6.78679425126146E-02 
2237	 6.78519437432404E-02 
2238	 6.78182260980194E-02 
2239	 6.78128554365712E-02 
2240	 6.78186775303677E-02 
2241	 6.78263159106411E-02 
2242	 0.067862159895487 
2243	 6.78863133637116E-02 
2244	 6.79064661843705E-02 
2245	 6.79180259569603E-02 
2246	 6.79163298315872E-02 
2247	 6.79465866008419E-02 
2248	 0.067958453931625 
2249	 6.79608834291846E-02 
2250	 6.79705358795596E-02 
2251	 6.79780022524178E-02 
2252	 6.79942290741406E-02 
2253	 6.80118157880394E-02 
2254	 6.80421109803955E-02 
2255	 6.81081027446107E-02 
2256	 6.81142000184643E-02 
2257	 6.80988988983312E-02 
2258	 6.80894715723131E-02 
2259	 6.80312112294408E-02 
2260	 6.80116853944517E-02 
2261	 6.80152521054998E-02 
2262	 6.80185143214999E-02 
2263	 6.80254721537202E-02 
2264	 6.80419819851948E-02 
2265	 6.80852966034615E-02 
2266	 6.81101586654769E-02 
2267	 6.81254309083044E-02 
2268	 6.81451405952704E-02 
2269	 6.81597401547457E-02 
2270	 6.81693865157147E-02 
2271	 6.81988629890478E-02 
2272	 6.82612669424487E-02 
2273	 0.068280585154372 
2274	 0.068287824392764 
2275	 6.83018770802608E-02 
2276	 6.82842669837453E-02 
2277	 6.83029628359618E-02 
2278	 6.83572384376539E-02 
2279	 6.83863805493006E-02 
2280	 6.84242143559989E-02 
2281	 6.84265466526024E-02 
2282	 6.83831727293849E-02 
2283	 6.83891642122032E-02 
2284	 6.84032823416507E-02 
2285	 6.84102751129505E-02 
2286	 6.84310847562371E-02 
2287	 6.84771329894204E-02 
2288	 6.85376965564836E-02 
2289	 6.85694357245407E-02 
2290	 6.86207803498616E-02 
2291	 6.86627493146001E-02 
2292	 6.86616918652631E-02 
2293	 6.86735880507293E-02 
2294	 6.87102219787799E-02 
2295	 0.068736661206719 
2296	 6.87536201288381E-02 
2297	 6.87679945813269E-02 
2298	 6.87371782448682E-02 
2299	 6.87192462894402E-02 
2300	 6.87081601723268E-02 
2301	 6.87056115333099E-02 
2302	 6.87699199502157E-02 
2303	 6.88375720608042E-02 
2304	 6.88716375416143E-02 
2305	 0.068898615526801 
2306	 6.88973828796847E-02 
2307	 6.88490650488477E-02 
2308	 6.88418884799507E-02 
2309	 6.88217577618888E-02 
2310	 6.88413729399652E-02 
2311	 6.89293580300122E-02 
2312	 6.89458927411182E-02 
2313	 6.89172260902391E-02 
2314	 6.89464044342756E-02 
2315	 6.89726493250899E-02 
2316	 6.89994425646733E-02 
2317	 6.90971035302152E-02 
2318	 6.91225910375236E-02 
2319	 6.90730448801414E-02 
2320	 6.90757623055083E-02 
2321	 6.90756412748361E-02 
2322	 6.90888918348916E-02 
2323	 6.91407461420509E-02 
2324	 0.069160357122801 
2325	 6.91417237124005E-02 
2326	 6.91789757917542E-02 
2327	 0.06925051379976 
2328	 6.93050809707031E-02 
2329	 6.93348858843926E-02 
2330	 0.069388813934722 
2331	 6.93712983102922E-02 
2332	 6.92976458267548E-02 
2333	 6.92871826055024E-02 
2334	 6.92709733522525E-02 
2335	 6.93013740692812E-02 
2336	 6.93879975720586E-02 
2337	 6.94374084639466E-02 
2338	 6.94711446838088E-02 
2339	 6.95109788025027E-02 
2340	 6.95405559445943E-02 
2341	 6.95520238328878E-02 
2342	 6.95890166728805E-02 
2343	 6.96311441525377E-02 
2344	 6.96269081423881E-02 
2345	 6.96470428333125E-02 
2346	 6.97096893358387E-02 
2347	 6.97240636545792E-02 
2348	 6.96977979984357E-02 
2349	 6.97055878033554E-02 
2350	 6.97336493417135E-02 
2351	 6.97058492090902E-02 
2352	 6.96378132941873E-02 
2353	 6.96224469933163E-02 
2354	 6.95788239766222E-02 
2355	 6.95764217833524E-02 
2356	 6.96836267533054E-02 
2357	 0.069686941464187 
2358	 6.96059160408054E-02 
2359	 0.069605889499192 
2360	 0.069610623752816 
2361	 6.96013000138392E-02 
2362	 6.96429591570241E-02 
2363	 6.96604849589646E-02 
2364	 0.069625504794926 
2365	 6.96285757198735E-02 
2366	 6.96819562080807E-02 
2367	 6.96878716121026E-02 
2368	 6.96430012436872E-02 
2369	 6.96469428426972E-02 
2370	 6.96733996722156E-02 
2371	 6.96882186826776E-02 
2372	 6.96707678319044E-02 
2373	 6.96927059809161E-02 
2374	 6.97236844257345E-02 
2375	 6.97009529970864E-02 
2376	 6.96846111074438E-02 
2377	 6.96970478462553E-02 
2378	 6.96447071213651E-02 
2379	 6.95980684923744E-02 
2380	 6.96179083300466E-02 
2381	 6.96262167100674E-02 
2382	 6.96253810781638E-02 
2383	 6.96050507725801E-02 
2384	 6.96176157901795E-02 
2385	 6.96301602541774E-02 
2386	 6.96010267423745E-02 
2387	 6.96648367529979E-02 
2388	 6.97678852238479E-02 
2389	 6.98176587148929E-02 
2390	 6.98728607207619E-02 
2391	 6.98597331234277E-02 
2392	 6.97459496228477E-02 
2393	 6.96614325708822E-02 
2394	 6.95693742188597E-02 
2395	 6.95201435765866E-02 
2396	 6.95152794609478E-02 
2397	 6.94753283804313E-02 
2398	 6.95073420139881E-02 
2399	 6.94832266377699E-02 
2400	 6.94161587399728E-02 
2401	 6.94498815167773E-02 
2402	 6.94481535587815E-02 
2403	 6.94516628029165E-02 
2404	 6.95200105211151E-02 
2405	 6.95764706417992E-02 
2406	 6.95769101015474E-02 
2407	 6.95717081205758E-02 
2408	 6.96095774183054E-02 
2409	 6.95399233921459E-02 
2410	 6.95135857905665E-02 
2411	 6.96424919654165E-02 
2412	 6.96763195778988E-02 
2413	 6.95889675165065E-02 
2414	 6.94807076793366E-02 
2415	 0.069421658247717 
2416	 6.93868645307385E-02 
2417	 6.93882457322074E-02 
2418	 6.94174513608821E-02 
2419	 6.94986101945039E-02 
2420	 6.94697640365612E-02 
2421	 6.93805672791935E-02 
2422	 6.93698317816188E-02 
2423	 6.93663634242611E-02 
2424	 6.93354003199009E-02 
2425	 0.069383443864772 
2426	 6.93775561868475E-02 
2427	 6.92580037572531E-02 
2428	 6.92274246881287E-02 
2429	 6.92216294987941E-02 
2430	 6.91750542412475E-02 
2431	 0.069174656530015 
2432	 6.91617055998365E-02 
2433	 6.90983991422481E-02 
2434	 6.90962041476119E-02 
2435	 6.91081781828174E-02 
2436	 6.90980907459691E-02 
2437	 6.91347549343116E-02 
2438	 6.91642841192448E-02 
2439	 6.91957951370701E-02 
2440	 6.91904065536675E-02 
2441	 6.91321773542345E-02 
2442	 6.91282232681871E-02 
2443	 6.91668521850746E-02 
2444	 6.91709899327226E-02 
2445	 6.91461791811619E-02 
2446	 6.91705105169807E-02 
2447	 6.91779628955504E-02 
2448	 6.91963210560048E-02 
2449	 6.93455594547946E-02 
2450	 6.93720674957261E-02 
2451	 6.93147345787681E-02 
2452	 6.92347771127624E-02 
2453	 6.90307161345872E-02 
2454	 6.88945784945841E-02 
2455	 6.88406626562947E-02 
2456	 0.068732098355009 
2457	 6.85904540166864E-02 
2458	 6.85650015500857E-02 
2459	 6.85225438579471E-02 
2460	 6.84731925728686E-02 
2461	 6.84994729865007E-02 
2462	 6.84657618496236E-02 
2463	 6.84789191607831E-02 
2464	 6.84401984740103E-02 
2465	 6.83224207105924E-02 
2466	 6.82111820884097E-02 
2467	 6.79196968146967E-02 
2468	 6.78317428611205E-02 
2469	 6.79631049454191E-02 
2470	 6.79581465108189E-02 
2471	 6.80667113966469E-02 
2472	 6.82241220984539E-02 
2473	 6.82723323446283E-02 
2474	 6.82277124775825E-02 
2475	 6.81861908675492E-02 
2476	 0.068079185605504 
2477	 6.78533906693986E-02 
2478	 6.77098539356009E-02 
2479	 6.77597265348503E-02 
2480	 6.77344598759224E-02 
2481	 6.77025691089936E-02 
2482	 6.80190541986394E-02 
2483	 6.82187481125432E-02 
2484	 6.83006779627547E-02 
2485	 6.83216174961111E-02 
2486	 6.79558591362263E-02 
2487	 6.76392603291976E-02 
2488	 6.75447423311968E-02 
2489	 6.75275483021623E-02 
2490	 6.77049957738113E-02 
2491	 6.78446334649183E-02 
2492	 6.79742258388468E-02 
2493	 6.83383182334136E-02 
2494	 6.84799499916429E-02 
2495	 6.84917431436155E-02 
2496	 6.85509584418166E-02 
2497	 6.83567437011259E-02 
2498	 6.82878542804496E-02 
2499	 6.84266204723428E-02 
2500	 6.82644228666055E-02 
