Wavelength	LMW_12_00004.asd
350	 0.114134157128459 
351	 0.11535686066227 
352	 0.108090071940717 
353	 9.37666453389761E-02 
354	 0.108241475527897 
355	 0.112642876895937 
356	 0.108512841768003 
357	 0.106880756885418 
358	 0.111943371058109 
359	 0.114883196050712 
360	 0.113440588032765 
361	 0.110232686350432 
362	 0.107610315168489 
363	 0.109827797655302 
364	 0.115385732855989 
365	 0.11393664892337 
366	 0.113128536018539 
367	 0.11473349085199 
368	 0.118186667462289 
369	 0.121293864001023 
370	 0.119820071587273 
371	 0.116926546880957 
372	 0.119894554733553 
373	 0.121157376116441 
374	 0.123227285314202 
375	 0.12654234056853 
376	 0.12563657638271 
377	 0.124917131131095 
378	 0.125038109258361 
379	 0.12599995714831 
380	 0.130587187106825 
381	 0.131509837606184 
382	 0.130422728058956 
383	 0.134924378944072 
384	 0.134354906642414 
385	 0.134354360020036 
386	 0.137644912384085 
387	 0.13682447931883 
388	 0.138463315353671 
389	 0.140904874453991 
390	 0.141297494860308 
391	 0.144385316661936 
392	 0.146084737118102 
393	 0.146476185115184 
394	 0.149197764331143 
395	 0.151859874496549 
396	 0.1536268562719 
397	 0.154582989951789 
398	 0.156049267446755 
399	 0.158406478509962 
400	 0.16120231380486 
401	 0.163591968635613 
402	 0.164961963051945 
403	 0.166364062325444 
404	 0.16772983196355 
405	 0.167878266758509 
406	 0.168815852038129 
407	 0.171044730003784 
408	 0.173897569194307 
409	 0.174727865160499 
410	 0.174502079132123 
411	 0.174927379632933 
412	 0.177365643976463 
413	 0.178244512936372 
414	 0.178614849338193 
415	 0.179217095938739 
416	 0.179832732883381 
417	 0.17995052064965 
418	 0.180275656952937 
419	 0.181249948369157 
420	 0.181491281805416 
421	 0.181159105626056 
422	 0.18106891789145 
423	 0.182159420564993 
424	 0.182093122863507 
425	 0.181642690297718 
426	 0.181591801530073 
427	 0.182080254008552 
428	 0.181885025842339 
429	 0.181246444505528 
430	 0.180895767112746 
431	 0.181333591404961 
432	 0.181588910793905 
433	 0.18145061440377 
434	 0.181486385607524 
435	 0.181569391042926 
436	 0.181789882538692 
437	 0.182160722996819 
438	 0.182358400722203 
439	 0.183028164756441 
440	 0.184073877505883 
441	 0.185058481518318 
442	 0.186161123059489 
443	 0.187144136251634 
444	 0.187900124946592 
445	 0.188537362871574 
446	 0.189512930644644 
447	 0.190710517373619 
448	 0.191861818358909 
449	 0.192868712463095 
450	 0.194141315984971 
451	 0.195507938661048 
452	 0.19634469995012 
453	 0.197232838039419 
454	 0.197772696381199 
455	 0.197966780112571 
456	 0.199262313915025 
457	 0.200329675530369 
458	 0.201044203460318 
459	 0.201795128477111 
460	 0.202368254390056 
461	 0.20299088457263 
462	 0.203736480004485 
463	 0.204417994416279 
464	 0.205047633436891 
465	 0.205647125214764 
466	 0.206201059500989 
467	 0.206485024653847 
468	 0.206885518247996 
469	 0.207495325161064 
470	 0.208137425510197 
471	 0.20852413850904 
472	 0.20877375753817 
473	 0.209107887808793 
474	 0.209841522610765 
475	 0.21045496177447 
476	 0.210841656564699 
477	 0.211112904433707 
478	 0.211433831206094 
479	 0.211926979003326 
480	 0.212519218870672 
481	 0.212878411587912 
482	 0.21355911717553 
483	 0.214225670126743 
484	 0.214502895659815 
485	 0.21489281953609 
486	 0.215296722875612 
487	 0.215690464758836 
488	 0.216120966808274 
489	 0.21654206733232 
490	 0.217109176213088 
491	 0.217794614560926 
492	 0.218005956602389 
493	 0.218438696397089 
494	 0.219044551104515 
495	 0.219472080864411 
496	 0.219976628879399 
497	 0.220445392862146 
498	 0.220879569949324 
499	 0.221507431264694 
500	 0.221940754933038 
501	 0.222341928843316 
502	 0.222929682742399 
503	 0.2234234547196 
504	 0.223805577989533 
505	 0.224181028512193 
506	 0.224741731028595 
507	 0.225284365305199 
508	 0.225757256157911 
509	 0.226193281689813 
510	 0.226783135900985 
511	 0.227267868630441 
512	 0.227638074067847 
513	 0.2280208848131 
514	 0.228415789935493 
515	 0.228982777431732 
516	 0.229691066534919 
517	 0.230177528262707 
518	 0.230520769840467 
519	 0.230817120657152 
520	 0.231200057189457 
521	 0.231925418752082 
522	 0.232452097471505 
523	 0.23272978191766 
524	 0.2332535046373 
525	 0.233703197042903 
526	 0.234102028835407 
527	 0.234540990294008 
528	 0.235102217205869 
529	 0.235566313943218 
530	 0.235992293722852 
531	 0.236592783319119 
532	 0.23705526553604 
533	 0.23747688804316 
534	 0.237960350096345 
535	 0.238508302600761 
536	 0.238996279557203 
537	 0.239453236266995 
538	 0.23994906519221 
539	 0.240354271147933 
540	 0.240778871349203 
541	 0.241296327660511 
542	 0.24191059214875 
543	 0.242427741835569 
544	 0.24286291962407 
545	 0.243319873971504 
546	 0.243989972298793 
547	 0.244652479625052 
548	 0.245235017344586 
549	 0.245802700814031 
550	 0.246328602107325 
551	 0.246879041166666 
552	 0.247514373699292 
553	 0.248271587307577 
554	 0.248855504731983 
555	 0.249356488082338 
556	 0.250029184735102 
557	 0.250557718588466 
558	 0.251094223146696 
559	 0.2517473077319 
560	 0.252469593018755 
561	 0.253140547395187 
562	 0.253790584806477 
563	 0.254512785640491 
564	 0.255381618422862 
565	 0.256362274444376 
566	 0.257446054890473 
567	 0.258659553287626 
568	 0.259778046882313 
569	 0.260672185771695 
570	 0.261304018579149 
571	 0.261768777036365 
572	 0.262412917584528 
573	 0.263325053596057 
574	 0.264368323459446 
575	 0.265169828035746 
576	 0.265906585936934 
577	 0.266745542590131 
578	 0.267589725859038 
579	 0.268739752433605 
580	 0.270154033456905 
581	 0.271635056323449 
582	 0.273146951123819 
583	 0.274478523309019 
584	 0.275490457271994 
585	 0.27614860384755 
586	 0.276936708806226 
587	 0.277781822424161 
588	 0.278498571450774 
589	 0.27923884191724 
590	 0.279978578490027 
591	 0.280676615090736 
592	 0.281289747660848 
593	 0.281867597243399 
594	 0.282493315395233 
595	 0.283309131483447 
596	 0.284622929946788 
597	 0.286135645218915 
598	 0.287653862063959 
599	 0.289066708884248 
600	 0.290453305000145 
601	 0.291632306301836 
602	 0.292527437910459 
603	 0.293285893184925 
604	 0.294080474983099 
605	 0.294925596703131 
606	 0.295777986187965 
607	 0.296690125056206 
608	 0.297551486495724 
609	 0.298323401249269 
610	 0.299063288806476 
611	 0.299966254322318 
612	 0.300970008693607 
613	 0.301942545890861 
614	 0.302778573992973 
615	 0.303604865915658 
616	 0.304431089156588 
617	 0.305185026461213 
618	 0.305936526556318 
619	 0.306656976331855 
620	 0.307340417309708 
621	 0.308057867228543 
622	 0.308779228667283 
623	 0.309510038944263 
624	 0.310254374234803 
625	 0.310914286665123 
626	 0.311590999972603 
627	 0.312301571031959 
628	 0.312930228523052 
629	 0.31353664283494 
630	 0.3141630516907 
631	 0.314837589119194 
632	 0.315556830462501 
633	 0.316213990928584 
634	 0.316811072523698 
635	 0.317445356797184 
636	 0.318179882111651 
637	 0.31893104496314 
638	 0.319604430055604 
639	 0.3201361494799 
640	 0.320727982498916 
641	 0.321391841307784 
642	 0.322052033391602 
643	 0.322747201350658 
644	 0.323408242272172 
645	 0.324024119126864 
646	 0.324678782335415 
647	 0.325325111413867 
648	 0.325972955725475 
649	 0.326650945621785 
650	 0.327407250659926 
651	 0.328118623178598 
652	 0.328763049287787 
653	 0.329415786369283 
654	 0.330152557447391 
655	 0.330877376652225 
656	 0.331518184005846 
657	 0.332132750544169 
658	 0.332796710280967 
659	 0.333538852127335 
660	 0.334333631682092 
661	 0.334989686896746 
662	 0.335622025128189 
663	 0.33632313106001 
664	 0.337106718374637 
665	 0.337942003365489 
666	 0.338711670987847 
667	 0.339349676186685 
668	 0.340081453468037 
669	 0.340868525065491 
670	 0.341662077544738 
671	 0.342413323228707 
672	 0.343161650784335 
673	 0.343935344940569 
674	 0.344738851890958 
675	 0.345537921750385 
676	 0.346247378371144 
677	 0.346943978192528 
678	 0.347755595569592 
679	 0.348589657555426 
680	 0.349423503926607 
681	 0.350239488033401 
682	 0.351020755408281 
683	 0.351753283568897 
684	 0.352541590250623 
685	 0.353443770102574 
686	 0.354241871680588 
687	 0.355061029732892 
688	 0.355891877713857 
689	 0.356644286036645 
690	 0.357515729894844 
691	 0.358399628814167 
692	 0.359212741526582 
693	 0.36000892432267 
694	 0.360771832749586 
695	 0.361559564945099 
696	 0.362436608639786 
697	 0.363361920033568 
698	 0.364230781236415 
699	 0.36503072966502 
700	 0.365848449261717 
701	 0.366617186842329 
702	 0.367438180311813 
703	 0.368353544679036 
704	 0.36914147845444 
705	 0.369965847588375 
706	 0.370778869568227 
707	 0.371465742904013 
708	 0.37233172012377 
709	 0.373200254023247 
710	 0.373990417193677 
711	 0.374839508900252 
712	 0.375609802014333 
713	 0.376338666656722 
714	 0.377087402627461 
715	 0.377796782069668 
716	 0.378539585536059 
717	 0.379342185457429 
718	 0.380172520019214 
719	 0.380775791933837 
720	 0.381368847378239 
721	 0.382084220250663 
722	 0.382756754284107 
723	 0.383437760527358 
724	 0.384158213161508 
725	 0.384922242709736 
726	 0.385646658943219 
727	 0.386205685720841 
728	 0.386669576368418 
729	 0.387275842991451 
730	 0.387896556544711 
731	 0.388516676685752 
732	 0.389117429195345 
733	 0.389624168033964 
734	 0.390093744352158 
735	 0.390561280777333 
736	 0.391049297660931 
737	 0.391556144694947 
738	 0.392059670615111 
739	 0.39254418960911 
740	 0.39300288673971 
741	 0.393400949697382 
742	 0.393762631643715 
743	 0.394112338338744 
744	 0.394433007280708 
745	 0.394759334887315 
746	 0.395115953861667 
747	 0.395495533617405 
748	 0.39572627082019 
749	 0.395947248339837 
750	 0.396199417718756 
751	 0.396373669137366 
752	 0.396674630858304 
753	 0.396975292055853 
754	 0.397164719323636 
755	 0.397421590534171 
756	 0.397609772015685 
757	 0.397736056273844 
758	 0.397878603542689 
759	 0.398064960037283 
760	 0.398115626688023 
761	 0.39807257547937 
762	 0.398266868833412 
763	 0.398399374599905 
764	 0.398482267028866 
765	 0.398577403945652 
766	 0.398680856824574 
767	 0.398674083535816 
768	 0.398644630253324 
769	 0.398746382231089 
770	 0.398788174964296 
771	 0.398769398809326 
772	 0.39873543668009 
773	 0.398760879008998 
774	 0.398730212645346 
775	 0.398693545488993 
776	 0.398699731390881 
777	 0.398688935364831 
778	 0.398697291997279 
779	 0.398675245046965 
780	 0.398572776605313 
781	 0.398596424953519 
782	 0.398557994978749 
783	 0.398436942104925 
784	 0.398412888414057 
785	 0.398357442223925 
786	 0.398254496811086 
787	 0.398138562849373 
788	 0.398111174195038 
789	 0.398117645813954 
790	 0.398099215883199 
791	 0.39800290301865 
792	 0.3978081673041 
793	 0.397725289158396 
794	 0.397771779593734 
795	 0.397783466744152 
796	 0.397669357466357 
797	 0.397527464867253 
798	 0.397428365382018 
799	 0.397326599922136 
800	 0.397294601664249 
801	 0.397200788510551 
802	 0.396968284207879 
803	 0.39696755605346 
804	 0.396998849016347 
805	 0.396954023061798 
806	 0.396817917047531 
807	 0.396752920360549 
808	 0.396679166322971 
809	 0.396576183646052 
810	 0.3965334800152 
811	 0.396494063617875 
812	 0.396411506613243 
813	 0.396278573104085 
814	 0.396180628833659 
815	 0.396081193157417 
816	 0.396063673532718 
817	 0.396176423416991 
818	 0.396031034869915 
819	 0.395915441985514 
820	 0.395887891920847 
821	 0.395792898433279 
822	 0.395797944004546 
823	 0.39578352165936 
824	 0.395686877929138 
825	 0.395605859423225 
826	 0.395560965560455 
827	 0.395505202414818 
828	 0.395430543997645 
829	 0.395544922452582 
830	 0.395467371330779 
831	 0.395321515933774 
832	 0.395423169054809 
833	 0.395599307007144 
834	 0.395603083411932 
835	 0.395436345880507 
836	 0.395340992725145 
837	 0.395388725013784 
838	 0.395475730525289 
839	 0.395509882786645 
840	 0.395480995812539 
841	 0.395456406084225 
842	 0.395426013751157 
843	 0.395377680801823 
844	 0.395359493916423 
845	 0.395418659274768 
846	 0.395466084772316 
847	 0.395393931625328 
848	 0.395363820333548 
849	 0.395453477455986 
850	 0.395624145490467 
851	 0.395745279833955 
852	 0.39579066870489 
853	 0.395797533448083 
854	 0.39581000219 
855	 0.39586116229338 
856	 0.396000283373358 
857	 0.396149932857505 
858	 0.396215875005762 
859	 0.396122423984719 
860	 0.396172718025963 
861	 0.396363168953895 
862	 0.396560510908772 
863	 0.396651968201901 
864	 0.396696138275127 
865	 0.396789494451516 
866	 0.397008122578294 
867	 0.397177689791618 
868	 0.397207699568644 
869	 0.397182783000116 
870	 0.397333907120531 
871	 0.397544200161589 
872	 0.39777731947321 
873	 0.397994845012076 
874	 0.398141930042554 
875	 0.398162624082417 
876	 0.398150509187885 
877	 0.398228224442563 
878	 0.398491069292598 
879	 0.398806088239083 
880	 0.399005191737046 
881	 0.399038562513033 
882	 0.399350710211717 
883	 0.399627071710809 
884	 0.399804797245101 
885	 0.399991695269536 
886	 0.400328502811882 
887	 0.400576129397 
888	 0.400745239642972 
889	 0.401057944942791 
890	 0.401377056661811 
891	 0.401623645290286 
892	 0.40178298448135 
893	 0.401914695620599 
894	 0.402104667271462 
895	 0.40233109692997 
896	 0.402604960662337 
897	 0.40303932835616 
898	 0.403401756533357 
899	 0.403708702649753 
900	 0.404006843754708 
901	 0.404223689998957 
902	 0.404430968302822 
903	 0.404681223803175 
904	 0.405013530896234 
905	 0.405467484203256 
906	 0.405816151013336 
907	 0.406026018625114 
908	 0.406217043033433 
909	 0.406691257290149 
910	 0.407117046378434 
911	 0.407496194082493 
912	 0.408006143686337 
913	 0.408249935162118 
914	 0.40849572414018 
915	 0.408870964769382 
916	 0.409318507318186 
917	 0.409845884219276 
918	 0.410288383885719 
919	 0.410598598620785 
920	 0.410897133032956 
921	 0.411387799150291 
922	 0.411852280922887 
923	 0.412207079874711 
924	 0.412670175660861 
925	 0.41312279985589 
926	 0.413537626873639 
927	 0.413934786441633 
928	 0.414382146832768 
929	 0.414835264243493 
930	 0.415331320106534 
931	 0.415872535203866 
932	 0.416339533759222 
933	 0.416860685960111 
934	 0.417340552504107 
935	 0.417714196229461 
936	 0.418184386190925 
937	 0.418746886111184 
938	 0.419341211261076 
939	 0.419921026523061 
940	 0.420592982884898 
941	 0.421132734966606 
942	 0.42158827200995 
943	 0.422083929566519 
944	 0.422544768316835 
945	 0.423057508600901 
946	 0.423651037159542 
947	 0.424283731279584 
948	 0.424773471391019 
949	 0.425228240779835 
950	 0.425720012102288 
951	 0.426275451717158 
952	 0.426826694713117 
953	 0.42752534268497 
954	 0.428195890439347 
955	 0.428584040042014 
956	 0.42904241105477 
957	 0.429758843341725 
958	 0.430462488931743 
959	 0.430758701606351 
960	 0.431168214132634 
961	 0.431797067705648 
962	 0.432573463251049 
963	 0.433312727646388 
964	 0.433868020092108 
965	 0.434469234965451 
966	 0.435164440047814 
967	 0.435868720611005 
968	 0.436651323735945 
969	 0.43732198731104 
970	 0.437883400870926 
971	 0.438499993662572 
972	 0.439374602286697 
973	 0.440119226525419 
974	 0.440692871970319 
975	 0.441316645454044 
976	 0.442025673533789 
977	 0.44268769691311 
978	 0.443261682675726 
979	 0.443808583540198 
980	 0.444535068539099 
981	 0.445077524561307 
982	 0.445558902381688 
983	 0.446310633540031 
984	 0.446924023728108 
985	 0.447613733119922 
986	 0.448360432623182 
987	 0.449012092067056 
988	 0.449561067343707 
989	 0.450241823605422 
990	 0.45096313987058 
991	 0.451557507590378 
992	 0.452382507338695 
993	 0.453039507370001 
994	 0.453549062583576 
995	 0.454097484824254 
996	 0.454599110928305 
997	 0.455252380663753 
998	 0.45600214665191 
999	 0.456701480882325 
1000	 0.457311114529424 
1001	 0.461458641001549 
1002	 0.461913768987745 
1003	 0.462417968243519 
1004	 0.46290660522773 
1005	 0.463362200841464 
1006	 0.463888494008036 
1007	 0.46446089050171 
1008	 0.464971192677686 
1009	 0.46557019479269 
1010	 0.46623596673994 
1011	 0.466742844381315 
1012	 0.467198894757314 
1013	 0.467636953069287 
1014	 0.467998139818836 
1015	 0.468443236970538 
1016	 0.468921806455329 
1017	 0.469366466906897 
1018	 0.469808035370599 
1019	 0.470226956070512 
1020	 0.470658104106593 
1021	 0.471135299914988 
1022	 0.47159502297032 
1023	 0.472067937878779 
1024	 0.472490126210981 
1025	 0.472895905428202 
1026	 0.47330769900146 
1027	 0.47371928325637 
1028	 0.474183749438548 
1029	 0.47460066697924 
1030	 0.475056805761292 
1031	 0.475469121602968 
1032	 0.475875154015067 
1033	 0.476206795413071 
1034	 0.476549091206864 
1035	 0.476818521949834 
1036	 0.477133086241023 
1037	 0.47753778391732 
1038	 0.477917369643301 
1039	 0.478269641933039 
1040	 0.478649742456278 
1041	 0.478999191013005 
1042	 0.4793307218084 
1043	 0.479718199894081 
1044	 0.480069446925972 
1045	 0.480401819718782 
1046	 0.480703534225157 
1047	 0.481065845581437 
1048	 0.481436860793784 
1049	 0.481777632317502 
1050	 0.482184902934026 
1051	 0.482593331761991 
1052	 0.482919817040546 
1053	 0.483311252251111 
1054	 0.48366692780138 
1055	 0.483905307562203 
1056	 0.484248910648312 
1057	 0.484609522024447 
1058	 0.48497800657958 
1059	 0.485329412868669 
1060	 0.485730000462421 
1061	 0.486119069465991 
1062	 0.486390486233309 
1063	 0.486696901299879 
1064	 0.487012716188079 
1065	 0.487264532985256 
1066	 0.487530168212392 
1067	 0.487868975836113 
1068	 0.488168898422375 
1069	 0.488436873555332 
1070	 0.488735173396306 
1071	 0.489050429025719 
1072	 0.489310535249879 
1073	 0.489552538880074 
1074	 0.489827837233412 
1075	 0.490089277899961 
1076	 0.490335008801343 
1077	 0.490605743370151 
1078	 0.490882972270186 
1079	 0.491122063285384 
1080	 0.491351325656007 
1081	 0.49158265025239 
1082	 0.491782580232233 
1083	 0.491994585919956 
1084	 0.492198949895231 
1085	 0.492396639236203 
1086	 0.492588729243645 
1087	 0.492788436917005 
1088	 0.492987424639842 
1089	 0.493154591612511 
1090	 0.493341876916048 
1091	 0.493549315361466 
1092	 0.493707040125382 
1093	 0.493865671539887 
1094	 0.494064858797747 
1095	 0.494253539030374 
1096	 0.49445258761488 
1097	 0.494646504810574 
1098	 0.494824531550442 
1099	 0.494971442027967 
1100	 0.495146384061395 
1101	 0.495312902389331 
1102	 0.495508440951402 
1103	 0.49573520443732 
1104	 0.495941545899889 
1105	 0.496151459757199 
1106	 0.496346047997963 
1107	 0.49654608944672 
1108	 0.496786961860068 
1109	 0.497016396604823 
1110	 0.497272223678727 
1111	 0.497498288166025 
1112	 0.497701058426371 
1113	 0.497903519152253 
1114	 0.498083916207628 
1115	 0.498289231151259 
1116	 0.498494919118994 
1117	 0.498719105018453 
1118	 0.49894697334272 
1119	 0.49921580632097 
1120	 0.499500547306867 
1121	 0.499769405881732 
1122	 0.500055088403371 
1123	 0.500346428018582 
1124	 0.500605698033385 
1125	 0.500852445747644 
1126	 0.501082306746368 
1127	 0.501270121844831 
1128	 0.501502536233435 
1129	 0.501736819657597 
1130	 0.501974583209391 
1131	 0.502251896611991 
1132	 0.502499480808865 
1133	 0.502729770847518 
1134	 0.502961796355959 
1135	 0.503198518922515 
1136	 0.503407126229615 
1137	 0.503612295391098 
1138	 0.503818179547858 
1139	 0.504016094493 
1140	 0.504201648696603 
1141	 0.504387147163952 
1142	 0.50457371527521 
1143	 0.504761274012478 
1144	 0.504951391817869 
1145	 0.505131552396168 
1146	 0.505304409936448 
1147	 0.505468146919898 
1148	 0.50563775828001 
1149	 0.505778668483091 
1150	 0.505884574790572 
1151	 0.506020163826862 
1152	 0.506142116354584 
1153	 0.506265090755024 
1154	 0.506403469348107 
1155	 0.506573502463606 
1156	 0.506718628843028 
1157	 0.506847263752092 
1158	 0.506991714040359 
1159	 0.507152946499847 
1160	 0.507288697560055 
1161	 0.507416657000736 
1162	 0.507550266677086 
1163	 0.507677279214492 
1164	 0.507793061923476 
1165	 0.507907087615113 
1166	 0.508018299676345 
1167	 0.50813286687426 
1168	 0.508244558944098 
1169	 0.508369803973664 
1170	 0.50851961036372 
1171	 0.508651009737645 
1172	 0.508774759511492 
1173	 0.508905066326188 
1174	 0.509047546668069 
1175	 0.50916560547569 
1176	 0.509283712486773 
1177	 0.509380514593575 
1178	 0.50943208830775 
1179	 0.509518574298081 
1180	 0.509620059887704 
1181	 0.509710805218832 
1182	 0.509816935114815 
1183	 0.50990945880058 
1184	 0.510004128365705 
1185	 0.510070111107052 
1186	 0.510188834787553 
1187	 0.510351299302138 
1188	 0.510466788809281 
1189	 0.510593828945737 
1190	 0.510696574740444 
1191	 0.51075076837601 
1192	 0.51083529097485 
1193	 0.510924145845148 
1194	 0.511023567809666 
1195	 0.511147045045119 
1196	 0.511247642329117 
1197	 0.51134346652341 
1198	 0.511440370536905 
1199	 0.51153148528356 
1200	 0.511601206500737 
1201	 0.511692165752272 
1202	 0.51180440536404 
1203	 0.511886421388056 
1204	 0.511954032590585 
1205	 0.512032051305799 
1206	 0.512090561793485 
1207	 0.512175203828647 
1208	 0.51228974932128 
1209	 0.512381292513254 
1210	 0.51246762430317 
1211	 0.512558934762792 
1212	 0.512641192707283 
1213	 0.512728197224375 
1214	 0.512830987348569 
1215	 0.512922466676727 
1216	 0.513008817140972 
1217	 0.513096093214268 
1218	 0.513159320599833 
1219	 0.513200996107383 
1220	 0.51326069395801 
1221	 0.513306158254832 
1222	 0.5133678740492 
1223	 0.513447074583065 
1224	 0.513523136661125 
1225	 0.513598558728145 
1226	 0.513677922139255 
1227	 0.513773179467304 
1228	 0.513852097331517 
1229	 0.513916799884066 
1230	 0.513992148758667 
1231	 0.514052869056661 
1232	 0.514134297360651 
1233	 0.514228272693437 
1234	 0.514351034262233 
1235	 0.514432822561599 
1236	 0.514525149878978 
1237	 0.51457626588964 
1238	 0.514574677636568 
1239	 0.514610933380716 
1240	 0.514644264070695 
1241	 0.514680543362512 
1242	 0.514726927941966 
1243	 0.514775046272323 
1244	 0.514818884741184 
1245	 0.514866276266357 
1246	 0.514921057451109 
1247	 0.514981295947259 
1248	 0.51504113450251 
1249	 0.515111094371522 
1250	 0.515167435322892 
1251	 0.515226756489128 
1252	 0.515293371087973 
1253	 0.515357732722669 
1254	 0.515416537607529 
1255	 0.515480547525081 
1256	 0.51555025892081 
1257	 0.515615396537962 
1258	 0.515678821070226 
1259	 0.515768159506785 
1260	 0.515821590787864 
1261	 0.515831812845252 
1262	 0.515871640477965 
1263	 0.515912236585156 
1264	 0.515956457211521 
1265	 0.516015196702121 
1266	 0.516075200795524 
1267	 0.516151191497201 
1268	 0.516197368778807 
1269	 0.516240706055165 
1270	 0.516280257101541 
1271	 0.516322121662733 
1272	 0.516339342311345 
1273	 0.516392622484178 
1274	 0.516477115088726 
1275	 0.51653882865214 
1276	 0.516600204618074 
1277	 0.516661022662749 
1278	 0.516702501791881 
1279	 0.516769847980026 
1280	 0.51688235812617 
1281	 0.516945003609297 
1282	 0.516974778849838 
1283	 0.517029479251705 
1284	 0.517064280578741 
1285	 0.517107192726104 
1286	 0.517177169481213 
1287	 0.517261412552229 
1288	 0.517343268110156 
1289	 0.517420866354631 
1290	 0.517502532596531 
1291	 0.517595405849955 
1292	 0.517690266811587 
1293	 0.517798950620499 
1294	 0.51786893415144 
1295	 0.517938008404321 
1296	 0.517986305638891 
1297	 0.517988379909463 
1298	 0.51800816990459 
1299	 0.518039395291403 
1300	 0.518050439049195 
1301	 0.518047360933195 
1302	 0.518041612732195 
1303	 0.518015876349651 
1304	 0.51800321795465 
1305	 0.518007695470541 
1306	 0.517981775380599 
1307	 0.517959589593613 
1308	 0.517927559791143 
1309	 0.517871904297092 
1310	 0.51779051901251 
1311	 0.517712321060493 
1312	 0.517614910199319 
1313	 0.517529643281836 
1314	 0.517443488150168 
1315	 0.51735821574023 
1316	 0.517269368418152 
1317	 0.517192542922388 
1318	 0.517118253749993 
1319	 0.51705199974449 
1320	 0.517012280822254 
1321	 0.516947879239586 
1322	 0.516865482769672 
1323	 0.51679408481199 
1324	 0.516734371423838 
1325	 0.516687800511491 
1326	 0.51664241228358 
1327	 0.51660479723535 
1328	 0.516541766348368 
1329	 0.516476399611178 
1330	 0.516448668143558 
1331	 0.516450358012054 
1332	 0.516436295151493 
1333	 0.516424430431354 
1334	 0.51644187964138 
1335	 0.516462840994364 
1336	 0.516501238704484 
1337	 0.51657649714998 
1338	 0.516639929574162 
1339	 0.516718878672726 
1340	 0.516766743564521 
1341	 0.516806488070338 
1342	 0.516847855503153 
1343	 0.516875245238801 
1344	 0.516880955857593 
1345	 0.516931228152982 
1346	 0.516969204103633 
1347	 0.516964726351017 
1348	 0.516967877966257 
1349	 0.516963875892839 
1350	 0.516914006081621 
1351	 0.516897609087254 
1352	 0.516908296630647 
1353	 0.516885788881993 
1354	 0.516869939765269 
1355	 0.516812478787584 
1356	 0.516699968581558 
1357	 0.516634641471732 
1358	 0.516539603615438 
1359	 0.516502407933858 
1360	 0.516522094319545 
1361	 0.516528393834669 
1362	 0.516552150597796 
1363	 0.516582393898835 
1364	 0.516614687733544 
1365	 0.516658407216941 
1366	 0.516712701923488 
1367	 0.516787822659373 
1368	 0.516863696587864 
1369	 0.51690021447567 
1370	 0.516884546049705 
1371	 0.516839511358488 
1372	 0.51677479782679 
1373	 0.516671737095455 
1374	 0.516528552687062 
1375	 0.516393125465965 
1376	 0.51613460694018 
1377	 0.515786873534074 
1378	 0.515416126136884 
1379	 0.514936566780178 
1380	 0.514517913957276 
1381	 0.514103551321314 
1382	 0.513661192921988 
1383	 0.513261313359268 
1384	 0.512764016289363 
1385	 0.512259836074473 
1386	 0.511631612640727 
1387	 0.510962182620884 
1388	 0.510146681591522 
1389	 0.50924232650983 
1390	 0.50818697499713 
1391	 0.506943773263474 
1392	 0.505557406261265 
1393	 0.504014777974648 
1394	 0.502365433438981 
1395	 0.500651637319723 
1396	 0.498889972658727 
1397	 0.497142678895849 
1398	 0.495323707436478 
1399	 0.49359173239916 
1400	 0.491858091705102 
1401	 0.490226606419488 
1402	 0.48859751093801 
1403	 0.487154175125616 
1404	 0.485813489747217 
1405	 0.48459336106421 
1406	 0.483506161283685 
1407	 0.482513747903071 
1408	 0.481527859065538 
1409	 0.480838912143884 
1410	 0.480210742139085 
1411	 0.47998282240446 
1412	 0.480055604886464 
1413	 0.48038734891042 
1414	 0.481044672887069 
1415	 0.481961232932962 
1416	 0.483096383451987 
1417	 0.484401247756007 
1418	 0.485820264820517 
1419	 0.487263629124286 
1420	 0.488692177541599 
1421	 0.490052489871458 
1422	 0.491244124541053 
1423	 0.492328915945658 
1424	 0.493246245935666 
1425	 0.493971548460105 
1426	 0.494645110694429 
1427	 0.495179080746542 
1428	 0.49567824044916 
1429	 0.496094127167894 
1430	 0.496453864847949 
1431	 0.496752242048177 
1432	 0.496995291152699 
1433	 0.497151155194784 
1434	 0.49729621704617 
1435	 0.497369042351612 
1436	 0.497462416577009 
1437	 0.497562856370072 
1438	 0.497623657561383 
1439	 0.497667347897944 
1440	 0.497693510839846 
1441	 0.497684574140834 
1442	 0.497665692239927 
1443	 0.497667497468721 
1444	 0.497661913681177 
1445	 0.497670666543728 
1446	 0.497680978774814 
1447	 0.497665229048114 
1448	 0.497658653697692 
1449	 0.497623332392087 
1450	 0.49757350504078 
1451	 0.497550485450128 
1452	 0.497543880791921 
1453	 0.4975213633402 
1454	 0.497523116989849 
1455	 0.497472606537633 
1456	 0.497388879158179 
1457	 0.497307803396857 
1458	 0.497175300915605 
1459	 0.497105960158707 
1460	 0.497048361766436 
1461	 0.49702429209602 
1462	 0.497057509979668 
1463	 0.497067038106581 
1464	 0.497095878057927 
1465	 0.497108510168614 
1466	 0.49709351007904 
1467	 0.497105592262186 
1468	 0.4971062769948 
1469	 0.497147009257763 
1470	 0.497215765237617 
1471	 0.497309525479277 
1472	 0.497430791583075 
1473	 0.497549933102526 
1474	 0.497633393633564 
1475	 0.497735774450368 
1476	 0.497856238094558 
1477	 0.49799117635471 
1478	 0.498191963310362 
1479	 0.498392256440445 
1480	 0.4985600277443 
1481	 0.498732839939288 
1482	 0.498869016280595 
1483	 0.498959650797381 
1484	 0.499084183474279 
1485	 0.499196212972411 
1486	 0.499323207072981 
1487	 0.499471057158978 
1488	 0.499606407408775 
1489	 0.499746950634661 
1490	 0.499876793443143 
1491	 0.500000335630061 
1492	 0.500124721722314 
1493	 0.500227754481808 
1494	 0.50035910106612 
1495	 0.500518513297767 
1496	 0.50064710262645 
1497	 0.500795629919884 
1498	 0.500903406024634 
1499	 0.500966730310277 
1500	 0.50103937531921 
1501	 0.501086049997735 
1502	 0.501148410519033 
1503	 0.50121142859897 
1504	 0.501285849396961 
1505	 0.501363186077987 
1506	 0.501434360521118 
1507	 0.501516919372409 
1508	 0.501592246202932 
1509	 0.501670113338678 
1510	 0.50175646275045 
1511	 0.501840134946483 
1512	 0.501933675820642 
1513	 0.501999923172445 
1514	 0.502062859262252 
1515	 0.502134004376063 
1516	 0.502177238443809 
1517	 0.502256590849375 
1518	 0.502370650048316 
1519	 0.50245619139025 
1520	 0.502549302893767 
1521	 0.502621695042743 
1522	 0.502675409726441 
1523	 0.502728109201902 
1524	 0.502768442497068 
1525	 0.502810615696434 
1526	 0.502836686307242 
1527	 0.502882636892458 
1528	 0.5029487240426 
1529	 0.502994895715494 
1530	 0.503056479611846 
1531	 0.503084654217213 
1532	 0.503071967993584 
1533	 0.503079883672042 
1534	 0.503065297868752 
1535	 0.503086238165575 
1536	 0.503123740749238 
1537	 0.503180408558091 
1538	 0.50327441501572 
1539	 0.503352516467039 
1540	 0.50345104404117 
1541	 0.503522914802035 
1542	 0.503569486426987 
1543	 0.503626572532691 
1544	 0.503674025684759 
1545	 0.503730141585854 
1546	 0.503798918620731 
1547	 0.503853786271364 
1548	 0.503929250418488 
1549	 0.503997869932342 
1550	 0.50404862546567 
1551	 0.504105659964628 
1552	 0.504147056371251 
1553	 0.504177667007987 
1554	 0.504207013199875 
1555	 0.504246350503398 
1556	 0.504280948048992 
1557	 0.504303364010924 
1558	 0.504355878577075 
1559	 0.504392242433404 
1560	 0.504422480911619 
1561	 0.504450959461885 
1562	 0.504478239005396 
1563	 0.504486711652567 
1564	 0.504523211006347 
1565	 0.504571996629028 
1566	 0.504622104709689 
1567	 0.504692833887075 
1568	 0.504735697976604 
1569	 0.504771779197988 
1570	 0.504804460381366 
1571	 0.504827300996665 
1572	 0.504842026455926 
1573	 0.50484139510106 
1574	 0.504858581393636 
1575	 0.504865083596682 
1576	 0.504892054279151 
1577	 0.504952857862613 
1578	 0.504991162113491 
1579	 0.50502451007152 
1580	 0.505058239618275 
1581	 0.505083391353695 
1582	 0.505114494323324 
1583	 0.505154104120743 
1584	 0.505177461571662 
1585	 0.505204348153639 
1586	 0.505211998432174 
1587	 0.505200029166885 
1588	 0.505189787664894 
1589	 0.505166395723662 
1590	 0.505144600331208 
1591	 0.505111403619915 
1592	 0.505094360875939 
1593	 0.505093740443902 
1594	 0.50507665977424 
1595	 0.505056098542087 
1596	 0.505041804980782 
1597	 0.505030569582862 
1598	 0.50500010970418 
1599	 0.504959133147258 
1600	 0.504930855578339 
1601	 0.504868313701467 
1602	 0.504848860146697 
1603	 0.504883885814429 
1604	 0.504893816707697 
1605	 0.504917896843403 
1606	 0.504926553447592 
1607	 0.504918592546305 
1608	 0.504900263696954 
1609	 0.504889130369012 
1610	 0.504885971029925 
1611	 0.504873328248272 
1612	 0.504868124726276 
1613	 0.504878582290889 
1614	 0.504850686683955 
1615	 0.504794893846543 
1616	 0.50477417498438 
1617	 0.504740364767102 
1618	 0.504705512556213 
1619	 0.504718252677336 
1620	 0.504711572899734 
1621	 0.504700417253948 
1622	 0.504686135167586 
1623	 0.504674200562618 
1624	 0.50466665028821 
1625	 0.504619782806276 
1626	 0.504556129711508 
1627	 0.504500404661316 
1628	 0.504411121749648 
1629	 0.504354935082787 
1630	 0.504322305564423 
1631	 0.50428515901068 
1632	 0.504240708142899 
1633	 0.504222176515192 
1634	 0.504232247810708 
1635	 0.504216199383505 
1636	 0.504204934588819 
1637	 0.504182976559765 
1638	 0.504140589599849 
1639	 0.50411226286915 
1640	 0.504084284596565 
1641	 0.504067840867226 
1642	 0.504079596090476 
1643	 0.504032848894913 
1644	 0.503966713820205 
1645	 0.503900448926706 
1646	 0.503782061070197 
1647	 0.503711541049841 
1648	 0.503673962441858 
1649	 0.503619897713467 
1650	 0.503570161936178 
1651	 0.503512721096356 
1652	 0.503448811682309 
1653	 0.50339264128522 
1654	 0.503324479236986 
1655	 0.503286381975465 
1656	 0.503284859887243 
1657	 0.503238418674163 
1658	 0.503187352436553 
1659	 0.503132795747729 
1660	 0.503041345339366 
1661	 0.502978635462879 
1662	 0.502941067019207 
1663	 0.502886318958378 
1664	 0.502826783765784 
1665	 0.502765933481201 
1666	 0.502708124509675 
1667	 0.502634803716315 
1668	 0.502546741422747 
1669	 0.502469358678654 
1670	 0.502373766041276 
1671	 0.502311346372491 
1672	 0.502267430428344 
1673	 0.502232918858515 
1674	 0.502225962521925 
1675	 0.502203117445035 
1676	 0.502207481963146 
1677	 0.50215275749175 
1678	 0.502063194550704 
1679	 0.501974905108173 
1680	 0.501837576681933 
1681	 0.501737937320852 
1682	 0.501649040197773 
1683	 0.50157492520764 
1684	 0.501516237809091 
1685	 0.501459270756233 
1686	 0.501424005998457 
1687	 0.501370590926921 
1688	 0.501313947158755 
1689	 0.501252681720225 
1690	 0.501180627491365 
1691	 0.501115313364571 
1692	 0.501064250609189 
1693	 0.500978601733778 
1694	 0.500869720072868 
1695	 0.500777222060104 
1696	 0.50064494917038 
1697	 0.500576384051104 
1698	 0.500558893556403 
1699	 0.500524817349209 
1700	 0.500522908880605 
1701	 0.500490088372698 
1702	 0.500444001448527 
1703	 0.500392939444998 
1704	 0.500326240372136 
1705	 0.500265694459455 
1706	 0.50020643977485 
1707	 0.500133168354277 
1708	 0.500062002149464 
1709	 0.499972776574445 
1710	 0.499855996945934 
1711	 0.499761102549671 
1712	 0.499667303061228 
1713	 0.499574455202529 
1714	 0.499485024737249 
1715	 0.499402324049325 
1716	 0.499308220144356 
1717	 0.49924248766641 
1718	 0.499237911891345 
1719	 0.499143592829869 
1720	 0.499012587046365 
1721	 0.498897864714883 
1722	 0.498727517251521 
1723	 0.498592085071326 
1724	 0.498507193329705 
1725	 0.498373989834293 
1726	 0.498198524707617 
1727	 0.498068523635756 
1728	 0.497950665575337 
1729	 0.497815895292842 
1730	 0.497687419044456 
1731	 0.497574383903049 
1732	 0.497450170338083 
1733	 0.497341376383826 
1734	 0.497281598198247 
1735	 0.497162107826289 
1736	 0.497008758827261 
1737	 0.496858875176159 
1738	 0.496690395026516 
1739	 0.496527182790768 
1740	 0.496356843448282 
1741	 0.496208042787558 
1742	 0.496051898318946 
1743	 0.495926474823365 
1744	 0.495825589951405 
1745	 0.495728617226133 
1746	 0.495667378936973 
1747	 0.495555351987153 
1748	 0.495434288050766 
1749	 0.495285387572859 
1750	 0.495120119934784 
1751	 0.494970532930079 
1752	 0.494796078749027 
1753	 0.494619956339273 
1754	 0.494477849017131 
1755	 0.494341851014395 
1756	 0.494228956993373 
1757	 0.494114618146935 
1758	 0.493959569682168 
1759	 0.493807386595446 
1760	 0.493674759354962 
1761	 0.49357018711613 
1762	 0.493473715124434 
1763	 0.493354783493356 
1764	 0.493212457471395 
1765	 0.493051406547081 
1766	 0.492897355385055 
1767	 0.492740423227788 
1768	 0.492609544169167 
1769	 0.492510809062725 
1770	 0.492397999934165 
1771	 0.492302617120567 
1772	 0.492214037786087 
1773	 0.492119340208595 
1774	 0.492034200864601 
1775	 0.491934627315409 
1776	 0.491822202002937 
1777	 0.491685162207914 
1778	 0.491541855465772 
1779	 0.49144010115469 
1780	 0.491354862745131 
1781	 0.491261499704101 
1782	 0.491168465758636 
1783	 0.491081233399412 
1784	 0.491008762897511 
1785	 0.490977060073355 
1786	 0.49091381599508 
1787	 0.490833920590184 
1788	 0.490743843822486 
1789	 0.490634341824971 
1790	 0.490543771430766 
1791	 0.490450900667514 
1792	 0.490381460483671 
1793	 0.49033544965285 
1794	 0.490260511418545 
1795	 0.490187851284778 
1796	 0.49010904609157 
1797	 0.489996710495901 
1798	 0.489920618505443 
1799	 0.489868292835012 
1800	 0.489792131601773 
1801	 0.48974490237752 
1802	 0.489901586737478 
1803	 0.490084846601814 
1804	 0.490347819096921 
1805	 0.490569994714657 
1806	 0.490794853073995 
1807	 0.491030450064177 
1808	 0.491160897983191 
1809	 0.491188739032563 
1810	 0.491238400830347 
1811	 0.491260161897272 
1812	 0.491232037062895 
1813	 0.491217144202646 
1814	 0.491192154098404 
1815	 0.491117860955652 
1816	 0.491042095229243 
1817	 0.49098356242831 
1818	 0.490912587576759 
1819	 0.49085031157738 
1820	 0.490811036837849 
1821	 0.490758894779542 
1822	 0.490679429903872 
1823	 0.490624411987464 
1824	 0.49053949665656 
1825	 0.490425698182772 
1826	 0.490341430855892 
1827	 0.490234505283918 
1828	 0.490113214866914 
1829	 0.490002318936289 
1830	 0.489878148339825 
1831	 0.489735074183726 
1832	 0.489556692772794 
1833	 0.48941320192494 
1834	 0.489239561120374 
1835	 0.489042213866363 
1836	 0.488891749021458 
1837	 0.488759456861715 
1838	 0.488630233762764 
1839	 0.488513567197434 
1840	 0.488417478030653 
1841	 0.488330987961822 
1842	 0.488259675464636 
1843	 0.48820219210764 
1844	 0.488207494207402 
1845	 0.488224257632497 
1846	 0.488233850373919 
1847	 0.488256832557494 
1848	 0.488207793659625 
1849	 0.488145635267815 
1850	 0.488088288042854 
1851	 0.488011903363238 
1852	 0.487911790531241 
1853	 0.487866013470786 
1854	 0.487822828815183 
1855	 0.487780810327072 
1856	 0.487726523312826 
1857	 0.487653146431935 
1858	 0.487558617611153 
1859	 0.48741049941248 
1860	 0.487234755193527 
1861	 0.487040264059921 
1862	 0.486802429052552 
1863	 0.486491117470597 
1864	 0.486126263323817 
1865	 0.485740607775427 
1866	 0.485289840828306 
1867	 0.484831172040551 
1868	 0.484377270134848 
1869	 0.483904966016727 
1870	 0.483460405223536 
1871	 0.48301811133478 
1872	 0.482586868354656 
1873	 0.482184302469063 
1874	 0.481757478050618 
1875	 0.481325277332398 
1876	 0.480852426953741 
1877	 0.480314755301785 
1878	 0.479717457260113 
1879	 0.478985015048073 
1880	 0.478116955971226 
1881	 0.477116695791948 
1882	 0.476016949410489 
1883	 0.474789987583597 
1884	 0.473445687397362 
1885	 0.472034160334691 
1886	 0.47055055579956 
1887	 0.468925778633773 
1888	 0.467207506526429 
1889	 0.465363792236219 
1890	 0.463397838733787 
1891	 0.46140867326937 
1892	 0.459309717852044 
1893	 0.457211697240247 
1894	 0.455068281228702 
1895	 0.452910429680814 
1896	 0.450737811201121 
1897	 0.448570924700083 
1898	 0.446423346585457 
1899	 0.444366063847946 
1900	 0.442382728898997 
1901	 0.440500749866109 
1902	 0.438767729947945 
1903	 0.437204136642295 
1904	 0.435701014107022 
1905	 0.434297522095283 
1906	 0.433032296324372 
1907	 0.431844021207752 
1908	 0.430731758429549 
1909	 0.429705429941565 
1910	 0.428699836677574 
1911	 0.427769391932117 
1912	 0.426855579727809 
1913	 0.426001610748879 
1914	 0.425213402646561 
1915	 0.424474317032533 
1916	 0.423764999351375 
1917	 0.423123273599236 
1918	 0.42257104916644 
1919	 0.422056820935987 
1920	 0.421621688349414 
1921	 0.421234622129817 
1922	 0.42089535125162 
1923	 0.420628515121323 
1924	 0.420383431616139 
1925	 0.420191774716084 
1926	 0.420025511314209 
1927	 0.41990094737116 
1928	 0.419779309239219 
1929	 0.419687826972193 
1930	 0.419640706185538 
1931	 0.419604705884076 
1932	 0.419573128055411 
1933	 0.41959243067033 
1934	 0.419608953727813 
1935	 0.41964787825006 
1936	 0.419701459512713 
1937	 0.419789981288893 
1938	 0.419894053930692 
1939	 0.420032656105416 
1940	 0.420206098646802 
1941	 0.420407663017842 
1942	 0.420613742874174 
1943	 0.420849800867957 
1944	 0.421111885655298 
1945	 0.421380414513763 
1946	 0.421658757853858 
1947	 0.421971323665338 
1948	 0.422255483853147 
1949	 0.422524794600178 
1950	 0.422805576105946 
1951	 0.423086185988759 
1952	 0.423367462898175 
1953	 0.423641216586084 
1954	 0.423955513083378 
1955	 0.424236171849775 
1956	 0.424515881652267 
1957	 0.424838550424497 
1958	 0.425181073797366 
1959	 0.425536319392585 
1960	 0.425944592740507 
1961	 0.426317377498277 
1962	 0.426673661715111 
1963	 0.427048794524231 
1964	 0.427410822880182 
1965	 0.427803476378832 
1966	 0.428224718521181 
1967	 0.428627972917864 
1968	 0.429050269139974 
1969	 0.4294959769433 
1970	 0.429916572504995 
1971	 0.430342147805216 
1972	 0.430755775268055 
1973	 0.431140460524511 
1974	 0.431546065094895 
1975	 0.431956094238817 
1976	 0.432367222371 
1977	 0.432798097115172 
1978	 0.433222794447751 
1979	 0.433654313675314 
1980	 0.434126990595094 
1981	 0.434584015974424 
1982	 0.43505118935119 
1983	 0.435511144245157 
1984	 0.43596868185163 
1985	 0.436424145309087 
1986	 0.436892317778572 
1987	 0.437340002958912 
1988	 0.437783185351527 
1989	 0.4382069428505 
1990	 0.43862576054912 
1991	 0.439016876013367 
1992	 0.439420278128293 
1993	 0.439822630143722 
1994	 0.44021945689896 
1995	 0.440600403478703 
1996	 0.441009601107221 
1997	 0.441432432041112 
1998	 0.441851366534622 
1999	 0.442274808715239 
2000	 0.442707784968683 
2001	 0.443146071859032 
2002	 0.443579288983453 
2003	 0.444014947931708 
2004	 0.444505433847938 
2005	 0.444949058627229 
2006	 0.44536692976805 
2007	 0.445811392441593 
2008	 0.446249527003296 
2009	 0.446695949349779 
2010	 0.447186384907208 
2011	 0.447628165214755 
2012	 0.448034442193732 
2013	 0.448459125056619 
2014	 0.44886838274525 
2015	 0.449277686150216 
2016	 0.449726806794581 
2017	 0.45016205400849 
2018	 0.450572072180936 
2019	 0.450961392378886 
2020	 0.451361594588521 
2021	 0.451750055023302 
2022	 0.452135215759071 
2023	 0.452519422990332 
2024	 0.4529086058077 
2025	 0.453290249640817 
2026	 0.45366731613977 
2027	 0.454046062201301 
2028	 0.454451461180825 
2029	 0.454803523846588 
2030	 0.45512840606284 
2031	 0.455448033796991 
2032	 0.45573844640927 
2033	 0.456038471757889 
2034	 0.456338999782998 
2035	 0.456622431622195 
2036	 0.456883027763661 
2037	 0.457162180398985 
2038	 0.457425004436867 
2039	 0.4577127593492 
2040	 0.458011438667814 
2041	 0.45835468651342 
2042	 0.458662370719103 
2043	 0.458945204968669 
2044	 0.459200528994293 
2045	 0.459413829702537 
2046	 0.459633980300469 
2047	 0.459840032098926 
2048	 0.460038679639897 
2049	 0.460218931677827 
2050	 0.460414255746398 
2051	 0.460597991517999 
2052	 0.460790618160908 
2053	 0.460981041616457 
2054	 0.46119826538654 
2055	 0.461429339797702 
2056	 0.46168343309258 
2057	 0.461905566681167 
2058	 0.462165363271577 
2059	 0.462340201951994 
2060	 0.462441830822318 
2061	 0.462578929475617 
2062	 0.46269632035837 
2063	 0.462810004557915 
2064	 0.462930625053263 
2065	 0.463041564330331 
2066	 0.463102383987238 
2067	 0.463213769937807 
2068	 0.463342361980999 
2069	 0.463505432078573 
2070	 0.463646656511064 
2071	 0.46380886291707 
2072	 0.463954363328499 
2073	 0.464082125541704 
2074	 0.464217920569175 
2075	 0.464364087610584 
2076	 0.464501085744793 
2077	 0.464632451383799 
2078	 0.464759940135074 
2079	 0.464898602010602 
2080	 0.465009911388553 
2081	 0.465083890660776 
2082	 0.465183586575917 
2083	 0.465288853524254 
2084	 0.465381615072439 
2085	 0.465476419981483 
2086	 0.465598466996651 
2087	 0.465676137782079 
2088	 0.465724375958286 
2089	 0.465774663584855 
2090	 0.465792540759047 
2091	 0.465846511143936 
2092	 0.465912216240958 
2093	 0.465975827943406 
2094	 0.466061738794082 
2095	 0.466136219067074 
2096	 0.466202645448458 
2097	 0.466266031870696 
2098	 0.466326920686861 
2099	 0.466387698167525 
2100	 0.466455950126127 
2101	 0.466513172366279 
2102	 0.466600484049988 
2103	 0.46670547320769 
2104	 0.466816291845097 
2105	 0.466945988681527 
2106	 0.467072738303048 
2107	 0.467201608582425 
2108	 0.467341775644954 
2109	 0.467489366246746 
2110	 0.467641210714022 
2111	 0.467799305739748 
2112	 0.467969810437016 
2113	 0.468170652098385 
2114	 0.46833865667707 
2115	 0.468508592048835 
2116	 0.468683452740198 
2117	 0.468848365295612 
2118	 0.468993267476458 
2119	 0.469154020442263 
2120	 0.469320970380664 
2121	 0.469486957705766 
2122	 0.469659771461808 
2123	 0.469818824156227 
2124	 0.469968070075461 
2125	 0.470129976728253 
2126	 0.470302899108942 
2127	 0.470451240849116 
2128	 0.47061596460443 
2129	 0.470744757507912 
2130	 0.470847714982934 
2131	 0.470927947553591 
2132	 0.47096388009932 
2133	 0.470966051599332 
2134	 0.470950664029347 
2135	 0.470882938266847 
2136	 0.470828044131331 
2137	 0.470779600363553 
2138	 0.470692093515393 
2139	 0.470594968382082 
2140	 0.470454144083964 
2141	 0.470279407153822 
2142	 0.470072625710545 
2143	 0.469829898793492 
2144	 0.469558672506066 
2145	 0.469250435868073 
2146	 0.468921677662423 
2147	 0.468559337332483 
2148	 0.468182195337949 
2149	 0.467777080980713 
2150	 0.467349702902167 
2151	 0.466898094933113 
2152	 0.466434374864253 
2153	 0.465910197036096 
2154	 0.465358473753555 
2155	 0.46475305889087 
2156	 0.464070819168669 
2157	 0.463395321836566 
2158	 0.462675677734577 
2159	 0.461963301174825 
2160	 0.461272076638208 
2161	 0.460521713501224 
2162	 0.459780306450136 
2163	 0.458954165014522 
2164	 0.45806715057625 
2165	 0.457109755794452 
2166	 0.456125949100511 
2167	 0.45507891565262 
2168	 0.454016211915691 
2169	 0.452901429129349 
2170	 0.451804228378308 
2171	 0.450712350758931 
2172	 0.449543343108187 
2173	 0.44836833214404 
2174	 0.447120723560009 
2175	 0.445768992974558 
2176	 0.444425117984589 
2177	 0.443063839096276 
2178	 0.441658684638774 
2179	 0.440228423077858 
2180	 0.438751149795997 
2181	 0.437222831650581 
2182	 0.435663387621416 
2183	 0.434041842655448 
2184	 0.432408753446947 
2185	 0.430783425338004 
2186	 0.429104731500854 
2187	 0.427514204883209 
2188	 0.425935459984796 
2189	 0.424433334195161 
2190	 0.42295975536584 
2191	 0.421595651339718 
2192	 0.42026190503083 
2193	 0.419089806177021 
2194	 0.418005912635808 
2195	 0.417087801377701 
2196	 0.416328481718525 
2197	 0.415681161213467 
2198	 0.415174237880164 
2199	 0.414796590652161 
2200	 0.414537333942207 
2201	 0.414421731589018 
2202	 0.41448373268699 
2203	 0.414620397517176 
2204	 0.414903809961032 
2205	 0.415328456930938 
2206	 0.41586142067551 
2207	 0.416519354201757 
2208	 0.417296871063893 
2209	 0.418224492660078 
2210	 0.419203800368622 
2211	 0.420323013566942 
2212	 0.421453495601042 
2213	 0.422693748863215 
2214	 0.423884815821644 
2215	 0.425138262415287 
2216	 0.426322080014766 
2217	 0.427497239457024 
2218	 0.428597554041532 
2219	 0.429661731814726 
2220	 0.430659381199531 
2221	 0.431577799691716 
2222	 0.432465003660072 
2223	 0.433320433943613 
2224	 0.434035364836821 
2225	 0.4347039349949 
2226	 0.435290437437917 
2227	 0.435834327041559 
2228	 0.436300479930302 
2229	 0.436743652338122 
2230	 0.437141712584587 
2231	 0.437489767783929 
2232	 0.437777547946867 
2233	 0.438047610378663 
2234	 0.438268600072793 
2235	 0.438472535994128 
2236	 0.438672692593514 
2237	 0.438805704160629 
2238	 0.438867671243692 
2239	 0.43894173266823 
2240	 0.438977691830351 
2241	 0.438997974016109 
2242	 0.439009863937006 
2243	 0.439008509176036 
2244	 0.438989015289276 
2245	 0.438950653933993 
2246	 0.438864047760658 
2247	 0.438765470212287 
2248	 0.43864286027558 
2249	 0.438465459569356 
2250	 0.438296662454634 
2251	 0.438112954101961 
2252	 0.437955097575605 
2253	 0.437775177754725 
2254	 0.437637148270148 
2255	 0.437538483432724 
2256	 0.43743693280147 
2257	 0.437344144963989 
2258	 0.43725672526756 
2259	 0.437185605354703 
2260	 0.43711764295672 
2261	 0.437030217840874 
2262	 0.436995190059245 
2263	 0.436962043050002 
2264	 0.436994097662707 
2265	 0.437096662995941 
2266	 0.437205144700507 
2267	 0.437402661348599 
2268	 0.437546104881229 
2269	 0.437691325145259 
2270	 0.437796709895142 
2271	 0.437882414207501 
2272	 0.437928223072122 
2273	 0.437996746663375 
2274	 0.438086544780226 
2275	 0.438184105339067 
2276	 0.438307220368544 
2277	 0.438405013117589 
2278	 0.438498203673958 
2279	 0.438600445989379 
2280	 0.438695500168795 
2281	 0.438792789374102 
2282	 0.438918481334341 
2283	 0.438999284659689 
2284	 0.439057144750487 
2285	 0.439105243846096 
2286	 0.4391316021392 
2287	 0.439148641167177 
2288	 0.439143663418344 
2289	 0.439151171471291 
2290	 0.439198196836056 
2291	 0.439153003246174 
2292	 0.439064850801868 
2293	 0.438953893137711 
2294	 0.438723530169385 
2295	 0.438565472992575 
2296	 0.438428458966731 
2297	 0.438320591891194 
2298	 0.43823421110169 
2299	 0.438129415984566 
2300	 0.437978678642947 
2301	 0.437835305394818 
2302	 0.437625316820221 
2303	 0.437387496006927 
2304	 0.437161542371603 
2305	 0.436890839812176 
2306	 0.436630538818369 
2307	 0.436349475068422 
2308	 0.43611836548886 
2309	 0.435910504447853 
2310	 0.435690073996917 
2311	 0.435528295768426 
2312	 0.435281981889797 
2313	 0.434979921111457 
2314	 0.434661921053195 
2315	 0.434290294003111 
2316	 0.433946710373062 
2317	 0.433587059546288 
2318	 0.433252218489733 
2319	 0.432962238400843 
2320	 0.432621762628829 
2321	 0.432250799768877 
2322	 0.431889137127475 
2323	 0.431508128790312 
2324	 0.43112029355933 
2325	 0.430737466876977 
2326	 0.430362003152559 
2327	 0.429983886485455 
2328	 0.429568376771016 
2329	 0.429248195338272 
2330	 0.428901861212145 
2331	 0.428498255396107 
2332	 0.428176565823854 
2333	 0.427787571263087 
2334	 0.42736656336419 
2335	 0.426971343814221 
2336	 0.426504945730778 
2337	 0.426046748312383 
2338	 0.425621137400941 
2339	 0.4252207793403 
2340	 0.424860692284063 
2341	 0.424487992235096 
2342	 0.424100240022113 
2343	 0.423768742840174 
2344	 0.423486406018172 
2345	 0.423216202310123 
2346	 0.423011730964658 
2347	 0.422807299402755 
2348	 0.422598571236383 
2349	 0.422413373618517 
2350	 0.422260233360649 
2351	 0.422117067462337 
2352	 0.421968113329809 
2353	 0.421864552258616 
2354	 0.421796831200713 
2355	 0.421760635937184 
2356	 0.421758999696784 
2357	 0.421793384199136 
2358	 0.421922427429516 
2359	 0.421969533606893 
2360	 0.422011346552684 
2361	 0.42202019338043 
2362	 0.421964319866801 
2363	 0.421928424910645 
2364	 0.421905563424085 
2365	 0.421839371373527 
2366	 0.421775624418082 
2367	 0.421656185097575 
2368	 0.421467185742864 
2369	 0.421263892015642 
2370	 0.421046181335087 
2371	 0.42075113598528 
2372	 0.420437746726811 
2373	 0.420283000438836 
2374	 0.420127841877793 
2375	 0.419890300607841 
2376	 0.419605422286406 
2377	 0.41928735229006 
2378	 0.418990995498704 
2379	 0.418714288768333 
2380	 0.418432384583258 
2381	 0.418158357806584 
2382	 0.41779715852449 
2383	 0.417406780728936 
2384	 0.417097463709398 
2385	 0.416751843476164 
2386	 0.416415337797021 
2387	 0.41612029722897 
2388	 0.415753252241223 
2389	 0.415402230013649 
2390	 0.41512445445875 
2391	 0.414870179743274 
2392	 0.414631325464966 
2393	 0.414386888337655 
2394	 0.414046827924294 
2395	 0.413603624298672 
2396	 0.413172149374849 
2397	 0.412756459894187 
2398	 0.412306796985495 
2399	 0.411866454402121 
2400	 0.411389180410259 
2401	 0.410860672331809 
2402	 0.410374775332624 
2403	 0.40984026475432 
2404	 0.409308247928967 
2405	 0.408805175496013 
2406	 0.408208250866592 
2407	 0.407668537147037 
2408	 0.407113271056311 
2409	 0.406477073193973 
2410	 0.405920800441706 
2411	 0.405242209771181 
2412	 0.404486822800198 
2413	 0.403779213651807 
2414	 0.402997661012113 
2415	 0.402213118114326 
2416	 0.401540173858864 
2417	 0.401006432142606 
2418	 0.400388526312281 
2419	 0.399843546029722 
2420	 0.399183974146671 
2421	 0.398333691685672 
2422	 0.397619327245992 
2423	 0.396976801854464 
2424	 0.396302842210655 
2425	 0.395683648035818 
2426	 0.395078323994401 
2427	 0.394471203195506 
2428	 0.393744090150888 
2429	 0.392933859014613 
2430	 0.392270568856926 
2431	 0.391566154952806 
2432	 0.390936600176919 
2433	 0.3905133417635 
2434	 0.389976335362935 
2435	 0.389315162062643 
2436	 0.388817953886295 
2437	 0.388449267119782 
2438	 0.388002651368439 
2439	 0.387505774708222 
2440	 0.387126099329069 
2441	 0.386834852150371 
2442	 0.386463429825554 
2443	 0.386232225725826 
2444	 0.385874991310942 
2445	 0.385259072164096 
2446	 0.384806285771147 
2447	 0.384429628542792 
2448	 0.383997701717215 
2449	 0.383615204850642 
2450	 0.383224647205748 
2451	 0.382839986437482 
2452	 0.38245646931104 
2453	 0.381970024306266 
2454	 0.381651014580234 
2455	 0.381449146891571 
2456	 0.381165599910105 
2457	 0.380992950694599 
2458	 0.380762209109441 
2459	 0.380402444672634 
2460	 0.380090595016063 
2461	 0.379829910751758 
2462	 0.379580871158348 
2463	 0.379363388650782 
2464	 0.379103060940062 
2465	 0.378813396988493 
2466	 0.378580467674581 
2467	 0.378313870781517 
2468	 0.377995414325467 
2469	 0.377740983894545 
2470	 0.377294945527916 
2471	 0.376964136802247 
2472	 0.376662096415098 
2473	 0.376328285968528 
2474	 0.376018397984609 
2475	 0.375668601331522 
2476	 0.375161496892178 
2477	 0.374745052103076 
2478	 0.374426785606325 
2479	 0.373936892155981 
2480	 0.373521251280438 
2481	 0.373392980031033 
2482	 0.373421743762945 
2483	 0.373338683706357 
2484	 0.373279557075948 
2485	 0.373088825664294 
2486	 0.372651932092252 
2487	 0.372362749117753 
2488	 0.371964650421703 
2489	 0.3714108184096 
2490	 0.370999005538347 
2491	 0.370762712392132 
2492	 0.370463460800273 
2493	 0.370138408714583 
2494	 0.36990232153532 
2495	 0.369476140246442 
2496	 0.36916215372291 
2497	 0.369027939724573 
2498	 0.368652581093359 
2499	 0.368292265814655 
2500	 0.368167782217485 
