Wavelength	LMW_2200000.asd
350	 5.99426871498746E-02 
351	 6.47932934469448E-02 
352	 6.48379045119763E-02 
353	 5.63670198519365E-02 
354	 6.25607405402834E-02 
355	 5.97555240694999E-02 
356	 0.056866736181117 
357	 6.40807438160505E-02 
358	 0.065067716761597 
359	 6.03860003548975E-02 
360	 0.056095085035767 
361	 5.98605718973014E-02 
362	 5.95670875763308E-02 
363	 6.05028428798367E-02 
364	 6.31548402888014E-02 
365	 0.056733141095377 
366	 5.59345028631955E-02 
367	 0.059013170689186 
368	 6.07774072029853E-02 
369	 6.26669537405254E-02 
370	 6.24448998678798E-02 
371	 0.061076087174045 
372	 0.061510619462052 
373	 6.26720515144516E-02 
374	 6.27606179778288E-02 
375	 6.19835200255235E-02 
376	 6.44643868888825E-02 
377	 6.13560271658943E-02 
378	 5.84671562670633E-02 
379	 6.24054631117535E-02 
380	 6.42277516485703E-02 
381	 6.29811828536852E-02 
382	 6.15808486522398E-02 
383	 6.49638249147463E-02 
384	 6.79023381238791E-02 
385	 6.61846769030776E-02 
386	 6.17308696577885E-02 
387	 6.78582514135197E-02 
388	 7.13713706634949E-02 
389	 7.14787312378788E-02 
390	 7.11994080517331E-02 
391	 7.11424821160034E-02 
392	 7.20467096583837E-02 
393	 7.37590048025189E-02 
394	 7.53233471733543E-02 
395	 0.074031345766691 
396	 7.43220293719091E-02 
397	 7.82340714401184E-02 
398	 8.05573278720366E-02 
399	 8.12839159732199E-02 
400	 8.24007314963924E-02 
401	 8.56863557519459E-02 
402	 8.69132770934061E-02 
403	 8.65663598751332E-02 
404	 8.66053993466696E-02 
405	 8.98666462847311E-02 
406	 9.09001517250933E-02 
407	 9.19663651300418E-02 
408	 9.45213806973665E-02 
409	 9.38434216757759E-02 
410	 9.35572241784957E-02 
411	 9.44858709997648E-02 
412	 9.58965223855771E-02 
413	 9.63577436654803E-02 
414	 9.64445631042557E-02 
415	 9.66957946519344E-02 
416	 9.73381781992233E-02 
417	 9.77361525349304E-02 
418	 0.098224007715205 
419	 9.90275413255951E-02 
420	 9.93733020608502E-02 
421	 9.82077881528917E-02 
422	 9.67788842761937E-02 
423	 9.74134086313044E-02 
424	 9.73736448904496E-02 
425	 0.096638519835416 
426	 9.57376251549117E-02 
427	 9.55230581200715E-02 
428	 9.50416032544414E-02 
429	 9.42089053088729E-02 
430	 9.32586953100795E-02 
431	 9.24463448460371E-02 
432	 9.18071180311453E-02 
433	 9.13787214908166E-02 
434	 9.12003489012272E-02 
435	 9.07383367836487E-02 
436	 9.04803940844622E-02 
437	 9.07261033877376E-02 
438	 9.07268911918104E-02 
439	 9.10942480912425E-02 
440	 9.18986966292024E-02 
441	 9.28977558783543E-02 
442	 9.37436682250851E-02 
443	 9.45127672276523E-02 
444	 9.53284828965649E-02 
445	 9.63304853359027E-02 
446	 9.67434897767889E-02 
447	 9.72808752050593E-02 
448	 9.86238186893811E-02 
449	 9.94248056344256E-02 
450	 0.100161100127217 
451	 0.101017696716352 
452	 0.101883943231541 
453	 0.102760116804002 
454	 0.103401283854902 
455	 0.103846130215091 
456	 0.104958860403987 
457	 0.105789029556715 
458	 0.106280553405782 
459	 0.106766718975147 
460	 0.107173068483033 
461	 0.107509345614854 
462	 0.107848958344571 
463	 0.10834427172461 
464	 0.108898767936004 
465	 0.109374119782696 
466	 0.109685599668274 
467	 0.110034987725587 
468	 0.110167090216706 
469	 0.110160824092712 
470	 0.110352215322581 
471	 0.110561449987487 
472	 0.110766137210343 
473	 0.110959576783352 
474	 0.111115122629339 
475	 0.111198380830691 
476	 0.111360280638584 
477	 0.111754575473989 
478	 0.111931772410883 
479	 0.112125052487351 
480	 0.112348583583926 
481	 0.112221495067357 
482	 0.112437205854776 
483	 0.112844221839776 
484	 0.113096490204587 
485	 0.113124509995721 
486	 0.113026242293254 
487	 0.11297764782941 
488	 0.113184549630634 
489	 0.113361061981073 
490	 0.113436359149439 
491	 0.1134726116383 
492	 0.113779790062825 
493	 0.113912249548666 
494	 0.113889707549943 
495	 0.113951367511515 
496	 0.114166958801885 
497	 0.114303847723106 
498	 0.114342366788197 
499	 0.114628299864355 
500	 0.114737580586625 
501	 0.114706304174413 
502	 0.114701414213223 
503	 0.114792468513316 
504	 0.115006705382252 
505	 0.115284784029818 
506	 0.115489905396749 
507	 0.115393919776545 
508	 0.115399509211536 
509	 0.11572039350498 
510	 0.115732833429375 
511	 0.115794001415021 
512	 0.115894069661223 
513	 0.115872723413492 
514	 0.116059164448579 
515	 0.116228226930619 
516	 0.116272306106213 
517	 0.116392016442315 
518	 0.116425817163972 
519	 0.116497981597845 
520	 0.116733967293159 
521	 0.116770242372865 
522	 0.116841879623948 
523	 0.117011856868309 
524	 0.117129838555181 
525	 0.117070395241148 
526	 0.117060364954664 
527	 0.117261982655572 
528	 0.11737730068391 
529	 0.117508638944526 
530	 0.11765475399252 
531	 0.117745907832101 
532	 0.117733248277683 
533	 0.11775594863416 
534	 0.117889970234611 
535	 0.118043335060839 
536	 0.118114958013072 
537	 0.118189874906312 
538	 0.118390949398447 
539	 0.118518452914586 
540	 0.118638618366647 
541	 0.118804724517524 
542	 0.119028117124829 
543	 0.119113556432933 
544	 0.119204286335336 
545	 0.119446108705969 
546	 0.119594944192875 
547	 0.119748824011082 
548	 0.119925063960376 
549	 0.120070673332419 
550	 0.120275203802488 
551	 0.12053385959932 
552	 0.120826746143649 
553	 0.121154013763952 
554	 0.121437387818974 
555	 0.121719626149025 
556	 0.122090683136092 
557	 0.122426146218278 
558	 0.122772093077971 
559	 0.123164647241158 
560	 0.123592602338926 
561	 0.123989636221949 
562	 0.124444601884072 
563	 0.125040031328669 
564	 0.125519835044119 
565	 0.125955476942739 
566	 0.126415042888563 
567	 0.126938293159924 
568	 0.12759307951351 
569	 0.12832056673719 
570	 0.129052080162056 
571	 0.129811640572791 
572	 0.130564146797126 
573	 0.131332379738328 
574	 0.132175868960562 
575	 0.133046919543872 
576	 0.134011685979524 
577	 0.135059713912841 
578	 0.135990837855317 
579	 0.136791363863939 
580	 0.137493326775643 
581	 0.138173775155948 
582	 0.138957224531295 
583	 0.139830559553783 
584	 0.140762075982706 
585	 0.141717503635831 
586	 0.142790924527404 
587	 0.143966489121193 
588	 0.145190456087905 
589	 0.1464272398578 
590	 0.147668921911926 
591	 0.148910665497975 
592	 0.15015461759987 
593	 0.151418029155599 
594	 0.152707379407989 
595	 0.1539786441699 
596	 0.155073660983628 
597	 0.156022344503624 
598	 0.156890522640792 
599	 0.157765166238758 
600	 0.158638077450559 
601	 0.159518043225106 
602	 0.160404080934234 
603	 0.161280456543632 
604	 0.162209848504013 
605	 0.163127202737528 
606	 0.163947208868248 
607	 0.164741863071909 
608	 0.16554207047651 
609	 0.166376637012572 
610	 0.16727003775769 
611	 0.167953241801377 
612	 0.168543921219622 
613	 0.169169096440243 
614	 0.169634477905042 
615	 0.170093531397205 
616	 0.170605015314641 
617	 0.17114690146594 
618	 0.171644150860191 
619	 0.172045490487511 
620	 0.172379750973716 
621	 0.172842586953317 
622	 0.173233343878069 
623	 0.173547291769235 
624	 0.173860562157525 
625	 0.174220455146009 
626	 0.174543254839783 
627	 0.174811530387561 
628	 0.17510882084501 
629	 0.17538738025244 
630	 0.17567680333581 
631	 0.175985437468072 
632	 0.176147811314819 
633	 0.176370699138982 
634	 0.176679758085005 
635	 0.176950047981028 
636	 0.177241468259216 
637	 0.177494411850528 
638	 0.177692699957293 
639	 0.177973397527452 
640	 0.178246925438707 
641	 0.178508212607335 
642	 0.178782485051057 
643	 0.179029211085839 
644	 0.179240718792461 
645	 0.179459259541813 
646	 0.179797387855734 
647	 0.180047646073288 
648	 0.180278017233018 
649	 0.180585061295868 
650	 0.180813206052346 
651	 0.181071258413945 
652	 0.181378340728206 
653	 0.181669912204115 
654	 0.181932843789813 
655	 0.182205687394681 
656	 0.182513858028015 
657	 0.182817433717937 
658	 0.18318221858972 
659	 0.183561775599365 
660	 0.183870433412221 
661	 0.184177516897049 
662	 0.184492222537712 
663	 0.18483286660665 
664	 0.185239620559081 
665	 0.185658684404863 
666	 0.186039039418176 
667	 0.186357008756996 
668	 0.186668278066866 
669	 0.187099663140113 
670	 0.187588242206351 
671	 0.187930789523586 
672	 0.188371402638458 
673	 0.188797343484266 
674	 0.189154691044855 
675	 0.189690911037895 
676	 0.190144203204058 
677	 0.19053844288839 
678	 0.191010186357957 
679	 0.191533408019436 
680	 0.192022490028684 
681	 0.192458152744279 
682	 0.192913192412621 
683	 0.193445786606499 
684	 0.193971987376953 
685	 0.194426357616134 
686	 0.194960091931617 
687	 0.195498290267777 
688	 0.196015867405826 
689	 0.196524147432307 
690	 0.1970083749099 
691	 0.197489374982139 
692	 0.198003857175868 
693	 0.1986211481469 
694	 0.199195389057681 
695	 0.199709878260226 
696	 0.200210716422659 
697	 0.200791304321511 
698	 0.201345272444233 
699	 0.201850058433827 
700	 0.202383153269608 
701	 0.202954284525143 
702	 0.203526122436313 
703	 0.204054596399308 
704	 0.204499960958172 
705	 0.205002201332214 
706	 0.205542999141661 
707	 0.206030512373071 
708	 0.206545961480972 
709	 0.20706168881163 
710	 0.207561732954615 
711	 0.208064538195286 
712	 0.208564341935511 
713	 0.20904729065346 
714	 0.209505529351478 
715	 0.209959716109829 
716	 0.21041821910245 
717	 0.210852985326509 
718	 0.211222386606886 
719	 0.211657595869789 
720	 0.212066329260932 
721	 0.212402153277509 
722	 0.212773350120937 
723	 0.213097978632767 
724	 0.213378584850044 
725	 0.213647897019183 
726	 0.213928136969037 
727	 0.214233129842435 
728	 0.214539361694645 
729	 0.214792289195511 
730	 0.215027646501463 
731	 0.215229555480317 
732	 0.215390901011469 
733	 0.215545951031448 
734	 0.215684395090024 
735	 0.21577010133893 
736	 0.215789457149307 
737	 0.215931839876941 
738	 0.216050817836476 
739	 0.216074677858088 
740	 0.216043854051984 
741	 0.216033386200113 
742	 0.216019646054268 
743	 0.215965006383923 
744	 0.215855057724786 
745	 0.215756318451072 
746	 0.215669945619614 
747	 0.215561185303065 
748	 0.215398834996252 
749	 0.215224926811987 
750	 0.215039034061415 
751	 0.214783413885303 
752	 0.21455714974453 
753	 0.21433736315725 
754	 0.214084198470364 
755	 0.21379554624455 
756	 0.213502620061367 
757	 0.213209686528932 
758	 0.212905496495084 
759	 0.212590574414414 
760	 0.212221042117783 
761	 0.211809100632406 
762	 0.21143877277803 
763	 0.211059313201267 
764	 0.210671142147188 
765	 0.210282281344206 
766	 0.209891582997817 
767	 0.209465361585639 
768	 0.209008064314347 
769	 0.208542598866758 
770	 0.208061220756826 
771	 0.207615269217621 
772	 0.207186346649151 
773	 0.206674276015263 
774	 0.206247554943959 
775	 0.205818162333614 
776	 0.205300272139781 
777	 0.204768326506775 
778	 0.20427116712978 
779	 0.203796906894409 
780	 0.203310147953982 
781	 0.202845985231187 
782	 0.20241503126378 
783	 0.20194787522119 
784	 0.201312904292671 
785	 0.200819444404159 
786	 0.200377451670295 
787	 0.199881221245172 
788	 0.199384979915393 
789	 0.198881100998209 
790	 0.198380464468852 
791	 0.197897261047631 
792	 0.197437013370004 
793	 0.196934481472191 
794	 0.196392266485543 
795	 0.195875045239941 
796	 0.195403550857137 
797	 0.194931133599182 
798	 0.194449659162244 
799	 0.194045321535069 
800	 0.193594565600911 
801	 0.193092953069578 
802	 0.192583439849532 
803	 0.192131982057695 
804	 0.191684905358863 
805	 0.191228427732977 
806	 0.190774146549935 
807	 0.190294190548904 
808	 0.189841979036291 
809	 0.189429521705212 
810	 0.189004806463568 
811	 0.188625226531037 
812	 0.188218748486392 
813	 0.187753319006125 
814	 0.187387366164634 
815	 0.186967775386759 
816	 0.186527673027767 
817	 0.186157265039945 
818	 0.185802263545577 
819	 0.185454738583239 
820	 0.185110185063121 
821	 0.184762467635544 
822	 0.184352333878314 
823	 0.183975914215591 
824	 0.183658520315636 
825	 0.183271704247516 
826	 0.183005154809889 
827	 0.18271157771823 
828	 0.182270008609745 
829	 0.181933652608487 
830	 0.181666320730838 
831	 0.181419946236579 
832	 0.18114517304499 
833	 0.180855339041563 
834	 0.180553757639204 
835	 0.180263896470342 
836	 0.180019889246515 
837	 0.17973990040646 
838	 0.179457004936773 
839	 0.17918701210598 
840	 0.178880279993679 
841	 0.178669430581802 
842	 0.178503578712711 
843	 0.178299322251525 
844	 0.178037446450004 
845	 0.177872607018872 
846	 0.177744343690041 
847	 0.177521239395236 
848	 0.177311981182311 
849	 0.177084871387614 
850	 0.176865167268076 
851	 0.176720050756147 
852	 0.176571769698411 
853	 0.176413779602235 
854	 0.17626062326653 
855	 0.176140584800511 
856	 0.175986413499908 
857	 0.175856619647976 
858	 0.175779482255082 
859	 0.175622861171677 
860	 0.175535819153455 
861	 0.175436167559542 
862	 0.175226331934342 
863	 0.175106438816251 
864	 0.175060205526785 
865	 0.175043487715192 
866	 0.17499963473362 
867	 0.174900973821848 
868	 0.174846337351367 
869	 0.17482199045472 
870	 0.174705613075019 
871	 0.174673461530114 
872	 0.174662170033559 
873	 0.174648041082458 
874	 0.174733626755895 
875	 0.174700973157255 
876	 0.174650694509467 
877	 0.174662264773414 
878	 0.17452334638963 
879	 0.174525675344496 
880	 0.174625638712827 
881	 0.174681241708548 
882	 0.174692755096976 
883	 0.174740395816728 
884	 0.174780100085637 
885	 0.174737707191298 
886	 0.174815956106069 
887	 0.174892105976138 
888	 0.174931080206146 
889	 0.174994404362925 
890	 0.175113956484585 
891	 0.17519723032342 
892	 0.175212869705313 
893	 0.175229987114567 
894	 0.175343024006722 
895	 0.175539313731068 
896	 0.175758006079174 
897	 0.175905009680938 
898	 0.176042766020309 
899	 0.176144706903566 
900	 0.1762214890069 
901	 0.176445766294437 
902	 0.176599768276167 
903	 0.176699531629562 
904	 0.176844364363959 
905	 0.177114937724354 
906	 0.177330213127609 
907	 0.17745490799934 
908	 0.177555010820871 
909	 0.177765368057487 
910	 0.17797104879952 
911	 0.178164192057465 
912	 0.178400034355508 
913	 0.178577486887098 
914	 0.178815573165086 
915	 0.179088345361698 
916	 0.179257748184147 
917	 0.179545042563239 
918	 0.179850859425909 
919	 0.180104039509973 
920	 0.180324429068635 
921	 0.180653586561713 
922	 0.18095230315383 
923	 0.181182393411226 
924	 0.181516071894475 
925	 0.18180731449592 
926	 0.182121028931359 
927	 0.18247593893594 
928	 0.182729309825225 
929	 0.183046138314702 
930	 0.183382332142923 
931	 0.183677016920543 
932	 0.183952863466159 
933	 0.184364402325886 
934	 0.184796315731861 
935	 0.185111316382306 
936	 0.185359469814098 
937	 0.185605195000274 
938	 0.18594211249339 
939	 0.1864099440455 
940	 0.18687459867601 
941	 0.187263694133395 
942	 0.187682983589465 
943	 0.188197981536716 
944	 0.188409442152937 
945	 0.188716324579009 
946	 0.189194523570834 
947	 0.189720418097639 
948	 0.190097194894098 
949	 0.190489180785335 
950	 0.190880371096211 
951	 0.191218353311858 
952	 0.191790355998467 
953	 0.192263283646096 
954	 0.192611302535693 
955	 0.193000778907487 
956	 0.193485603902624 
957	 0.19393058850485 
958	 0.194330525440928 
959	 0.194777518494253 
960	 0.195378654551507 
961	 0.195851196215963 
962	 0.196238070136095 
963	 0.196746765793234 
964	 0.197086694798966 
965	 0.19758656962151 
966	 0.198201538620258 
967	 0.198667471729324 
968	 0.199204736928818 
969	 0.199663842204977 
970	 0.200053307726942 
971	 0.200492378574334 
972	 0.200974758138025 
973	 0.201429216010463 
974	 0.201838401852747 
975	 0.202254399122523 
976	 0.202865018894747 
977	 0.203417244868088 
978	 0.203866929226118 
979	 0.204337918051839 
980	 0.204920464619051 
981	 0.205387130433731 
982	 0.205822645242015 
983	 0.206430255775649 
984	 0.206884734641599 
985	 0.207225656596711 
986	 0.207596494438203 
987	 0.208119316488879 
988	 0.208586243006447 
989	 0.209024912859638 
990	 0.209485868122344 
991	 0.209988150456143 
992	 0.21038028667345 
993	 0.210839206157517 
994	 0.211400961189436 
995	 0.211965787440169 
996	 0.212229175509487 
997	 0.212673422249013 
998	 0.213142160685357 
999	 0.213402162411708 
1000	 0.213933560001514 
1001	 0.213028610483722 
1002	 0.213375976212653 
1003	 0.213740637190526 
1004	 0.214103279696105 
1005	 0.214430287148389 
1006	 0.21481919471547 
1007	 0.215253066348112 
1008	 0.21565066267072 
1009	 0.216044390520012 
1010	 0.216468536732685 
1011	 0.216832459972174 
1012	 0.217114470833986 
1013	 0.217421220500246 
1014	 0.21774395537775 
1015	 0.218088803151331 
1016	 0.218454200902988 
1017	 0.218797456222394 
1018	 0.219158572291018 
1019	 0.21948785936446 
1020	 0.219778447472633 
1021	 0.220088960962674 
1022	 0.220398766782045 
1023	 0.220683851075877 
1024	 0.220982634057702 
1025	 0.221254385646388 
1026	 0.221555734283865 
1027	 0.221896122220268 
1028	 0.222202323153709 
1029	 0.222489937344176 
1030	 0.222758779000295 
1031	 0.223040002347472 
1032	 0.223302115581834 
1033	 0.22355003773034 
1034	 0.223850043522946 
1035	 0.224156493724534 
1036	 0.224373696861402 
1037	 0.224578264789587 
1038	 0.224744191702294 
1039	 0.224935971361157 
1040	 0.225175963889265 
1041	 0.225385915947194 
1042	 0.225612576236025 
1043	 0.225820515659599 
1044	 0.226027687373764 
1045	 0.226215434501841 
1046	 0.226440948016002 
1047	 0.226640436682777 
1048	 0.226770371089043 
1049	 0.226888038394949 
1050	 0.227069482856804 
1051	 0.227292107115131 
1052	 0.227556832134929 
1053	 0.227836156364014 
1054	 0.228064180273683 
1055	 0.228239873656377 
1056	 0.228439649246244 
1057	 0.22865751175116 
1058	 0.228886090918517 
1059	 0.229102252196651 
1060	 0.229337371149968 
1061	 0.229566218708703 
1062	 0.229740514516774 
1063	 0.229933610479219 
1064	 0.230074451727172 
1065	 0.23022442523473 
1066	 0.230465936747192 
1067	 0.230737998933742 
1068	 0.231057769227142 
1069	 0.2313497370646 
1070	 0.231591048875928 
1071	 0.231775635811395 
1072	 0.231969867630002 
1073	 0.232131867678267 
1074	 0.232303297412299 
1075	 0.232469988126206 
1076	 0.232613409083235 
1077	 0.232789024183012 
1078	 0.233012631259294 
1079	 0.23329083930538 
1080	 0.233543694257671 
1081	 0.233723538820942 
1082	 0.233882237148539 
1083	 0.234035115753702 
1084	 0.234116668722953 
1085	 0.234265613694002 
1086	 0.234437194218668 
1087	 0.234619207973493 
1088	 0.234822231812357 
1089	 0.235034594506295 
1090	 0.235213948352149 
1091	 0.235365475384167 
1092	 0.235497104251345 
1093	 0.235617141417173 
1094	 0.235768203559837 
1095	 0.235956161438152 
1096	 0.236128704345852 
1097	 0.236286070345462 
1098	 0.236426604885163 
1099	 0.236518016613242 
1100	 0.236670572949964 
1101	 0.236860927090307 
1102	 0.237003951933522 
1103	 0.237160002112401 
1104	 0.237301508945082 
1105	 0.237381546921662 
1106	 0.237505797334418 
1107	 0.237616340507302 
1108	 0.2377190236147 
1109	 0.237852920229267 
1110	 0.237913961486979 
1111	 0.238020757248564 
1112	 0.238157039262592 
1113	 0.238288334645863 
1114	 0.238442454591774 
1115	 0.238558618887992 
1116	 0.238651992031955 
1117	 0.238748150317299 
1118	 0.238818177106524 
1119	 0.238899100420697 
1120	 0.238999797071064 
1121	 0.239113273979183 
1122	 0.239229102031689 
1123	 0.23934597193605 
1124	 0.239451049241569 
1125	 0.239566799543181 
1126	 0.239649533088024 
1127	 0.239700433377567 
1128	 0.239769270987802 
1129	 0.23982470651223 
1130	 0.23989873400425 
1131	 0.239993336519486 
1132	 0.240072627978687 
1133	 0.240150148963153 
1134	 0.240225253026468 
1135	 0.240295254040865 
1136	 0.240369434780689 
1137	 0.240428880547888 
1138	 0.240466921778982 
1139	 0.240506693403776 
1140	 0.240516183816673 
1141	 0.240568903308738 
1142	 0.240648702660046 
1143	 0.240703829495232 
1144	 0.240765936175105 
1145	 0.240821745708752 
1146	 0.240869700515756 
1147	 0.24090491124716 
1148	 0.240929084753303 
1149	 0.240966848358326 
1150	 0.240990225320561 
1151	 0.241029486365613 
1152	 0.241072787029436 
1153	 0.241115439372819 
1154	 0.241152256297053 
1155	 0.241169472387034 
1156	 0.241204061986488 
1157	 0.241242006302587 
1158	 0.241290724028507 
1159	 0.241362033894038 
1160	 0.241408616304183 
1161	 0.241446091022374 
1162	 0.241494039825871 
1163	 0.241520846622481 
1164	 0.241567930980555 
1165	 0.241634542015943 
1166	 0.241713866181121 
1167	 0.241778476469055 
1168	 0.241823000228057 
1169	 0.241869963795116 
1170	 0.241899193617856 
1171	 0.241950111691412 
1172	 0.242010276650226 
1173	 0.242066583530336 
1174	 0.242136012564636 
1175	 0.242186838506222 
1176	 0.242213897612568 
1177	 0.242268075368321 
1178	 0.242333362539385 
1179	 0.24239059372972 
1180	 0.24245950705413 
1181	 0.242525719249745 
1182	 0.242580557249127 
1183	 0.242634584478287 
1184	 0.24270526951363 
1185	 0.242799721187541 
1186	 0.242862287081892 
1187	 0.242912303333813 
1188	 0.242978784020277 
1189	 0.243039240056593 
1190	 0.243099956789459 
1191	 0.243175267042774 
1192	 0.24324143119186 
1193	 0.243291671650901 
1194	 0.243351331885489 
1195	 0.243425633084929 
1196	 0.243487680662595 
1197	 0.243544402574092 
1198	 0.24359813459546 
1199	 0.243647721709072 
1200	 0.243689951315806 
1201	 0.243735807893166 
1202	 0.243778210951686 
1203	 0.243826556332927 
1204	 0.243881398869345 
1205	 0.243925800080419 
1206	 0.24396472058034 
1207	 0.244010658679463 
1208	 0.244054227419503 
1209	 0.244098307512462 
1210	 0.244152443515059 
1211	 0.24419813592397 
1212	 0.244234937889629 
1213	 0.244274052116832 
1214	 0.244316142067863 
1215	 0.244352592131231 
1216	 0.244386066371309 
1217	 0.244413118895024 
1218	 0.244451081443665 
1219	 0.244491144874679 
1220	 0.244528358449615 
1221	 0.244571005645784 
1222	 0.244611485415555 
1223	 0.244655170420601 
1224	 0.244682986799938 
1225	 0.24470466595852 
1226	 0.244727088803542 
1227	 0.244734564300168 
1228	 0.24474708301226 
1229	 0.244768817518383 
1230	 0.244783735852362 
1231	 0.244789362802317 
1232	 0.24479817484466 
1233	 0.24480730169767 
1234	 0.244810422480244 
1235	 0.244834222709101 
1236	 0.244871105693201 
1237	 0.244898309288796 
1238	 0.244934137066665 
1239	 0.24496646215703 
1240	 0.24499041707411 
1241	 0.24501864129874 
1242	 0.245064120494323 
1243	 0.245086976182606 
1244	 0.245086593181162 
1245	 0.245102399950785 
1246	 0.24512336609561 
1247	 0.245133560331627 
1248	 0.245148763238931 
1249	 0.245158230883124 
1250	 0.245144114442415 
1251	 0.245137458624889 
1252	 0.245147022478926 
1253	 0.24517269273172 
1254	 0.245182312641584 
1255	 0.245205425032234 
1256	 0.245203554116576 
1257	 0.245174591951498 
1258	 0.245164479564611 
1259	 0.245140748787775 
1260	 0.245141680398365 
1261	 0.245177821038055 
1262	 0.245183371383415 
1263	 0.245182694303447 
1264	 0.24518739269573 
1265	 0.245173421667244 
1266	 0.245165952343333 
1267	 0.245167349469856 
1268	 0.245178449402603 
1269	 0.245176644539456 
1270	 0.245166438882757 
1271	 0.245158666973111 
1272	 0.245155010456049 
1273	 0.245139195213518 
1274	 0.245104212747783 
1275	 0.245098242623332 
1276	 0.245102693454111 
1277	 0.245097759731628 
1278	 0.245095603667125 
1279	 0.245108875841346 
1280	 0.245121403334085 
1281	 0.245139367485754 
1282	 0.245181766117488 
1283	 0.24521822473323 
1284	 0.245260167976559 
1285	 0.245280335468807 
1286	 0.245287758905242 
1287	 0.245319781022717 
1288	 0.245349973842189 
1289	 0.245363118725028 
1290	 0.245404079981206 
1291	 0.245485091958096 
1292	 0.245521179600476 
1293	 0.245534612981913 
1294	 0.24557797244844 
1295	 0.245615278025733 
1296	 0.245657552380378 
1297	 0.245729762865113 
1298	 0.245781936441166 
1299	 0.245818937439323 
1300	 0.245855697407739 
1301	 0.245885589353465 
1302	 0.245924230033012 
1303	 0.245968507135772 
1304	 0.246004927035296 
1305	 0.246029806083232 
1306	 0.246052210855459 
1307	 0.246047273455491 
1308	 0.246040850734469 
1309	 0.246045664881494 
1310	 0.246052368715312 
1311	 0.246067227234697 
1312	 0.246112930634452 
1313	 0.246103614411384 
1314	 0.246071319772926 
1315	 0.246048500347947 
1316	 0.245990412619576 
1317	 0.245951104105414 
1318	 0.245943563988792 
1319	 0.245905384395726 
1320	 0.245838745533442 
1321	 0.245787623080507 
1322	 0.245731584171548 
1323	 0.245684622189363 
1324	 0.245645968492993 
1325	 0.24559410136367 
1326	 0.245533137703538 
1327	 0.245474218957871 
1328	 0.245399445099608 
1329	 0.245336994106431 
1330	 0.245266734766455 
1331	 0.245189936304636 
1332	 0.245113347454168 
1333	 0.245034058897735 
1334	 0.244960806915086 
1335	 0.244887612979217 
1336	 0.24481559191613 
1337	 0.244746600503116 
1338	 0.244682477148517 
1339	 0.24462605798502 
1340	 0.244560707117203 
1341	 0.244507336411975 
1342	 0.244430569034076 
1343	 0.244329000839477 
1344	 0.244229124911156 
1345	 0.244149811168247 
1346	 0.244073155656786 
1347	 0.244013420556433 
1348	 0.243979497983414 
1349	 0.243948753338209 
1350	 0.243900796296552 
1351	 0.243843724492129 
1352	 0.243780144668056 
1353	 0.24371780345103 
1354	 0.243643720260348 
1355	 0.24357377083681 
1356	 0.243511450847326 
1357	 0.243444438137951 
1358	 0.243374203684506 
1359	 0.243293718156435 
1360	 0.243222959918985 
1361	 0.243126307945818 
1362	 0.242989109217612 
1363	 0.242878650224407 
1364	 0.242765909650134 
1365	 0.242658385025931 
1366	 0.242563909989353 
1367	 0.242488352503986 
1368	 0.242373398849185 
1369	 0.242251633068971 
1370	 0.242128347168796 
1371	 0.241994901639938 
1372	 0.241873791138448 
1373	 0.241757762123471 
1374	 0.241614547126331 
1375	 0.24145954460414 
1376	 0.241289191541403 
1377	 0.241101682598612 
1378	 0.240896240467426 
1379	 0.240676154654181 
1380	 0.240445073995552 
1381	 0.240200799027663 
1382	 0.239933742583325 
1383	 0.239652321682721 
1384	 0.239354251775867 
1385	 0.239037818838586 
1386	 0.238705954722862 
1387	 0.238372126412828 
1388	 0.238010066612878 
1389	 0.237633073541729 
1390	 0.237211896722067 
1391	 0.236774799434799 
1392	 0.236311846234054 
1393	 0.235820855954043 
1394	 0.235303119462297 
1395	 0.234765910156353 
1396	 0.234193887600404 
1397	 0.23361263503621 
1398	 0.233007614816924 
1399	 0.232402616894732 
1400	 0.231787928006513 
1401	 0.231161502976566 
1402	 0.230515580466987 
1403	 0.229884298748788 
1404	 0.229227768799252 
1405	 0.228617487151015 
1406	 0.228033348313291 
1407	 0.227456601077546 
1408	 0.226892949449241 
1409	 0.226357106747485 
1410	 0.225825142947066 
1411	 0.225335874210537 
1412	 0.224880214522103 
1413	 0.224459132787316 
1414	 0.22405143891557 
1415	 0.223665949396683 
1416	 0.223305371014533 
1417	 0.222953066736639 
1418	 0.222641225194399 
1419	 0.222361564931542 
1420	 0.222107318310614 
1421	 0.221878057156979 
1422	 0.221643715642978 
1423	 0.221404206029721 
1424	 0.22117192149643 
1425	 0.220930449541619 
1426	 0.220710803600178 
1427	 0.220496292341135 
1428	 0.220312365702386 
1429	 0.220152964306736 
1430	 0.219995127550555 
1431	 0.219864532004964 
1432	 0.219720940427625 
1433	 0.219561312979134 
1434	 0.219431585806844 
1435	 0.219316131457379 
1436	 0.219208035326277 
1437	 0.219113814859647 
1438	 0.219031251758921 
1439	 0.218959587817454 
1440	 0.218891964191866 
1441	 0.218838839008685 
1442	 0.218789499656028 
1443	 0.218718817139108 
1444	 0.218659900209495 
1445	 0.218605341738688 
1446	 0.218536676034097 
1447	 0.218474233656998 
1448	 0.21840010878474 
1449	 0.218316023837072 
1450	 0.218250908052307 
1451	 0.218174240211549 
1452	 0.218092724383375 
1453	 0.218017465713702 
1454	 0.2179473284348 
1455	 0.217860062110825 
1456	 0.21776685126619 
1457	 0.217675502840342 
1458	 0.217566336577175 
1459	 0.217475783206393 
1460	 0.217398418791083 
1461	 0.217324386422264 
1462	 0.217237963131383 
1463	 0.217186298531795 
1464	 0.217144832229226 
1465	 0.217132678406049 
1466	 0.217145313200189 
1467	 0.217187653261621 
1468	 0.217248276253769 
1469	 0.217344695004106 
1470	 0.21747577917294 
1471	 0.217640907341675 
1472	 0.217821366846801 
1473	 0.2180255153203 
1474	 0.218244987491384 
1475	 0.218466132653854 
1476	 0.218693969327127 
1477	 0.218921358341449 
1478	 0.219128649744405 
1479	 0.219324930244343 
1480	 0.219508914392496 
1481	 0.219667948632085 
1482	 0.219837694952918 
1483	 0.220001076737536 
1484	 0.220168451367475 
1485	 0.220340965223437 
1486	 0.220508391213502 
1487	 0.220678508905047 
1488	 0.220832732148228 
1489	 0.220977659211608 
1490	 0.221122197296032 
1491	 0.221252041029636 
1492	 0.221389285253377 
1493	 0.221532708620797 
1494	 0.221667152883196 
1495	 0.221801763369424 
1496	 0.221928469314281 
1497	 0.222044631335133 
1498	 0.222166956350911 
1499	 0.222282484084323 
1500	 0.222405223742496 
1501	 0.222542036527966 
1502	 0.2226616560318 
1503	 0.222773979193172 
1504	 0.222890450891406 
1505	 0.222984220783442 
1506	 0.223086965234237 
1507	 0.223217606963463 
1508	 0.223324377111736 
1509	 0.223422716782751 
1510	 0.223519446437188 
1511	 0.223598332562884 
1512	 0.223678744605236 
1513	 0.223752080208867 
1514	 0.223831605445272 
1515	 0.223925068898895 
1516	 0.224015997201827 
1517	 0.224109750099371 
1518	 0.224227714172796 
1519	 0.224317153694876 
1520	 0.224384453264083 
1521	 0.22446384397699 
1522	 0.224537707119151 
1523	 0.224623328056924 
1524	 0.224716643659234 
1525	 0.224807427443129 
1526	 0.224912325025263 
1527	 0.224993447979462 
1528	 0.225059453385711 
1529	 0.225133482506221 
1530	 0.225196472132008 
1531	 0.225262163546077 
1532	 0.225340097755128 
1533	 0.225401997872527 
1534	 0.225446234032773 
1535	 0.22550751947259 
1536	 0.225568582150725 
1537	 0.225636277608496 
1538	 0.225711009974785 
1539	 0.225792060248571 
1540	 0.225879470194355 
1541	 0.225962700974063 
1542	 0.22605541562741 
1543	 0.226142139863612 
1544	 0.2262341284838 
1545	 0.226312135999792 
1546	 0.226378957356241 
1547	 0.226444852728936 
1548	 0.226512637484047 
1549	 0.226553734957199 
1550	 0.2266090607553 
1551	 0.226660335055353 
1552	 0.226699706295162 
1553	 0.22674792970171 
1554	 0.22678003329364 
1555	 0.226813736512761 
1556	 0.226858282324493 
1557	 0.226884771134424 
1558	 0.226917393810267 
1559	 0.226954670705099 
1560	 0.226991455742773 
1561	 0.227025754967579 
1562	 0.227056221694998 
1563	 0.227089801648616 
1564	 0.227121317457148 
1565	 0.227143171761416 
1566	 0.227171030830563 
1567	 0.227206700659908 
1568	 0.227236354823926 
1569	 0.227270290442102 
1570	 0.227281021534396 
1571	 0.227269025142418 
1572	 0.227282375550341 
1573	 0.227291259885362 
1574	 0.227308394145011 
1575	 0.227348779287912 
1576	 0.227376401422163 
1577	 0.227392788908953 
1578	 0.227416265136984 
1579	 0.227450096129198 
1580	 0.227476040960244 
1581	 0.227499015217454 
1582	 0.22751523438344 
1583	 0.227533091662246 
1584	 0.227535473596575 
1585	 0.227522165569345 
1586	 0.227515366591314 
1587	 0.227494289828783 
1588	 0.227485252210048 
1589	 0.227491205369652 
1590	 0.227486485861278 
1591	 0.22746832625778 
1592	 0.227471981851579 
1593	 0.227479905853471 
1594	 0.227492889558492 
1595	 0.227536570729849 
1596	 0.227558140048178 
1597	 0.227573837810229 
1598	 0.227581110014939 
1599	 0.227566858781303 
1600	 0.227564331381269 
1601	 0.2275655799726 
1602	 0.227559592485966 
1603	 0.227559763033243 
1604	 0.227551247399035 
1605	 0.227524880266113 
1606	 0.227508402787212 
1607	 0.227498119998331 
1608	 0.22748185939918 
1609	 0.227465902391414 
1610	 0.227447203785887 
1611	 0.227413188285266 
1612	 0.227371465441326 
1613	 0.227337859382933 
1614	 0.227312997842541 
1615	 0.227301777984574 
1616	 0.227297040190286 
1617	 0.227287701977467 
1618	 0.227277498333892 
1619	 0.227264869441383 
1620	 0.227251154743183 
1621	 0.227233293422947 
1622	 0.227213348863317 
1623	 0.227193329478665 
1624	 0.227175100706022 
1625	 0.227136072300571 
1626	 0.22708981434979 
1627	 0.227042857330717 
1628	 0.226972433906245 
1629	 0.226930003724594 
1630	 0.226902049653138 
1631	 0.226868618342117 
1632	 0.226842150952455 
1633	 0.226813538218201 
1634	 0.226779676835114 
1635	 0.226760404659083 
1636	 0.226756343757595 
1637	 0.226730147755887 
1638	 0.226702667629502 
1639	 0.226671083143358 
1640	 0.226626187528371 
1641	 0.226579854980493 
1642	 0.226529827883346 
1643	 0.226493198833182 
1644	 0.226450040620015 
1645	 0.22641854674308 
1646	 0.226413007143562 
1647	 0.226383096888544 
1648	 0.226350505880033 
1649	 0.226296920786506 
1650	 0.226223191523813 
1651	 0.226159084344844 
1652	 0.226078896358364 
1653	 0.226013446040976 
1654	 0.225956164802898 
1655	 0.225904950979869 
1656	 0.22585879607471 
1657	 0.225812937979829 
1658	 0.225776706020041 
1659	 0.225736598830554 
1660	 0.22569492580781 
1661	 0.225651052423256 
1662	 0.225609963658508 
1663	 0.225564219148744 
1664	 0.225504945107023 
1665	 0.225465055145239 
1666	 0.225440579848945 
1667	 0.225399738952564 
1668	 0.225364457042875 
1669	 0.22531853523147 
1670	 0.225255348045648 
1671	 0.225198360965684 
1672	 0.225149378853762 
1673	 0.2250833772624 
1674	 0.224997942515373 
1675	 0.224932169559665 
1676	 0.224858876847985 
1677	 0.22480685746989 
1678	 0.224791297290852 
1679	 0.224738510686823 
1680	 0.224673123950011 
1681	 0.224614873307479 
1682	 0.224533057929589 
1683	 0.224477759009597 
1684	 0.224455003884315 
1685	 0.224400831332309 
1686	 0.224331632520637 
1687	 0.224278288210146 
1688	 0.224224013837694 
1689	 0.224162659116266 
1690	 0.224111913069067 
1691	 0.224050512640811 
1692	 0.223966793430823 
1693	 0.223898334278442 
1694	 0.223846330802508 
1695	 0.223776818173397 
1696	 0.223693145840331 
1697	 0.223624385677675 
1698	 0.223559888149341 
1699	 0.223486337711742 
1700	 0.223411220799511 
1701	 0.223348618308571 
1702	 0.223288155088407 
1703	 0.223218664281869 
1704	 0.223162298214824 
1705	 0.223093578599087 
1706	 0.223005478783875 
1707	 0.222920521814155 
1708	 0.222843755596497 
1709	 0.22275119207582 
1710	 0.222634281078833 
1711	 0.22254573776461 
1712	 0.222464766557244 
1713	 0.222385306147646 
1714	 0.222316997589757 
1715	 0.222248216687194 
1716	 0.222189331630875 
1717	 0.222105292610187 
1718	 0.222011780143324 
1719	 0.221928682913316 
1720	 0.221827393543519 
1721	 0.221742491553454 
1722	 0.22169761975866 
1723	 0.221597447632926 
1724	 0.221467657647787 
1725	 0.221341016109994 
1726	 0.221179488044653 
1727	 0.221047381520111 
1728	 0.2209252236696 
1729	 0.220809138044852 
1730	 0.220702783941614 
1731	 0.220603603580954 
1732	 0.220522851903969 
1733	 0.220420282088444 
1734	 0.220308690228316 
1735	 0.220204721128868 
1736	 0.220100222088578 
1737	 0.21997633812086 
1738	 0.219852689003495 
1739	 0.219727030165633 
1740	 0.219571522092403 
1741	 0.219448940458699 
1742	 0.219368159986433 
1743	 0.219235106672841 
1744	 0.219074718476303 
1745	 0.218928565749538 
1746	 0.218750596635045 
1747	 0.218621059173744 
1748	 0.218534530748953 
1749	 0.218439181301879 
1750	 0.218331459072084 
1751	 0.218206907150493 
1752	 0.218093430372859 
1753	 0.217978939267898 
1754	 0.217867094749806 
1755	 0.217739585504524 
1756	 0.217592545441597 
1757	 0.217466371386047 
1758	 0.217308736540934 
1759	 0.217160800284895 
1760	 0.217025269717549 
1761	 0.216865020197418 
1762	 0.216726374352968 
1763	 0.21658516418993 
1764	 0.216446070195604 
1765	 0.216319390998497 
1766	 0.216189468771231 
1767	 0.216056530055383 
1768	 0.215942829705334 
1769	 0.215843750173734 
1770	 0.215708756872776 
1771	 0.21556435238735 
1772	 0.215428608726186 
1773	 0.215270913195486 
1774	 0.215138990840874 
1775	 0.215040812020078 
1776	 0.214915479529217 
1777	 0.214792715773763 
1778	 0.214673979999811 
1779	 0.214530645790683 
1780	 0.214419217431137 
1781	 0.214328559577152 
1782	 0.214225747130281 
1783	 0.21415644640641 
1784	 0.214072665212106 
1785	 0.213976816999225 
1786	 0.213882021648396 
1787	 0.213780273845984 
1788	 0.21369433123344 
1789	 0.213612195240999 
1790	 0.213545850397519 
1791	 0.213509224998806 
1792	 0.213446665733534 
1793	 0.213375500282719 
1794	 0.213309338643714 
1795	 0.213240820873265 
1796	 0.213151723469378 
1797	 0.213038987074329 
1798	 0.212957088538258 
1799	 0.21287789579284 
1800	 0.212792601253112 
1801	 0.206504139926409 
1802	 0.206449577271258 
1803	 0.206352329560097 
1804	 0.206267898948123 
1805	 0.206207306138838 
1806	 0.206171207570444 
1807	 0.206157525039607 
1808	 0.206128745048607 
1809	 0.206154143927765 
1810	 0.206102741278596 
1811	 0.205983857952005 
1812	 0.205896018792956 
1813	 0.205835025598237 
1814	 0.205790677428854 
1815	 0.205799307972573 
1816	 0.205809154585871 
1817	 0.205757571329038 
1818	 0.205628669250593 
1819	 0.205571353411586 
1820	 0.205523873341244 
1821	 0.20546224400115 
1822	 0.205416451078936 
1823	 0.205376859377147 
1824	 0.205280251795854 
1825	 0.20517775002687 
1826	 0.205100453051129 
1827	 0.205034943280106 
1828	 0.204963047274968 
1829	 0.204922635118904 
1830	 0.204815032753363 
1831	 0.20467212812551 
1832	 0.204538305893157 
1833	 0.204355925874729 
1834	 0.20416415285828 
1835	 0.204011165659383 
1836	 0.203814492553995 
1837	 0.203633635905869 
1838	 0.203451356413448 
1839	 0.203252446854561 
1840	 0.203027362886676 
1841	 0.20284159016005 
1842	 0.20265060953464 
1843	 0.202450640850179 
1844	 0.202255147074535 
1845	 0.20204212881015 
1846	 0.201856489030471 
1847	 0.201675649436869 
1848	 0.201501991496172 
1849	 0.201382303994363 
1850	 0.201234368597355 
1851	 0.201079667514479 
1852	 0.200900492769093 
1853	 0.200740048970187 
1854	 0.200555654474988 
1855	 0.200380887590223 
1856	 0.200218606026805 
1857	 0.200023269123112 
1858	 0.199835063339524 
1859	 0.199638739146628 
1860	 0.199417735058602 
1861	 0.199183612542372 
1862	 0.198956634290117 
1863	 0.198659002728948 
1864	 0.198323770667693 
1865	 0.198005402407872 
1866	 0.19765153921084 
1867	 0.197295092722662 
1868	 0.196937768878445 
1869	 0.196538979737266 
1870	 0.196109922699589 
1871	 0.195611465279329 
1872	 0.195074357051075 
1873	 0.194475836310737 
1874	 0.193814445997415 
1875	 0.193081707490854 
1876	 0.192322425734145 
1877	 0.19151874582039 
1878	 0.190645221818743 
1879	 0.189725370006206 
1880	 0.188745270995437 
1881	 0.187690644985661 
1882	 0.18661001721524 
1883	 0.185499204342755 
1884	 0.18429032190615 
1885	 0.183024069384767 
1886	 0.181716946658985 
1887	 0.180307796759288 
1888	 0.178841230954318 
1889	 0.17735210481696 
1890	 0.175795137977384 
1891	 0.174239816222165 
1892	 0.172637278618484 
1893	 0.171054109855263 
1894	 0.169463431753218 
1895	 0.167868540485723 
1896	 0.166244915731872 
1897	 0.164683479447541 
1898	 0.163145851861208 
1899	 0.161630340234674 
1900	 0.160201289322536 
1901	 0.158789368183997 
1902	 0.15744702941786 
1903	 0.156167663584798 
1904	 0.154947786709774 
1905	 0.153770442223404 
1906	 0.152699786380894 
1907	 0.151682563306562 
1908	 0.15070621928972 
1909	 0.149846421899504 
1910	 0.149013257566825 
1911	 0.148221607018089 
1912	 0.147513312575642 
1913	 0.146831800496309 
1914	 0.146174473041933 
1915	 0.14558348631781 
1916	 0.145052424396842 
1917	 0.144551877937492 
1918	 0.144112744066063 
1919	 0.143718966499321 
1920	 0.143346474013623 
1921	 0.14301807959206 
1922	 0.142728549626079 
1923	 0.142460077582392 
1924	 0.142209111380785 
1925	 0.141975800639501 
1926	 0.141788065548019 
1927	 0.141627536969268 
1928	 0.141491463964233 
1929	 0.141393757803548 
1930	 0.141318817181735 
1931	 0.141237393085617 
1932	 0.141185756132111 
1933	 0.141170704656079 
1934	 0.141192904468558 
1935	 0.141222034188735 
1936	 0.141278304576524 
1937	 0.141337056417702 
1938	 0.141399195170067 
1939	 0.141483977829298 
1940	 0.141584674834557 
1941	 0.141704784591835 
1942	 0.14184674662168 
1943	 0.141999568162186 
1944	 0.142139233374636 
1945	 0.142312031750437 
1946	 0.142492174178734 
1947	 0.142680148704883 
1948	 0.14287779339226 
1949	 0.143098798539441 
1950	 0.143312761359368 
1951	 0.143530901646777 
1952	 0.143747987074947 
1953	 0.143964936154951 
1954	 0.144205888778802 
1955	 0.144420514512165 
1956	 0.144638411529387 
1957	 0.144874256575457 
1958	 0.145104998564684 
1959	 0.145358659588417 
1960	 0.145637251583077 
1961	 0.145919019501323 
1962	 0.146216096140316 
1963	 0.146519675948588 
1964	 0.146825609738372 
1965	 0.147152257765108 
1966	 0.147491734887351 
1967	 0.147819289543949 
1968	 0.14815509356252 
1969	 0.148501092035225 
1970	 0.148839926664191 
1971	 0.149175395275816 
1972	 0.149517037036996 
1973	 0.149854445116713 
1974	 0.150202733983709 
1975	 0.150557722640716 
1976	 0.150923640332555 
1977	 0.151283475606741 
1978	 0.151640300513194 
1979	 0.151990513826316 
1980	 0.152330340106305 
1981	 0.152670994541718 
1982	 0.153004471988195 
1983	 0.153346011731716 
1984	 0.153688732818414 
1985	 0.154029211778895 
1986	 0.154373092756743 
1987	 0.154718480774326 
1988	 0.155067296490742 
1989	 0.155410458733795 
1990	 0.155747583086581 
1991	 0.156063908982663 
1992	 0.15638969263903 
1993	 0.156702372374019 
1994	 0.157026983877811 
1995	 0.157357205194821 
1996	 0.157694754131688 
1997	 0.158039380224453 
1998	 0.15837774566685 
1999	 0.158729221995357 
2000	 0.159064985041721 
2001	 0.159386995276464 
2002	 0.159711160519676 
2003	 0.160017150663958 
2004	 0.160346930853497 
2005	 0.160663586739977 
2006	 0.160975935007978 
2007	 0.161287585313986 
2008	 0.161594951076135 
2009	 0.161902366811212 
2010	 0.162216123951928 
2011	 0.16251932912021 
2012	 0.162813699364151 
2013	 0.163112919109698 
2014	 0.163411335610793 
2015	 0.163705856960419 
2016	 0.163991392393696 
2017	 0.164261507466457 
2018	 0.164547277112947 
2019	 0.164821363043542 
2020	 0.165110864400004 
2021	 0.165432991971594 
2022	 0.165724118475142 
2023	 0.165998701825154 
2024	 0.16628241031399 
2025	 0.166559588531491 
2026	 0.166833118584688 
2027	 0.167119384576909 
2028	 0.167386252372541 
2029	 0.167649976164482 
2030	 0.167904016060673 
2031	 0.16814946248487 
2032	 0.168389288453685 
2033	 0.168625505835622 
2034	 0.168845916046144 
2035	 0.169073110471118 
2036	 0.169291637610391 
2037	 0.169524436030739 
2038	 0.169785043079719 
2039	 0.17001224099533 
2040	 0.170242428247499 
2041	 0.170452099708854 
2042	 0.170624758893549 
2043	 0.170775908287188 
2044	 0.170949203085848 
2045	 0.171115185644063 
2046	 0.171297485537415 
2047	 0.17149940233351 
2048	 0.171687760805723 
2049	 0.171882843010091 
2050	 0.172066292061415 
2051	 0.172231880502726 
2052	 0.172410826860721 
2053	 0.172597760830177 
2054	 0.17277340687982 
2055	 0.172951112538306 
2056	 0.173121437534376 
2057	 0.173298430731834 
2058	 0.173475176412649 
2059	 0.173636821605756 
2060	 0.17379652856025 
2061	 0.173957004005955 
2062	 0.174103081961081 
2063	 0.174249064681292 
2064	 0.174401455272944 
2065	 0.174552655369536 
2066	 0.174690808797736 
2067	 0.174833618589782 
2068	 0.174994838272035 
2069	 0.175136567055228 
2070	 0.175273706821164 
2071	 0.175400677560232 
2072	 0.175531692904966 
2073	 0.175664190680032 
2074	 0.175781276815441 
2075	 0.175874025929821 
2076	 0.176001715997994 
2077	 0.176128264777792 
2078	 0.176269851295512 
2079	 0.176451306262383 
2080	 0.176614411477583 
2081	 0.176789782446568 
2082	 0.176934983965238 
2083	 0.177063778070805 
2084	 0.177183311965042 
2085	 0.177304991971942 
2086	 0.177398375305779 
2087	 0.17752241608569 
2088	 0.177666220649048 
2089	 0.177801785876599 
2090	 0.177953824189729 
2091	 0.178074005627882 
2092	 0.178176117240775 
2093	 0.178285283186995 
2094	 0.178361546930026 
2095	 0.178471654381165 
2096	 0.178617694899887 
2097	 0.178742061818178 
2098	 0.178864678201822 
2099	 0.178987177293747 
2100	 0.179123043146378 
2101	 0.179251627872903 
2102	 0.179397023638688 
2103	 0.179580658220684 
2104	 0.179718484130704 
2105	 0.179841112155671 
2106	 0.179956036096686 
2107	 0.18005439734933 
2108	 0.180145083060326 
2109	 0.180207993427402 
2110	 0.180299208868233 
2111	 0.180376114579001 
2112	 0.180481023711855 
2113	 0.180608673871985 
2114	 0.180767727014635 
2115	 0.180907726471235 
2116	 0.181062308666586 
2117	 0.181195259565672 
2118	 0.181318175394061 
2119	 0.181438670812771 
2120	 0.181561866452947 
2121	 0.181657410335891 
2122	 0.181712210074739 
2123	 0.181815663254771 
2124	 0.181936954676132 
2125	 0.182034668001442 
2126	 0.182171819573663 
2127	 0.182266947901224 
2128	 0.182314921419204 
2129	 0.182359657486122 
2130	 0.182383174604191 
2131	 0.182407606271366 
2132	 0.182449653529959 
2133	 0.182497793001651 
2134	 0.182521217169153 
2135	 0.182557999451344 
2136	 0.182570037136045 
2137	 0.182541089465266 
2138	 0.182530656744541 
2139	 0.182526208478507 
2140	 0.18251732598512 
2141	 0.182513906038517 
2142	 0.182487221197933 
2143	 0.182457548691251 
2144	 0.182412860951546 
2145	 0.182344114699124 
2146	 0.182268491212211 
2147	 0.182185788133019 
2148	 0.182088959834112 
2149	 0.18199087197413 
2150	 0.181881163485497 
2151	 0.181771784426424 
2152	 0.181657185061241 
2153	 0.181543786437977 
2154	 0.181429844286272 
2155	 0.181307303169663 
2156	 0.181180393220522 
2157	 0.18105384460571 
2158	 0.180931838452589 
2159	 0.18078706687782 
2160	 0.180634174455232 
2161	 0.180475725194315 
2162	 0.180307526606006 
2163	 0.180117782950028 
2164	 0.179907277136757 
2165	 0.179703129624901 
2166	 0.179492468467326 
2167	 0.179254740204178 
2168	 0.179043806526847 
2169	 0.178845721041663 
2170	 0.178649530353545 
2171	 0.178453783695522 
2172	 0.178267357925517 
2173	 0.178100515755139 
2174	 0.177919331319851 
2175	 0.177751023524461 
2176	 0.17755547350089 
2177	 0.177324620671898 
2178	 0.177116534201949 
2179	 0.176907835194041 
2180	 0.176695077134412 
2181	 0.176494489320157 
2182	 0.176292503520011 
2183	 0.176087201734814 
2184	 0.175865857722742 
2185	 0.17565814842664 
2186	 0.175465974416833 
2187	 0.175251219485818 
2188	 0.175016149847306 
2189	 0.174808734812563 
2190	 0.174599528738367 
2191	 0.174399311919531 
2192	 0.174217047496546 
2193	 0.174040640057526 
2194	 0.173863501475756 
2195	 0.17369754356386 
2196	 0.173552803465397 
2197	 0.17340298260355 
2198	 0.173243948534743 
2199	 0.173105280058333 
2200	 0.172987609501774 
2201	 0.172862278059324 
2202	 0.17273650587303 
2203	 0.172627747395616 
2204	 0.172516366721402 
2205	 0.172398371379204 
2206	 0.172295974993101 
2207	 0.172198832276445 
2208	 0.172124753459948 
2209	 0.172068198576395 
2210	 0.172011934811842 
2211	 0.17197323591186 
2212	 0.17193589775111 
2213	 0.171911836549574 
2214	 0.171867407549233 
2215	 0.171815260889139 
2216	 0.171774896355963 
2217	 0.17172572026868 
2218	 0.171678323476409 
2219	 0.17164875961581 
2220	 0.17161343586545 
2221	 0.171573303961826 
2222	 0.171514811127562 
2223	 0.171494552975553 
2224	 0.171473164759083 
2225	 0.171443397955313 
2226	 0.171413018703762 
2227	 0.171394624137039 
2228	 0.171374230669973 
2229	 0.17135600153158 
2230	 0.171360542954298 
2231	 0.171338290212966 
2232	 0.171316097545448 
2233	 0.17125468354044 
2234	 0.171149192566009 
2235	 0.171073023663383 
2236	 0.170985603848112 
2237	 0.170897177873669 
2238	 0.170844087109485 
2239	 0.170752220096938 
2240	 0.170645992452497 
2241	 0.1705006376247 
2242	 0.170318483905798 
2243	 0.17013237264491 
2244	 0.169932922643932 
2245	 0.169677545211974 
2246	 0.169451636718146 
2247	 0.169215389203284 
2248	 0.168948157242531 
2249	 0.168667319756691 
2250	 0.168347361488413 
2251	 0.167972116582497 
2252	 0.167648104537581 
2253	 0.167302928770079 
2254	 0.166993342864838 
2255	 0.166715999171498 
2256	 0.166446172947076 
2257	 0.166164833151439 
2258	 0.165945918595623 
2259	 0.16577155715191 
2260	 0.165617241274187 
2261	 0.165481391824713 
2262	 0.165402321723975 
2263	 0.165390768221742 
2264	 0.165365295009101 
2265	 0.165390932389875 
2266	 0.16540338042766 
2267	 0.165386149851681 
2268	 0.165397457779905 
2269	 0.16540949559706 
2270	 0.165465785853484 
2271	 0.165567516433957 
2272	 0.165701585116621 
2273	 0.165868785163285 
2274	 0.166014367911125 
2275	 0.166170197508774 
2276	 0.166314381421659 
2277	 0.166479602891814 
2278	 0.166651852185932 
2279	 0.166863281487467 
2280	 0.167109777550089 
2281	 0.167322773425232 
2282	 0.167567325876589 
2283	 0.167776627983479 
2284	 0.167950374229754 
2285	 0.168124573141008 
2286	 0.168301278604051 
2287	 0.168449939896909 
2288	 0.168589002612942 
2289	 0.168683965839215 
2290	 0.168752022266003 
2291	 0.168798088449401 
2292	 0.16878437102242 
2293	 0.16878738927426 
2294	 0.168768426376355 
2295	 0.168761728539842 
2296	 0.168754737681764 
2297	 0.168759312681489 
2298	 0.168755855538877 
2299	 0.168810547148004 
2300	 0.168866829456338 
2301	 0.168903012846869 
2302	 0.168940846170254 
2303	 0.168957654700001 
2304	 0.168974522958512 
2305	 0.169007070320975 
2306	 0.169026103941692 
2307	 0.169046428191828 
2308	 0.16906818227167 
2309	 0.169075346957965 
2310	 0.169101162994244 
2311	 0.169155314464784 
2312	 0.169172496258948 
2313	 0.169196199022583 
2314	 0.169172221487214 
2315	 0.169106765458879 
2316	 0.169044597018996 
2317	 0.168938914560316 
2318	 0.168869395140673 
2319	 0.168811635452356 
2320	 0.168740556613989 
2321	 0.168675516577987 
2322	 0.168608426015637 
2323	 0.168527191331743 
2324	 0.168462644766134 
2325	 0.168423336459022 
2326	 0.168379112257474 
2327	 0.168345066662815 
2328	 0.168276633793597 
2329	 0.168230987173719 
2330	 0.168153971944392 
2331	 0.168090671615853 
2332	 0.168067062103685 
2333	 0.168012065199458 
2334	 0.167913890051107 
2335	 0.167805532827071 
2336	 0.167674814548467 
2337	 0.167518938121483 
2338	 0.167398613882671 
2339	 0.167307277727138 
2340	 0.167219405740372 
2341	 0.167192612575008 
2342	 0.167136747950579 
2343	 0.166998767634581 
2344	 0.166858846160858 
2345	 0.166717624202565 
2346	 0.16654317789196 
2347	 0.166392146183674 
2348	 0.166241495746616 
2349	 0.166130268267257 
2350	 0.166064514372267 
2351	 0.165943783338925 
2352	 0.165835573185957 
2353	 0.165673212023945 
2354	 0.165442183764394 
2355	 0.165244763284025 
2356	 0.165037676204549 
2357	 0.164870628203052 
2358	 0.164737336325287 
2359	 0.164533218138324 
2360	 0.164289651207795 
2361	 0.164102028222954 
2362	 0.163910857204216 
2363	 0.163716784430251 
2364	 0.163608765798546 
2365	 0.163423653288308 
2366	 0.163153004437387 
2367	 0.162899091488357 
2368	 0.162611076197172 
2369	 0.162360664879394 
2370	 0.162109015445683 
2371	 0.161877819762926 
2372	 0.161753508187435 
2373	 0.161580892900683 
2374	 0.161337601637362 
2375	 0.161186647395601 
2376	 0.160925442342487 
2377	 0.160576863473132 
2378	 0.160281198856793 
2379	 0.159940099673696 
2380	 0.159637880836368 
2381	 0.159415697630343 
2382	 0.159137737254579 
2383	 0.158826379204784 
2384	 0.15853368590709 
2385	 0.158219659628595 
2386	 0.157993553357004 
2387	 0.157777504706839 
2388	 0.157482463755414 
2389	 0.157152617288778 
2390	 0.156812190188901 
2391	 0.156548326399053 
2392	 0.156243229882283 
2393	 0.155957360463526 
2394	 0.155698200967998 
2395	 0.155349312513133 
2396	 0.155030267286856 
2397	 0.15475217022946 
2398	 0.154451607033761 
2399	 0.154153323908464 
2400	 0.153931116227441 
2401	 0.153728116850929 
2402	 0.153459496818976 
2403	 0.15315889909771 
2404	 0.152862824746594 
2405	 0.152604115636163 
2406	 0.152343248453104 
2407	 0.15206136116831 
2408	 0.151861263682431 
2409	 0.151587424763865 
2410	 0.151314546610085 
2411	 0.151160112367415 
2412	 0.150845952946701 
2413	 0.150575574562387 
2414	 0.150347534885225 
2415	 0.150098482953213 
2416	 0.14986773696331 
2417	 0.149648176905622 
2418	 0.149408051704373 
2419	 0.149173654130823 
2420	 0.148939325260636 
2421	 0.148744636143879 
2422	 0.148528376273702 
2423	 0.148291120221206 
2424	 0.148027665404021 
2425	 0.147685728231376 
2426	 0.147436631687852 
2427	 0.1472702181598 
2428	 0.147000634091511 
2429	 0.146785782326487 
2430	 0.146497802408798 
2431	 0.146025342061993 
2432	 0.145704275122611 
2433	 0.145448281492437 
2434	 0.145123031805289 
2435	 0.14487701872448 
2436	 0.144511772446 
2437	 0.143962001013049 
2438	 0.143583138023084 
2439	 0.14324292814896 
2440	 0.142932920379965 
2441	 0.14276270036959 
2442	 0.142569422920045 
2443	 0.142356561926439 
2444	 0.142100882438158 
2445	 0.141826843529572 
2446	 0.141511942872667 
2447	 0.141225401287633 
2448	 0.14086508015168 
2449	 0.140464567868062 
2450	 0.140068449914912 
2451	 0.139512075507844 
2452	 0.13905387362582 
2453	 0.138654504610359 
2454	 0.138277962638338 
2455	 0.137990792675508 
2456	 0.137665691462241 
2457	 0.137318025438204 
2458	 0.136999540027086 
2459	 0.136659052591571 
2460	 0.136363603221827 
2461	 0.136141236579519 
2462	 0.135905312116436 
2463	 0.135683498373295 
2464	 0.135438088835799 
2465	 0.135199797637048 
2466	 0.134953443034783 
2467	 0.134707088626705 
2468	 0.134453514819976 
2469	 0.134202455326239 
2470	 0.133846818634033 
2471	 0.133374475526109 
2472	 0.133099652677528 
2473	 0.132916315821577 
2474	 0.132686097027109 
2475	 0.132602729915942 
2476	 0.132319112796702 
2477	 0.13206085078213 
2478	 0.132099269843406 
2479	 0.132017836108086 
2480	 0.131844988993333 
2481	 0.131548716646272 
2482	 0.130964458009615 
2483	 0.130399360483619 
2484	 0.130152976349883 
2485	 0.129883609212746 
2486	 0.12953098534577 
2487	 0.129314096359954 
2488	 0.129018091489494 
2489	 0.128829878380911 
2490	 0.128801518212735 
2491	 0.128631323347725 
2492	 0.12831428424106 
2493	 0.127883944899671 
2494	 0.127693253408286 
2495	 0.127494183471907 
2496	 0.127020624138933 
2497	 0.126926572642255 
2498	 0.126704026870778 
2499	 0.126247744077457 
2500	 0.126420289925856 
