Wavelength	LMW_2000000.asd
350	 4.73626387647805E-02 
351	 4.68761732007566E-02 
352	 4.91362695101704E-02 
353	 4.88654590049828E-02 
354	 4.08606403029427E-02 
355	 4.14373278990515E-02 
356	 4.56483174583644E-02 
357	 4.60049137765091E-02 
358	 4.84799480279398E-02 
359	 4.59959425811445E-02 
360	 4.27206175112215E-02 
361	 4.81849167870488E-02 
362	 4.54967875719094E-02 
363	 4.34373443143925E-02 
364	 4.63284616220416E-02 
365	 4.67906747842411E-02 
366	 4.63811183948262E-02 
367	 0.046864046475959 
368	 4.87065311559794E-02 
369	 4.64972324615731E-02 
370	 0.046944367033068 
371	 5.01064095925804E-02 
372	 5.15629005319252E-02 
373	 5.35664712152263E-02 
374	 5.36103287454498E-02 
375	 5.20147365956363E-02 
376	 5.51867987445701E-02 
377	 5.27134318988326E-02 
378	 5.18761039581293E-02 
379	 5.94707873582504E-02 
380	 5.78006442975285E-02 
381	 5.39746299658619E-02 
382	 5.35272582585536E-02 
383	 5.89416227596401E-02 
384	 5.88920446359373E-02 
385	 5.76264368585116E-02 
386	 5.88346383101705E-02 
387	 6.08447963080674E-02 
388	 6.16557565539031E-02 
389	 6.13442692133134E-02 
390	 6.09219954874978E-02 
391	 6.13195420670014E-02 
392	 6.50462836251418E-02 
393	 6.97983069552081E-02 
394	 6.97944724976478E-02 
395	 6.86989144255753E-02 
396	 6.95714626139274E-02 
397	 7.29866911975792E-02 
398	 0.074896894132875 
399	 7.50706937655199E-02 
400	 7.54781590122754E-02 
401	 7.79959485024997E-02 
402	 7.85779902158256E-02 
403	 7.93648238810809E-02 
404	 8.05243774439659E-02 
405	 7.99933362883935E-02 
406	 8.04248448434216E-02 
407	 8.25970076413321E-02 
408	 8.53619402626195E-02 
409	 8.36865027186234E-02 
410	 8.20420784043753E-02 
411	 8.24010994886047E-02 
412	 8.48305610090264E-02 
413	 8.56497240531938E-02 
414	 0.085219621771363 
415	 0.084646853703023 
416	 8.54134948571051E-02 
417	 0.085607008790941 
418	 8.54507558646241E-02 
419	 8.55366328761883E-02 
420	 8.59241557665098E-02 
421	 8.54213480007083E-02 
422	 8.47289057452785E-02 
423	 8.54836281380733E-02 
424	 8.54071882921667E-02 
425	 0.085066629594158 
426	 8.48992038500218E-02 
427	 0.084350754937128 
428	 8.44643811842687E-02 
429	 8.43044358284072E-02 
430	 8.29903373937994E-02 
431	 8.32662722227987E-02 
432	 8.31924697877264E-02 
433	 8.24772840213458E-02 
434	 8.25528324586989E-02 
435	 8.24611811064478E-02 
436	 8.24719234860526E-02 
437	 8.27990248983873E-02 
438	 8.28694773797973E-02 
439	 8.32879925084262E-02 
440	 8.40555615095361E-02 
441	 8.48499771201822E-02 
442	 8.54142457104858E-02 
443	 8.61275524442212E-02 
444	 8.69461827368336E-02 
445	 8.70869487814176E-02 
446	 8.73251539494645E-02 
447	 8.77630284896448E-02 
448	 8.83042731471143E-02 
449	 8.88927233390201E-02 
450	 8.96929777407641E-02 
451	 9.05251287252856E-02 
452	 9.09388970657884E-02 
453	 9.09587272596213E-02 
454	 9.12499190511217E-02 
455	 0.092074455662311 
456	 9.25099182963219E-02 
457	 9.25561089527367E-02 
458	 9.25839416837419E-02 
459	 9.30487302818331E-02 
460	 9.34607410758103E-02 
461	 9.36562860501269E-02 
462	 9.36918855569651E-02 
463	 9.38783130571225E-02 
464	 9.39668149505318E-02 
465	 9.41348087582323E-02 
466	 9.45250274243523E-02 
467	 0.094679949840095 
468	 9.49324198307357E-02 
469	 9.52075236740488E-02 
470	 9.51317485343356E-02 
471	 9.52339601331737E-02 
472	 9.54051624861639E-02 
473	 0.095518202000032 
474	 9.56780378465846E-02 
475	 9.57741479456027E-02 
476	 9.57521873457221E-02 
477	 9.56471087862191E-02 
478	 9.59248668492529E-02 
479	 9.60516762739828E-02 
480	 0.095938948172655 
481	 0.096231549432631 
482	 9.62642752666383E-02 
483	 9.63092753779151E-02 
484	 9.66601945897445E-02 
485	 9.66388469023256E-02 
486	 9.64738272911654E-02 
487	 9.63924194499559E-02 
488	 9.65677995863573E-02 
489	 9.65840829483534E-02 
490	 9.66763707271528E-02 
491	 9.69527364949894E-02 
492	 9.69212851710909E-02 
493	 9.68760187931342E-02 
494	 9.68806182156821E-02 
495	 9.69128291883551E-02 
496	 9.71494237399328E-02 
497	 9.72665084990868E-02 
498	 9.71487846655752E-02 
499	 9.70428586519188E-02 
500	 9.70571393301354E-02 
501	 9.70767061872743E-02 
502	 9.69851132664235E-02 
503	 9.69969481361157E-02 
504	 9.70970369680749E-02 
505	 9.72509048854037E-02 
506	 9.74057890376744E-02 
507	 9.72516597918592E-02 
508	 9.71790771369579E-02 
509	 9.74239036932585E-02 
510	 9.74527803122227E-02 
511	 9.74325591897823E-02 
512	 9.73943431984138E-02 
513	 9.73199761429775E-02 
514	 9.73473163858893E-02 
515	 9.74659748396558E-02 
516	 9.76041339497452E-02 
517	 9.76219403940406E-02 
518	 9.75618451815901E-02 
519	 0.097537763461267 
520	 9.76330934839775E-02 
521	 9.76425874088102E-02 
522	 9.75938790023474E-02 
523	 9.75682982289716E-02 
524	 9.76817195141619E-02 
525	 9.75755376127607E-02 
526	 9.75013934226979E-02 
527	 9.76559247153284E-02 
528	 9.76221344305038E-02 
529	 9.75310974070603E-02 
530	 9.75082929209836E-02 
531	 0.097642219396053 
532	 9.76212819092203E-02 
533	 9.76307249213734E-02 
534	 9.77588729084767E-02 
535	 9.77433763746739E-02 
536	 9.76828134366603E-02 
537	 9.76799813083322E-02 
538	 0.097801686578876 
539	 9.78284090909315E-02 
540	 9.78296642790066E-02 
541	 9.78575605916915E-02 
542	 9.79103953151317E-02 
543	 9.79071724158516E-02 
544	 9.78845787840814E-02 
545	 9.78945774801255E-02 
546	 9.78970201115584E-02 
547	 9.79690310595378E-02 
548	 9.80611757257647E-02 
549	 9.80271934826496E-02 
550	 9.80185516614771E-02 
551	 9.80782598038229E-02 
552	 9.81922356261645E-02 
553	 9.82625829652979E-02 
554	 9.83012601113473E-02 
555	 9.83335279548363E-02 
556	 9.83991601601666E-02 
557	 9.85818214086306E-02 
558	 9.87032523853099E-02 
559	 9.87174630260029E-02 
560	 9.88623544749335E-02 
561	 9.89492492164967E-02 
562	 0.099044600443511 
563	 9.92467649676239E-02 
564	 0.099340186739822 
565	 9.94218249331492E-02 
566	 9.95350581198951E-02 
567	 9.96432080518272E-02 
568	 9.98105869195261E-02 
569	 0.100029575333267 
570	 0.10025751779789 
571	 0.100396974770841 
572	 0.10055053436828 
573	 0.100772950312982 
574	 0.101066423062592 
575	 0.101250527784436 
576	 0.101404599834876 
577	 0.101594906457878 
578	 0.101762881087501 
579	 0.101935256463036 
580	 0.102087622930275 
581	 0.10219342041719 
582	 0.102356470862548 
583	 0.10255948632457 
584	 0.102759525185726 
585	 0.102891238021269 
586	 0.103112476598413 
587	 0.10340627248209 
588	 0.103688114269272 
589	 0.103833734697872 
590	 0.104018543787082 
591	 0.104301042345533 
592	 0.104617903788569 
593	 0.104850644077088 
594	 0.105065036102323 
595	 0.105314835087759 
596	 0.105515024658293 
597	 0.105688841170528 
598	 0.105827701797364 
599	 0.105917372846744 
600	 0.106028939002848 
601	 0.106163169883025 
602	 0.106294959687783 
603	 0.106367488375618 
604	 0.106451005971884 
605	 0.106572799203514 
606	 0.106730205827189 
607	 0.106853062378144 
608	 0.106971891393738 
609	 0.107101507819408 
610	 0.107231264653891 
611	 0.10733131656013 
612	 0.107408496199887 
613	 0.107470788506792 
614	 0.107489726178643 
615	 0.107527050594747 
616	 0.107583187384625 
617	 0.107621197418733 
618	 0.107731118710624 
619	 0.10780078480816 
620	 0.107776483624006 
621	 0.10778546827107 
622	 0.107840853765877 
623	 0.107883254876813 
624	 0.107845290195491 
625	 0.10785670301569 
626	 0.107875254202021 
627	 0.107893359191435 
628	 0.107968333235845 
629	 0.107987199727676 
630	 0.107991144178235 
631	 0.108030343810649 
632	 0.108005545507068 
633	 0.108022537725556 
634	 0.108056691101334 
635	 0.107988633681407 
636	 0.10802133355294 
637	 0.10804923215175 
638	 0.107997800675933 
639	 0.107997622522593 
640	 0.108029180203488 
641	 0.108068935709559 
642	 0.108091016728767 
643	 0.10810958569386 
644	 0.108101826100276 
645	 0.10807188406653 
646	 0.108066922540604 
647	 0.108048752049124 
648	 0.108050591655538 
649	 0.108096972060278 
650	 0.108094019186882 
651	 0.108064999140568 
652	 0.108048935885361 
653	 0.108088897334694 
654	 0.108106196375099 
655	 0.108093033983725 
656	 0.108069505167808 
657	 0.108086422642551 
658	 0.108141536955768 
659	 0.108180184273779 
660	 0.108141000052291 
661	 0.108129365127428 
662	 0.108122005155687 
663	 0.108128104555292 
664	 0.108224849503865 
665	 0.10826989338957 
666	 0.108253220168041 
667	 0.108217366633205 
668	 0.108231813377023 
669	 0.108287177736758 
670	 0.108340175778591 
671	 0.108329870895595 
672	 0.108347236142043 
673	 0.10839922927444 
674	 0.108460893926253 
675	 0.108465367426412 
676	 0.108497977078993 
677	 0.108522312757569 
678	 0.108476059580932 
679	 0.108506822144788 
680	 0.108564682730271 
681	 0.108614143227026 
682	 0.108661893840683 
683	 0.108703264235275 
684	 0.108732058745445 
685	 0.108756407563526 
686	 0.108835557815199 
687	 0.108925436201075 
688	 0.108982408444791 
689	 0.108974408766539 
690	 0.108979897875277 
691	 0.109002853921105 
692	 0.109041560948907 
693	 0.109113724750175 
694	 0.109144227180373 
695	 0.109159181839398 
696	 0.109208948859959 
697	 0.109249406140773 
698	 0.109269876195697 
699	 0.10928634158019 
700	 0.109338522776059 
701	 0.109395565712488 
702	 0.109434789326568 
703	 0.10944968705844 
704	 0.10946777865376 
705	 0.109518905358449 
706	 0.109580511716169 
707	 0.109606886915037 
708	 0.109620392201152 
709	 0.109643821758297 
710	 0.109677932932512 
711	 0.10969142711686 
712	 0.109722848501318 
713	 0.109749050555211 
714	 0.109750002031905 
715	 0.109789293800127 
716	 0.109790743163643 
717	 0.109774331623249 
718	 0.10982195434668 
719	 0.109844595336002 
720	 0.109865752723947 
721	 0.109890640907741 
722	 0.109854087266961 
723	 0.109829596236739 
724	 0.109840255070785 
725	 0.109875100552539 
726	 0.109853512228913 
727	 0.1098438863127 
728	 0.109853686516623 
729	 0.109830958595639 
730	 0.1098355009832 
731	 0.109832912029687 
732	 0.109803728723575 
733	 0.1098041454482 
734	 0.109819408133925 
735	 0.109799146734361 
736	 0.109710018121871 
737	 0.109720709458896 
738	 0.109712042871831 
739	 0.109669020182105 
740	 0.10970752295886 
741	 0.109678363934918 
742	 0.109616468002831 
743	 0.109569070978289 
744	 0.109496210957454 
745	 0.109485248985158 
746	 0.109490153125315 
747	 0.109419029521009 
748	 0.109352269918426 
749	 0.109311096386631 
750	 0.109284108496009 
751	 0.109228064914294 
752	 0.109168118889839 
753	 0.109114324583211 
754	 0.109066933867868 
755	 0.109006900768321 
756	 0.108950370908809 
757	 0.10889782493432 
758	 0.108842763761358 
759	 0.108796757099762 
760	 0.108718951771877 
761	 0.108615664677914 
762	 0.108555548416116 
763	 0.108480770155903 
764	 0.108388786400942 
765	 0.108297268804892 
766	 0.10824594250623 
767	 0.108176397167848 
768	 0.1080975646722 
769	 0.108042631720729 
770	 0.107947959509159 
771	 0.107871530381791 
772	 0.107821017658692 
773	 0.107733509385521 
774	 0.107657669103281 
775	 0.107580713180538 
776	 0.107487954377909 
777	 0.107397083746923 
778	 0.107289700394404 
779	 0.107205828032996 
780	 0.107185553422678 
781	 0.107094951563883 
782	 0.10701906182356 
783	 0.106962036882471 
784	 0.106832304394637 
785	 0.10675270786216 
786	 0.106695501914455 
787	 0.10662205160465 
788	 0.106538509483633 
789	 0.106479054080569 
790	 0.1064029814141 
791	 0.106271489275618 
792	 0.106215932845829 
793	 0.106137499338439 
794	 0.106031815263623 
795	 0.105976444673732 
796	 0.105861943204458 
797	 0.105768696037143 
798	 0.105730638878899 
799	 0.105644163651932 
800	 0.10554857653522 
801	 0.105445805219064 
802	 0.10534064717263 
803	 0.105286802056591 
804	 0.105231806335654 
805	 0.10513931047473 
806	 0.10500133966733 
807	 0.104923271117085 
808	 0.104859438060928 
809	 0.104782970697127 
810	 0.104714789576774 
811	 0.104684255067228 
812	 0.104630985372491 
813	 0.104520574698035 
814	 0.104442479544354 
815	 0.104363814509601 
816	 0.104294109170024 
817	 0.104250581239196 
818	 0.104208579759427 
819	 0.104129981432939 
820	 0.104028752976341 
821	 0.103958890915061 
822	 0.10388177894275 
823	 0.103813352204175 
824	 0.103759682454814 
825	 0.103699217729922 
826	 0.103622478724952 
827	 0.10354176957454 
828	 0.103474117879599 
829	 0.10343029927897 
830	 0.103375321545258 
831	 0.103307825670352 
832	 0.103243946168536 
833	 0.103187771191235 
834	 0.103138905677902 
835	 0.103088499469011 
836	 0.103023291277524 
837	 0.102969939770865 
838	 0.102924023751274 
839	 0.102868010293703 
840	 0.102770485603294 
841	 0.102720214885686 
842	 0.102711080503068 
843	 0.102705328192304 
844	 0.102662688005594 
845	 0.102612452513599 
846	 0.102557952103422 
847	 0.102493777053505 
848	 0.102434833448659 
849	 0.102386587888727 
850	 0.102342395153599 
851	 0.102287454658626 
852	 0.102229344422249 
853	 0.102170374038903 
854	 0.10213517684319 
855	 0.102177314685319 
856	 0.102113932279725 
857	 0.102053271549749 
858	 0.102078470140375 
859	 0.102018092477746 
860	 0.102021932241023 
861	 0.102024844121507 
862	 0.10193142560988 
863	 0.101863305462914 
864	 0.101779647284743 
865	 0.101724880555067 
866	 0.101770432749124 
867	 0.101791750091542 
868	 0.101773532243835 
869	 0.101724926753924 
870	 0.101671283936778 
871	 0.10164241770401 
872	 0.101652980915069 
873	 0.101670558588434 
874	 0.101598970692153 
875	 0.101576978248119 
876	 0.101573299301204 
877	 0.101543403621839 
878	 0.10152680097948 
879	 0.101492994238331 
880	 0.101473936731543 
881	 0.101500441864803 
882	 0.101511614702538 
883	 0.10150060090941 
884	 0.1014648324826 
885	 0.10141461531544 
886	 0.101410456584703 
887	 0.101408744886613 
888	 0.10139523355637 
889	 0.101390074712368 
890	 0.10142341677814 
891	 0.101435243336394 
892	 0.101414162198146 
893	 0.101418984913524 
894	 0.10136184622255 
895	 0.101335218246379 
896	 0.10138130059479 
897	 0.101392510350366 
898	 0.101368174305944 
899	 0.101354164782686 
900	 0.101378422240952 
901	 0.101382524776927 
902	 0.101398093809496 
903	 0.101394312129398 
904	 0.101353525150861 
905	 0.101378444458793 
906	 0.101438508083358 
907	 0.101472191468802 
908	 0.101439831207119 
909	 0.10147735947113 
910	 0.101506819219856 
911	 0.10153086971585 
912	 0.1015919939592 
913	 0.101573037361968 
914	 0.101559320647832 
915	 0.101571431802292 
916	 0.101557200352804 
917	 0.101494311644806 
918	 0.101507563715261 
919	 0.101591159230161 
920	 0.101583544449654 
921	 0.101600698160901 
922	 0.101607170164517 
923	 0.10160883062477 
924	 0.101698418946534 
925	 0.101764690881822 
926	 0.101807926265645 
927	 0.101816036796589 
928	 0.101710296018609 
929	 0.101798214661064 
930	 0.101946705748655 
931	 0.101983964841263 
932	 0.101929051333041 
933	 0.101958547144492 
934	 0.101984950286517 
935	 0.101928512258491 
936	 0.101974501013027 
937	 0.102034536231177 
938	 0.102078794114504 
939	 0.102107787564797 
940	 0.10215492340802 
941	 0.102243295100052 
942	 0.102302723602104 
943	 0.102274389070497 
944	 0.102293030065688 
945	 0.102277770283288 
946	 0.102295478912716 
947	 0.102418923763388 
948	 0.102441582586312 
949	 0.102488523966362 
950	 0.102520551292858 
951	 0.102473587178897 
952	 0.102622216765329 
953	 0.102669155553945 
954	 0.102616167611558 
955	 0.102629496181572 
956	 0.102658846238224 
957	 0.102749874489832 
958	 0.102839519248605 
959	 0.102837684197923 
960	 0.102898363436262 
961	 0.102964789874313 
962	 0.103014987260196 
963	 0.103046447694945 
964	 0.102960453601252 
965	 0.103024853284094 
966	 0.103200371831591 
967	 0.103261956177433 
968	 0.103343142207896 
969	 0.103264099119098 
970	 0.10316385786912 
971	 0.103316282804878 
972	 0.103381831880424 
973	 0.103394168279896 
974	 0.103418914763003 
975	 0.103504805672231 
976	 0.103584628516035 
977	 0.103568958739468 
978	 0.10348252109566 
979	 0.103438892754602 
980	 0.10357171694562 
981	 0.103704939765482 
982	 0.103733235307497 
983	 0.103663101012738 
984	 0.10369875123192 
985	 0.103784260912396 
986	 0.103788660511434 
987	 0.103657680540258 
988	 0.103842409896651 
989	 0.104013994534799 
990	 0.104023606233487 
991	 0.103907269464765 
992	 0.103900110966306 
993	 0.104030610312064 
994	 0.104173527806464 
995	 0.104184920811514 
996	 0.10414220666659 
997	 0.104089681166561 
998	 0.104086829422305 
999	 0.104136260931445 
1000	 0.104029305475583 
1001	 0.102524751019717 
1002	 0.102492451674251 
1003	 0.102499259086335 
1004	 0.102500655092058 
1005	 0.102542935104402 
1006	 0.102576440831148 
1007	 0.10259458404106 
1008	 0.102625537347546 
1009	 0.102705135928757 
1010	 0.102694693635488 
1011	 0.10273054008695 
1012	 0.102779332423283 
1013	 0.102740764473276 
1014	 0.102728984921882 
1015	 0.102707534795225 
1016	 0.10267445222226 
1017	 0.10267964962812 
1018	 0.102705148543492 
1019	 0.102729522894457 
1020	 0.10273402954493 
1021	 0.102690168023157 
1022	 0.102660825587192 
1023	 0.10271563389462 
1024	 0.102763640372692 
1025	 0.102774968802627 
1026	 0.102738185729818 
1027	 0.10267373366231 
1028	 0.102629966146962 
1029	 0.102636192555834 
1030	 0.102671564089418 
1031	 0.102671013337088 
1032	 0.102637200300309 
1033	 0.10262535997134 
1034	 0.102635587848127 
1035	 0.10262980995406 
1036	 0.102648101939208 
1037	 0.102666286203762 
1038	 0.102666099371388 
1039	 0.102667564294411 
1040	 0.102648572709077 
1041	 0.102622880072419 
1042	 0.102659571280405 
1043	 0.10263732655551 
1044	 0.102615661646072 
1045	 0.102590896447273 
1046	 0.102619988355251 
1047	 0.102560181945231 
1048	 0.102535131726095 
1049	 0.102559689618463 
1050	 0.102520480260021 
1051	 0.102525001333736 
1052	 0.102586151152861 
1053	 0.102628841161593 
1054	 0.10263069451956 
1055	 0.102603644503601 
1056	 0.102608663133611 
1057	 0.102631707100441 
1058	 0.102686224169257 
1059	 0.10271192783677 
1060	 0.102753436906661 
1061	 0.102775870516296 
1062	 0.102770552545588 
1063	 0.102764300882592 
1064	 0.102806863132005 
1065	 0.102802521469301 
1066	 0.102740999958626 
1067	 0.1027081935265 
1068	 0.102678029926141 
1069	 0.102688737647009 
1070	 0.102703109521984 
1071	 0.102764236786654 
1072	 0.102782397724944 
1073	 0.10278386220815 
1074	 0.102777301104384 
1075	 0.102750785145172 
1076	 0.10274040244495 
1077	 0.102721686920254 
1078	 0.102749585889534 
1079	 0.102761461595294 
1080	 0.102749494292552 
1081	 0.102769039890032 
1082	 0.102721653697992 
1083	 0.102707918218512 
1084	 0.102721665195115 
1085	 0.1027075300985 
1086	 0.102681942359749 
1087	 0.102674254940265 
1088	 0.102676003158158 
1089	 0.102620176084908 
1090	 0.102601896575989 
1091	 0.10259368003139 
1092	 0.102560847626583 
1093	 0.102563942526559 
1094	 0.102574810627117 
1095	 0.102581274346455 
1096	 0.10257458349086 
1097	 0.102521571246723 
1098	 0.102513408074268 
1099	 0.10252476298718 
1100	 0.102523610337276 
1101	 0.10255024792171 
1102	 0.102545266381823 
1103	 0.102528202189966 
1104	 0.10247642405222 
1105	 0.10241067559201 
1106	 0.102394979698313 
1107	 0.102378338269847 
1108	 0.102328339550098 
1109	 0.10231373438655 
1110	 0.102305688707132 
1111	 0.102275732993924 
1112	 0.102229864051807 
1113	 0.102211675612558 
1114	 0.102191491836881 
1115	 0.10216596876612 
1116	 0.102163007213014 
1117	 0.102155122551988 
1118	 0.102120414260013 
1119	 0.102108476201995 
1120	 0.102165629856504 
1121	 0.102167789894783 
1122	 0.102152171013454 
1123	 0.102165070362661 
1124	 0.102170650574102 
1125	 0.102162083573843 
1126	 0.102155297526822 
1127	 0.102166349317329 
1128	 0.102154983772299 
1129	 0.102108590270109 
1130	 0.102085048290381 
1131	 0.102073540797916 
1132	 0.10206098181976 
1133	 0.102057979394648 
1134	 0.102045978016796 
1135	 0.102035030473416 
1136	 0.102004984992052 
1137	 0.101999508530092 
1138	 0.101991011011652 
1139	 0.101977541353424 
1140	 0.101974658246528 
1141	 0.1019629663615 
1142	 0.101935549480436 
1143	 0.101913208762287 
1144	 0.101891087169301 
1145	 0.101882057326569 
1146	 0.101884780505253 
1147	 0.101869805788245 
1148	 0.10186246513826 
1149	 0.101840080098452 
1150	 0.101787462228277 
1151	 0.101752605333617 
1152	 0.101716847376359 
1153	 0.101676378610171 
1154	 0.101655252734686 
1155	 0.101649689556873 
1156	 0.101623879845033 
1157	 0.101604267516139 
1158	 0.101577674833862 
1159	 0.101529676897486 
1160	 0.101495756804698 
1161	 0.101475489526555 
1162	 0.101447026585279 
1163	 0.101391047589518 
1164	 0.101374987323448 
1165	 0.101383597108517 
1166	 0.101398626641549 
1167	 0.101386074395522 
1168	 0.101381042441949 
1169	 0.101362802609873 
1170	 0.101302337605448 
1171	 0.101278149540245 
1172	 0.101281939720524 
1173	 0.101266815969317 
1174	 0.10125193429927 
1175	 0.101227181309187 
1176	 0.101182972041285 
1177	 0.101161116441071 
1178	 0.101142406359018 
1179	 0.10112637379191 
1180	 0.101134456758799 
1181	 0.101126407921841 
1182	 0.101094491344108 
1183	 0.101086241300823 
1184	 0.101078034038714 
1185	 0.101074080063705 
1186	 0.101062310340598 
1187	 0.101058142898683 
1188	 0.101044622218795 
1189	 0.101013366078972 
1190	 0.100998108177735 
1191	 0.101000618705418 
1192	 0.100981974233243 
1193	 0.100950118135849 
1194	 0.100930051230958 
1195	 0.100895312735647 
1196	 0.1008776094095 
1197	 0.100880461539084 
1198	 0.100880751680155 
1199	 0.100883871796487 
1200	 0.100892537949428 
1201	 0.100896336741569 
1202	 0.100902269881324 
1203	 0.100903592323575 
1204	 0.100909075246107 
1205	 0.100896918407099 
1206	 0.100866270161818 
1207	 0.100852551192059 
1208	 0.100833218308208 
1209	 0.100820235743728 
1210	 0.10082505811508 
1211	 0.100819723377677 
1212	 0.10080692102332 
1213	 0.100796170382109 
1214	 0.10078594308322 
1215	 0.100775160314266 
1216	 0.100763858403066 
1217	 0.100752580787761 
1218	 0.10073807638043 
1219	 0.100717859259336 
1220	 0.10070888063835 
1221	 0.100702431988545 
1222	 0.100696461670006 
1223	 0.100705130191042 
1224	 0.100696607628896 
1225	 0.100676566521666 
1226	 0.100660813268875 
1227	 0.100637384187624 
1228	 0.10061968137904 
1229	 0.100608237678281 
1230	 0.100592790272497 
1231	 0.100577275266276 
1232	 0.100560125708542 
1233	 0.10054154073569 
1234	 0.100517714174521 
1235	 0.100503778096531 
1236	 0.100493855240358 
1237	 0.100481691419371 
1238	 0.100478120854466 
1239	 0.100462502131357 
1240	 0.100436343919676 
1241	 0.100418254057356 
1242	 0.100395766177238 
1243	 0.100380604777651 
1244	 0.100379191859544 
1245	 0.100364739557524 
1246	 0.10034501645984 
1247	 0.100327064992857 
1248	 0.100300787734765 
1249	 0.100280584556184 
1250	 0.100262922243825 
1251	 0.100239512083913 
1252	 0.100218329767812 
1253	 0.100197277690637 
1254	 0.100171445509123 
1255	 0.100145391456845 
1256	 0.100116853915408 
1257	 0.100079659317273 
1258	 0.10004676820181 
1259	 0.10001617940759 
1260	 9.99850165841526E-02 
1261	 9.99528569138206E-02 
1262	 0.099923239647556 
1263	 0.099891940174553 
1264	 9.98661091257611E-02 
1265	 9.98550535036537E-02 
1266	 0.099827674213136 
1267	 9.97979658711003E-02 
1268	 9.97547058945123E-02 
1269	 9.97243626772729E-02 
1270	 9.96844194271538E-02 
1271	 9.96554465352072E-02 
1272	 9.96438969933231E-02 
1273	 9.96210610669942E-02 
1274	 9.95818209462876E-02 
1275	 9.95673150808568E-02 
1276	 9.95668193579734E-02 
1277	 9.95632075270461E-02 
1278	 9.95769765298515E-02 
1279	 9.95779551313104E-02 
1280	 0.099562559649832 
1281	 9.95631461512946E-02 
1282	 9.95678638934567E-02 
1283	 9.95779005277923E-02 
1284	 9.95972222034905E-02 
1285	 9.96228206363136E-02 
1286	 9.96466340433022E-02 
1287	 9.96589068379193E-02 
1288	 9.96879270620451E-02 
1289	 9.97289393421137E-02 
1290	 9.97516586260128E-02 
1291	 9.97750293662039E-02 
1292	 9.97957687140839E-02 
1293	 9.98032905325142E-02 
1294	 9.98173380125121E-02 
1295	 9.98416802842089E-02 
1296	 9.98551475568316E-02 
1297	 9.98554500356532E-02 
1298	 9.98649555668334E-02 
1299	 9.98809244149686E-02 
1300	 9.98842533866648E-02 
1301	 9.98962126561178E-02 
1302	 0.099889961158516 
1303	 0.099861452729286 
1304	 9.98363904578586E-02 
1305	 9.98097750375952E-02 
1306	 9.97767616290286E-02 
1307	 9.97580100701234E-02 
1308	 9.97411195683061E-02 
1309	 9.97226826907981E-02 
1310	 9.97120513013205E-02 
1311	 9.96847151458226E-02 
1312	 9.96557443471961E-02 
1313	 9.96106343003975E-02 
1314	 9.95362427037801E-02 
1315	 9.94946454039181E-02 
1316	 9.94563987550587E-02 
1317	 9.94243939136722E-02 
1318	 0.099422550747721 
1319	 9.93969852322552E-02 
1320	 9.93529945623373E-02 
1321	 9.93183871804482E-02 
1322	 9.92817376019081E-02 
1323	 9.92532687043132E-02 
1324	 9.92124460712176E-02 
1325	 9.91707575825211E-02 
1326	 9.91309140429027E-02 
1327	 0.099078502643598 
1328	 9.90233727914511E-02 
1329	 9.89905938971041E-02 
1330	 9.89581135459256E-02 
1331	 9.89289817506647E-02 
1332	 9.88934276113975E-02 
1333	 9.88710202795612E-02 
1334	 9.88303280691491E-02 
1335	 9.87625244864055E-02 
1336	 9.87253798314246E-02 
1337	 9.87001320853982E-02 
1338	 9.86701541367683E-02 
1339	 9.86578060203675E-02 
1340	 9.86332909475594E-02 
1341	 9.85872132777928E-02 
1342	 9.85581211964301E-02 
1343	 0.098534433374041 
1344	 9.85202414088829E-02 
1345	 9.84920745789259E-02 
1346	 9.84888147266039E-02 
1347	 9.84754428327057E-02 
1348	 9.84350702911599E-02 
1349	 9.84084114329013E-02 
1350	 0.098378059601621 
1351	 9.83599846030238E-02 
1352	 9.83511218099497E-02 
1353	 9.83383139161446E-02 
1354	 0.098335374951243 
1355	 9.83196595044356E-02 
1356	 9.82942731207366E-02 
1357	 9.82693635358708E-02 
1358	 9.82358022842732E-02 
1359	 0.098215993879919 
1360	 9.82099837136587E-02 
1361	 9.81886265478334E-02 
1362	 9.81613010794381E-02 
1363	 0.098138334509208 
1364	 9.81094302351539E-02 
1365	 9.80789218523677E-02 
1366	 9.80529747291914E-02 
1367	 9.80320381316571E-02 
1368	 9.79983647891258E-02 
1369	 9.79503487801338E-02 
1370	 9.79001530050319E-02 
1371	 9.78535215218349E-02 
1372	 9.77982256347102E-02 
1373	 9.77572574818669E-02 
1374	 9.77055168483505E-02 
1375	 9.76462396264976E-02 
1376	 9.75975626758276E-02 
1377	 9.75506305656533E-02 
1378	 0.097495443143548 
1379	 9.74490993980282E-02 
1380	 9.73964845591799E-02 
1381	 9.73281158211213E-02 
1382	 9.72699953057404E-02 
1383	 9.72273956532462E-02 
1384	 9.71628351208469E-02 
1385	 9.70970111623332E-02 
1386	 9.70187679949974E-02 
1387	 9.69172425189706E-02 
1388	 9.68210716269918E-02 
1389	 9.67184970953308E-02 
1390	 9.66162835263596E-02 
1391	 9.65241674029068E-02 
1392	 9.64299810621519E-02 
1393	 9.63261891914585E-02 
1394	 9.62158359778733E-02 
1395	 9.60949198387743E-02 
1396	 9.59630321381401E-02 
1397	 9.58372993277806E-02 
1398	 9.57170373156446E-02 
1399	 9.55825028252316E-02 
1400	 9.54420894286943E-02 
1401	 9.53018236006976E-02 
1402	 9.51513454885158E-02 
1403	 9.50049528898776E-02 
1404	 9.48532242004339E-02 
1405	 9.47163869678686E-02 
1406	 9.45875725740873E-02 
1407	 9.44545921606453E-02 
1408	 0.094331797100195 
1409	 9.42048548496945E-02 
1410	 9.40679313993154E-02 
1411	 9.39386917642402E-02 
1412	 9.38085833741408E-02 
1413	 9.36940215107449E-02 
1414	 0.093574856225593 
1415	 9.34843958425864E-02 
1416	 9.34083450805078E-02 
1417	 9.33187235224224E-02 
1418	 9.32513967640857E-02 
1419	 9.31805134563023E-02 
1420	 9.31057524306197E-02 
1421	 0.093047085792543 
1422	 9.29754264023995E-02 
1423	 9.29049636133955E-02 
1424	 9.28480873647549E-02 
1425	 9.28032214734104E-02 
1426	 9.27485529748524E-02 
1427	 9.26955576882823E-02 
1428	 9.26506826281147E-02 
1429	 9.25981166201676E-02 
1430	 9.25610228721269E-02 
1431	 9.25475342960214E-02 
1432	 9.25166590193964E-02 
1433	 9.24847797993713E-02 
1434	 9.24513321661092E-02 
1435	 0.092412122107363 
1436	 9.23760555364763E-02 
1437	 9.23295563391375E-02 
1438	 0.092298220996845 
1439	 0.092280243549894 
1440	 9.22512417297857E-02 
1441	 9.22308626232066E-02 
1442	 9.22286103667468E-02 
1443	 9.22093363765598E-02 
1444	 9.21914400908175E-02 
1445	 9.21766922157594E-02 
1446	 9.21508269230499E-02 
1447	 9.21243655452532E-02 
1448	 9.20991699688813E-02 
1449	 9.20742115042485E-02 
1450	 9.20621383546793E-02 
1451	 9.20512993415502E-02 
1452	 9.20496905400488E-02 
1453	 9.20397435945582E-02 
1454	 9.20321344213991E-02 
1455	 9.20159552232731E-02 
1456	 9.19881434181853E-02 
1457	 0.091975897455895 
1458	 9.19690680224063E-02 
1459	 9.19580620191615E-02 
1460	 0.091951962124773 
1461	 9.19417655556016E-02 
1462	 9.19246263352544E-02 
1463	 9.19146582495261E-02 
1464	 9.19072362412991E-02 
1465	 9.19050644153147E-02 
1466	 9.19086591250396E-02 
1467	 9.19075941865792E-02 
1468	 9.19104527071924E-02 
1469	 9.19115139013546E-02 
1470	 9.19062972952968E-02 
1471	 0.091902558005182 
1472	 9.19179141457834E-02 
1473	 9.19398769390817E-02 
1474	 9.19723672092054E-02 
1475	 9.20020488133871E-02 
1476	 9.20032367001097E-02 
1477	 9.20078479662971E-02 
1478	 9.20135530573194E-02 
1479	 9.20100913371719E-02 
1480	 9.20290766326567E-02 
1481	 9.20468508231115E-02 
1482	 9.20666921998907E-02 
1483	 9.20979685247815E-02 
1484	 9.21122115397646E-02 
1485	 0.092117333849744 
1486	 9.21276202081198E-02 
1487	 9.21231490086781E-02 
1488	 9.21362920453386E-02 
1489	 9.21686379694361E-02 
1490	 9.21884382461523E-02 
1491	 9.22099386881624E-02 
1492	 9.22292776439313E-02 
1493	 0.092240265701831 
1494	 9.22492344791063E-02 
1495	 9.22565484871073E-02 
1496	 9.22669774268651E-02 
1497	 9.22768829121043E-02 
1498	 9.22896790499589E-02 
1499	 9.23082470075086E-02 
1500	 9.23239035478494E-02 
1501	 9.23301823708809E-02 
1502	 9.23458317159433E-02 
1503	 0.092372360596164 
1504	 9.23937916869964E-02 
1505	 9.24029612815879E-02 
1506	 9.24081792499076E-02 
1507	 9.23980911841534E-02 
1508	 9.23781713133227E-02 
1509	 9.23665771797027E-02 
1510	 9.23721272423481E-02 
1511	 9.23800195401698E-02 
1512	 9.23885080556491E-02 
1513	 9.23968499539595E-02 
1514	 0.092402578019196 
1515	 9.24202074875925E-02 
1516	 9.24275093482697E-02 
1517	 9.24264351784417E-02 
1518	 9.24207424919873E-02 
1519	 9.24176239470142E-02 
1520	 9.24007448489342E-02 
1521	 9.24009807984119E-02 
1522	 9.24167516899062E-02 
1523	 0.092416404936482 
1524	 9.24121883737359E-02 
1525	 9.24094666422162E-02 
1526	 0.092397225325963 
1527	 9.23980281355173E-02 
1528	 9.24127839209123E-02 
1529	 9.24148668173274E-02 
1530	 9.24126146686158E-02 
1531	 9.24116302373764E-02 
1532	 9.23998267204975E-02 
1533	 9.24020882897708E-02 
1534	 9.24189601166682E-02 
1535	 9.24287138655897E-02 
1536	 9.24422323251402E-02 
1537	 9.24493334665021E-02 
1538	 0.092448520935043 
1539	 9.24518125391971E-02 
1540	 9.24593970226947E-02 
1541	 9.24598292947691E-02 
1542	 0.092456014903778 
1543	 9.24522630572138E-02 
1544	 9.24404525659217E-02 
1545	 9.24347546696989E-02 
1546	 9.24370739527554E-02 
1547	 9.24328653809295E-02 
1548	 9.24191633005369E-02 
1549	 9.24157818187173E-02 
1550	 9.24079698037144E-02 
1551	 9.23939934575511E-02 
1552	 9.23795693924835E-02 
1553	 9.23678922021263E-02 
1554	 9.23562274458617E-02 
1555	 9.23272234728749E-02 
1556	 9.23187206112741E-02 
1557	 9.23156866368609E-02 
1558	 9.22918348111443E-02 
1559	 9.22950192088188E-02 
1560	 0.09229548980242 
1561	 9.22928136216648E-02 
1562	 9.22964255022029E-02 
1563	 9.23166047925495E-02 
1564	 9.23187768236102E-02 
1565	 9.23164557000036E-02 
1566	 9.23104639488227E-02 
1567	 9.22986374063099E-02 
1568	 9.22846664567874E-02 
1569	 9.22639108418174E-02 
1570	 9.22445641031593E-02 
1571	 9.22192476126413E-02 
1572	 9.22036933921301E-02 
1573	 9.21930254353297E-02 
1574	 9.21831827583988E-02 
1575	 9.21774313851393E-02 
1576	 9.21705051850994E-02 
1577	 9.21689028249929E-02 
1578	 9.21571627518697E-02 
1579	 9.21395782454653E-02 
1580	 9.21288731347883E-02 
1581	 9.21152291545083E-02 
1582	 9.21007745543625E-02 
1583	 9.20927662857035E-02 
1584	 9.20769748159725E-02 
1585	 9.20508721249054E-02 
1586	 9.20322476758574E-02 
1587	 9.20124228800897E-02 
1588	 9.20008011299548E-02 
1589	 9.19990781698984E-02 
1590	 9.19898185288591E-02 
1591	 9.19838501957051E-02 
1592	 9.19744003460678E-02 
1593	 9.19531973310072E-02 
1594	 9.19431349621929E-02 
1595	 9.19424952037874E-02 
1596	 9.19340624902845E-02 
1597	 9.19307798302575E-02 
1598	 9.19202288388404E-02 
1599	 9.18971828481708E-02 
1600	 9.18802701248471E-02 
1601	 9.18646329872585E-02 
1602	 9.18489967264464E-02 
1603	 9.18416599644807E-02 
1604	 9.18231421511588E-02 
1605	 9.17956610358543E-02 
1606	 0.091768652890389 
1607	 9.17339859404639E-02 
1608	 9.16959418176507E-02 
1609	 9.16768809474828E-02 
1610	 9.16614507534688E-02 
1611	 9.16553400935325E-02 
1612	 9.16508568936974E-02 
1613	 0.091626932112384 
1614	 9.16009149076605E-02 
1615	 9.15808498008656E-02 
1616	 9.15566188644558E-02 
1617	 9.15370657847304E-02 
1618	 9.15334796945526E-02 
1619	 9.15182291917096E-02 
1620	 9.14989032069798E-02 
1621	 9.14885396042552E-02 
1622	 9.14887333772393E-02 
1623	 9.14696248873947E-02 
1624	 9.14487604627666E-02 
1625	 0.091417771311295 
1626	 9.13639827953674E-02 
1627	 9.13383929049705E-02 
1628	 9.13251385433949E-02 
1629	 9.12974772115115E-02 
1630	 9.12676484189054E-02 
1631	 0.091257807650091 
1632	 9.12506375595165E-02 
1633	 9.12383163948259E-02 
1634	 9.12512610387971E-02 
1635	 0.091233531041361 
1636	 9.11834048864011E-02 
1637	 9.11563190028243E-02 
1638	 9.11349795443987E-02 
1639	 9.11112454536692E-02 
1640	 9.10923389789793E-02 
1641	 0.091066061605661 
1642	 9.10348305864526E-02 
1643	 9.10071051445893E-02 
1644	 9.09747888519095E-02 
1645	 9.09516085933782E-02 
1646	 0.090932778242081 
1647	 9.09163788196657E-02 
1648	 9.09103672947184E-02 
1649	 0.090891589562205 
1650	 9.08683300361421E-02 
1651	 9.08480919621167E-02 
1652	 9.08201859647228E-02 
1653	 9.07999046348404E-02 
1654	 9.07867328546345E-02 
1655	 9.07711061309989E-02 
1656	 9.07560092058556E-02 
1657	 9.07400901160518E-02 
1658	 9.07239291376272E-02 
1659	 9.07101259795842E-02 
1660	 9.06981174797252E-02 
1661	 9.06822957796628E-02 
1662	 9.06733698627334E-02 
1663	 9.06477374199011E-02 
1664	 9.06039677283975E-02 
1665	 9.05765843801335E-02 
1666	 9.05481414328438E-02 
1667	 9.05210434653374E-02 
1668	 9.05028716342356E-02 
1669	 9.04833628294825E-02 
1670	 9.04559907192583E-02 
1671	 0.090440251212451 
1672	 9.04498739685477E-02 
1673	 9.04232983281625E-02 
1674	 9.03773914071167E-02 
1675	 0.090342768227851 
1676	 9.02879135804647E-02 
1677	 9.02508321618505E-02 
1678	 9.02341053154923E-02 
1679	 9.02074085428897E-02 
1680	 9.01727430334596E-02 
1681	 9.01495185386686E-02 
1682	 9.01301222950357E-02 
1683	 9.01170197663641E-02 
1684	 9.01257842731135E-02 
1685	 9.01038924726826E-02 
1686	 9.00631492704722E-02 
1687	 9.00406924109214E-02 
1688	 9.00042294442194E-02 
1689	 8.99840077985904E-02 
1690	 0.089993172180335 
1691	 8.99826238380579E-02 
1692	 8.99621500643127E-02 
1693	 0.089944423239864 
1694	 8.99264828458202E-02 
1695	 8.99053193624166E-02 
1696	 8.98841197203113E-02 
1697	 8.98583812758917E-02 
1698	 8.98296808542111E-02 
1699	 8.97966832025181E-02 
1700	 8.97510038922918E-02 
1701	 8.97193770227017E-02 
1702	 8.96907780622283E-02 
1703	 8.96659444323598E-02 
1704	 8.96580169048931E-02 
1705	 8.96342604887998E-02 
1706	 8.96001915680455E-02 
1707	 8.95694863358355E-02 
1708	 8.95383267794275E-02 
1709	 0.089499757031768 
1710	 8.94522830656632E-02 
1711	 8.94245096209975E-02 
1712	 8.93989583479837E-02 
1713	 0.089371413681716 
1714	 8.93606943427177E-02 
1715	 0.08933930681311 
1716	 8.93056320461243E-02 
1717	 8.92777615703135E-02 
1718	 8.92586733586253E-02 
1719	 0.089228234471388 
1720	 8.91942893007839E-02 
1721	 8.91476658305234E-02 
1722	 8.90761695109239E-02 
1723	 8.90434036223266E-02 
1724	 8.90211708734472E-02 
1725	 8.89980824044345E-02 
1726	 8.90122797431914E-02 
1727	 8.89839214678069E-02 
1728	 8.89178295363268E-02 
1729	 8.88825259897977E-02 
1730	 8.88559098044005E-02 
1731	 8.88142509601555E-02 
1732	 8.87758276154241E-02 
1733	 8.87372891141788E-02 
1734	 8.86775565798374E-02 
1735	 8.86411816598084E-02 
1736	 8.86327233784864E-02 
1737	 8.85943843291122E-02 
1738	 8.85522962742784E-02 
1739	 8.85004539793277E-02 
1740	 8.84279478953311E-02 
1741	 8.83746531661008E-02 
1742	 8.83139317963348E-02 
1743	 8.82773414671272E-02 
1744	 8.82590324233253E-02 
1745	 8.82262044591179E-02 
1746	 8.82126125039525E-02 
1747	 0.088172956564888 
1748	 8.81156103835242E-02 
1749	 8.80772369670905E-02 
1750	 8.80380471716166E-02 
1751	 8.79981855388868E-02 
1752	 0.087979304754726 
1753	 8.79567931635898E-02 
1754	 8.79255939310999E-02 
1755	 8.79043569193709E-02 
1756	 8.78658589829853E-02 
1757	 8.78209876390156E-02 
1758	 8.77798250256649E-02 
1759	 8.77375944166764E-02 
1760	 8.76973273569599E-02 
1761	 8.76531424249925E-02 
1762	 0.087593770204802 
1763	 8.75229131814552E-02 
1764	 8.74814854015004E-02 
1765	 8.74448799267783E-02 
1766	 8.74006514213017E-02 
1767	 8.73776000593846E-02 
1768	 8.73465966434031E-02 
1769	 8.73247221898092E-02 
1770	 8.73182009179532E-02 
1771	 8.72861056561221E-02 
1772	 8.72433024681914E-02 
1773	 8.72162296019828E-02 
1774	 0.087190734861446 
1775	 8.71416335521942E-02 
1776	 8.70811478385215E-02 
1777	 8.70323068658075E-02 
1778	 8.69786032696147E-02 
1779	 8.69606521172134E-02 
1780	 8.69734673319278E-02 
1781	 8.69329375993043E-02 
1782	 8.68693876273343E-02 
1783	 8.67988624910795E-02 
1784	 8.67578177069804E-02 
1785	 8.67457381406684E-02 
1786	 8.67215753581344E-02 
1787	 8.67032902212757E-02 
1788	 8.66920433903145E-02 
1789	 8.66783344872008E-02 
1790	 8.66749511061579E-02 
1791	 8.66936050706738E-02 
1792	 8.66837442970719E-02 
1793	 8.66669258520903E-02 
1794	 0.086645034269755 
1795	 8.65962847295379E-02 
1796	 8.65644283906117E-02 
1797	 8.65404753509579E-02 
1798	 8.65204827504834E-02 
1799	 8.65126380897409E-02 
1800	 8.65019944441419E-02 
1801	 8.30766434668616E-02 
1802	 8.30951260563497E-02 
1803	 8.31331336504917E-02 
1804	 8.31605836490523E-02 
1805	 8.31875516457438E-02 
1806	 8.32060127884612E-02 
1807	 8.32129224799003E-02 
1808	 8.32149020942805E-02 
1809	 8.32048041252704E-02 
1810	 8.32196363474244E-02 
1811	 8.32447779568391E-02 
1812	 0.083246724912671 
1813	 8.32801247300874E-02 
1814	 0.083319067596781 
1815	 8.33001246708601E-02 
1816	 8.32832456036607E-02 
1817	 8.32668956643627E-02 
1818	 8.32215955406165E-02 
1819	 8.32088832304471E-02 
1820	 8.32122918820876E-02 
1821	 8.32183785709703E-02 
1822	 8.32283982299077E-02 
1823	 8.32284744369308E-02 
1824	 8.32206874743086E-02 
1825	 8.32134726828828E-02 
1826	 8.31895061817666E-02 
1827	 8.31813372560299E-02 
1828	 8.31697760396466E-02 
1829	 8.31520077075081E-02 
1830	 8.31297877182881E-02 
1831	 0.083111131757289 
1832	 8.30845899773536E-02 
1833	 8.30507051778023E-02 
1834	 8.30590604231586E-02 
1835	 8.30788217401426E-02 
1836	 8.30647160512385E-02 
1837	 8.30474494597911E-02 
1838	 8.30116532045071E-02 
1839	 8.29761093327071E-02 
1840	 8.29144690441383E-02 
1841	 8.29013221573747E-02 
1842	 8.28890935710522E-02 
1843	 8.28474077262221E-02 
1844	 8.28464649849946E-02 
1845	 8.28314352978575E-02 
1846	 8.27794146926755E-02 
1847	 8.27571313291958E-02 
1848	 8.27270629506879E-02 
1849	 8.26951690129457E-02 
1850	 8.26669248491396E-02 
1851	 8.26559881655368E-02 
1852	 8.26356961251024E-02 
1853	 8.26006494671299E-02 
1854	 0.082561817736284 
1855	 8.25289519324793E-02 
1856	 8.24903421866516E-02 
1857	 8.24452425225304E-02 
1858	 0.082405727519685 
1859	 8.23849223613852E-02 
1860	 8.23482243348236E-02 
1861	 8.23149027110535E-02 
1862	 8.22721416139687E-02 
1863	 8.22266871449682E-02 
1864	 8.21466659166952E-02 
1865	 8.20627780358632E-02 
1866	 8.20133076434013E-02 
1867	 8.19520056399883E-02 
1868	 8.18757933844241E-02 
1869	 8.18061363203887E-02 
1870	 8.17132919391231E-02 
1871	 8.16075481852163E-02 
1872	 8.14844588114042E-02 
1873	 8.13595265793815E-02 
1874	 8.12090658011464E-02 
1875	 8.10556505692985E-02 
1876	 8.09158585452201E-02 
1877	 8.07571445583068E-02 
1878	 8.05908490356395E-02 
1879	 8.04381077752974E-02 
1880	 8.02358739081662E-02 
1881	 0.079970609816446 
1882	 7.97352875684355E-02 
1883	 7.95001269499444E-02 
1884	 7.92281036140476E-02 
1885	 7.89756403591921E-02 
1886	 7.87256956532959E-02 
1887	 7.84213892206565E-02 
1888	 7.81214660950425E-02 
1889	 7.78121893360839E-02 
1890	 0.077470438590075 
1891	 7.71326589298255E-02 
1892	 7.67997137709527E-02 
1893	 7.64383219365457E-02 
1894	 7.60457492109984E-02 
1895	 7.56805293964546E-02 
1896	 7.52953139812574E-02 
1897	 0.074887653949138 
1898	 7.45029416948027E-02 
1899	 7.41170350202533E-02 
1900	 7.37302797798153E-02 
1901	 7.33489127755363E-02 
1902	 7.29776155972889E-02 
1903	 7.26027114898065E-02 
1904	 7.22515913967585E-02 
1905	 7.19116569517671E-02 
1906	 7.16036967238019E-02 
1907	 7.12916606047653E-02 
1908	 7.09878119941994E-02 
1909	 7.07249729192456E-02 
1910	 7.04693992006741E-02 
1911	 0.070222582217381 
1912	 6.99969798141399E-02 
1913	 6.97700488336681E-02 
1914	 6.95311099572386E-02 
1915	 6.93147112775705E-02 
1916	 6.91121604272247E-02 
1917	 6.89210594142651E-02 
1918	 0.068748292905208 
1919	 6.85670049534269E-02 
1920	 6.84189143748384E-02 
1921	 0.068305073762414 
1922	 6.81778454258372E-02 
1923	 6.80648148776562E-02 
1924	 6.79530804718152E-02 
1925	 6.78295068259828E-02 
1926	 6.77275288052707E-02 
1927	 0.067634019014893 
1928	 6.75635836864387E-02 
1929	 6.75131333094759E-02 
1930	 6.74578842535724E-02 
1931	 6.74042539948071E-02 
1932	 0.067361526374187 
1933	 6.73111173499469E-02 
1934	 6.72707346355505E-02 
1935	 6.72399604529391E-02 
1936	 6.72313231880099E-02 
1937	 6.72103078505885E-02 
1938	 6.71765939561903E-02 
1939	 6.71620585308492E-02 
1940	 6.71634510253294E-02 
1941	 6.71426944941812E-02 
1942	 6.71411143030818E-02 
1943	 6.71804444853556E-02 
1944	 6.71945393918157E-02 
1945	 6.72280870691901E-02 
1946	 6.72648832488687E-02 
1947	 6.73132398679025E-02 
1948	 6.73488971446838E-02 
1949	 6.73901830906262E-02 
1950	 6.74265583552408E-02 
1951	 6.74624693232083E-02 
1952	 6.74747168395057E-02 
1953	 6.74990905126636E-02 
1954	 6.75298859217272E-02 
1955	 0.067561455536985 
1956	 6.76122859425747E-02 
1957	 0.067669638754003 
1958	 6.77517243216136E-02 
1959	 6.78185544485977E-02 
1960	 6.78777782986584E-02 
1961	 6.79525767037366E-02 
1962	 6.80300021813175E-02 
1963	 6.81104677969478E-02 
1964	 6.82015529479685E-02 
1965	 6.83025729013577E-02 
1966	 6.83766790955144E-02 
1967	 6.84696398222999E-02 
1968	 0.068559101730555 
1969	 0.068635475470864 
1970	 6.87323775718969E-02 
1971	 0.06885118342254 
1972	 6.89509195513078E-02 
1973	 6.90480745235435E-02 
1974	 6.91538303764433E-02 
1975	 6.92605802264815E-02 
1976	 6.93649388595753E-02 
1977	 6.94584942870769E-02 
1978	 6.95483939187989E-02 
1979	 6.96250630418307E-02 
1980	 6.96968595699504E-02 
1981	 6.97944291573225E-02 
1982	 6.99339553838072E-02 
1983	 7.00234434593536E-02 
1984	 7.00952998197815E-02 
1985	 7.01793379128722E-02 
1986	 7.02285080577952E-02 
1987	 7.03102751649499E-02 
1988	 7.04278698219494E-02 
1989	 7.05333528620893E-02 
1990	 7.06310156960579E-02 
1991	 7.07278619373831E-02 
1992	 7.08313538479805E-02 
1993	 7.09389646547444E-02 
1994	 7.10352917287311E-02 
1995	 7.11381678639852E-02 
1996	 0.07122896179531 
1997	 7.12960424814715E-02 
1998	 7.13786207667195E-02 
1999	 7.14676142866656E-02 
2000	 7.15531297710957E-02 
2001	 7.16368171167704E-02 
2002	 7.17225978512829E-02 
2003	 7.18232021507038E-02 
2004	 7.19209140685444E-02 
2005	 7.20191018723898E-02 
2006	 7.21284026448516E-02 
2007	 7.22272966369255E-02 
2008	 7.23257013642693E-02 
2009	 7.24098751199471E-02 
2010	 7.24821673762953E-02 
2011	 0.072561911699449 
2012	 7.26215646831326E-02 
2013	 7.26980731300784E-02 
2014	 7.27899956943501E-02 
2015	 7.28840270578853E-02 
2016	 7.29665043398047E-02 
2017	 7.30645452402836E-02 
2018	 7.31607950617356E-02 
2019	 7.32619074100563E-02 
2020	 7.33507271937095E-02 
2021	 7.34504735160837E-02 
2022	 7.35280570104009E-02 
2023	 7.35775128884981E-02 
2024	 7.36405518233869E-02 
2025	 7.36870865991397E-02 
2026	 7.37551013798389E-02 
2027	 0.073829943702027 
2028	 7.39255232207806E-02 
2029	 7.40176709148497E-02 
2030	 7.41359456479308E-02 
2031	 7.42078795781581E-02 
2032	 0.074257491932074 
2033	 7.43217831182426E-02 
2034	 7.43629430922599E-02 
2035	 7.44220365446729E-02 
2036	 0.074503149166771 
2037	 7.45722491787184E-02 
2038	 7.46303317895983E-02 
2039	 7.46976592067667E-02 
2040	 7.47719512305107E-02 
2041	 0.074853523757741 
2042	 7.49013563127469E-02 
2043	 7.49453672415535E-02 
2044	 7.49831701677403E-02 
2045	 7.49858432616831E-02 
2046	 7.50256064386476E-02 
2047	 7.50786530178942E-02 
2048	 0.075136669514518 
2049	 7.52151790179792E-02 
2050	 7.52808155067729E-02 
2051	 7.53603248212181E-02 
2052	 0.075417248148582 
2053	 0.07544975648109 
2054	 7.54937097477306E-02 
2055	 7.55265942030476E-02 
2056	 7.55659348168044E-02 
2057	 7.56104169961816E-02 
2058	 7.56740370009313E-02 
2059	 7.57097343782114E-02 
2060	 7.57249192267945E-02 
2061	 7.57630448286582E-02 
2062	 7.57996972053258E-02 
2063	 7.58410962094135E-02 
2064	 7.59164744749691E-02 
2065	 0.075954688824134 
2066	 7.59590997626938E-02 
2067	 7.59817630909781E-02 
2068	 7.59823139048024E-02 
2069	 7.60125380895889E-02 
2070	 7.60502923090641E-02 
2071	 7.61088122927115E-02 
2072	 7.61574308638582E-02 
2073	 7.62210495313552E-02 
2074	 0.076258551172365 
2075	 7.62859659152739E-02 
2076	 7.63131380132581E-02 
2077	 7.63095002611933E-02 
2078	 7.63418399938372E-02 
2079	 7.63881485149059E-02 
2080	 7.64402621550884E-02 
2081	 7.65266626449996E-02 
2082	 7.65913524700855E-02 
2083	 7.66481706472104E-02 
2084	 7.67089717761711E-02 
2085	 7.67557115979975E-02 
2086	 7.67873568069736E-02 
2087	 7.68249330570962E-02 
2088	 7.68602107272866E-02 
2089	 7.68920096381806E-02 
2090	 7.69211677470859E-02 
2091	 7.69482973941599E-02 
2092	 7.69676839884018E-02 
2093	 7.69934907186425E-02 
2094	 7.70137015289986E-02 
2095	 7.70475219842545E-02 
2096	 7.71053550350502E-02 
2097	 7.71397668781601E-02 
2098	 7.71543751236586E-02 
2099	 0.077197569787784 
2100	 7.72262040648409E-02 
2101	 7.72299735499392E-02 
2102	 7.72715670920988E-02 
2103	 7.73457242700357E-02 
2104	 7.73860105410646E-02 
2105	 7.74312798353756E-02 
2106	 7.74606678500954E-02 
2107	 7.74529152108853E-02 
2108	 7.74769144892468E-02 
2109	 7.75118073778478E-02 
2110	 7.75472145969479E-02 
2111	 7.75926987062445E-02 
2112	 7.76401909095439E-02 
2113	 7.76979870540137E-02 
2114	 0.077739958101662 
2115	 7.77925292166746E-02 
2116	 7.78602464539507E-02 
2117	 7.79018612358677E-02 
2118	 7.79298109366983E-02 
2119	 7.79658299885276E-02 
2120	 7.79987730777736E-02 
2121	 7.80183808271362E-02 
2122	 0.078031447274206 
2123	 7.80506942494336E-02 
2124	 7.80555551957159E-02 
2125	 7.80692327724982E-02 
2126	 7.81062017987229E-02 
2127	 7.81220214452901E-02 
2128	 7.81161467724712E-02 
2129	 7.81221064013155E-02 
2130	 7.81222052220995E-02 
2131	 7.81304411350516E-02 
2132	 7.81431395250872E-02 
2133	 7.81719381487928E-02 
2134	 0.078181863278172 
2135	 7.81872737272633E-02 
2136	 7.81911785789526E-02 
2137	 7.81916237317554E-02 
2138	 0.078181164133061 
2139	 7.81668157034733E-02 
2140	 7.81475984274328E-02 
2141	 7.81187326809525E-02 
2142	 7.80845539085915E-02 
2143	 7.80448595826173E-02 
2144	 7.80030974922941E-02 
2145	 7.79416954263615E-02 
2146	 7.78957826522194E-02 
2147	 7.78548821454326E-02 
2148	 7.78236290120454E-02 
2149	 7.77918343435597E-02 
2150	 7.77777106562155E-02 
2151	 7.77373088629699E-02 
2152	 7.76901054028082E-02 
2153	 7.76331349234824E-02 
2154	 7.75499375183853E-02 
2155	 7.74888405671148E-02 
2156	 7.74316730734925E-02 
2157	 7.73766043968174E-02 
2158	 7.73340609973391E-02 
2159	 7.72835172826788E-02 
2160	 7.72369331675782E-02 
2161	 7.71753423760463E-02 
2162	 7.71039909328059E-02 
2163	 7.70322126144153E-02 
2164	 7.69453582061852E-02 
2165	 7.68628295101118E-02 
2166	 7.67853413492313E-02 
2167	 7.67132079606118E-02 
2168	 7.66391574123817E-02 
2169	 7.65651638459862E-02 
2170	 7.64947002226375E-02 
2171	 7.64352604709132E-02 
2172	 7.63562042659855E-02 
2173	 7.62631960114321E-02 
2174	 7.61839561125428E-02 
2175	 7.61001071612427E-02 
2176	 7.60146328610262E-02 
2177	 7.59357853697413E-02 
2178	 7.58626972437431E-02 
2179	 0.075768526859692 
2180	 7.57047534231587E-02 
2181	 7.56957720980335E-02 
2182	 7.56437301868704E-02 
2183	 7.55715495734076E-02 
2184	 7.55183119388826E-02 
2185	 7.54436439009576E-02 
2186	 7.53236863934742E-02 
2187	 7.52572608616577E-02 
2188	 0.07521817027143 
2189	 7.51660094499457E-02 
2190	 7.51351032897124E-02 
2191	 7.50803373109978E-02 
2192	 0.075012298780824 
2193	 7.49450490141262E-02 
2194	 7.48488611505129E-02 
2195	 7.47912446458055E-02 
2196	 0.074759360722333 
2197	 7.47132613816281E-02 
2198	 7.46782144381364E-02 
2199	 7.46505941443057E-02 
2200	 7.46147255029779E-02 
2201	 7.45848654336644E-02 
2202	 7.45748600462723E-02 
2203	 7.45659310489781E-02 
2204	 7.45399533606148E-02 
2205	 7.44991197489902E-02 
2206	 7.44709873997647E-02 
2207	 7.44340030780153E-02 
2208	 7.44149273389018E-02 
2209	 7.44112332453546E-02 
2210	 7.44005460871619E-02 
2211	 0.074400032715447 
2212	 7.43884327030884E-02 
2213	 7.43728276222725E-02 
2214	 7.43507803214295E-02 
2215	 7.43168069244081E-02 
2216	 7.42916099758272E-02 
2217	 7.42631746488806E-02 
2218	 7.42406273643087E-02 
2219	 7.42186613288422E-02 
2220	 7.42071721163439E-02 
2221	 7.42032471734881E-02 
2222	 7.42026329957323E-02 
2223	 0.07421327818017 
2224	 7.42193054430122E-02 
2225	 7.42177925470393E-02 
2226	 7.42057284773512E-02 
2227	 7.42067792156827E-02 
2228	 7.42067426344395E-02 
2229	 7.42163558371087E-02 
2230	 7.42342443619709E-02 
2231	 7.42608050835695E-02 
2232	 7.43056788799754E-02 
2233	 7.43214111016331E-02 
2234	 7.43376119192694E-02 
2235	 0.074343753735279 
2236	 0.074326798179612 
2237	 7.43124748775824E-02 
2238	 7.43023743171243E-02 
2239	 7.42780379360359E-02 
2240	 7.42404211596047E-02 
2241	 7.41988095023741E-02 
2242	 7.41231794147549E-02 
2243	 7.40910113681871E-02 
2244	 7.40833811771036E-02 
2245	 0.074066513949537 
2246	 7.40899705318829E-02 
2247	 7.40983521656587E-02 
2248	 7.40616692393211E-02 
2249	 7.39776114862865E-02 
2250	 7.39358013764808E-02 
2251	 7.38733877370193E-02 
2252	 7.38432489383058E-02 
2253	 0.073855452403387 
2254	 0.073839416944586 
2255	 7.38174347804991E-02 
2256	 0.073799197222682 
2257	 7.37614998349205E-02 
2258	 7.37530007622599E-02 
2259	 7.37668058395692E-02 
2260	 7.37678623584362E-02 
2261	 7.37818443941589E-02 
2262	 7.37995303639838E-02 
2263	 7.38143841194811E-02 
2264	 7.38288466454253E-02 
2265	 0.073861860494925 
2266	 7.38691568265314E-02 
2267	 7.38426224027207E-02 
2268	 7.38366885451067E-02 
2269	 7.38157769030137E-02 
2270	 0.07382825699723 
2271	 7.38679395602832E-02 
2272	 7.38966455397744E-02 
2273	 0.07392131054942 
2274	 7.39258145620215E-02 
2275	 7.39399731184021E-02 
2276	 7.39421063908715E-02 
2277	 7.39570260838251E-02 
2278	 7.39900071092122E-02 
2279	 7.40050392027156E-02 
2280	 7.40185167001302E-02 
2281	 7.40059860892535E-02 
2282	 7.39572857156396E-02 
2283	 7.39553194108025E-02 
2284	 7.39673948495338E-02 
2285	 7.39643147531201E-02 
2286	 7.39704056521815E-02 
2287	 0.073989831148369 
2288	 7.39903543024107E-02 
2289	 7.40154193925299E-02 
2290	 7.41268089787872E-02 
2291	 7.41432516480085E-02 
2292	 7.40890784787341E-02 
2293	 7.40644738953168E-02 
2294	 0.073999983970389 
2295	 7.39529297252525E-02 
2296	 7.39131125323623E-02 
2297	 7.39113642121312E-02 
2298	 7.39097403515315E-02 
2299	 7.39193546639993E-02 
2300	 7.39301432919096E-02 
2301	 7.39341843371519E-02 
2302	 7.39209982909119E-02 
2303	 7.38667884519418E-02 
2304	 7.38772233102619E-02 
2305	 7.38768966326156E-02 
2306	 7.38715484112783E-02 
2307	 7.38835991487757E-02 
2308	 7.38828475870328E-02 
2309	 7.38593150376695E-02 
2310	 7.38524881270158E-02 
2311	 7.38596946483388E-02 
2312	 7.38295671518596E-02 
2313	 7.37706276471633E-02 
2314	 7.37467077079133E-02 
2315	 7.37134590039171E-02 
2316	 7.36997850683873E-02 
2317	 7.37428843329418E-02 
2318	 7.37323240379187E-02 
2319	 7.36854836827226E-02 
2320	 7.36621479012835E-02 
2321	 7.36085504450716E-02 
2322	 7.35965875157344E-02 
2323	 7.36465011907982E-02 
2324	 7.36379304642831E-02 
2325	 7.36283797376715E-02 
2326	 7.36039011203973E-02 
2327	 0.073511966696887 
2328	 7.34704655156352E-02 
2329	 7.34990449702716E-02 
2330	 7.35032134883293E-02 
2331	 0.073557208614745 
2332	 7.35792645339458E-02 
2333	 7.35420186830199E-02 
2334	 7.35131297558598E-02 
2335	 7.34616889795269E-02 
2336	 7.34296572109883E-02 
2337	 0.073353136543422 
2338	 7.32666179614799E-02 
2339	 0.073270628278436 
2340	 7.32311375333828E-02 
2341	 7.32286424920504E-02 
2342	 7.32640709999711E-02 
2343	 7.32371843896827E-02 
2344	 7.32585862697368E-02 
2345	 7.32632789213229E-02 
2346	 7.33037372853691E-02 
2347	 7.32806104327237E-02 
2348	 7.31873948695711E-02 
2349	 7.31574659333535E-02 
2350	 7.31612565677878E-02 
2351	 7.31159622604233E-02 
2352	 7.30913571199765E-02 
2353	 7.30339700502853E-02 
2354	 7.28706138817966E-02 
2355	 7.28063251456325E-02 
2356	 0.072797500045172 
2357	 7.27800271344333E-02 
2358	 7.28205405592977E-02 
2359	 7.28063210062491E-02 
2360	 7.27632553087664E-02 
2361	 7.27170810818348E-02 
2362	 7.26644283415561E-02 
2363	 7.25978569485784E-02 
2364	 7.24896058799178E-02 
2365	 7.24139974971174E-02 
2366	 7.22890594587107E-02 
2367	 7.22492898208946E-02 
2368	 7.23395250869333E-02 
2369	 7.23775329208104E-02 
2370	 7.24553324649566E-02 
2371	 7.24673590401041E-02 
2372	 7.24500639465702E-02 
2373	 7.23396842581313E-02 
2374	 7.22254936289611E-02 
2375	 7.21100055228202E-02 
2376	 7.19325468773192E-02 
2377	 7.17794960950627E-02 
2378	 7.16863565966155E-02 
2379	 7.16107903596697E-02 
2380	 7.15598429478703E-02 
2381	 7.15036704690631E-02 
2382	 7.13559667439176E-02 
2383	 7.12585860768327E-02 
2384	 7.11875805721686E-02 
2385	 7.11101527318479E-02 
2386	 7.10842593760355E-02 
2387	 7.10310629872784E-02 
2388	 7.10436620199646E-02 
2389	 7.10263507330207E-02 
2390	 7.09503051621063E-02 
2391	 7.08953448842572E-02 
2392	 7.07500560232504E-02 
2393	 7.05951313436998E-02 
2394	 7.05080085364112E-02 
2395	 7.03795479359501E-02 
2396	 7.02818712855046E-02 
2397	 0.07027652997936 
2398	 7.02226488204145E-02 
2399	 7.01789243193768E-02 
2400	 7.01466736060802E-02 
2401	 7.00654910596674E-02 
2402	 6.99981366358287E-02 
2403	 6.99404606574514E-02 
2404	 6.99443483159179E-02 
2405	 6.98699578066894E-02 
2406	 6.97539886913924E-02 
2407	 6.97202347195717E-02 
2408	 6.96713574101792E-02 
2409	 6.96717337119386E-02 
2410	 6.96355266238854E-02 
2411	 6.96012734986386E-02 
2412	 0.069562112856398 
2413	 6.93660422052175E-02 
2414	 6.92847718576455E-02 
2415	 6.92117704276398E-02 
2416	 6.91079710616498E-02 
2417	 6.90267422190481E-02 
2418	 6.89569209025396E-02 
2419	 6.88301860172972E-02 
2420	 6.87428735421917E-02 
2421	 6.86647163109077E-02 
2422	 6.86031472724298E-02 
2423	 6.86352732083132E-02 
2424	 6.85327443976045E-02 
2425	 6.83375139398783E-02 
2426	 6.81997552548953E-02 
2427	 0.067975791618989 
2428	 6.78947692434064E-02 
2429	 6.79498820496619E-02 
2430	 6.79702465734379E-02 
2431	 6.80274185705934E-02 
2432	 6.79730584253147E-02 
2433	 6.79089107451505E-02 
2434	 6.78298800514942E-02 
2435	 6.76672506835801E-02 
2436	 6.75885434860818E-02 
2437	 6.75385958232508E-02 
2438	 6.74337245579146E-02 
2439	 6.73212365912806E-02 
2440	 6.71918199696185E-02 
2441	 6.70288034609736E-02 
2442	 6.69052128371545E-02 
2443	 6.68361972977845E-02 
2444	 0.066745282708573 
2445	 6.66428686842427E-02 
2446	 6.64825961809231E-02 
2447	 6.61899264207504E-02 
2448	 6.60643425821302E-02 
2449	 6.60392572069204E-02 
2450	 6.60234704565906E-02 
2451	 6.61698991238217E-02 
2452	 6.61286456504853E-02 
2453	 6.59542836578531E-02 
2454	 6.58334701123299E-02 
2455	 6.56575348729636E-02 
2456	 6.55872056556715E-02 
2457	 6.55977229818623E-02 
2458	 0.065513252293724 
2459	 6.54580939824717E-02 
2460	 6.53424022360666E-02 
2461	 0.065049003438001 
2462	 6.48984235132415E-02 
2463	 6.48030438992113E-02 
2464	 6.47326516844614E-02 
2465	 6.48441523166838E-02 
2466	 0.06483839569228 
2467	 6.47604367621637E-02 
2468	 6.47266057742067E-02 
2469	 6.46353737803821E-02 
2470	 6.45727432673491E-02 
2471	 6.44081502791479E-02 
2472	 6.40872953251591E-02 
2473	 6.39274602908791E-02 
2474	 6.38620768589438E-02 
2475	 6.39438054925293E-02 
2476	 6.40730808973726E-02 
2477	 6.39722039380226E-02 
2478	 6.38310339415478E-02 
2479	 0.063630831909639 
2480	 6.34112758728964E-02 
2481	 6.33116610638634E-02 
2482	 0.063174038450311 
2483	 6.29640850593204E-02 
2484	 6.28116423886633E-02 
2485	 6.27294531377027E-02 
2486	 0.062713326135915 
2487	 0.062743776943946 
2488	 6.27196682011807E-02 
2489	 6.26718116442484E-02 
2490	 0.062623962133162 
2491	 6.25473716571633E-02 
2492	 0.062334790825744 
2493	 6.20512512264734E-02 
2494	 6.18627763206359E-02 
2495	 6.17121158075881E-02 
2496	 6.16320522271597E-02 
2497	 6.16229062365699E-02 
2498	 6.16169451272237E-02 
2499	 6.16751159202412E-02 
2500	 6.15923144169951E-02 
