Wavelength	LMW_13_a00003.asd
350	 4.70903962006435E-02 
351	 5.14507317325198E-02 
352	 5.06721476555023E-02 
353	 4.34639462056753E-02 
354	 4.49529850570408E-02 
355	 4.45015048228196E-02 
356	 4.35837758301512E-02 
357	 4.49499998497647E-02 
358	 4.41390013498432E-02 
359	 4.29183337473895E-02 
360	 4.29871958921446E-02 
361	 4.50862408682501E-02 
362	 4.09529162602865E-02 
363	 3.98281993566082E-02 
364	 4.41695785593365E-02 
365	 0.042791308282954 
366	 4.04622079374095E-02 
367	 3.93191236512118E-02 
368	 4.00712137604369E-02 
369	 4.03696801179474E-02 
370	 4.30046878635785E-02 
371	 4.54414990672925E-02 
372	 4.22949924959505E-02 
373	 4.11460317925484E-02 
374	 4.20201787765886E-02 
375	 4.35328975382449E-02 
376	 0.043801934687911 
377	 4.35148366190184E-02 
378	 4.41474167288981E-02 
379	 0.046657349157097 
380	 4.95498519754197E-02 
381	 4.79834366734184E-02 
382	 4.48560706401086E-02 
383	 4.80151484181964E-02 
384	 4.94719539851248E-02 
385	 4.88353426018555E-02 
386	 4.75781137244332E-02 
387	 4.85371866521564E-02 
388	 4.91077463354831E-02 
389	 4.97536946243694E-02 
390	 5.13793782017504E-02 
391	 5.22358276075977E-02 
392	 5.30963243778511E-02 
393	 5.41340589648182E-02 
394	 5.49196284583417E-02 
395	 0.055137521334455 
396	 0.054782876401716 
397	 5.45241493268594E-02 
398	 0.056459450020265 
399	 0.058065537266622 
400	 5.92792149088765E-02 
401	 6.06753111512595E-02 
402	 6.10060777180165E-02 
403	 6.09387101155225E-02 
404	 6.14125297298291E-02 
405	 6.34019230662957E-02 
406	 0.06441019753755 
407	 6.48802666726411E-02 
408	 6.53293226525734E-02 
409	 6.46932194895683E-02 
410	 6.43315055132637E-02 
411	 6.49494540043495E-02 
412	 6.64885694692221E-02 
413	 6.63387478961719E-02 
414	 6.50577361817604E-02 
415	 6.38976878767856E-02 
416	 6.45893894916085E-02 
417	 6.40472948513813E-02 
418	 6.36311581597126E-02 
419	 6.44912823377828E-02 
420	 6.32513463530085E-02 
421	 6.20172218495989E-02 
422	 6.15631877383876E-02 
423	 6.16195111038553E-02 
424	 6.12549330258556E-02 
425	 6.05648554687307E-02 
426	 0.059803855293696 
427	 5.92251300363152E-02 
428	 5.85178420575262E-02 
429	 5.80242068783375E-02 
430	 5.80897697197552E-02 
431	 5.80407467570515E-02 
432	 0.058022108514488 
433	 5.82243211654986E-02 
434	 5.88170162671746E-02 
435	 5.94301566680027E-02 
436	 0.059948740320689 
437	 6.03868870566847E-02 
438	 6.08734134043443E-02 
439	 6.18129967396458E-02 
440	 6.30280978662281E-02 
441	 6.40767542367914E-02 
442	 0.065028127653072 
443	 6.61176638930532E-02 
444	 6.73045521499978E-02 
445	 6.81099768747628E-02 
446	 6.88639637559852E-02 
447	 6.97998445654351E-02 
448	 0.071003440134899 
449	 7.20868238184088E-02 
450	 0.073223696942597 
451	 7.43701512515484E-02 
452	 7.53114309599543E-02 
453	 7.63811529423507E-02 
454	 7.73018029036063E-02 
455	 7.80149464233675E-02 
456	 7.93074584684885E-02 
457	 0.080324424237154 
458	 8.11240039011794E-02 
459	 8.21348952485321E-02 
460	 8.31701400008499E-02 
461	 8.40227336592566E-02 
462	 8.47271336001329E-02 
463	 8.56495605442088E-02 
464	 8.64972952703149E-02 
465	 8.73531391078441E-02 
466	 8.83445844166883E-02 
467	 8.93805464750407E-02 
468	 9.02931168221778E-02 
469	 0.091071935490918 
470	 9.18403615789788E-02 
471	 9.27029013707308E-02 
472	 9.35172018652971E-02 
473	 9.42062180214467E-02 
474	 9.49485248325783E-02 
475	 9.56315070951372E-02 
476	 9.62704145571189E-02 
477	 0.09693539686916 
478	 0.097663565438381 
479	 9.84283601462597E-02 
480	 9.91824093877329E-02 
481	 9.98606785782886E-02 
482	 0.100513334144146 
483	 0.101121465635174 
484	 0.101675086786242 
485	 0.102280333234417 
486	 0.102843059900105 
487	 0.103303650688586 
488	 0.103652440079151 
489	 0.104099893134289 
490	 0.104626180799129 
491	 0.105122009814422 
492	 0.105350923824148 
493	 0.105666080808117 
494	 0.106070091553079 
495	 0.10641239795169 
496	 0.106776866487028 
497	 0.107055957992842 
498	 0.107282778272372 
499	 0.107734764669057 
500	 0.107890789367198 
501	 0.107940818542646 
502	 0.108184247493756 
503	 0.108410058989362 
504	 0.108563572055207 
505	 0.108641099270657 
506	 0.108684941538182 
507	 0.108788306431114 
508	 0.10897015616589 
509	 0.109206117138702 
510	 0.109432671015526 
511	 0.109526829760139 
512	 0.109491620586039 
513	 0.109421086580082 
514	 0.109489033096216 
515	 0.109653651158366 
516	 0.109828705640436 
517	 0.109904568123588 
518	 0.109930263891486 
519	 0.109935625947766 
520	 0.10993782418057 
521	 0.109868546761826 
522	 0.110055586082272 
523	 0.110387143829623 
524	 0.110291535401912 
525	 0.110241797004146 
526	 0.110321466593847 
527	 0.110479210746399 
528	 0.110534915562092 
529	 0.110586545742349 
530	 0.110620421045587 
531	 0.110569328654952 
532	 0.110656255816983 
533	 0.110756339185094 
534	 0.110797146376243 
535	 0.11092694189442 
536	 0.111036707689749 
537	 0.1110951181525 
538	 0.111121963095261 
539	 0.111262443614578 
540	 0.111376940305429 
541	 0.111433113850507 
542	 0.11156810839324 
543	 0.111745103433217 
544	 0.111907326707207 
545	 0.112026249512369 
546	 0.112227714357765 
547	 0.112346414032611 
548	 0.112438589693865 
549	 0.1127273173765 
550	 0.112742855888765 
551	 0.112791574560029 
552	 0.113090169602748 
553	 0.113246065383858 
554	 0.113434226916205 
555	 0.113661139578998 
556	 0.113853238170469 
557	 0.114016251780126 
558	 0.114218895385187 
559	 0.114494359764989 
560	 0.114810437121509 
561	 0.115082266209874 
562	 0.115337622938086 
563	 0.115624768390763 
564	 0.115848550176225 
565	 0.11608157004303 
566	 0.116391659277416 
567	 0.116826912450628 
568	 0.117244091032444 
569	 0.1175907175759 
570	 0.117866823179313 
571	 0.118142631485554 
572	 0.118474816961432 
573	 0.118868409500561 
574	 0.119285209364889 
575	 0.119665068697511 
576	 0.120105827802098 
577	 0.120631686378174 
578	 0.121039910091078 
579	 0.121504502669084 
580	 0.122062472857515 
581	 0.122678216656062 
582	 0.123258995238431 
583	 0.123764061316963 
584	 0.124168543726169 
585	 0.124453626092296 
586	 0.124879986601905 
587	 0.125421457576011 
588	 0.125978708865033 
589	 0.126582759940748 
590	 0.127157514081828 
591	 0.127682234346534 
592	 0.128193537311739 
593	 0.128699677263479 
594	 0.129291523426155 
595	 0.130011853750605 
596	 0.130767834966136 
597	 0.131428046963899 
598	 0.131979845627387 
599	 0.132484354594504 
600	 0.132940699204695 
601	 0.133358738978419 
602	 0.133770336027702 
603	 0.134251203677947 
604	 0.134765839928347 
605	 0.135281958735864 
606	 0.135786988951108 
607	 0.136385437946428 
608	 0.136955418090006 
609	 0.137425605644049 
610	 0.137800952211222 
611	 0.138124019459642 
612	 0.138471875243498 
613	 0.138873901178332 
614	 0.139187042674606 
615	 0.139484768651527 
616	 0.139794359120362 
617	 0.140107786860275 
618	 0.140437262321429 
619	 0.140730149773238 
620	 0.140970980243083 
621	 0.141236628708195 
622	 0.141545277923373 
623	 0.141844214947188 
624	 0.142062462509691 
625	 0.142236081794658 
626	 0.142450636520793 
627	 0.142725981012648 
628	 0.14299240729163 
629	 0.143211162067883 
630	 0.143394170901602 
631	 0.143571736162339 
632	 0.143760349625337 
633	 0.144023458468554 
634	 0.14428116842469 
635	 0.144360884333474 
636	 0.144561921601778 
637	 0.144821340763177 
638	 0.14503590043815 
639	 0.145162103339735 
640	 0.145291127471959 
641	 0.145476170267938 
642	 0.145729366757834 
643	 0.145917349382976 
644	 0.146091954043057 
645	 0.146291516322114 
646	 0.146507822850517 
647	 0.146715169333628 
648	 0.146892498555721 
649	 0.147037071518568 
650	 0.147200245250611 
651	 0.147408518767117 
652	 0.14764227476947 
653	 0.14784644164242 
654	 0.148059425190144 
655	 0.148267179980903 
656	 0.14845297172295 
657	 0.148607495529723 
658	 0.148802180435177 
659	 0.149035332278328 
660	 0.149261448004601 
661	 0.149415153393116 
662	 0.149568251653328 
663	 0.149774833446528 
664	 0.150044787980882 
665	 0.15030590572592 
666	 0.150482949541282 
667	 0.150569516555421 
668	 0.150817128949911 
669	 0.151088246112459 
670	 0.151315660854183 
671	 0.151501550421331 
672	 0.151627497900704 
673	 0.151851839603147 
674	 0.152207397396055 
675	 0.152359195683855 
676	 0.15252866026972 
677	 0.152774439956221 
678	 0.153070821921866 
679	 0.153318681368436 
680	 0.153519993068839 
681	 0.153698168897344 
682	 0.153889889295539 
683	 0.154106842092018 
684	 0.154344082346328 
685	 0.154588242275498 
686	 0.154818731371186 
687	 0.155065826851092 
688	 0.155313055066752 
689	 0.155518711854358 
690	 0.155771578141536 
691	 0.156020390591642 
692	 0.15623267616883 
693	 0.156457479666932 
694	 0.156632016402648 
695	 0.156847491405569 
696	 0.157197394169961 
697	 0.157477892097943 
698	 0.15768958557814 
699	 0.157882247346762 
700	 0.158137729707004 
701	 0.158311662668416 
702	 0.158498720356965 
703	 0.158767601599135 
704	 0.158964767845838 
705	 0.15920177619592 
706	 0.159451421305341 
707	 0.159633780037535 
708	 0.15987638564526 
709	 0.160112987001807 
710	 0.160314991919182 
711	 0.160538628587009 
712	 0.160747409395505 
713	 0.16094175138342 
714	 0.161126015040569 
715	 0.161269657993788 
716	 0.161467101617276 
717	 0.161695156545264 
718	 0.161848768020905 
719	 0.161960222304412 
720	 0.162086937181898 
721	 0.162242390376137 
722	 0.162344104323431 
723	 0.162497789490895 
724	 0.162658042450299 
725	 0.162749098254956 
726	 0.162818444945858 
727	 0.162917231028126 
728	 0.163017969618713 
729	 0.163029475066964 
730	 0.163078289817845 
731	 0.163178202957415 
732	 0.163276297959014 
733	 0.163200776155827 
734	 0.163197531140033 
735	 0.163216197751481 
736	 0.16312449928088 
737	 0.163105430329128 
738	 0.163100458861382 
739	 0.163074048551629 
740	 0.163035092922031 
741	 0.16297646815812 
742	 0.162875230263494 
743	 0.162723301807315 
744	 0.162555416734612 
745	 0.162381007663226 
746	 0.162237134547695 
747	 0.162143830211751 
748	 0.161925723333638 
749	 0.161697226694574 
750	 0.16153092768879 
751	 0.161413851106131 
752	 0.161187868489337 
753	 0.16093912710632 
754	 0.160749644666969 
755	 0.160506287806616 
756	 0.160262686293089 
757	 0.160014598947631 
758	 0.15973292775406 
759	 0.159435354952629 
760	 0.159105284481577 
761	 0.158775529768742 
762	 0.158539380452876 
763	 0.158253949834549 
764	 0.157949191010833 
765	 0.157665541628522 
766	 0.157346541172405 
767	 0.15701420508655 
768	 0.15666751653566 
769	 0.156304196217496 
770	 0.155997613549152 
771	 0.15569354105312 
772	 0.155352635375715 
773	 0.154970363332292 
774	 0.154615225938648 
775	 0.154301077823626 
776	 0.153999432201474 
777	 0.153601171704948 
778	 0.153260043429902 
779	 0.152964230605143 
780	 0.152633200717367 
781	 0.152298367583977 
782	 0.151913190837628 
783	 0.151504902991881 
784	 0.151178494551713 
785	 0.150890071396363 
786	 0.150561250015792 
787	 0.150180259168307 
788	 0.149917495557403 
789	 0.149586704203938 
790	 0.149214563827839 
791	 0.148886087779848 
792	 0.148529328539634 
793	 0.148218391750929 
794	 0.147945805961775 
795	 0.147633406168454 
796	 0.147306943360503 
797	 0.146966298595058 
798	 0.146622618942374 
799	 0.146312172690372 
800	 0.146009454197297 
801	 0.145699079425857 
802	 0.145393702685601 
803	 0.145208284815221 
804	 0.144976651815671 
805	 0.144657670089674 
806	 0.14430739020426 
807	 0.144007742552296 
808	 0.14372711884723 
809	 0.143456050167439 
810	 0.143230006713534 
811	 0.143029956826271 
812	 0.142793165081798 
813	 0.142492264127431 
814	 0.14221071908009 
815	 0.141971810359268 
816	 0.141753857393537 
817	 0.141521539029429 
818	 0.141298093762494 
819	 0.141077093831937 
820	 0.140842611621197 
821	 0.140580508007422 
822	 0.140371311143598 
823	 0.140207843172428 
824	 0.140050522515689 
825	 0.139834172422181 
826	 0.139593794541073 
827	 0.139355916189193 
828	 0.139154259456655 
829	 0.139057744941769 
830	 0.138913118515358 
831	 0.138718594024443 
832	 0.138550191558412 
833	 0.138437304717536 
834	 0.138303858574799 
835	 0.138137112640777 
836	 0.137988652312906 
837	 0.137819675891567 
838	 0.137687673228643 
839	 0.13759972912027 
840	 0.137453352571218 
841	 0.137331107821178 
842	 0.137224320375439 
843	 0.13711132962505 
844	 0.137015521593035 
845	 0.136888222704768 
846	 0.136752909599942 
847	 0.136657852604818 
848	 0.136576228267306 
849	 0.136501491484918 
850	 0.136426200307953 
851	 0.136344618459633 
852	 0.136283071802469 
853	 0.136216349800378 
854	 0.136141390444075 
855	 0.136096605872764 
856	 0.136070623673678 
857	 0.136052243990247 
858	 0.136023869442585 
859	 0.135949979016476 
860	 0.135886980457886 
861	 0.135865296482558 
862	 0.135877050723585 
863	 0.135798536997619 
864	 0.135802118966096 
865	 0.135846964946712 
866	 0.135787930905918 
867	 0.135788703741567 
868	 0.135782742379467 
869	 0.135764536203458 
870	 0.135802713308719 
871	 0.13581320002666 
872	 0.135907543945215 
873	 0.136071538625722 
874	 0.136049707594789 
875	 0.136009475364807 
876	 0.13597547468067 
877	 0.135958453313813 
878	 0.136023204834993 
879	 0.136121000462759 
880	 0.136233456442957 
881	 0.136348980211212 
882	 0.136446721548412 
883	 0.136496911696362 
884	 0.136543692180343 
885	 0.136661385394947 
886	 0.136839421360558 
887	 0.136993907244442 
888	 0.137084160624106 
889	 0.137132882305399 
890	 0.137325297669117 
891	 0.137469545923811 
892	 0.137500262752774 
893	 0.137570520389048 
894	 0.137694248148282 
895	 0.137855633291338 
896	 0.138035306231598 
897	 0.138227844873728 
898	 0.138380617539493 
899	 0.138549843096532 
900	 0.138774143833897 
901	 0.138968082648007 
902	 0.139130507829809 
903	 0.139298377283911 
904	 0.139494523086123 
905	 0.139621868470477 
906	 0.139830576765184 
907	 0.140087535406554 
908	 0.140291735152588 
909	 0.140508834198076 
910	 0.140690980567046 
911	 0.140890629701498 
912	 0.141194061028231 
913	 0.141435774124871 
914	 0.14165428008714 
915	 0.141894542365851 
916	 0.142183073712773 
917	 0.142486208264994 
918	 0.142745370899297 
919	 0.142956934520199 
920	 0.143185477610822 
921	 0.143515413794072 
922	 0.143825644717403 
923	 0.144068362524887 
924	 0.144354350484948 
925	 0.144632837934169 
926	 0.14494008841839 
927	 0.145288951522837 
928	 0.145619480410414 
929	 0.146011586168107 
930	 0.146366665800922 
931	 0.146619788211266 
932	 0.146878250429561 
933	 0.147268460530043 
934	 0.147672994167965 
935	 0.147993836685468 
936	 0.148429865527125 
937	 0.148766621610759 
938	 0.149100515131035 
939	 0.149547287765936 
940	 0.149913802183829 
941	 0.15026589583272 
942	 0.150697093137723 
943	 0.15122602532995 
944	 0.15155450266783 
945	 0.15185296010538 
946	 0.152265309443928 
947	 0.15282345029304 
948	 0.153185001423947 
949	 0.153598537298517 
950	 0.154102515840689 
951	 0.154599238358797 
952	 0.154975285611724 
953	 0.155363277739401 
954	 0.155801693023633 
955	 0.156260598547003 
956	 0.156718049226499 
957	 0.157213152739111 
958	 0.157687081319962 
959	 0.158060522085856 
960	 0.158485189244217 
961	 0.158992065757303 
962	 0.159581174344907 
963	 0.160209332459671 
964	 0.160725130655633 
965	 0.161211682264834 
966	 0.161694491563417 
967	 0.162151552064754 
968	 0.162587700977948 
969	 0.163079293000735 
970	 0.163594202586388 
971	 0.164058734333481 
972	 0.164656986073419 
973	 0.165174552723633 
974	 0.165627664626445 
975	 0.166190115503956 
976	 0.166854820555662 
977	 0.167460087860782 
978	 0.167919358234079 
979	 0.168266375177271 
980	 0.168788648694244 
981	 0.169370918170221 
982	 0.169949999531487 
983	 0.17051997325252 
984	 0.171087665061298 
985	 0.171657585966823 
986	 0.172195650515527 
987	 0.172681381702063 
988	 0.17326376044882 
989	 0.173814046041582 
990	 0.174339899354713 
991	 0.174905289117971 
992	 0.17544245573705 
993	 0.176016417976948 
994	 0.176739045278274 
995	 0.177577055582285 
996	 0.177890540292429 
997	 0.178458359848891 
998	 0.179132397871347 
999	 0.179581913915976 
1000	 0.180296777516426 
1001	 0.179778789391978 
1002	 0.180379967226254 
1003	 0.180934751531834 
1004	 0.181454145674074 
1005	 0.181890930806238 
1006	 0.182387892355388 
1007	 0.182867714664171 
1008	 0.183423281903475 
1009	 0.183978441447537 
1010	 0.184525666225984 
1011	 0.185157157180904 
1012	 0.1856951483077 
1013	 0.186161026711597 
1014	 0.186687218048993 
1015	 0.187143135514696 
1016	 0.187585430884113 
1017	 0.188060446458329 
1018	 0.188579046382746 
1019	 0.189037099507364 
1020	 0.189479617544431 
1021	 0.189941002403542 
1022	 0.19041453222659 
1023	 0.190885984925521 
1024	 0.191328337856262 
1025	 0.19177540220341 
1026	 0.192194958326605 
1027	 0.19258828197352 
1028	 0.192998646647863 
1029	 0.193383683921064 
1030	 0.193716635731784 
1031	 0.19406157608991 
1032	 0.194392608257542 
1033	 0.194738895955928 
1034	 0.195103497431465 
1035	 0.195471683614879 
1036	 0.195814833847363 
1037	 0.196144993254526 
1038	 0.196421839880451 
1039	 0.196682607570183 
1040	 0.196973919344388 
1041	 0.197282862496683 
1042	 0.19758750445073 
1043	 0.197854880212404 
1044	 0.198122019982199 
1045	 0.198369863856078 
1046	 0.198603757878249 
1047	 0.198861368056358 
1048	 0.199151078941644 
1049	 0.199474854548164 
1050	 0.199818393869152 
1051	 0.200122918190945 
1052	 0.200422315034464 
1053	 0.200715010283401 
1054	 0.200990285556041 
1055	 0.201269684406624 
1056	 0.201592683287916 
1057	 0.201938297460076 
1058	 0.202326212180584 
1059	 0.202669276143055 
1060	 0.203012217446783 
1061	 0.203364194245509 
1062	 0.20372296530424 
1063	 0.20405292356347 
1064	 0.204402301251021 
1065	 0.204803375404208 
1066	 0.205172939583456 
1067	 0.205568833504037 
1068	 0.206023967469899 
1069	 0.206453381145731 
1070	 0.206895477263095 
1071	 0.207350515855935 
1072	 0.207785973672035 
1073	 0.208223312949211 
1074	 0.208663705989554 
1075	 0.209082785919831 
1076	 0.209511105779009 
1077	 0.209977474981754 
1078	 0.210412776928969 
1079	 0.210857600721296 
1080	 0.211316942955787 
1081	 0.211754350216743 
1082	 0.212197916591299 
1083	 0.21263194820622 
1084	 0.213056654268041 
1085	 0.213479167969245 
1086	 0.213887171341212 
1087	 0.214305450171447 
1088	 0.214723369218486 
1089	 0.215155163054648 
1090	 0.215569675493669 
1091	 0.215961776207719 
1092	 0.216345148350644 
1093	 0.216725951705919 
1094	 0.217130111239455 
1095	 0.2175088791097 
1096	 0.217853268821727 
1097	 0.218161829705847 
1098	 0.218448912089054 
1099	 0.218681463915306 
1100	 0.218947915774843 
1101	 0.219206332948276 
1102	 0.219475308621551 
1103	 0.219776755229751 
1104	 0.220023125124933 
1105	 0.220250894710051 
1106	 0.220465819911828 
1107	 0.220633151801862 
1108	 0.220782525042847 
1109	 0.220952757870018 
1110	 0.221113166813903 
1111	 0.22127221262656 
1112	 0.221440533027716 
1113	 0.221593574324378 
1114	 0.221745808963714 
1115	 0.22186810608482 
1116	 0.221979167722237 
1117	 0.2220687216974 
1118	 0.222129845104468 
1119	 0.222184337376896 
1120	 0.222233650635845 
1121	 0.222287446334949 
1122	 0.222337929092295 
1123	 0.222410023419673 
1124	 0.222460391103065 
1125	 0.222506052200156 
1126	 0.222541406792187 
1127	 0.22255993723457 
1128	 0.22258968500562 
1129	 0.222612354393951 
1130	 0.222652274716577 
1131	 0.222707910301773 
1132	 0.222750603935227 
1133	 0.222820924181012 
1134	 0.222855106681139 
1135	 0.222859870392287 
1136	 0.222858232095273 
1137	 0.222874096045689 
1138	 0.222862965191027 
1139	 0.222867486354289 
1140	 0.22288815052636 
1141	 0.222897845777225 
1142	 0.222900912332714 
1143	 0.222904904208859 
1144	 0.222900717992777 
1145	 0.222916204993238 
1146	 0.22295551136724 
1147	 0.222962060782534 
1148	 0.222969572300954 
1149	 0.222968224687549 
1150	 0.222934120695847 
1151	 0.222895658621766 
1152	 0.222907272391082 
1153	 0.22293745031012 
1154	 0.222961585365265 
1155	 0.223006281916056 
1156	 0.223038649648858 
1157	 0.223062538878265 
1158	 0.223093483646294 
1159	 0.223130289493386 
1160	 0.223168624156497 
1161	 0.223190366903425 
1162	 0.223242221077145 
1163	 0.223324802504872 
1164	 0.223390606622436 
1165	 0.223467690171024 
1166	 0.223538184722568 
1167	 0.223583035917154 
1168	 0.223644602271661 
1169	 0.22374183206415 
1170	 0.22386724105323 
1171	 0.223984104120726 
1172	 0.224135677897659 
1173	 0.224253829214164 
1174	 0.224349865184142 
1175	 0.224460040941384 
1176	 0.224568636093212 
1177	 0.224679493702928 
1178	 0.224787529819207 
1179	 0.224908433899783 
1180	 0.22503421289182 
1181	 0.225163702930911 
1182	 0.2253095794079 
1183	 0.225455348985449 
1184	 0.225581737088481 
1185	 0.22569572865093 
1186	 0.225819735102952 
1187	 0.225935188707949 
1188	 0.22605804117968 
1189	 0.226198602664439 
1190	 0.226317446342643 
1191	 0.226419342547253 
1192	 0.226531725805212 
1193	 0.226629860373182 
1194	 0.226749702620266 
1195	 0.226899431441618 
1196	 0.227025690182984 
1197	 0.227151451655159 
1198	 0.227273215083157 
1199	 0.227387692397459 
1200	 0.227484558419473 
1201	 0.227590787564549 
1202	 0.227697575571947 
1203	 0.227808478095581 
1204	 0.227920094325388 
1205	 0.22802923496604 
1206	 0.228140954061166 
1207	 0.228254337662531 
1208	 0.228370483806696 
1209	 0.228476705678364 
1210	 0.228580370116751 
1211	 0.228685558505806 
1212	 0.228783249681722 
1213	 0.228880578661861 
1214	 0.228984808769881 
1215	 0.229083546464883 
1216	 0.229178122768115 
1217	 0.229266557261879 
1218	 0.229351634825723 
1219	 0.229433169779141 
1220	 0.229514560182396 
1221	 0.229585168774913 
1222	 0.229669436249473 
1223	 0.229774493543977 
1224	 0.229849833163122 
1225	 0.229912683728838 
1226	 0.229980001030513 
1227	 0.230026031757702 
1228	 0.230085220829836 
1229	 0.230150575089007 
1230	 0.230225665364723 
1231	 0.230316566512952 
1232	 0.230393308089429 
1233	 0.230468506874069 
1234	 0.230554482645323 
1235	 0.230621985751067 
1236	 0.230673075185136 
1237	 0.230725833775702 
1238	 0.230772145665102 
1239	 0.230824968197617 
1240	 0.230874602330161 
1241	 0.230925638101879 
1242	 0.230977137267197 
1243	 0.23103505819576 
1244	 0.23109251700528 
1245	 0.231153864621393 
1246	 0.231226452584255 
1247	 0.231297712776157 
1248	 0.23137253653951 
1249	 0.231441980264509 
1250	 0.231515753993852 
1251	 0.231573962972586 
1252	 0.231628861145849 
1253	 0.231676564464422 
1254	 0.231717571737515 
1255	 0.231740871933072 
1256	 0.23178501886795 
1257	 0.231831715804661 
1258	 0.231878169347699 
1259	 0.231939278578662 
1260	 0.231991968994238 
1261	 0.232043829983551 
1262	 0.232083618386567 
1263	 0.232121184900556 
1264	 0.232153081206975 
1265	 0.232159485847929 
1266	 0.232181880742326 
1267	 0.232216587511456 
1268	 0.232242642872271 
1269	 0.232270107761884 
1270	 0.232301813819923 
1271	 0.232334178515467 
1272	 0.232366237520294 
1273	 0.232391041568972 
1274	 0.232421146102989 
1275	 0.232440518387539 
1276	 0.232445588997249 
1277	 0.232455663455739 
1278	 0.232457040251008 
1279	 0.232473690346333 
1280	 0.232503280702419 
1281	 0.23251828943919 
1282	 0.232522912517946 
1283	 0.2325476440933 
1284	 0.232561063030804 
1285	 0.232597388547658 
1286	 0.232657650624006 
1287	 0.232747488585287 
1288	 0.232847762986822 
1289	 0.232965165258351 
1290	 0.233089206169979 
1291	 0.233226072700622 
1292	 0.233386569848188 
1293	 0.233560933789535 
1294	 0.233745346995504 
1295	 0.233953489266834 
1296	 0.234171553552802 
1297	 0.234401392352306 
1298	 0.23463332904062 
1299	 0.234879578298346 
1300	 0.235133167261986 
1301	 0.235391264226747 
1302	 0.235650403138241 
1303	 0.235925103080247 
1304	 0.236196627260022 
1305	 0.236450520520573 
1306	 0.236709068598112 
1307	 0.236982855634678 
1308	 0.2372456830881 
1309	 0.237504323149615 
1310	 0.237776368923826 
1311	 0.238006789353963 
1312	 0.238219527589919 
1313	 0.238411756524758 
1314	 0.238584232482262 
1315	 0.238729927129457 
1316	 0.238841935817099 
1317	 0.238955744818129 
1318	 0.239061591653162 
1319	 0.239133907630825 
1320	 0.239208640755832 
1321	 0.239239458038065 
1322	 0.239222838141354 
1323	 0.239191133307006 
1324	 0.239146525075722 
1325	 0.239075437134237 
1326	 0.238993738046438 
1327	 0.238885242551768 
1328	 0.238763166882739 
1329	 0.238625078306846 
1330	 0.238460800947723 
1331	 0.238277490849898 
1332	 0.238080349329611 
1333	 0.237863884161439 
1334	 0.237623652954082 
1335	 0.237373473963475 
1336	 0.237094305848431 
1337	 0.236763530477223 
1338	 0.23646190201575 
1339	 0.23616959107151 
1340	 0.2358503724193 
1341	 0.235534602990724 
1342	 0.23520165949687 
1343	 0.234839821814698 
1344	 0.234469810529152 
1345	 0.234122965341777 
1346	 0.233764193344568 
1347	 0.233399940167602 
1348	 0.233046579148149 
1349	 0.232675563045932 
1350	 0.232261087676099 
1351	 0.231865327334127 
1352	 0.231457135708989 
1353	 0.231065371054356 
1354	 0.230685673530229 
1355	 0.230299721414944 
1356	 0.229900585657793 
1357	 0.229530252277234 
1358	 0.229154564822955 
1359	 0.228814620056884 
1360	 0.228502753412369 
1361	 0.22820863269133 
1362	 0.227937806425466 
1363	 0.227680550320117 
1364	 0.227454253875309 
1365	 0.227225452625782 
1366	 0.227001140795716 
1367	 0.226792391882093 
1368	 0.226592595916556 
1369	 0.226401221600129 
1370	 0.226212902407399 
1371	 0.225999543551163 
1372	 0.225756539682292 
1373	 0.225493138373858 
1374	 0.225198305981538 
1375	 0.224879283776948 
1376	 0.22452314160067 
1377	 0.224128896704606 
1378	 0.223714922709674 
1379	 0.223244337394963 
1380	 0.222814564324708 
1381	 0.222368106526275 
1382	 0.221950306185545 
1383	 0.221560447415382 
1384	 0.221166228037092 
1385	 0.220812316935884 
1386	 0.220414379580522 
1387	 0.220026480832998 
1388	 0.219588120072422 
1389	 0.219121157927506 
1390	 0.218599320143668 
1391	 0.218047655004165 
1392	 0.217445960794298 
1393	 0.216783365373219 
1394	 0.21609185759146 
1395	 0.21535965520984 
1396	 0.214612226590995 
1397	 0.213859749560487 
1398	 0.213098736205486 
1399	 0.212308399373763 
1400	 0.211500981960172 
1401	 0.210675872021404 
1402	 0.209825438497579 
1403	 0.208965529806003 
1404	 0.208080565429195 
1405	 0.207216145042061 
1406	 0.206353234902434 
1407	 0.205471915437131 
1408	 0.204579016590015 
1409	 0.203704365849387 
1410	 0.2027964651974 
1411	 0.201943001098753 
1412	 0.201118605752263 
1413	 0.200333696613356 
1414	 0.199574580064201 
1415	 0.198833631375509 
1416	 0.198104997888334 
1417	 0.197397866754162 
1418	 0.196708307065744 
1419	 0.196035935463203 
1420	 0.195402704313818 
1421	 0.194807064963621 
1422	 0.194233319941051 
1423	 0.19366829393795 
1424	 0.193124232517105 
1425	 0.192591131235824 
1426	 0.192092853867622 
1427	 0.191621336654206 
1428	 0.191170952666393 
1429	 0.190753869491012 
1430	 0.19034544464073 
1431	 0.189953563369583 
1432	 0.189571248227 
1433	 0.189210214025301 
1434	 0.188847758994413 
1435	 0.188494321688928 
1436	 0.188144480932093 
1437	 0.187801550722396 
1438	 0.187460646729309 
1439	 0.187126806471478 
1440	 0.186787654543307 
1441	 0.186445159002915 
1442	 0.186108532381989 
1443	 0.185789337092605 
1444	 0.185495187904581 
1445	 0.185232962167862 
1446	 0.185003203322113 
1447	 0.184789570105497 
1448	 0.184592160721545 
1449	 0.184415279666541 
1450	 0.184279349521501 
1451	 0.184202059047953 
1452	 0.184165292289731 
1453	 0.184181019629855 
1454	 0.184267828606569 
1455	 0.184363535803386 
1456	 0.184505349698131 
1457	 0.184648261861188 
1458	 0.184819018711766 
1459	 0.184988296927298 
1460	 0.185175344316182 
1461	 0.185352754500892 
1462	 0.185549938483497 
1463	 0.185712222144165 
1464	 0.185868031791659 
1465	 0.185991900688206 
1466	 0.186076819119008 
1467	 0.186166560953193 
1468	 0.186222616677299 
1469	 0.186301750934834 
1470	 0.186401605670037 
1471	 0.186479131720251 
1472	 0.186556691862238 
1473	 0.186635637431638 
1474	 0.186682256481149 
1475	 0.186740462964269 
1476	 0.186802383332578 
1477	 0.186859655056736 
1478	 0.186955366228397 
1479	 0.187049017770622 
1480	 0.187132177662867 
1481	 0.18723639795864 
1482	 0.187329082023904 
1483	 0.187404383456343 
1484	 0.187503444797984 
1485	 0.187620441534442 
1486	 0.187719343748274 
1487	 0.187816792038276 
1488	 0.18791488578496 
1489	 0.188007110201094 
1490	 0.188102969987937 
1491	 0.188204799759419 
1492	 0.188301332857003 
1493	 0.188390782343442 
1494	 0.188485181236368 
1495	 0.188584295803546 
1496	 0.188679621996846 
1497	 0.188780418872147 
1498	 0.188864977540016 
1499	 0.188940734555256 
1500	 0.18901627096812 
1501	 0.189068370789701 
1502	 0.189144835337794 
1503	 0.189239061073368 
1504	 0.18932120298695 
1505	 0.189421082808836 
1506	 0.189507321945289 
1507	 0.189575593711634 
1508	 0.189646594530352 
1509	 0.189692850009114 
1510	 0.189750753577617 
1511	 0.189818405562707 
1512	 0.189872536587309 
1513	 0.189949358710813 
1514	 0.190036141878912 
1515	 0.190108750711786 
1516	 0.190185287360959 
1517	 0.190252842608616 
1518	 0.190309574474858 
1519	 0.190367725722719 
1520	 0.190421038887471 
1521	 0.190481811582331 
1522	 0.190541164563456 
1523	 0.190606278389182 
1524	 0.190686912030627 
1525	 0.190746030411978 
1526	 0.190796127065004 
1527	 0.190849669460507 
1528	 0.190886020878598 
1529	 0.190940045144788 
1530	 0.191015422315481 
1531	 0.191068026810929 
1532	 0.191121990863067 
1533	 0.191159683349488 
1534	 0.191165884909253 
1535	 0.191194640430138 
1536	 0.191225725987452 
1537	 0.191262573190961 
1538	 0.191313054667949 
1539	 0.191359193524401 
1540	 0.191405630478328 
1541	 0.19144863573059 
1542	 0.191492706818546 
1543	 0.191536846937525 
1544	 0.191573740044196 
1545	 0.191616021424174 
1546	 0.191669260200868 
1547	 0.19171236503879 
1548	 0.191730407946751 
1549	 0.191767376103733 
1550	 0.191809625482088 
1551	 0.191819962027249 
1552	 0.19184395611953 
1553	 0.191869487169545 
1554	 0.191853237186127 
1555	 0.191844634871099 
1556	 0.191863360385285 
1557	 0.191883598845578 
1558	 0.191919724778885 
1559	 0.191963068501506 
1560	 0.191983264320806 
1561	 0.191982310832389 
1562	 0.191998662907892 
1563	 0.192008835959711 
1564	 0.192033092673603 
1565	 0.192074079612176 
1566	 0.192102024294763 
1567	 0.192135784228492 
1568	 0.192149826270034 
1569	 0.192153510532106 
1570	 0.192151504472827 
1571	 0.19213616785404 
1572	 0.192121274469601 
1573	 0.192088931683399 
1574	 0.192083905236314 
1575	 0.192087837098171 
1576	 0.192092914229478 
1577	 0.192123007182569 
1578	 0.192135944524902 
1579	 0.192140525723315 
1580	 0.192140555725163 
1581	 0.192142091970489 
1582	 0.192127780529616 
1583	 0.192088167895941 
1584	 0.192071189520247 
1585	 0.192064438909685 
1586	 0.19204165526792 
1587	 0.192012226226559 
1588	 0.192000189106352 
1589	 0.191989519283484 
1590	 0.191972340188753 
1591	 0.191982275594904 
1592	 0.191964878155454 
1593	 0.191907119306464 
1594	 0.191871797290859 
1595	 0.191846483338917 
1596	 0.191810675831228 
1597	 0.191779854435243 
1598	 0.191740611522299 
1599	 0.191685904267221 
1600	 0.191638354546963 
1601	 0.191583319877339 
1602	 0.191543982834252 
1603	 0.191525992573843 
1604	 0.191488863059298 
1605	 0.191455181740518 
1606	 0.191413431866077 
1607	 0.191352112253519 
1608	 0.191292070596204 
1609	 0.191243516969733 
1610	 0.191186900767441 
1611	 0.191127076780986 
1612	 0.191054784740497 
1613	 0.190985801998695 
1614	 0.19093055391824 
1615	 0.190869534114489 
1616	 0.190824530491911 
1617	 0.190776945378296 
1618	 0.190702318016494 
1619	 0.190628576263583 
1620	 0.190552292917489 
1621	 0.190465192001089 
1622	 0.190361898599128 
1623	 0.190273288179073 
1624	 0.190181603162983 
1625	 0.190100261749898 
1626	 0.190030374971801 
1627	 0.189951697213886 
1628	 0.18987711779315 
1629	 0.189788992269546 
1630	 0.189690369913273 
1631	 0.189599278964572 
1632	 0.189498003448814 
1633	 0.189418790842488 
1634	 0.189354948528061 
1635	 0.189282057518753 
1636	 0.189223753768072 
1637	 0.189140121740849 
1638	 0.189035801211996 
1639	 0.188948809884085 
1640	 0.18886052984289 
1641	 0.188769681034017 
1642	 0.188683797690642 
1643	 0.188599381213155 
1644	 0.188512239728025 
1645	 0.188418261871155 
1646	 0.188333671418205 
1647	 0.188231631190953 
1648	 0.188104739602628 
1649	 0.187999092480674 
1650	 0.187900464556181 
1651	 0.187795235549453 
1652	 0.187685775236585 
1653	 0.187594191814885 
1654	 0.187505047178166 
1655	 0.18742206517837 
1656	 0.187369224927053 
1657	 0.187282228464768 
1658	 0.187181922409461 
1659	 0.187074316078806 
1660	 0.186935842913658 
1661	 0.186833331039376 
1662	 0.186736860326097 
1663	 0.186651307324367 
1664	 0.186602297575932 
1665	 0.186518137675259 
1666	 0.186420794560551 
1667	 0.186325126212105 
1668	 0.186209607195444 
1669	 0.186114026034979 
1670	 0.186028320740658 
1671	 0.18594307143728 
1672	 0.185858424206518 
1673	 0.18578914771887 
1674	 0.185740935708732 
1675	 0.185668343587927 
1676	 0.185608597816874 
1677	 0.185515938986805 
1678	 0.185381733499651 
1679	 0.185271830696697 
1680	 0.185153449148499 
1681	 0.185048961266581 
1682	 0.184960785505326 
1683	 0.184864762549878 
1684	 0.184764509058091 
1685	 0.184676571885168 
1686	 0.184604172665642 
1687	 0.184509149033403 
1688	 0.184406971599289 
1689	 0.184312838556709 
1690	 0.184209386866846 
1691	 0.18410323269821 
1692	 0.184006267285409 
1693	 0.183906269543482 
1694	 0.183794621838098 
1695	 0.183686531777425 
1696	 0.183570635121259 
1697	 0.183484538542372 
1698	 0.183412238217611 
1699	 0.183334318196999 
1700	 0.183291738362767 
1701	 0.183216047273665 
1702	 0.183117697618453 
1703	 0.183013845290739 
1704	 0.182889901993256 
1705	 0.182786833885263 
1706	 0.182670676492422 
1707	 0.182584658412207 
1708	 0.182546899980449 
1709	 0.182459901386017 
1710	 0.182351982531352 
1711	 0.182266703597529 
1712	 0.182164938140951 
1713	 0.182077496108775 
1714	 0.182022419038004 
1715	 0.18194371423798 
1716	 0.181845055400593 
1717	 0.181760224601134 
1718	 0.181687688403254 
1719	 0.181596578696938 
1720	 0.181500011024876 
1721	 0.181400824738124 
1722	 0.181283027506095 
1723	 0.181187652747459 
1724	 0.18110461186574 
1725	 0.181012289046945 
1726	 0.180930689593718 
1727	 0.180829695129699 
1728	 0.180709322835894 
1729	 0.180606704052882 
1730	 0.180503753364513 
1731	 0.180401658782385 
1732	 0.180306934776176 
1733	 0.180214370960986 
1734	 0.180121321221948 
1735	 0.180027916593328 
1736	 0.179942997582304 
1737	 0.179846263594658 
1738	 0.179743917814918 
1739	 0.17963218889969 
1740	 0.179496822975877 
1741	 0.17941491972976 
1742	 0.179344264372915 
1743	 0.179290478292506 
1744	 0.179292745415174 
1745	 0.179237637474766 
1746	 0.179155832601433 
1747	 0.179081341160472 
1748	 0.17901436732491 
1749	 0.178920669715465 
1750	 0.178823628133351 
1751	 0.178720840140185 
1752	 0.178608133522623 
1753	 0.178541335071889 
1754	 0.178489341341317 
1755	 0.178428489166585 
1756	 0.178358948623495 
1757	 0.178252410061289 
1758	 0.178144613206417 
1759	 0.178041452342432 
1760	 0.177948319957528 
1761	 0.177885331971828 
1762	 0.177799190473775 
1763	 0.177714539370049 
1764	 0.177659426628079 
1765	 0.177597351613566 
1766	 0.177559210958375 
1767	 0.177521211661298 
1768	 0.177455994054827 
1769	 0.177393601728751 
1770	 0.177323932097422 
1771	 0.177259458692126 
1772	 0.177184058320529 
1773	 0.177101599161349 
1774	 0.177037154989333 
1775	 0.176945771384906 
1776	 0.176837853847416 
1777	 0.17672788832053 
1778	 0.176610895977244 
1779	 0.176533674900169 
1780	 0.176498664312581 
1781	 0.176478517959752 
1782	 0.176462336208776 
1783	 0.176439450147032 
1784	 0.176426744132585 
1785	 0.176436163368815 
1786	 0.176407077204238 
1787	 0.176377732133964 
1788	 0.176304449002634 
1789	 0.176163351278088 
1790	 0.176076371071712 
1791	 0.175979535667041 
1792	 0.175915193171541 
1793	 0.175892723598735 
1794	 0.175871416763099 
1795	 0.175873085655942 
1796	 0.175867386128932 
1797	 0.175868743415677 
1798	 0.175842610617617 
1799	 0.175800256247211 
1800	 0.175765095819319 
1801	 0.171713495989518 
1802	 0.171867479132665 
1803	 0.172023261964064 
1804	 0.172173516652266 
1805	 0.172294763030521 
1806	 0.172403297384251 
1807	 0.172551046593983 
1808	 0.172666799736394 
1809	 0.172779258267174 
1810	 0.17287615092835 
1811	 0.172975122930134 
1812	 0.173025997926239 
1813	 0.173052856340896 
1814	 0.173084912453888 
1815	 0.173114309065782 
1816	 0.173135676128546 
1817	 0.173155483218855 
1818	 0.173177428413837 
1819	 0.173199380519953 
1820	 0.173225755831793 
1821	 0.173226268825833 
1822	 0.173216868140179 
1823	 0.173225517190541 
1824	 0.173214257444096 
1825	 0.173195172642573 
1826	 0.173199864962912 
1827	 0.173192983013695 
1828	 0.173185797867784 
1829	 0.173186650109934 
1830	 0.173165971537768 
1831	 0.17313016868715 
1832	 0.173109037921385 
1833	 0.173057268528128 
1834	 0.172997329271385 
1835	 0.172952398760626 
1836	 0.172906620277187 
1837	 0.172868718645478 
1838	 0.172842533199227 
1839	 0.172829497538156 
1840	 0.172837166241828 
1841	 0.172823173472023 
1842	 0.172816580679413 
1843	 0.172837894916128 
1844	 0.17283417412092 
1845	 0.172806717641417 
1846	 0.172777680347366 
1847	 0.172761278431069 
1848	 0.172754072327922 
1849	 0.172756716524225 
1850	 0.172749876551114 
1851	 0.172755273238979 
1852	 0.172735679216956 
1853	 0.172713738443072 
1854	 0.172676699227149 
1855	 0.172623645865019 
1856	 0.172559162027047 
1857	 0.172456569657443 
1858	 0.172352292714783 
1859	 0.172251364676643 
1860	 0.172123808250873 
1861	 0.171979411329252 
1862	 0.171826822975975 
1863	 0.171630014363869 
1864	 0.171389640612846 
1865	 0.171134500147084 
1866	 0.170824432051497 
1867	 0.170508650925754 
1868	 0.170191775925556 
1869	 0.169863837574448 
1870	 0.169536274857501 
1871	 0.169212681532823 
1872	 0.168886878634301 
1873	 0.168584087272986 
1874	 0.168264542908425 
1875	 0.167953228804954 
1876	 0.167629634316422 
1877	 0.167287555300096 
1878	 0.166935100504883 
1879	 0.166530585217385 
1880	 0.166058173052634 
1881	 0.16552118264433 
1882	 0.164951700262208 
1883	 0.164328064757932 
1884	 0.163649553012813 
1885	 0.162953268161 
1886	 0.16223149801452 
1887	 0.161436684979092 
1888	 0.160598915784228 
1889	 0.159719266984651 
1890	 0.158791064743092 
1891	 0.157832687699666 
1892	 0.156827994519027 
1893	 0.15579541773215 
1894	 0.154726541988968 
1895	 0.153640759716803 
1896	 0.152501038903153 
1897	 0.151318594352458 
1898	 0.150122111684344 
1899	 0.148907513998984 
1900	 0.147724914689183 
1901	 0.146587327953316 
1902	 0.145476901569835 
1903	 0.144425936560467 
1904	 0.143368609483233 
1905	 0.142317177185323 
1906	 0.141305720756158 
1907	 0.140321679424589 
1908	 0.139335048377771 
1909	 0.138399616441241 
1910	 0.137484542874079 
1911	 0.13659738161897 
1912	 0.135752683675062 
1913	 0.134929744627961 
1914	 0.134121942578409 
1915	 0.133368195063126 
1916	 0.132644460836541 
1917	 0.131963142199658 
1918	 0.131343211386163 
1919	 0.130762788807987 
1920	 0.130231339214992 
1921	 0.129749095084119 
1922	 0.12927201378987 
1923	 0.1288445937407 
1924	 0.128432189028973 
1925	 0.128033940057095 
1926	 0.127659963641594 
1927	 0.127318457853752 
1928	 0.12699626532692 
1929	 0.126669833639045 
1930	 0.126376469969769 
1931	 0.1261320826391 
1932	 0.125889036192829 
1933	 0.125657188323334 
1934	 0.125474159858732 
1935	 0.125305356837632 
1936	 0.1251491077991 
1937	 0.125008304326545 
1938	 0.124896898658723 
1939	 0.124798967804384 
1940	 0.124698343322951 
1941	 0.124629746692612 
1942	 0.124603000989885 
1943	 0.124616389440193 
1944	 0.12467454923023 
1945	 0.124757166495908 
1946	 0.124844757994109 
1947	 0.12495980901161 
1948	 0.125079401215368 
1949	 0.125200247455735 
1950	 0.125346960007607 
1951	 0.125519004275542 
1952	 0.125695294102613 
1953	 0.12589658252892 
1954	 0.126089170051995 
1955	 0.126266744548998 
1956	 0.126449225328239 
1957	 0.126632813516222 
1958	 0.126802914485247 
1959	 0.126990871364286 
1960	 0.127197171270986 
1961	 0.12739244032674 
1962	 0.127598019648044 
1963	 0.127786716712164 
1964	 0.127968113244461 
1965	 0.128149536699345 
1966	 0.128303936114412 
1967	 0.128424500017164 
1968	 0.12855603819094 
1969	 0.128657230774878 
1970	 0.128793340615834 
1971	 0.128938499598505 
1972	 0.129100609728703 
1973	 0.129289839072359 
1974	 0.12946605054355 
1975	 0.129647879972695 
1976	 0.12983146394203 
1977	 0.130011007653301 
1978	 0.130193332160147 
1979	 0.130384176697285 
1980	 0.130589156623774 
1981	 0.130790404896594 
1982	 0.130998480468671 
1983	 0.131199418695169 
1984	 0.131399636808109 
1985	 0.131597110986176 
1986	 0.131782670289007 
1987	 0.131981227344444 
1988	 0.132183835728271 
1989	 0.132399867906483 
1990	 0.132599479417716 
1991	 0.132784316318632 
1992	 0.132976687943315 
1993	 0.133151346889644 
1994	 0.133346066195806 
1995	 0.133563436433679 
1996	 0.133760498192536 
1997	 0.133942206175677 
1998	 0.134144386172918 
1999	 0.134355441787603 
2000	 0.13455809704344 
2001	 0.134771168132301 
2002	 0.134983238359895 
2003	 0.135170771340238 
2004	 0.13535831230069 
2005	 0.135558743815663 
2006	 0.135769990904811 
2007	 0.135968543932683 
2008	 0.13616319677549 
2009	 0.136371145287731 
2010	 0.136582742614642 
2011	 0.136791405592275 
2012	 0.137006442675021 
2013	 0.137222019539907 
2014	 0.137431903850678 
2015	 0.13764688542521 
2016	 0.137857430318815 
2017	 0.138074220951592 
2018	 0.138290783906805 
2019	 0.13850234976947 
2020	 0.138712335476794 
2021	 0.138934408733424 
2022	 0.139142278201186 
2023	 0.139329650354419 
2024	 0.139532394387468 
2025	 0.139731667303573 
2026	 0.13994196639721 
2027	 0.140165147320689 
2028	 0.140390983527187 
2029	 0.140608295495884 
2030	 0.140835181330212 
2031	 0.141038259395309 
2032	 0.141219085716811 
2033	 0.141414652706873 
2034	 0.14160946952372 
2035	 0.141799518653499 
2036	 0.141983114981764 
2037	 0.142182761481655 
2038	 0.142396357827743 
2039	 0.142586864827286 
2040	 0.142768197118078 
2041	 0.142969223293685 
2042	 0.143141502551923 
2043	 0.143312129399118 
2044	 0.14349983624336 
2045	 0.14371273093063 
2046	 0.143900021235778 
2047	 0.144087007390993 
2048	 0.144263872870481 
2049	 0.144414345771698 
2050	 0.144590306876799 
2051	 0.144785656073125 
2052	 0.144957417171737 
2053	 0.145120446190665 
2054	 0.145294844863483 
2055	 0.145459358675281 
2056	 0.145627617082163 
2057	 0.145793601660885 
2058	 0.14597455035549 
2059	 0.146147661596422 
2060	 0.146308422440193 
2061	 0.146472430607726 
2062	 0.146646988232911 
2063	 0.146812560389474 
2064	 0.146963847309184 
2065	 0.147122926371824 
2066	 0.147293811578634 
2067	 0.147450337788646 
2068	 0.147592218192326 
2069	 0.147745828635736 
2070	 0.147899082089984 
2071	 0.148041154545441 
2072	 0.148208062757157 
2073	 0.148409018682289 
2074	 0.148561658018563 
2075	 0.148698939181389 
2076	 0.14884260374956 
2077	 0.148955524694 
2078	 0.149089349730259 
2079	 0.149234391742671 
2080	 0.149390964786984 
2081	 0.149572782694974 
2082	 0.149725030076181 
2083	 0.149874021881245 
2084	 0.150023985605901 
2085	 0.150162631249306 
2086	 0.150268714262819 
2087	 0.150397742545081 
2088	 0.150538307020371 
2089	 0.150676957296678 
2090	 0.150809438506512 
2091	 0.15095225868186 
2092	 0.151108553768697 
2093	 0.151258206151909 
2094	 0.151409337844653 
2095	 0.15155815543878 
2096	 0.151713702202571 
2097	 0.151853969604783 
2098	 0.151971724936712 
2099	 0.152115098487847 
2100	 0.152239597347342 
2101	 0.15235093154453 
2102	 0.152467957005806 
2103	 0.152576583765863 
2104	 0.152704310314931 
2105	 0.15284656368149 
2106	 0.152973601460219 
2107	 0.153091756526753 
2108	 0.153235017851653 
2109	 0.153380816498267 
2110	 0.153530564662616 
2111	 0.153706499884156 
2112	 0.153879745606004 
2113	 0.154062870639243 
2114	 0.154216704749748 
2115	 0.154377676607184 
2116	 0.154562531441673 
2117	 0.154690082649176 
2118	 0.1547748984063 
2119	 0.154881020178234 
2120	 0.154961759024273 
2121	 0.155061478256825 
2122	 0.1551722170129 
2123	 0.155287834200677 
2124	 0.155409611933634 
2125	 0.155526065967144 
2126	 0.155649038787409 
2127	 0.155770817372796 
2128	 0.1558910239257 
2129	 0.156005850485546 
2130	 0.156129971893295 
2131	 0.156240486485893 
2132	 0.15633710352972 
2133	 0.156425299778983 
2134	 0.156490751096948 
2135	 0.156535546779899 
2136	 0.156578761412062 
2137	 0.156598556742534 
2138	 0.156626952097122 
2139	 0.156660131791072 
2140	 0.156681152063616 
2141	 0.15669417941347 
2142	 0.156705200141502 
2143	 0.156698084451447 
2144	 0.156704356320177 
2145	 0.156723794570527 
2146	 0.156731979358999 
2147	 0.156738425600181 
2148	 0.156756022759147 
2149	 0.1567429552226 
2150	 0.156715782681216 
2151	 0.156673387203717 
2152	 0.156603291445692 
2153	 0.156549512518771 
2154	 0.156489388255375 
2155	 0.156427920739488 
2156	 0.156376151944848 
2157	 0.156309567548748 
2158	 0.156220521913013 
2159	 0.156148662645351 
2160	 0.15607312149272 
2161	 0.156011561302361 
2162	 0.155978857377135 
2163	 0.155924506252006 
2164	 0.155880233395898 
2165	 0.155806015407601 
2166	 0.155732433679362 
2167	 0.155645125843906 
2168	 0.155551668198174 
2169	 0.155454036812938 
2170	 0.155344812030706 
2171	 0.155198478941548 
2172	 0.15510129900045 
2173	 0.155027840532104 
2174	 0.154939784130649 
2175	 0.154872922543366 
2176	 0.154794115548865 
2177	 0.154699513230425 
2178	 0.154605558616066 
2179	 0.15452669339561 
2180	 0.154431025488862 
2181	 0.154312667216751 
2182	 0.154197935936474 
2183	 0.154083462648515 
2184	 0.153956972777958 
2185	 0.153836276817704 
2186	 0.153714327238385 
2187	 0.153599094580335 
2188	 0.153481728795446 
2189	 0.153374573872375 
2190	 0.153274296601335 
2191	 0.153175972578352 
2192	 0.153090610615251 
2193	 0.152993796446444 
2194	 0.152892453199545 
2195	 0.1527967329545 
2196	 0.152675925513492 
2197	 0.152596261066323 
2198	 0.152560172718144 
2199	 0.152498372046325 
2200	 0.152445182903224 
2201	 0.152394714600067 
2202	 0.152337015580489 
2203	 0.152256381147064 
2204	 0.152215970212572 
2205	 0.152201746755057 
2206	 0.152182502902091 
2207	 0.152174955781646 
2208	 0.152168239599127 
2209	 0.152170102735109 
2210	 0.1521642383863 
2211	 0.152151396892069 
2212	 0.152156796753131 
2213	 0.152180812774531 
2214	 0.152179617429355 
2215	 0.152169330869047 
2216	 0.152173789789124 
2217	 0.152174252247882 
2218	 0.15216620848383 
2219	 0.15216319360472 
2220	 0.152170530473848 
2221	 0.152168136660863 
2222	 0.15216524321403 
2223	 0.152189214687121 
2224	 0.152213021653187 
2225	 0.152238358464453 
2226	 0.152258151410683 
2227	 0.152281529814462 
2228	 0.152318313822768 
2229	 0.152342172418835 
2230	 0.152362947520412 
2231	 0.152371173634012 
2232	 0.152367034937939 
2233	 0.152368881046871 
2234	 0.15235412468092 
2235	 0.152358727585623 
2236	 0.152407684157408 
2237	 0.152396528710929 
2238	 0.152345935692701 
2239	 0.152319779195292 
2240	 0.152257613600719 
2241	 0.152221795458825 
2242	 0.152228352946714 
2243	 0.152215464958881 
2244	 0.152201067987704 
2245	 0.152178972472233 
2246	 0.152132131524181 
2247	 0.152104720565295 
2248	 0.152058463814635 
2249	 0.151996559719875 
2250	 0.151937789129969 
2251	 0.151872471425094 
2252	 0.151811037938913 
2253	 0.151739538769563 
2254	 0.151690957509396 
2255	 0.151665067266759 
2256	 0.151615987531766 
2257	 0.151566853862343 
2258	 0.151513384055175 
2259	 0.15143722139557 
2260	 0.151385033725225 
2261	 0.151343981562959 
2262	 0.151307019134079 
2263	 0.1512774831536 
2264	 0.151254983666859 
2265	 0.151257662020897 
2266	 0.151233702752275 
2267	 0.151196313656644 
2268	 0.151163708346841 
2269	 0.151111997563422 
2270	 0.151073411928496 
2271	 0.151038974126311 
2272	 0.151017131173349 
2273	 0.150985263531551 
2274	 0.150944795098933 
2275	 0.150900299892594 
2276	 0.150851055927969 
2277	 0.150802674619293 
2278	 0.150745385691609 
2279	 0.150697745515313 
2280	 0.150654504842335 
2281	 0.150608124283203 
2282	 0.150573711211011 
2283	 0.150514030058039 
2284	 0.150438273396451 
2285	 0.150373685237585 
2286	 0.15029306685354 
2287	 0.150223809536413 
2288	 0.150170943057407 
2289	 0.15011428814733 
2290	 0.150067012964518 
2291	 0.149995055813438 
2292	 0.149910372737717 
2293	 0.149826577197296 
2294	 0.14971427180105 
2295	 0.149619631184212 
2296	 0.149540007096281 
2297	 0.149461479282552 
2298	 0.149378957016885 
2299	 0.149296029109881 
2300	 0.14915847633444 
2301	 0.149013262857086 
2302	 0.148891786593403 
2303	 0.14874443260752 
2304	 0.148661240749384 
2305	 0.148600652074102 
2306	 0.148483726623129 
2307	 0.148333448376174 
2308	 0.148210524068887 
2309	 0.148072777568483 
2310	 0.147930997574066 
2311	 0.147808235536043 
2312	 0.147665777984241 
2313	 0.147497469871519 
2314	 0.14732660802992 
2315	 0.147151364656332 
2316	 0.146980907965824 
2317	 0.146783009468196 
2318	 0.146624907567084 
2319	 0.146491290974827 
2320	 0.146356588193505 
2321	 0.146261822343246 
2322	 0.146135193385186 
2323	 0.145992137209449 
2324	 0.145853895846833 
2325	 0.145680722445194 
2326	 0.145537938377708 
2327	 0.145411865722634 
2328	 0.14530837225434 
2329	 0.145188023838791 
2330	 0.145053083144852 
2331	 0.144874243004063 
2332	 0.14468124170806 
2333	 0.144509391052079 
2334	 0.144331632750771 
2335	 0.144147307553166 
2336	 0.144012442984483 
2337	 0.143857882367125 
2338	 0.143708582180069 
2339	 0.143607052044894 
2340	 0.143417466418129 
2341	 0.143170801958272 
2342	 0.142942805428909 
2343	 0.142716260653201 
2344	 0.142512602382811 
2345	 0.142297408899104 
2346	 0.14212804754742 
2347	 0.141912933938323 
2348	 0.141651130357475 
2349	 0.14141159136871 
2350	 0.141167362001104 
2351	 0.140945848789347 
2352	 0.140733339414374 
2353	 0.140501015593602 
2354	 0.140294450038333 
2355	 0.140065163105922 
2356	 0.139812884579437 
2357	 0.139562132621309 
2358	 0.139310008161422 
2359	 0.139058985910658 
2360	 0.138764705208701 
2361	 0.138508431276961 
2362	 0.138308047633823 
2363	 0.138041729510255 
2364	 0.137739168310712 
2365	 0.137484164213223 
2366	 0.137249212173111 
2367	 0.136968140914383 
2368	 0.136671607167819 
2369	 0.13642469243419 
2370	 0.136180711403306 
2371	 0.135871201131758 
2372	 0.135664632863408 
2373	 0.135442756204831 
2374	 0.135195627397081 
2375	 0.134937038461521 
2376	 0.134648342413068 
2377	 0.134350462787814 
2378	 0.134034342945568 
2379	 0.133725053857156 
2380	 0.133489225014888 
2381	 0.133324176709461 
2382	 0.133113641160279 
2383	 0.132903174485673 
2384	 0.132612944720306 
2385	 0.132228478744019 
2386	 0.131881532627058 
2387	 0.131592230595154 
2388	 0.131369039237029 
2389	 0.131169375472685 
2390	 0.131013539541453 
2391	 0.130800486264146 
2392	 0.130560055882666 
2393	 0.13035315365633 
2394	 0.130119904311778 
2395	 0.129877963331485 
2396	 0.129619636374214 
2397	 0.129389255739074 
2398	 0.129155164973593 
2399	 0.128916770424291 
2400	 0.128686429232325 
2401	 0.128465938812771 
2402	 0.128212421270403 
2403	 0.127920977119534 
2404	 0.127688783522215 
2405	 0.127465763767473 
2406	 0.12730520235502 
2407	 0.127152631890376 
2408	 0.126914479405187 
2409	 0.126757830527578 
2410	 0.126647981912769 
2411	 0.126536738279095 
2412	 0.126451265062872 
2413	 0.126224175086921 
2414	 0.125994555239429 
2415	 0.125855800334137 
2416	 0.125645269527102 
2417	 0.125460867167744 
2418	 0.125284648642437 
2419	 0.125004100197018 
2420	 0.124821263006182 
2421	 0.124728678752236 
2422	 0.124588212183062 
2423	 0.124451520961085 
2424	 0.124345401920985 
2425	 0.124294315398485 
2426	 0.124184717410075 
2427	 0.124072386027265 
2428	 0.123862710118315 
2429	 0.123560828027695 
2430	 0.123306029139851 
2431	 0.123021939393174 
2432	 0.122807544369417 
2433	 0.122587093275607 
2434	 0.122419957374225 
2435	 0.122330901586333 
2436	 0.122167641902058 
2437	 0.12204309596773 
2438	 0.121850763409968 
2439	 0.121538551718537 
2440	 0.1213289203139 
2441	 0.121167987935675 
2442	 0.121059056010929 
2443	 0.121015043904529 
2444	 0.12092155490692 
2445	 0.120831404353981 
2446	 0.12065986006472 
2447	 0.120498225212039 
2448	 0.120281087140733 
2449	 0.11994898572419 
2450	 0.119706364549258 
2451	 0.119418487067759 
2452	 0.119195259052052 
2453	 0.119076528104145 
2454	 0.118912651461851 
2455	 0.118818402150771 
2456	 0.118587674532053 
2457	 0.11823443938152 
2458	 0.11801849350563 
2459	 0.117756451508715 
2460	 0.117477665126354 
2461	 0.117247545196337 
2462	 0.117108727769456 
2463	 0.116995306679118 
2464	 0.116891154313415 
2465	 0.116974454103781 
2466	 0.11690292639525 
2467	 0.116611884188309 
2468	 0.116504855261415 
2469	 0.116497369065066 
2470	 0.116263525958288 
2471	 0.116241990642886 
2472	 0.116072586612588 
2473	 0.115757695589165 
2474	 0.115659889819572 
2475	 0.115539007135591 
2476	 0.115334882856179 
2477	 0.115207021780964 
2478	 0.115052163927399 
2479	 0.114827881206163 
2480	 0.114669951733868 
2481	 0.114638285754153 
2482	 0.114550069657689 
2483	 0.114355129074415 
2484	 0.114179901497898 
2485	 0.113989737924081 
2486	 0.113778330172522 
2487	 0.113693233904319 
2488	 0.113608704120667 
2489	 0.113448802391466 
2490	 0.113366838997923 
2491	 0.113261853967554 
2492	 0.113116693466678 
2493	 0.112957591821811 
2494	 0.112645068957168 
2495	 0.112456265102287 
2496	 0.11242762293963 
2497	 0.112188916739246 
2498	 0.112001784934512 
2499	 0.1118857907455 
2500	 0.111683633985502 
