Wavelength	LMW_1000007.asd
350	 4.28738607266112E-02 
351	 5.37354274872257E-02 
352	 5.20976889616816E-02 
353	 0.038449187457592 
354	 4.04848400184996E-02 
355	 3.99693995005214E-02 
356	 3.91127476765414E-02 
357	 4.28461262620062E-02 
358	 4.67995447517231E-02 
359	 4.73425829535693E-02 
360	 4.54484462151004E-02 
361	 4.45335623717308E-02 
362	 3.92218242041644E-02 
363	 3.97234233199024E-02 
364	 4.61843501276838E-02 
365	 4.01434282175904E-02 
366	 4.02279303182562E-02 
367	 4.40999434972028E-02 
368	 4.51660854743319E-02 
369	 4.41965502535014E-02 
370	 4.37250084734179E-02 
371	 4.42031380113069E-02 
372	 0.044599296417237 
373	 4.48337906194688E-02 
374	 4.44902897314067E-02 
375	 4.42230909347312E-02 
376	 4.68549911035712E-02 
377	 4.57416344773987E-02 
378	 4.28166871887075E-02 
379	 4.20336255733033E-02 
380	 4.33922790686139E-02 
381	 4.64875822321004E-02 
382	 4.89213327912497E-02 
383	 0.047564151276971 
384	 4.95866821469225E-02 
385	 4.91723004850543E-02 
386	 4.45286595316066E-02 
387	 4.47275129081754E-02 
388	 4.75321284665924E-02 
389	 4.96958992408621E-02 
390	 4.85410130832223E-02 
391	 4.60639249028734E-02 
392	 4.63446045589206E-02 
393	 4.89295083178009E-02 
394	 4.97469938961317E-02 
395	 5.09614237159518E-02 
396	 5.17508775692201E-02 
397	 5.13888233166853E-02 
398	 5.02125730101773E-02 
399	 4.83077109578615E-02 
400	 4.84355006728798E-02 
401	 5.24692753958395E-02 
402	 5.24413563242959E-02 
403	 5.19223740096185E-02 
404	 5.24714717157152E-02 
405	 5.28781718116493E-02 
406	 0.053376376083468 
407	 5.36408017538966E-02 
408	 5.33845771133904E-02 
409	 5.25045106153056E-02 
410	 5.20356337166346E-02 
411	 5.15478056663128E-02 
412	 5.04504278127378E-02 
413	 0.052571911258953 
414	 5.39212169253932E-02 
415	 5.32548709399793E-02 
416	 5.36256969664379E-02 
417	 5.35005669271361E-02 
418	 5.33111106614557E-02 
419	 5.36735418917773E-02 
420	 5.45136597499349E-02 
421	 5.39623640989958E-02 
422	 0.053059836124964 
423	 5.42876151838596E-02 
424	 5.40248761336957E-02 
425	 5.30463692264305E-02 
426	 5.25054493427826E-02 
427	 5.32773849984735E-02 
428	 5.35057800925498E-02 
429	 5.31147765856164E-02 
430	 5.27038794769939E-02 
431	 5.30036631874492E-02 
432	 5.29754899835292E-02 
433	 5.25771476656234E-02 
434	 5.27515258507674E-02 
435	 5.28428403400775E-02 
436	 5.26169486037101E-02 
437	 5.21304182286782E-02 
438	 5.19217698997225E-02 
439	 5.20228889152667E-02 
440	 5.21348917806678E-02 
441	 5.19106512482382E-02 
442	 5.21384850250893E-02 
443	 5.24437548735884E-02 
444	 5.25537683319114E-02 
445	 5.25191854176532E-02 
446	 5.24700923921846E-02 
447	 5.25089031231822E-02 
448	 0.052636869804409 
449	 5.24690227961084E-02 
450	 5.25906132686107E-02 
451	 5.28741247548987E-02 
452	 0.052619692935308 
453	 5.24257316445246E-02 
454	 5.25050430093026E-02 
455	 5.27911637439239E-02 
456	 5.27289719304609E-02 
457	 5.26225800796412E-02 
458	 5.25885814264855E-02 
459	 5.26268355540983E-02 
460	 5.24745357527412E-02 
461	 0.052429420530395 
462	 5.25808739880506E-02 
463	 5.26722713370199E-02 
464	 0.052386753345477 
465	 5.21592785025263E-02 
466	 5.23709637901287E-02 
467	 0.052295908137457 
468	 5.20787357671982E-02 
469	 5.20132642209405E-02 
470	 5.24174586113807E-02 
471	 5.22386796252649E-02 
472	 5.20569867072193E-02 
473	 5.23073151169789E-02 
474	 5.24681232256883E-02 
475	 5.22372855286722E-02 
476	 5.19472815034194E-02 
477	 5.21035843723267E-02 
478	 5.20757952986148E-02 
479	 5.20274883329269E-02 
480	 5.19918434548297E-02 
481	 0.051712766147612 
482	 5.19041814002782E-02 
483	 5.22023448249302E-02 
484	 5.21324753500999E-02 
485	 5.20818374007588E-02 
486	 5.20151034607436E-02 
487	 5.19703198324529E-02 
488	 5.20418070260218E-02 
489	 5.21538274846123E-02 
490	 5.21170267565916E-02 
491	 5.19039569914389E-02 
492	 5.19236727320694E-02 
493	 0.051893173535464 
494	 5.17792590889016E-02 
495	 5.16868506192324E-02 
496	 5.18579766214296E-02 
497	 5.18863369654012E-02 
498	 5.16962497603447E-02 
499	 5.17909330902663E-02 
500	 5.17613018202275E-02 
501	 5.17012922510826E-02 
502	 5.17728977207087E-02 
503	 5.17758435951115E-02 
504	 0.051770314491105 
505	 5.17379695940101E-02 
506	 0.051596049599141 
507	 5.16516552758383E-02 
508	 5.17531010500182E-02 
509	 5.17373797248886E-02 
510	 5.16533079296326E-02 
511	 5.15861798403408E-02 
512	 5.15633098536793E-02 
513	 5.15799660262843E-02 
514	 5.16908794301598E-02 
515	 5.17350505148508E-02 
516	 5.16810638929869E-02 
517	 5.17671502729875E-02 
518	 5.16561103760111E-02 
519	 5.15032627409498E-02 
520	 5.15567286598036E-02 
521	 5.16384473806461E-02 
522	 5.17688259820964E-02 
523	 5.19047991430109E-02 
524	 5.19298500273916E-02 
525	 5.17580655839559E-02 
526	 5.15953748170047E-02 
527	 0.051619063302735 
528	 5.17133273698566E-02 
529	 0.051808581483226 
530	 5.18513179490765E-02 
531	 5.18147384160356E-02 
532	 5.18207738039935E-02 
533	 5.18020716321759E-02 
534	 5.17528021579879E-02 
535	 5.18721611796158E-02 
536	 5.18932604356104E-02 
537	 5.18906204986544E-02 
538	 5.20229854434423E-02 
539	 5.20346361051943E-02 
540	 0.052046140381231 
541	 5.21121203321937E-02 
542	 5.21625351892876E-02 
543	 5.21471451484446E-02 
544	 5.21578071469025E-02 
545	 5.22734396297767E-02 
546	 5.23600409862397E-02 
547	 5.24048510634367E-02 
548	 5.24364188198874E-02 
549	 0.052510565371437 
550	 5.25492073229545E-02 
551	 5.26017566887675E-02 
552	 5.27192557295658E-02 
553	 5.29211962280985E-02 
554	 5.29761446203227E-02 
555	 5.29666765545416E-02 
556	 5.31167440030861E-02 
557	 0.053255019187132 
558	 5.33865734041033E-02 
559	 5.35299619611833E-02 
560	 5.36951589805591E-02 
561	 5.38355660911632E-02 
562	 5.39895987788754E-02 
563	 5.42041926226062E-02 
564	 5.44016207014482E-02 
565	 5.45773972755127E-02 
566	 5.47728377312761E-02 
567	 5.50721001995514E-02 
568	 5.53796516046254E-02 
569	 5.56407511609715E-02 
570	 5.58647702535893E-02 
571	 5.62372038571458E-02 
572	 5.66111836839641E-02 
573	 5.69499031924724E-02 
574	 5.72953710812983E-02 
575	 5.76181896080328E-02 
576	 5.80127645667529E-02 
577	 5.84836239373762E-02 
578	 5.87826354711772E-02 
579	 5.91702935497945E-02 
580	 5.96735246119764E-02 
581	 6.02167834975232E-02 
582	 6.07684799695174E-02 
583	 6.13275696177094E-02 
584	 6.18755303606887E-02 
585	 6.23638156369983E-02 
586	 0.062898542998737 
587	 6.34624422253618E-02 
588	 6.40167550994378E-02 
589	 6.46116323419185E-02 
590	 6.52067702535291E-02 
591	 6.57956943877208E-02 
592	 6.64046343026173E-02 
593	 6.69468629906063E-02 
594	 6.75154583737713E-02 
595	 6.81793272485917E-02 
596	 0.068860046068193 
597	 6.95113949127802E-02 
598	 7.01292662515585E-02 
599	 0.070743417733253 
600	 7.14094639290291E-02 
601	 7.20452060708941E-02 
602	 7.25987349880105E-02 
603	 7.30977148104622E-02 
604	 0.073644115960268 
605	 7.42208020708878E-02 
606	 7.47722006866173E-02 
607	 7.53070873232833E-02 
608	 7.58476965245712E-02 
609	 0.076376464002193 
610	 7.68332045649676E-02 
611	 7.73177738370828E-02 
612	 7.77898892392254E-02 
613	 7.82008295658204E-02 
614	 7.86054222267074E-02 
615	 7.89407551165326E-02 
616	 7.92446961170096E-02 
617	 7.96125862213777E-02 
618	 7.99560108246448E-02 
619	 8.02007134313768E-02 
620	 8.03613880168434E-02 
621	 8.06392402431067E-02 
622	 8.08921682081049E-02 
623	 8.11215985889026E-02 
624	 8.13735814639049E-02 
625	 0.081600333282978 
626	 8.18245257393691E-02 
627	 0.082050443344951 
628	 8.22500411187104E-02 
629	 8.24732236037462E-02 
630	 8.26862139083977E-02 
631	 8.28498415661756E-02 
632	 0.082992143806588 
633	 8.31454423224173E-02 
634	 8.33241879091064E-02 
635	 8.35255751008018E-02 
636	 8.37301981259695E-02 
637	 8.39224740576871E-02 
638	 8.40866981475214E-02 
639	 8.41924546264225E-02 
640	 8.43642776239817E-02 
641	 8.45631018084353E-02 
642	 0.084696357672229 
643	 8.49227687961589E-02 
644	 8.51186969559383E-02 
645	 8.52539021021246E-02 
646	 8.54715293972322E-02 
647	 8.56540398963349E-02 
648	 8.58288107312119E-02 
649	 0.08604819364862 
650	 8.62944941730805E-02 
651	 8.64886084444287E-02 
652	 8.66493301958581E-02 
653	 8.68775552668089E-02 
654	 8.71345421263182E-02 
655	 8.73618406198006E-02 
656	 8.75468132215842E-02 
657	 0.08780494526822 
658	 8.80253810805715E-02 
659	 0.088228236558918 
660	 0.088488810505226 
661	 8.87964348151407E-02 
662	 8.90709331531486E-02 
663	 8.93066499122325E-02 
664	 8.96142641053798E-02 
665	 8.99177569387634E-02 
666	 9.02037896542443E-02 
667	 9.04839103810606E-02 
668	 9.07928051281841E-02 
669	 0.091127195758434 
670	 9.14663706511599E-02 
671	 9.17803821188464E-02 
672	 9.21289957264841E-02 
673	 9.25058864326272E-02 
674	 9.28912436964098E-02 
675	 0.093270702001452 
676	 9.35809841342585E-02 
677	 9.38902744724125E-02 
678	 9.43052393230728E-02 
679	 9.47445114211148E-02 
680	 9.51644456059422E-02 
681	 9.55665662414422E-02 
682	 9.60064877406344E-02 
683	 9.64489465929569E-02 
684	 9.68992157266921E-02 
685	 9.73635218492676E-02 
686	 9.78174107323769E-02 
687	 9.82449761562367E-02 
688	 9.86957216413572E-02 
689	 9.92453300664783E-02 
690	 9.97008082398936E-02 
691	 0.100162006803277 
692	 0.100692583176216 
693	 0.101198273482686 
694	 0.101699995750373 
695	 0.102231597784168 
696	 0.102814904671783 
697	 0.103367219002305 
698	 0.103921915277915 
699	 0.104479447201192 
700	 0.105002096588658 
701	 0.105561695555209 
702	 0.106142223616157 
703	 0.106716738602757 
704	 0.107285315416968 
705	 0.107836750367343 
706	 0.10839769188285 
707	 0.10900405765439 
708	 0.10960485155245 
709	 0.110184243172111 
710	 0.110751977106688 
711	 0.111350984816923 
712	 0.1119600531216 
713	 0.112532668396955 
714	 0.11305420649615 
715	 0.113653334328812 
716	 0.114222292469286 
717	 0.114757405074174 
718	 0.115327662960321 
719	 0.115881295647617 
720	 0.116412215129107 
721	 0.116920939886509 
722	 0.117403711208018 
723	 0.117919018248824 
724	 0.11843869469556 
725	 0.118912690921627 
726	 0.119351073876018 
727	 0.119777027768603 
728	 0.120193802041932 
729	 0.120584845643606 
730	 0.120946068873916 
731	 0.121320557399829 
732	 0.121711920968805 
733	 0.122008143630364 
734	 0.122292722638135 
735	 0.122567896861218 
736	 0.122812718792892 
737	 0.123081302602427 
738	 0.123299112077337 
739	 0.123466724606256 
740	 0.123671980853424 
741	 0.123803040922003 
742	 0.123886791461581 
743	 0.123956933557107 
744	 0.12398059726459 
745	 0.12396628754938 
746	 0.123966488141083 
747	 0.124023859406158 
748	 0.123963970290008 
749	 0.123876687767624 
750	 0.123797878436115 
751	 0.123669980505025 
752	 0.123538768639088 
753	 0.123399919414417 
754	 0.123237384338796 
755	 0.123034664060056 
756	 0.122818716943009 
757	 0.122593923093296 
758	 0.12235663670133 
759	 0.122147081314596 
760	 0.121858079708594 
761	 0.121502626898587 
762	 0.121254243589466 
763	 0.120944365693112 
764	 0.120617204850584 
765	 0.120323464134788 
766	 0.119981910322603 
767	 0.119634386160593 
768	 0.11927377397934 
769	 0.118878433526954 
770	 0.118512129604601 
771	 0.118129299729447 
772	 0.117721763073635 
773	 0.117336438662241 
774	 0.116945577645826 
775	 0.116561730510971 
776	 0.116191020712883 
777	 0.115802113567883 
778	 0.11540281928852 
779	 0.114996849908982 
780	 0.114586263970998 
781	 0.114170084885543 
782	 0.113755835443387 
783	 0.113346771683695 
784	 0.112942604553303 
785	 0.112576631848077 
786	 0.112196662705438 
787	 0.111776804903484 
788	 0.111390745585335 
789	 0.111021654315699 
790	 0.110651621334738 
791	 0.110261764485973 
792	 0.109841369975546 
793	 0.109454721369055 
794	 0.109108793151663 
795	 0.108759261721681 
796	 0.108402602044438 
797	 0.108039596483782 
798	 0.107681035760404 
799	 0.107351873800372 
800	 0.107042868559685 
801	 0.106717533018092 
802	 0.106354838712346 
803	 0.106021761102128 
804	 0.105715822816693 
805	 0.10541431739458 
806	 0.105090953324542 
807	 0.104803649717738 
808	 0.1045033933775 
809	 0.104189351922656 
810	 0.103933931913779 
811	 0.103662584283808 
812	 0.103366216679692 
813	 0.103070295874279 
814	 0.102854981245797 
815	 0.102601132217863 
816	 0.102343905395808 
817	 0.102152248450531 
818	 0.101901256189724 
819	 0.101650556635496 
820	 0.101424751866848 
821	 0.101206088261569 
822	 0.100945346113783 
823	 0.100716104728172 
824	 0.100548817784245 
825	 0.100374541010197 
826	 0.100172845426479 
827	 9.99751524763487E-02 
828	 9.98103408527035E-02 
829	 9.96486006807219E-02 
830	 9.94384711485781E-02 
831	 9.92557347883522E-02 
832	 9.91944363697033E-02 
833	 9.90566805173469E-02 
834	 9.89005864659394E-02 
835	 9.87471566182688E-02 
836	 9.85735720701193E-02 
837	 9.84934200350228E-02 
838	 9.84166179824533E-02 
839	 9.82841055718191E-02 
840	 9.81469571801309E-02 
841	 0.098055821928573 
842	 9.79734180068194E-02 
843	 9.78628841241726E-02 
844	 9.77756680324602E-02 
845	 9.77097435456912E-02 
846	 9.76331267021317E-02 
847	 9.75214767661996E-02 
848	 9.74753337459064E-02 
849	 9.74355144974369E-02 
850	 9.73864596751715E-02 
851	 9.73537944721584E-02 
852	 0.09728809501259 
853	 9.72468437531657E-02 
854	 9.72402391084789E-02 
855	 9.71911822107426E-02 
856	 9.71791091969229E-02 
857	 9.71794760083992E-02 
858	 9.71653295850415E-02 
859	 9.71701791184504E-02 
860	 9.71517819834916E-02 
861	 9.71280790808284E-02 
862	 9.71370094689507E-02 
863	 9.72046741941201E-02 
864	 9.72287331859107E-02 
865	 9.72214552759817E-02 
866	 9.72609137255255E-02 
867	 9.73225036885567E-02 
868	 9.73597950262069E-02 
869	 9.73687537340845E-02 
870	 0.097392223369816 
871	 0.097461692660154 
872	 9.75699905261726E-02 
873	 9.76801704324561E-02 
874	 9.77244046111862E-02 
875	 9.78183771823699E-02 
876	 9.79192904153612E-02 
877	 9.79831938884356E-02 
878	 9.80671312081582E-02 
879	 9.81956942621954E-02 
880	 9.83272173200831E-02 
881	 9.84206434883857E-02 
882	 9.85477255439404E-02 
883	 9.86813136853432E-02 
884	 0.098807316532222 
885	 9.89279727876402E-02 
886	 9.90841276976329E-02 
887	 9.92788053888173E-02 
888	 9.94783768044837E-02 
889	 9.96325217988124E-02 
890	 9.98073613832313E-02 
891	 9.99916080353487E-02 
892	 0.100173165154071 
893	 0.100351195687077 
894	 0.100512474069027 
895	 0.100688466439857 
896	 0.10090480370629 
897	 0.101160686021377 
898	 0.101421044255736 
899	 0.101645340621012 
900	 0.101828008457918 
901	 0.102048016249695 
902	 0.102272226407186 
903	 0.10252837689583 
904	 0.102831174286081 
905	 0.103077947665708 
906	 0.103340679784343 
907	 0.10362988289934 
908	 0.103927269411762 
909	 0.104237958785832 
910	 0.104585023625005 
911	 0.104922106959855 
912	 0.105188178525135 
913	 0.105547406700323 
914	 0.105871466238121 
915	 0.106186181190069 
916	 0.106639992073806 
917	 0.106987967657869 
918	 0.107300234919731 
919	 0.107636535968809 
920	 0.107995275210337 
921	 0.108405109807835 
922	 0.10882835110354 
923	 0.109223843321175 
924	 0.109571631632825 
925	 0.109986138491861 
926	 0.110512198733552 
927	 0.111060646308154 
928	 0.111346877779785 
929	 0.111766960807032 
930	 0.112292423061031 
931	 0.112804935085195 
932	 0.113250728031025 
933	 0.113779920161243 
934	 0.114299916727217 
935	 0.11473861421264 
936	 0.115304143194067 
937	 0.115813401028266 
938	 0.116341664209357 
939	 0.116994120203209 
940	 0.117685215063547 
941	 0.118248781218149 
942	 0.118762589621415 
943	 0.11935997308526 
944	 0.119949035719592 
945	 0.120500079054142 
946	 0.121114617061705 
947	 0.121859533153044 
948	 0.122382734733986 
949	 0.123007217931817 
950	 0.123741612052512 
951	 0.124439835396701 
952	 0.125139786997126 
953	 0.125859869783802 
954	 0.126582932583454 
955	 0.127284266701441 
956	 0.128022983706827 
957	 0.128761721937274 
958	 0.129472156705421 
959	 0.130162147088949 
960	 0.130975960247602 
961	 0.131814852533886 
962	 0.132652976907232 
963	 0.133513342406522 
964	 0.134357189763048 
965	 0.135140078729406 
966	 0.135941032472785 
967	 0.136872282933257 
968	 0.137722627201274 
969	 0.138656601289638 
970	 0.139611848562012 
971	 0.140410419838839 
972	 0.14125186254764 
973	 0.142278656872698 
974	 0.14329948151275 
975	 0.14404084854103 
976	 0.145071484347486 
977	 0.146172672504451 
978	 0.147167157285174 
979	 0.148001830493535 
980	 0.148903586683357 
981	 0.149839302608665 
982	 0.15079522981183 
983	 0.151784569136566 
984	 0.152827715532506 
985	 0.153973642527521 
986	 0.155120152937669 
987	 0.156149425015573 
988	 0.157310505227033 
989	 0.15842283967205 
990	 0.159426466238049 
991	 0.160396368098302 
992	 0.161623540121355 
993	 0.162723015902582 
994	 0.163801992743881 
995	 0.165057462802468 
996	 0.166026859211799 
997	 0.167126962368429 
998	 0.16826975804921 
999	 0.169290959174961 
1000	 0.170522612937512 
1001	 0.168263491282759 
1002	 0.169326252653443 
1003	 0.170380018178585 
1004	 0.171424465675014 
1005	 0.172473880432106 
1006	 0.173510381545232 
1007	 0.174533290191516 
1008	 0.175564356825794 
1009	 0.176575759317877 
1010	 0.177550288674014 
1011	 0.178570748304433 
1012	 0.179613784490699 
1013	 0.180634620608547 
1014	 0.181700824142352 
1015	 0.182783501336779 
1016	 0.183780897974861 
1017	 0.184799028620673 
1018	 0.185809493210252 
1019	 0.18683179470458 
1020	 0.187825923766327 
1021	 0.188849118512296 
1022	 0.189850261346397 
1023	 0.190795536422621 
1024	 0.19173819904828 
1025	 0.192680869278491 
1026	 0.19360086558636 
1027	 0.194563044905931 
1028	 0.195518945079566 
1029	 0.196446736852572 
1030	 0.19743209081628 
1031	 0.198378980176566 
1032	 0.199307829214978 
1033	 0.20022207546066 
1034	 0.201151733239101 
1035	 0.202043485963909 
1036	 0.202959602576317 
1037	 0.203885619734921 
1038	 0.20479249617633 
1039	 0.205680785746076 
1040	 0.206547683216109 
1041	 0.207419668581735 
1042	 0.208327973609299 
1043	 0.209268165449641 
1044	 0.210181862545802 
1045	 0.211102372894708 
1046	 0.212006799287409 
1047	 0.212912843353398 
1048	 0.213798128918085 
1049	 0.214647728224773 
1050	 0.215540998893315 
1051	 0.216449257239295 
1052	 0.217288685079523 
1053	 0.21813720052969 
1054	 0.219032644456648 
1055	 0.219917806004006 
1056	 0.220796708316148 
1057	 0.221685677327518 
1058	 0.222605056473945 
1059	 0.223503708444633 
1060	 0.224381838683914 
1061	 0.225288531220101 
1062	 0.226158826348575 
1063	 0.227015769453866 
1064	 0.227850994687085 
1065	 0.228699925572052 
1066	 0.229597060588891 
1067	 0.230469045977123 
1068	 0.231396429602551 
1069	 0.232336277371563 
1070	 0.233229212575039 
1071	 0.234100926094402 
1072	 0.234983065192645 
1073	 0.235830098500755 
1074	 0.236693251286566 
1075	 0.237533580509014 
1076	 0.238447549550797 
1077	 0.239406969027346 
1078	 0.24027846529069 
1079	 0.24115007370867 
1080	 0.242073532898866 
1081	 0.242997583170851 
1082	 0.243906629130341 
1083	 0.244811377252177 
1084	 0.245739432455564 
1085	 0.246656787072923 
1086	 0.247539795620951 
1087	 0.248435684427167 
1088	 0.249333673254522 
1089	 0.25026031919421 
1090	 0.251205206586829 
1091	 0.252139446209637 
1092	 0.253086964088046 
1093	 0.25401366171569 
1094	 0.254901620387044 
1095	 0.255811608340383 
1096	 0.256784111081939 
1097	 0.257773824606645 
1098	 0.258732950901017 
1099	 0.259677280728504 
1100	 0.260655948264581 
1101	 0.261625463786884 
1102	 0.262607854920469 
1103	 0.263638958019453 
1104	 0.264633189643775 
1105	 0.265599410415221 
1106	 0.266606912783291 
1107	 0.267618277395336 
1108	 0.268652540825193 
1109	 0.269683904608131 
1110	 0.270705136464977 
1111	 0.271756588508845 
1112	 0.272826939781039 
1113	 0.273877813332862 
1114	 0.274948472789544 
1115	 0.276010560961244 
1116	 0.277030247551016 
1117	 0.278105653592934 
1118	 0.279222963311647 
1119	 0.280312252379465 
1120	 0.281438002398223 
1121	 0.282554152367701 
1122	 0.283672668905373 
1123	 0.284820109611378 
1124	 0.285945201987582 
1125	 0.287070293665881 
1126	 0.288205009831031 
1127	 0.289325072555241 
1128	 0.290458245731096 
1129	 0.291612420209606 
1130	 0.292751461890075 
1131	 0.293876980301843 
1132	 0.295022686093221 
1133	 0.296173138285546 
1134	 0.297329581440499 
1135	 0.298500863353318 
1136	 0.299660890083063 
1137	 0.300844630562003 
1138	 0.302009344733853 
1139	 0.303162469136687 
1140	 0.304329363867522 
1141	 0.305455073080466 
1142	 0.306526099354699 
1143	 0.307646128260171 
1144	 0.308759666123097 
1145	 0.309883164216856 
1146	 0.311052898844236 
1147	 0.312183228185134 
1148	 0.313304804128754 
1149	 0.3144118359536 
1150	 0.315478925816137 
1151	 0.316568791577943 
1152	 0.317697807056034 
1153	 0.318779714597187 
1154	 0.31988118492244 
1155	 0.321012574094586 
1156	 0.32210511217289 
1157	 0.323148376233819 
1158	 0.324260921769752 
1159	 0.325432671027176 
1160	 0.326530600289268 
1161	 0.327612227683686 
1162	 0.328708673355366 
1163	 0.329776411304842 
1164	 0.330835090207443 
1165	 0.331912439030798 
1166	 0.332999418305225 
1167	 0.3340227572867 
1168	 0.335042012869141 
1169	 0.336084568158131 
1170	 0.337149792817853 
1171	 0.338189715217779 
1172	 0.339233926990788 
1173	 0.340260344352426 
1174	 0.3412773861669 
1175	 0.34227955005405 
1176	 0.343273562430928 
1177	 0.344255919433672 
1178	 0.34522263430818 
1179	 0.346181615302922 
1180	 0.347139898485983 
1181	 0.34807731205791 
1182	 0.348997485264468 
1183	 0.349912350792425 
1184	 0.350807550294533 
1185	 0.351680850631751 
1186	 0.352562589657307 
1187	 0.353438502834518 
1188	 0.354305579900075 
1189	 0.355184360629588 
1190	 0.356025433049534 
1191	 0.356845485055415 
1192	 0.357652986918112 
1193	 0.358430436325604 
1194	 0.359214445582518 
1195	 0.359987756562129 
1196	 0.360761613382068 
1197	 0.36155295966037 
1198	 0.362310956995685 
1199	 0.363052652041751 
1200	 0.3637836620209 
1201	 0.36450110700615 
1202	 0.365199126884658 
1203	 0.365880731469249 
1204	 0.366551552443589 
1205	 0.367211556213211 
1206	 0.367843594267423 
1207	 0.368482438827483 
1208	 0.369135979172205 
1209	 0.369754069082174 
1210	 0.370342144149459 
1211	 0.370939810634646 
1212	 0.371532292025834 
1213	 0.372106810252584 
1214	 0.372687691392938 
1215	 0.373246691622661 
1216	 0.373786952575798 
1217	 0.374296727105194 
1218	 0.374812611371435 
1219	 0.375317966259822 
1220	 0.375824376076287 
1221	 0.376323660640074 
1222	 0.376824233957749 
1223	 0.377338692233597 
1224	 0.377821102836547 
1225	 0.378281881698769 
1226	 0.378750378494943 
1227	 0.379208425035113 
1228	 0.379659177604286 
1229	 0.380118306404336 
1230	 0.380562782101557 
1231	 0.380994383178686 
1232	 0.381412006476712 
1233	 0.381819145075694 
1234	 0.382219393063061 
1235	 0.382610597279083 
1236	 0.382988683421643 
1237	 0.383358931824902 
1238	 0.383724449954679 
1239	 0.384078183165825 
1240	 0.384412602787667 
1241	 0.384754820902432 
1242	 0.385090793772299 
1243	 0.38543152456578 
1244	 0.385780028616559 
1245	 0.386115773188772 
1246	 0.386461562553866 
1247	 0.386784950914923 
1248	 0.387099641649073 
1249	 0.387389652886343 
1250	 0.387667877536132 
1251	 0.387926248250844 
1252	 0.388210841989846 
1253	 0.388504214124127 
1254	 0.388780127882326 
1255	 0.389069355057372 
1256	 0.389332578593925 
1257	 0.389563532147878 
1258	 0.389810466732422 
1259	 0.390067949380088 
1260	 0.390303779922015 
1261	 0.390526030453847 
1262	 0.390750340184479 
1263	 0.390959482494942 
1264	 0.391173402290887 
1265	 0.391394179833928 
1266	 0.391610995936707 
1267	 0.391828129929585 
1268	 0.392034538314369 
1269	 0.392242274671122 
1270	 0.392455127096989 
1271	 0.392647171412727 
1272	 0.392822897971218 
1273	 0.393008198118616 
1274	 0.393179876771963 
1275	 0.393366107756886 
1276	 0.393565802257829 
1277	 0.393758192979119 
1278	 0.393956764391575 
1279	 0.39414259557877 
1280	 0.394326561834788 
1281	 0.394500255321917 
1282	 0.394660768364865 
1283	 0.394817114930676 
1284	 0.394963903966192 
1285	 0.395103708928808 
1286	 0.395256541544762 
1287	 0.395425022234418 
1288	 0.395585417644438 
1289	 0.395767918909269 
1290	 0.39590858042096 
1291	 0.396029833296302 
1292	 0.396146141199484 
1293	 0.396238529359174 
1294	 0.39633585813681 
1295	 0.396434843203351 
1296	 0.396517907716319 
1297	 0.396573014902726 
1298	 0.39665988006855 
1299	 0.396769122900899 
1300	 0.396847690049655 
1301	 0.396934902564808 
1302	 0.397006101410827 
1303	 0.397044449080054 
1304	 0.397080176501874 
1305	 0.397138748767973 
1306	 0.397186373926823 
1307	 0.39721867499871 
1308	 0.397218292406823 
1309	 0.397223567397357 
1310	 0.397212427173767 
1311	 0.397206553142363 
1312	 0.397218740773001 
1313	 0.397184406410392 
1314	 0.397103593327881 
1315	 0.397057784881358 
1316	 0.396994853830317 
1317	 0.396953070553502 
1318	 0.396950547654917 
1319	 0.396932248703864 
1320	 0.396919622977352 
1321	 0.396882098755593 
1322	 0.396835894640098 
1323	 0.396774125040062 
1324	 0.396723625797346 
1325	 0.396682004030382 
1326	 0.396629884521143 
1327	 0.396584437910098 
1328	 0.396499302431334 
1329	 0.396400513296718 
1330	 0.396339286786557 
1331	 0.39630242810182 
1332	 0.396244447837481 
1333	 0.396194627098688 
1334	 0.396145734629004 
1335	 0.396080009111358 
1336	 0.396037975046369 
1337	 0.396020379093952 
1338	 0.395987537753963 
1339	 0.395970755563115 
1340	 0.395921480064709 
1341	 0.395858768635346 
1342	 0.395785679410829 
1343	 0.395695938669161 
1344	 0.395581639615781 
1345	 0.395488806497783 
1346	 0.395398496175459 
1347	 0.395275723478257 
1348	 0.395141815500787 
1349	 0.39497394536063 
1350	 0.394762999097897 
1351	 0.394579709902596 
1352	 0.394395803466645 
1353	 0.394207608196007 
1354	 0.394031456688203 
1355	 0.39383144598612 
1356	 0.393598059758875 
1357	 0.393399702369524 
1358	 0.393175406156847 
1359	 0.393019456859251 
1360	 0.392909475491324 
1361	 0.392810897525012 
1362	 0.392753373250134 
1363	 0.392703504783711 
1364	 0.392653547549634 
1365	 0.392642761138935 
1366	 0.392676469872171 
1367	 0.392704206004272 
1368	 0.392771892147856 
1369	 0.39280021927646 
1370	 0.392731502512661 
1371	 0.392648918040629 
1372	 0.392500449092094 
1373	 0.392286936695172 
1374	 0.392022400924004 
1375	 0.391748093891948 
1376	 0.39132596712435 
1377	 0.390814635104306 
1378	 0.390215456691201 
1379	 0.389448875564051 
1380	 0.388752247652027 
1381	 0.387988908742541 
1382	 0.387260564515354 
1383	 0.386608378430204 
1384	 0.385854149330663 
1385	 0.385105086107423 
1386	 0.384256971331246 
1387	 0.383337369994109 
1388	 0.38235095460096 
1389	 0.3813238489808 
1390	 0.380170699348743 
1391	 0.378917894701762 
1392	 0.377585555946408 
1393	 0.376132054722579 
1394	 0.374637688437241 
1395	 0.373125408321521 
1396	 0.371573214678531 
1397	 0.37003528963953 
1398	 0.368494513079742 
1399	 0.366927379519752 
1400	 0.365339038335646 
1401	 0.363760223907621 
1402	 0.362133050364205 
1403	 0.360587577708818 
1404	 0.35904842097883 
1405	 0.357603387232427 
1406	 0.356239042840222 
1407	 0.354875300463291 
1408	 0.353549005718622 
1409	 0.352275365535685 
1410	 0.350994049109362 
1411	 0.349822152655629 
1412	 0.348728449722455 
1413	 0.347706418882034 
1414	 0.346763553247164 
1415	 0.345871763504182 
1416	 0.345010162220734 
1417	 0.344197571441701 
1418	 0.343430426469838 
1419	 0.34271480791826 
1420	 0.342074723290588 
1421	 0.341496609063462 
1422	 0.340961455100974 
1423	 0.340442293200349 
1424	 0.339927631103637 
1425	 0.339412694486845 
1426	 0.338964866167986 
1427	 0.338524612153337 
1428	 0.338166072534261 
1429	 0.337896350064787 
1430	 0.33762054649551 
1431	 0.337400314177186 
1432	 0.337154045922193 
1433	 0.336892383036487 
1434	 0.336680939308974 
1435	 0.336469222538856 
1436	 0.336310631216751 
1437	 0.336229130977851 
1438	 0.336122619283653 
1439	 0.336036334995027 
1440	 0.335949556668349 
1441	 0.335814474194383 
1442	 0.335706185345634 
1443	 0.335615201792811 
1444	 0.33552877810378 
1445	 0.335532780476372 
1446	 0.335539832437306 
1447	 0.335532732359127 
1448	 0.335549979654253 
1449	 0.335518348397516 
1450	 0.335492381297277 
1451	 0.335512552281385 
1452	 0.335552301244863 
1453	 0.335616565034405 
1454	 0.335737657941571 
1455	 0.335818380664531 
1456	 0.335903703132384 
1457	 0.335970614042844 
1458	 0.335996910006337 
1459	 0.33607728688071 
1460	 0.336151631759679 
1461	 0.336282354501876 
1462	 0.336475885231991 
1463	 0.336654572063555 
1464	 0.336863401936983 
1465	 0.337066671027238 
1466	 0.337249199216785 
1467	 0.337475323115064 
1468	 0.337693978565937 
1469	 0.337980081930299 
1470	 0.338329990780561 
1471	 0.33869274347002 
1472	 0.339084444049294 
1473	 0.339476698731055 
1474	 0.339805318251085 
1475	 0.340158298645635 
1476	 0.340525633487637 
1477	 0.340928615856823 
1478	 0.341424911027394 
1479	 0.341921170913047 
1480	 0.342418543175163 
1481	 0.342942863272998 
1482	 0.343438137575269 
1483	 0.34390979339402 
1484	 0.344399601125993 
1485	 0.34487947621679 
1486	 0.345385909111925 
1487	 0.345915419805129 
1488	 0.346420926051557 
1489	 0.346948797058117 
1490	 0.347443394848731 
1491	 0.347910159875684 
1492	 0.348379272926593 
1493	 0.348814823773359 
1494	 0.349286683589044 
1495	 0.349776585168868 
1496	 0.350253233297794 
1497	 0.350761313666871 
1498	 0.351238024445167 
1499	 0.351697419716718 
1500	 0.352136347110674 
1501	 0.352540633343437 
1502	 0.352964722896212 
1503	 0.35338024108553 
1504	 0.35378946811241 
1505	 0.354235018568669 
1506	 0.354681298263096 
1507	 0.355112576456618 
1508	 0.355540751231873 
1509	 0.355950336840009 
1510	 0.3563464298944 
1511	 0.356745745588234 
1512	 0.357135541660465 
1513	 0.357516806387504 
1514	 0.357909044760222 
1515	 0.358313033798132 
1516	 0.358708251831445 
1517	 0.359067820229422 
1518	 0.359411821612317 
1519	 0.359755153133396 
1520	 0.360054365760069 
1521	 0.360388960609805 
1522	 0.360746943406923 
1523	 0.36109578024827 
1524	 0.361451611683467 
1525	 0.361789870155218 
1526	 0.362131008465944 
1527	 0.36245183189468 
1528	 0.362745736115613 
1529	 0.363048231264036 
1530	 0.363339743924532 
1531	 0.363643442654862 
1532	 0.363965828712329 
1533	 0.364261033560357 
1534	 0.364548451603678 
1535	 0.364831518030695 
1536	 0.365076043126978 
1537	 0.365353683283475 
1538	 0.365662804298836 
1539	 0.36594758848278 
1540	 0.366238594204834 
1541	 0.36651840873247 
1542	 0.366781007151652 
1543	 0.367038923554074 
1544	 0.367306778508661 
1545	 0.367546430215651 
1546	 0.367762662652775 
1547	 0.367961475151718 
1548	 0.368181936855434 
1549	 0.368390286389355 
1550	 0.368612265657285 
1551	 0.368858522195914 
1552	 0.369077130952826 
1553	 0.369303978516195 
1554	 0.369553095230874 
1555	 0.369773969925979 
1556	 0.369969503550276 
1557	 0.370168408874954 
1558	 0.370365105954349 
1559	 0.370549235080847 
1560	 0.370746824689633 
1561	 0.370969423374475 
1562	 0.371163726594577 
1563	 0.37133836923852 
1564	 0.371532555451316 
1565	 0.371727141720149 
1566	 0.371921450313339 
1567	 0.372134135803299 
1568	 0.372318429818241 
1569	 0.372491814879724 
1570	 0.372654658772226 
1571	 0.372801950216101 
1572	 0.372940512908569 
1573	 0.373054373782555 
1574	 0.373196785694865 
1575	 0.373340828261735 
1576	 0.373489251272267 
1577	 0.373668933928151 
1578	 0.37381594422136 
1579	 0.373941682222965 
1580	 0.374075819809582 
1581	 0.374201252510585 
1582	 0.374329475504325 
1583	 0.374446954618969 
1584	 0.374591435495267 
1585	 0.374762260527557 
1586	 0.374906185219162 
1587	 0.375070556125538 
1588	 0.375201289517275 
1589	 0.375291383405694 
1590	 0.37538904879838 
1591	 0.375476706399899 
1592	 0.375565527980669 
1593	 0.37565190993487 
1594	 0.375731486929262 
1595	 0.375812016727504 
1596	 0.375880338095536 
1597	 0.375930499110114 
1598	 0.375989787561744 
1599	 0.376038369945193 
1600	 0.376103187245309 
1601	 0.376168272917028 
1602	 0.376257599444636 
1603	 0.376380014763794 
1604	 0.376485885980634 
1605	 0.376603270318856 
1606	 0.376715247986686 
1607	 0.376811815193891 
1608	 0.376916643198632 
1609	 0.377026504106754 
1610	 0.377112163063056 
1611	 0.377182767487795 
1612	 0.377237085507503 
1613	 0.377281574702111 
1614	 0.37731713607445 
1615	 0.377328469317057 
1616	 0.377363029057918 
1617	 0.377408344139224 
1618	 0.377454061183192 
1619	 0.377523924884686 
1620	 0.377566745899548 
1621	 0.377621250796958 
1622	 0.377663977555191 
1623	 0.377729914474289 
1624	 0.377816953550776 
1625	 0.377880925266764 
1626	 0.377946449008137 
1627	 0.378003176544471 
1628	 0.37804130442458 
1629	 0.378093001830981 
1630	 0.378158280802181 
1631	 0.378192633192084 
1632	 0.378218139064396 
1633	 0.37823489398599 
1634	 0.378221643559811 
1635	 0.378237943760331 
1636	 0.37827128981542 
1637	 0.378279562112278 
1638	 0.3782783347961 
1639	 0.378297131760249 
1640	 0.378301025723619 
1641	 0.378332729831497 
1642	 0.378412149618366 
1643	 0.378438580064394 
1644	 0.378445388176021 
1645	 0.378459674867083 
1646	 0.378451271690964 
1647	 0.378460409932777 
1648	 0.378488903691358 
1649	 0.378497726619107 
1650	 0.378498493304762 
1651	 0.378498146645666 
1652	 0.378487126299541 
1653	 0.378485827775662 
1654	 0.378485319648236 
1655	 0.378488941073729 
1656	 0.378510334397711 
1657	 0.378500385153273 
1658	 0.378472528069789 
1659	 0.378455511095404 
1660	 0.378416697521062 
1661	 0.378404138602994 
1662	 0.378414027455653 
1663	 0.378416699988027 
1664	 0.378432813249394 
1665	 0.378426059816135 
1666	 0.378417564560271 
1667	 0.378390521078485 
1668	 0.378337016650251 
1669	 0.378293761848789 
1670	 0.378242699095084 
1671	 0.378197028824129 
1672	 0.378149819472039 
1673	 0.378112066603185 
1674	 0.37807482265978 
1675	 0.378049234423568 
1676	 0.378047982602438 
1677	 0.378019614857741 
1678	 0.377989383874518 
1679	 0.377947486810761 
1680	 0.377872335361779 
1681	 0.377829246515408 
1682	 0.377795909281946 
1683	 0.377767533884289 
1684	 0.377754690116517 
1685	 0.377741031409777 
1686	 0.377733656292032 
1687	 0.377718449605633 
1688	 0.377721251309142 
1689	 0.377683019870841 
1690	 0.377620531216656 
1691	 0.377554205389839 
1692	 0.377453474707827 
1693	 0.377375776016855 
1694	 0.377304712803903 
1695	 0.377230434792796 
1696	 0.377163099079802 
1697	 0.377086937081831 
1698	 0.377002669331932 
1699	 0.37692619914947 
1700	 0.376829352485375 
1701	 0.376780855341761 
1702	 0.376790824378805 
1703	 0.376728589640633 
1704	 0.376652539640038 
1705	 0.376587293501802 
1706	 0.376474895179542 
1707	 0.37639513743884 
1708	 0.37637118085473 
1709	 0.37629207949735 
1710	 0.376173128725878 
1711	 0.376072653328074 
1712	 0.375960118298076 
1713	 0.375864284354681 
1714	 0.375781180494874 
1715	 0.375693089033683 
1716	 0.375605809807278 
1717	 0.375522017622726 
1718	 0.375463997954233 
1719	 0.375345208707787 
1720	 0.375199066239207 
1721	 0.375059164304717 
1722	 0.374873949396117 
1723	 0.374713656928798 
1724	 0.374585539611435 
1725	 0.374422906071626 
1726	 0.374227677049203 
1727	 0.374061465246999 
1728	 0.37388828417579 
1729	 0.373741720813462 
1730	 0.373629696738785 
1731	 0.373494728273344 
1732	 0.373368892437254 
1733	 0.373222960795379 
1734	 0.373071713599152 
1735	 0.372888727978546 
1736	 0.372687064653333 
1737	 0.37247001924194 
1738	 0.372214958544511 
1739	 0.371975169907817 
1740	 0.371723511534521 
1741	 0.371508880832922 
1742	 0.371309405491581 
1743	 0.371108289310274 
1744	 0.370930542661913 
1745	 0.370735488537031 
1746	 0.370529085875323 
1747	 0.37033233053582 
1748	 0.370135615482672 
1749	 0.369907324922086 
1750	 0.36967704605393 
1751	 0.36944878574389 
1752	 0.369212181900754 
1753	 0.368983264150263 
1754	 0.368764066886546 
1755	 0.36854035611009 
1756	 0.368304889845831 
1757	 0.368067913860715 
1758	 0.367848524402312 
1759	 0.367652933798563 
1760	 0.367484390113471 
1761	 0.367319813027361 
1762	 0.367128983184075 
1763	 0.36692412565589 
1764	 0.366689842299464 
1765	 0.366452189045697 
1766	 0.366253943521264 
1767	 0.366069254868278 
1768	 0.365895797342715 
1769	 0.365755715094297 
1770	 0.365602415783975 
1771	 0.365413408854952 
1772	 0.365244142518081 
1773	 0.365084866614585 
1774	 0.364917739526546 
1775	 0.364776397595458 
1776	 0.364618267490233 
1777	 0.364426894806831 
1778	 0.364259047693156 
1779	 0.364088455272545 
1780	 0.363887548176718 
1781	 0.363688656060843 
1782	 0.363538323534095 
1783	 0.363441343659004 
1784	 0.363345361768181 
1785	 0.363298235167701 
1786	 0.363231303213679 
1787	 0.363158175487893 
1788	 0.363082016486487 
1789	 0.363024696720275 
1790	 0.362945719458591 
1791	 0.362830974343643 
1792	 0.3627291189305 
1793	 0.362617032722021 
1794	 0.362527059912796 
1795	 0.362439665709256 
1796	 0.362392870259803 
1797	 0.362392413107643 
1798	 0.362359260405061 
1799	 0.362334851548602 
1800	 0.362293074127814 
1801	 0.353076255573215 
1802	 0.35345939118718 
1803	 0.353893377689301 
1804	 0.354360828390218 
1805	 0.354796157612372 
1806	 0.355161484079738 
1807	 0.355522346974342 
1808	 0.355816997858784 
1809	 0.356048240083305 
1810	 0.356233816685843 
1811	 0.356383086550267 
1812	 0.356496196637146 
1813	 0.35652085014272 
1814	 0.356537476770777 
1815	 0.356552858228705 
1816	 0.356524534198985 
1817	 0.356508022703363 
1818	 0.356484122417102 
1819	 0.356457289799447 
1820	 0.356421330766562 
1821	 0.356389200023173 
1822	 0.35637073145447 
1823	 0.356360881167322 
1824	 0.356343328776583 
1825	 0.356318475703876 
1826	 0.356269928857737 
1827	 0.356141943746881 
1828	 0.356007772116914 
1829	 0.35584450846592 
1830	 0.355677983171915 
1831	 0.355467050134544 
1832	 0.355303353637366 
1833	 0.355136684197616 
1834	 0.354919085226825 
1835	 0.354744976304349 
1836	 0.354569428987956 
1837	 0.354411180473977 
1838	 0.354286227838042 
1839	 0.354170592986919 
1840	 0.354072449218433 
1841	 0.353992440067578 
1842	 0.353895398028151 
1843	 0.353789960829141 
1844	 0.353690755134984 
1845	 0.353527674658196 
1846	 0.353355831260465 
1847	 0.353207939113811 
1848	 0.353007137072987 
1849	 0.352816257483614 
1850	 0.352579115372914 
1851	 0.352327803928685 
1852	 0.351997274589992 
1853	 0.351659983480039 
1854	 0.351268427958853 
1855	 0.35085337537039 
1856	 0.350433215574678 
1857	 0.349941671800655 
1858	 0.349370337097955 
1859	 0.348757626104852 
1860	 0.348051564710883 
1861	 0.34726748851329 
1862	 0.346392835395605 
1863	 0.345437212760374 
1864	 0.344330669760234 
1865	 0.343123019012726 
1866	 0.341793895962292 
1867	 0.340404035395362 
1868	 0.338962471957538 
1869	 0.337436033596037 
1870	 0.33587947699174 
1871	 0.334264032061279 
1872	 0.332577247549909 
1873	 0.330892849541668 
1874	 0.329188097537583 
1875	 0.327390244627014 
1876	 0.325508804424922 
1877	 0.323477361700017 
1878	 0.321255564478547 
1879	 0.318888320860347 
1880	 0.316362645432495 
1881	 0.313660442122682 
1882	 0.310831186494146 
1883	 0.307856475981098 
1884	 0.304687885849128 
1885	 0.30144506187128 
1886	 0.298073429888836 
1887	 0.294556450059685 
1888	 0.290980579812456 
1889	 0.287277229784956 
1890	 0.283546945083965 
1891	 0.27986009883425 
1892	 0.276124375440999 
1893	 0.272451108778484 
1894	 0.268808344579293 
1895	 0.265191757676759 
1896	 0.261597717791783 
1897	 0.258093449218596 
1898	 0.254656676801957 
1899	 0.251353360461725 
1900	 0.248220311849555 
1901	 0.245230819068167 
1902	 0.242449060473417 
1903	 0.239907124929057 
1904	 0.237491578919803 
1905	 0.235230378860953 
1906	 0.233170152648303 
1907	 0.231254383349157 
1908	 0.229459062466601 
1909	 0.22782697425174 
1910	 0.226280813245957 
1911	 0.224851257801072 
1912	 0.223509866939564 
1913	 0.222269739796583 
1914	 0.221124324639325 
1915	 0.220082524564677 
1916	 0.219140025827685 
1917	 0.218302984261743 
1918	 0.217568872123569 
1919	 0.216888572792034 
1920	 0.216303614081405 
1921	 0.215814032299386 
1922	 0.215373395392276 
1923	 0.215017976608291 
1924	 0.214710227001027 
1925	 0.214481619736349 
1926	 0.214275587267803 
1927	 0.21411551289032 
1928	 0.213987917789471 
1929	 0.213925313165896 
1930	 0.213923253956672 
1931	 0.213983058585524 
1932	 0.214108597441658 
1933	 0.21425971393499 
1934	 0.214417534984463 
1935	 0.214618484875685 
1936	 0.214844102253263 
1937	 0.21511524920187 
1938	 0.215425237930361 
1939	 0.215775557583286 
1940	 0.216172651864988 
1941	 0.216586831668755 
1942	 0.217042296294067 
1943	 0.217522580679284 
1944	 0.218023845135148 
1945	 0.218557530827754 
1946	 0.21909364193524 
1947	 0.219651286037186 
1948	 0.220212595421267 
1949	 0.220778448967971 
1950	 0.22135600485768 
1951	 0.22194749229309 
1952	 0.22254167853602 
1953	 0.223142850213984 
1954	 0.223791235836813 
1955	 0.224431914772267 
1956	 0.225096956518898 
1957	 0.225805534067616 
1958	 0.226550014871248 
1959	 0.227301100962136 
1960	 0.228117221720474 
1961	 0.228893950245978 
1962	 0.229645433325574 
1963	 0.230430731512827 
1964	 0.231219765653859 
1965	 0.232018380964887 
1966	 0.23286460009951 
1967	 0.233694188893006 
1968	 0.234512123026029 
1969	 0.235320710316322 
1970	 0.2361368797806 
1971	 0.236935820598729 
1972	 0.237766988283003 
1973	 0.238631662004136 
1974	 0.23946596052599 
1975	 0.240301855500465 
1976	 0.241132767873276 
1977	 0.241939973520797 
1978	 0.24275757969741 
1979	 0.243590152195612 
1980	 0.244444052883448 
1981	 0.245302607330682 
1982	 0.246183714514141 
1983	 0.247049239348587 
1984	 0.247912920806015 
1985	 0.248778005171456 
1986	 0.249662679375095 
1987	 0.250506860547942 
1988	 0.251315826780615 
1989	 0.252163400500695 
1990	 0.252984922803878 
1991	 0.253771406248349 
1992	 0.254586323854402 
1993	 0.255416904176929 
1994	 0.256246372049139 
1995	 0.257082561435506 
1996	 0.257908573074644 
1997	 0.258756418262852 
1998	 0.259576061712755 
1999	 0.260355993597989 
2000	 0.26115619731258 
2001	 0.261969549158521 
2002	 0.262749750511043 
2003	 0.263547043143498 
2004	 0.264367953208674 
2005	 0.265175812051634 
2006	 0.265981001985028 
2007	 0.266791246357775 
2008	 0.267607224909195 
2009	 0.268415323797097 
2010	 0.269232718453734 
2011	 0.270030841408202 
2012	 0.270817276807839 
2013	 0.271596246019201 
2014	 0.272368564701436 
2015	 0.273120914509367 
2016	 0.273882773013504 
2017	 0.274630298316776 
2018	 0.275357662930782 
2019	 0.276061005490006 
2020	 0.27677757604669 
2021	 0.277479144891453 
2022	 0.278187462139031 
2023	 0.278919805589325 
2024	 0.279623940883192 
2025	 0.28030501530244 
2026	 0.280989925311551 
2027	 0.281668110963242 
2028	 0.282342112909497 
2029	 0.283004949759026 
2030	 0.283661481585653 
2031	 0.284316274197478 
2032	 0.284954837098185 
2033	 0.285606008500656 
2034	 0.286270647654633 
2035	 0.286916177422298 
2036	 0.287559399479657 
2037	 0.28819156348943 
2038	 0.288806620390748 
2039	 0.28942434607563 
2040	 0.290041158903132 
2041	 0.290645091459138 
2042	 0.291253132756251 
2043	 0.29187829175029 
2044	 0.292479002519093 
2045	 0.293086770414008 
2046	 0.293660538240284 
2047	 0.294208260295302 
2048	 0.294748571538029 
2049	 0.295251899742737 
2050	 0.295780879722676 
2051	 0.29631427121857 
2052	 0.29684449146436 
2053	 0.297380280095828 
2054	 0.297918869035431 
2055	 0.298462895951229 
2056	 0.298990977051622 
2057	 0.299520428801604 
2058	 0.300067119795692 
2059	 0.300576543270859 
2060	 0.301052671532257 
2061	 0.301548750172087 
2062	 0.302029997134984 
2063	 0.302524443639217 
2064	 0.303038401977203 
2065	 0.303538824775845 
2066	 0.304034526887703 
2067	 0.30453060434355 
2068	 0.305024058334995 
2069	 0.305521644254887 
2070	 0.305994445922383 
2071	 0.306449386963783 
2072	 0.30691965031019 
2073	 0.307386351245042 
2074	 0.307840333802106 
2075	 0.308293826193721 
2076	 0.308755846961206 
2077	 0.309198453978779 
2078	 0.309657478729113 
2079	 0.310162608487923 
2080	 0.310620777475015 
2081	 0.31106128237533 
2082	 0.311486338396122 
2083	 0.311872680157366 
2084	 0.312271701496918 
2085	 0.312664658544875 
2086	 0.313044785656935 
2087	 0.313441067377255 
2088	 0.313839572494303 
2089	 0.314243402279906 
2090	 0.314663746837002 
2091	 0.315064761922551 
2092	 0.315451039503207 
2093	 0.315856862954042 
2094	 0.316263935041723 
2095	 0.31667218980681 
2096	 0.317102211434133 
2097	 0.317518396342621 
2098	 0.317927806925104 
2099	 0.318331793265205 
2100	 0.318722058812142 
2101	 0.319099050317363 
2102	 0.319490380272684 
2103	 0.319873058497276 
2104	 0.320260425645826 
2105	 0.320646871430237 
2106	 0.321056434573282 
2107	 0.321476589158427 
2108	 0.321895059715361 
2109	 0.322340034097634 
2110	 0.322773376634009 
2111	 0.323196848899541 
2112	 0.323618516022999 
2113	 0.324054354206188 
2114	 0.324469662400944 
2115	 0.324874070685093 
2116	 0.325276832551958 
2117	 0.325636035934354 
2118	 0.325953001983872 
2119	 0.326303698365178 
2120	 0.326639699978083 
2121	 0.326973870374057 
2122	 0.327341283629172 
2123	 0.327667884504553 
2124	 0.327960898753497 
2125	 0.328252271711733 
2126	 0.328515465035139 
2127	 0.328798555640514 
2128	 0.32907657374901 
2129	 0.329359585993409 
2130	 0.329644218053649 
2131	 0.329972071467266 
2132	 0.330244109658054 
2133	 0.330513321924874 
2134	 0.330733052337771 
2135	 0.330911724208023 
2136	 0.331084595790122 
2137	 0.331228955469479 
2138	 0.331360944597367 
2139	 0.331484818456661 
2140	 0.331581270880025 
2141	 0.331646816469506 
2142	 0.331702313652133 
2143	 0.331718707380329 
2144	 0.331756453166733 
2145	 0.331811866238122 
2146	 0.331833560718973 
2147	 0.331833284999693 
2148	 0.331853599316929 
2149	 0.33184877793772 
2150	 0.331817010163184 
2151	 0.331780264474116 
2152	 0.331752884342421 
2153	 0.331686345391942 
2154	 0.331567471302108 
2155	 0.331482436030269 
2156	 0.331394962222667 
2157	 0.331309134239725 
2158	 0.33125621753119 
2159	 0.331158184989848 
2160	 0.331037196830332 
2161	 0.330905536816015 
2162	 0.330742357329569 
2163	 0.330579560498498 
2164	 0.330400297921534 
2165	 0.330230640308866 
2166	 0.330059964079666 
2167	 0.329889935627638 
2168	 0.329710095983455 
2169	 0.32953519479446 
2170	 0.329343011308188 
2171	 0.329130626297331 
2172	 0.328923982344451 
2173	 0.328701011808606 
2174	 0.328502098601036 
2175	 0.328315886632601 
2176	 0.32812610019821 
2177	 0.32795689442747 
2178	 0.327769699214945 
2179	 0.32755767762053 
2180	 0.327365264296402 
2181	 0.327185489406837 
2182	 0.32699592156323 
2183	 0.326822294642362 
2184	 0.326631122287892 
2185	 0.326423832525024 
2186	 0.326194525588127 
2187	 0.325972692860389 
2188	 0.325741879896745 
2189	 0.325505903849428 
2190	 0.325267112580195 
2191	 0.325025968920152 
2192	 0.324763257061766 
2193	 0.324528832174838 
2194	 0.324285456888028 
2195	 0.324084252429749 
2196	 0.323905855757953 
2197	 0.323753966356446 
2198	 0.323645490452149 
2199	 0.323542053172844 
2200	 0.323457449146778 
2201	 0.32338698271406 
2202	 0.323342642823321 
2203	 0.323297813347396 
2204	 0.323245438038275 
2205	 0.323203144207303 
2206	 0.323147715476835 
2207	 0.32307032220695 
2208	 0.323020612533768 
2209	 0.322987955826333 
2210	 0.322943369009748 
2211	 0.322898942885227 
2212	 0.322861485135446 
2213	 0.3228444052619 
2214	 0.322784319659849 
2215	 0.322702515048467 
2216	 0.322635776509549 
2217	 0.322524890076362 
2218	 0.322448627848029 
2219	 0.322419991631101 
2220	 0.322372673825516 
2221	 0.322321450776802 
2222	 0.322269869341894 
2223	 0.322250870922551 
2224	 0.322192285819934 
2225	 0.322133297743553 
2226	 0.322082697631119 
2227	 0.322004667422531 
2228	 0.321890601702128 
2229	 0.321802231737976 
2230	 0.321709219594154 
2231	 0.3216223858943 
2232	 0.321553883391399 
2233	 0.32146011716341 
2234	 0.321366147687877 
2235	 0.32125142598564 
2236	 0.321116468840817 
2237	 0.320976895405553 
2238	 0.32080606168172 
2239	 0.320660677170703 
2240	 0.320516394079571 
2241	 0.320380097920603 
2242	 0.320261683115708 
2243	 0.320141841126454 
2244	 0.320031265797879 
2245	 0.319909992912184 
2246	 0.319775385818779 
2247	 0.319664920502726 
2248	 0.319558910700586 
2249	 0.319447919389484 
2250	 0.319364301917565 
2251	 0.319314857022029 
2252	 0.319231371898699 
2253	 0.319147542110498 
2254	 0.319061533248677 
2255	 0.318960608205582 
2256	 0.318865990658749 
2257	 0.318798200673502 
2258	 0.318677099710034 
2259	 0.318496822281913 
2260	 0.318373936426681 
2261	 0.318240694873533 
2262	 0.318131456331882 
2263	 0.318066944270507 
2264	 0.318005866008012 
2265	 0.317955195517445 
2266	 0.317904983828282 
2267	 0.317899997100503 
2268	 0.317851661128061 
2269	 0.317792957922922 
2270	 0.317681403890685 
2271	 0.3175908130523 
2272	 0.317467876484108 
2273	 0.317337287455751 
2274	 0.317261777811113 
2275	 0.317163641197059 
2276	 0.317070234152559 
2277	 0.316940524711998 
2278	 0.316799660345689 
2279	 0.316654287339304 
2280	 0.316456751479954 
2281	 0.316329429783847 
2282	 0.316249317548333 
2283	 0.316140779909867 
2284	 0.31604729337974 
2285	 0.315942020584284 
2286	 0.315827331379631 
2287	 0.31570123719513 
2288	 0.315571131905506 
2289	 0.315443829804486 
2290	 0.315283974220016 
2291	 0.315164869671103 
2292	 0.315093137009293 
2293	 0.314974311317994 
2294	 0.31485617294002 
2295	 0.314721920934461 
2296	 0.314513259806244 
2297	 0.314391233240226 
2298	 0.314261693736838 
2299	 0.314113691981104 
2300	 0.314026413082625 
2301	 0.313911072261777 
2302	 0.313789729900782 
2303	 0.313685749344431 
2304	 0.31349547664119 
2305	 0.313271725966221 
2306	 0.313072870426534 
2307	 0.312848389927686 
2308	 0.312645481946231 
2309	 0.31247626511012 
2310	 0.312276651789083 
2311	 0.312062655348445 
2312	 0.311849405289677 
2313	 0.31164223395397 
2314	 0.311396846887845 
2315	 0.311113590864115 
2316	 0.31085494583267 
2317	 0.310576258687182 
2318	 0.310324305605236 
2319	 0.310081919151309 
2320	 0.30987710654913 
2321	 0.309700468564963 
2322	 0.309521040409066 
2323	 0.30940006912102 
2324	 0.309231341463486 
2325	 0.309020590223 
2326	 0.308830035340016 
2327	 0.308621772745682 
2328	 0.308431716823212 
2329	 0.308297124678647 
2330	 0.308149907701115 
2331	 0.307973711011738 
2332	 0.307791770492271 
2333	 0.307595078875719 
2334	 0.307361515740679 
2335	 0.307092333010815 
2336	 0.306829237201322 
2337	 0.306556721296735 
2338	 0.306311468609937 
2339	 0.306116204720629 
2340	 0.30589044514367 
2341	 0.30559128141023 
2342	 0.305249759185118 
2343	 0.304939865275713 
2344	 0.30467597660922 
2345	 0.304416777705466 
2346	 0.304266035060111 
2347	 0.303955291266248 
2348	 0.303543598308709 
2349	 0.303177669966698 
2350	 0.302749769470306 
2351	 0.302361351996842 
2352	 0.302051165387427 
2353	 0.301655994488192 
2354	 0.301189996576094 
2355	 0.300762541600868 
2356	 0.300323071782733 
2357	 0.299863002450551 
2358	 0.299403372732674 
2359	 0.298955219281051 
2360	 0.298499238973512 
2361	 0.298038626183518 
2362	 0.297581819859969 
2363	 0.297148430582126 
2364	 0.296708556201058 
2365	 0.296248822014601 
2366	 0.295839283370142 
2367	 0.295381763019406 
2368	 0.294826601259819 
2369	 0.294349037421524 
2370	 0.293921404194255 
2371	 0.293447393896396 
2372	 0.293001676648207 
2373	 0.292596024880464 
2374	 0.292144169316029 
2375	 0.291644532199607 
2376	 0.291154302394327 
2377	 0.290662135731174 
2378	 0.290219313265484 
2379	 0.289813120394496 
2380	 0.289324837137685 
2381	 0.288837368948323 
2382	 0.288244742367555 
2383	 0.287583314611058 
2384	 0.286988170340442 
2385	 0.286418574015269 
2386	 0.285920074509166 
2387	 0.285423860895819 
2388	 0.284948889654195 
2389	 0.284545742977263 
2390	 0.284095583839765 
2391	 0.283643327829727 
2392	 0.283234172694944 
2393	 0.282651130129391 
2394	 0.28202540666822 
2395	 0.28150558904114 
2396	 0.280891898270164 
2397	 0.280324693734642 
2398	 0.279883749414771 
2399	 0.279378871686322 
2400	 0.278915856197602 
2401	 0.278502871400536 
2402	 0.278030392175864 
2403	 0.277545693834938 
2404	 0.277002961608427 
2405	 0.276429722416597 
2406	 0.275806600991883 
2407	 0.275205316813337 
2408	 0.27465701467824 
2409	 0.274036027053019 
2410	 0.273491099580701 
2411	 0.272875825886651 
2412	 0.272181661310121 
2413	 0.271646554514519 
2414	 0.271044402620231 
2415	 0.27039437721163 
2416	 0.269784957825708 
2417	 0.269195923696215 
2418	 0.268571365051592 
2419	 0.267904185312179 
2420	 0.267336070797839 
2421	 0.266855680779969 
2422	 0.266275259426919 
2423	 0.265706683132763 
2424	 0.265145047861811 
2425	 0.264470364556666 
2426	 0.263877438016497 
2427	 0.263391877359207 
2428	 0.262819886598617 
2429	 0.262184732313777 
2430	 0.261639362818287 
2431	 0.261184054758207 
2432	 0.260613990764014 
2433	 0.260053043560064 
2434	 0.259458784826455 
2435	 0.258702548643049 
2436	 0.258032898639447 
2437	 0.257405231095125 
2438	 0.256768345930884 
2439	 0.256163368349981 
2440	 0.25557622073802 
2441	 0.254979233862057 
2442	 0.254420597855307 
2443	 0.253947864723277 
2444	 0.253364922001587 
2445	 0.252745568099273 
2446	 0.252183251618347 
2447	 0.251542980152211 
2448	 0.250915525713405 
2449	 0.250352211135864 
2450	 0.249824707161718 
2451	 0.249343562429014 
2452	 0.24873450704676 
2453	 0.248066551307329 
2454	 0.247431253844871 
2455	 0.24671956838128 
2456	 0.246117199585254 
2457	 0.245601351394041 
2458	 0.24511666859547 
2459	 0.244674761627024 
2460	 0.244078582189994 
2461	 0.24359362544425 
2462	 0.242894401739864 
2463	 0.241831485744381 
2464	 0.24115717188719 
2465	 0.240569905656402 
2466	 0.240003436795391 
2467	 0.239684214542258 
2468	 0.239181195572053 
2469	 0.238564209351497 
2470	 0.237835618585398 
2471	 0.237224977432369 
2472	 0.236693088247488 
2473	 0.236232481540245 
2474	 0.235735365725292 
2475	 0.23524312356803 
2476	 0.234719833591667 
2477	 0.234086628413926 
2478	 0.233634815746611 
2479	 0.233107488339111 
2480	 0.232429837430228 
2481	 0.231963603837101 
2482	 0.231527154227074 
2483	 0.231081177494137 
2484	 0.230770246013187 
2485	 0.230501774367468 
2486	 0.230192785181361 
2487	 0.229860362114273 
2488	 0.229422985568521 
2489	 0.228781898412677 
2490	 0.228110507473223 
2491	 0.227630508305025 
2492	 0.227264969947978 
2493	 0.226959517415711 
2494	 0.226524299754348 
2495	 0.225986630214036 
2496	 0.225590542746057 
2497	 0.22513405793566 
2498	 0.224763357974517 
2499	 0.224505185020852 
2500	 0.224092910295767 
