Wavelength	LMW_1300003.asd
350	 5.00154405221715E-02 
351	 4.96058223064293E-02 
352	 4.19615367145746E-02 
353	 3.15720824316272E-02 
354	 4.50649876447059E-02 
355	 4.83832298569196E-02 
356	 0.04471885639818 
357	 4.53757573121822E-02 
358	 5.44053382546521E-02 
359	 5.01048899846528E-02 
360	 4.10152213487816E-02 
361	 5.14264350017043E-02 
362	 4.89228967139596E-02 
363	 4.34536597385668E-02 
364	 4.26489706258487E-02 
365	 4.21991374301913E-02 
366	 3.95672155163112E-02 
367	 3.77380374179035E-02 
368	 3.98077302411435E-02 
369	 4.30268561173687E-02 
370	 4.60543903028256E-02 
371	 4.76444315120908E-02 
372	 4.67723601274895E-02 
373	 0.045328029707263 
374	 4.50815592406893E-02 
375	 4.65272577725966E-02 
376	 0.048354816983776 
377	 4.80507144553305E-02 
378	 4.77893247383925E-02 
379	 4.96724167624638E-02 
380	 4.91198329186658E-02 
381	 4.73388124455879E-02 
382	 4.64838702112477E-02 
383	 4.87601606532137E-02 
384	 0.050122293956127 
385	 4.91589240070623E-02 
386	 4.72669534123009E-02 
387	 5.05574379955088E-02 
388	 5.14064612017546E-02 
389	 5.05781278285322E-02 
390	 5.09150483556513E-02 
391	 5.12124484980339E-02 
392	 5.18221300919757E-02 
393	 0.052460188221835 
394	 5.23664458833009E-02 
395	 5.24828973922222E-02 
396	 0.05298422713284 
397	 5.37283855656181E-02 
398	 0.05426479566664 
399	 0.054208794936546 
400	 5.52450065863812E-02 
401	 5.83410693929946E-02 
402	 5.63569325614036E-02 
403	 5.39272887820845E-02 
404	 5.34334695079884E-02 
405	 5.41503009891512E-02 
406	 5.59276320732897E-02 
407	 5.75451438118253E-02 
408	 5.79895535580293E-02 
409	 5.68191610184897E-02 
410	 5.68901392143311E-02 
411	 5.80187671574456E-02 
412	 5.86521294472728E-02 
413	 5.91238600178642E-02 
414	 5.90331358630111E-02 
415	 5.85248043790958E-02 
416	 5.84628350241935E-02 
417	 5.86126848658075E-02 
418	 5.89390124837287E-02 
419	 5.91480436027552E-02 
420	 5.78023833174143E-02 
421	 0.057372674765065 
422	 5.79084550558499E-02 
423	 5.79248993299578E-02 
424	 5.79337346746883E-02 
425	 5.75088152038368E-02 
426	 5.67451467826241E-02 
427	 5.68563067232161E-02 
428	 0.057016804794461 
429	 5.69010806493151E-02 
430	 5.65003338161766E-02 
431	 5.65410236072884E-02 
432	 5.65048303704452E-02 
433	 0.056424655485511 
434	 5.68734812733409E-02 
435	 5.69341296179814E-02 
436	 0.056698587955183 
437	 5.65145868816044E-02 
438	 5.68573149902167E-02 
439	 5.72426840432438E-02 
440	 5.74660189267143E-02 
441	 5.75304876466048E-02 
442	 5.78551840042912E-02 
443	 5.82402974969845E-02 
444	 5.84376822627136E-02 
445	 5.81912418636104E-02 
446	 5.84679034785246E-02 
447	 5.89656483207661E-02 
448	 5.91466503095423E-02 
449	 0.059164807640015 
450	 5.94705186800883E-02 
451	 6.00167702012472E-02 
452	 6.03381289411791E-02 
453	 6.04454776073564E-02 
454	 6.03091958545491E-02 
455	 0.060110970226817 
456	 0.060608115916431 
457	 6.06464726342187E-02 
458	 6.04540789339775E-02 
459	 0.060769653241291 
460	 6.09932962976243E-02 
461	 6.10228778140752E-02 
462	 6.09848528335133E-02 
463	 6.12591932492429E-02 
464	 6.13375480581149E-02 
465	 6.14667382306411E-02 
466	 0.06188687888695 
467	 6.19596642037522E-02 
468	 6.19508055915518E-02 
469	 6.19516819411329E-02 
470	 6.18977264255719E-02 
471	 6.18125084325321E-02 
472	 6.18047986278117E-02 
473	 6.19452714061859E-02 
474	 6.22144931529167E-02 
475	 6.24328727193787E-02 
476	 6.24488098254772E-02 
477	 6.22281990954032E-02 
478	 6.23816255327318E-02 
479	 6.25227423306516E-02 
480	 6.25366421443138E-02 
481	 6.28059391121219E-02 
482	 6.31108956658301E-02 
483	 6.32311293879656E-02 
484	 6.30978076836932E-02 
485	 0.06326277048798 
486	 6.31690741562169E-02 
487	 6.28519279413601E-02 
488	 0.06283609021176 
489	 6.29153114974567E-02 
490	 0.063122779846669 
491	 6.33866845298801E-02 
492	 6.32756200836327E-02 
493	 6.32078272224033E-02 
494	 6.32282579418195E-02 
495	 0.063226903078152 
496	 6.33544458978805E-02 
497	 6.34191867322665E-02 
498	 6.34192664157045E-02 
499	 6.36924784570889E-02 
500	 6.36733816959142E-02 
501	 6.34904163429756E-02 
502	 0.063430728837432 
503	 6.34770253408575E-02 
504	 6.35947622857711E-02 
505	 6.36710483898548E-02 
506	 6.35470243571943E-02 
507	 6.36072140330579E-02 
508	 6.36796005664625E-02 
509	 6.36180827550785E-02 
510	 6.36495993653269E-02 
511	 6.36515840202326E-02 
512	 0.063632164776356 
513	 0.063662237585795 
514	 6.37362097809207E-02 
515	 6.37094669771448E-02 
516	 6.36015521462946E-02 
517	 0.063741858009166 
518	 6.38310155235797E-02 
519	 6.37881158167318E-02 
520	 6.36631668488481E-02 
521	 0.063777083261484 
522	 6.38475313030634E-02 
523	 6.37971944252059E-02 
524	 6.37964241819622E-02 
525	 0.063837274565325 
526	 6.38317192341281E-02 
527	 6.37663091968048E-02 
528	 6.39509113091261E-02 
529	 6.39826815936599E-02 
530	 6.38979180558428E-02 
531	 6.39978299243326E-02 
532	 6.40159091657644E-02 
533	 0.064058772904935 
534	 6.41690179862943E-02 
535	 6.41420465326923E-02 
536	 6.41226018184929E-02 
537	 6.41720193578655E-02 
538	 6.42959486521057E-02 
539	 6.43647121497573E-02 
540	 6.43639554636479E-02 
541	 6.43615403721514E-02 
542	 6.45210213333614E-02 
543	 6.45648143562839E-02 
544	 6.46017087167198E-02 
545	 6.47701334226611E-02 
546	 6.48933429984171E-02 
547	 6.48975292404108E-02 
548	 6.48859128623878E-02 
549	 6.50873777809623E-02 
550	 6.51986379821957E-02 
551	 6.53144719580098E-02 
552	 6.55160966989388E-02 
553	 6.56612227949652E-02 
554	 6.57464985160368E-02 
555	 6.58388224967645E-02 
556	 6.60311931973503E-02 
557	 6.62691252821088E-02 
558	 6.63983346062512E-02 
559	 6.64362731622425E-02 
560	 6.67202621434738E-02 
561	 6.69839968988502E-02 
562	 6.72231579512575E-02 
563	 6.75018721810303E-02 
564	 6.77522982794119E-02 
565	 6.80223992270972E-02 
566	 6.83423158905434E-02 
567	 6.87143860575536E-02 
568	 6.91702817190985E-02 
569	 6.95888301925382E-02 
570	 6.98799542522117E-02 
571	 7.01622297418268E-02 
572	 7.05199344251866E-02 
573	 7.09639923234683E-02 
574	 7.14434610562663E-02 
575	 0.071884211524712 
576	 7.23092526785275E-02 
577	 7.27439405433781E-02 
578	 7.31664023070345E-02 
579	 7.36866341442652E-02 
580	 7.42974077469985E-02 
581	 7.49465545770306E-02 
582	 7.56968690920909E-02 
583	 7.63787805115523E-02 
584	 7.69487929440545E-02 
585	 7.75682286396756E-02 
586	 7.82199463693871E-02 
587	 7.88154596910183E-02 
588	 7.93163167819815E-02 
589	 8.00206683154193E-02 
590	 0.080660566151614 
591	 8.12143869876548E-02 
592	 8.18935255362905E-02 
593	 8.25261744786044E-02 
594	 8.31583364042279E-02 
595	 8.38525672501753E-02 
596	 0.084607770067834 
597	 8.53907499435564E-02 
598	 8.61789364044638E-02 
599	 8.69589013818367E-02 
600	 8.77193851107366E-02 
601	 0.088400966603066 
602	 8.89967969884745E-02 
603	 0.089607886848177 
604	 9.01608484124634E-02 
605	 9.06799712766515E-02 
606	 9.12207285891399E-02 
607	 9.18157094594504E-02 
608	 9.23584354206673E-02 
609	 9.28378724728371E-02 
610	 9.33603842108423E-02 
611	 9.38594248000247E-02 
612	 9.43551919038191E-02 
613	 9.48535573370876E-02 
614	 9.52532609992731E-02 
615	 0.095613811768256 
616	 9.59599334470459E-02 
617	 9.62933359883411E-02 
618	 9.66907673158255E-02 
619	 9.70214862827125E-02 
620	 0.097243100431136 
621	 9.75741076859947E-02 
622	 9.78456380295911E-02 
623	 9.80917798881887E-02 
624	 9.83954201817383E-02 
625	 9.85917811953359E-02 
626	 9.88157077353515E-02 
627	 9.90970238009198E-02 
628	 9.92965940180421E-02 
629	 9.95232702610272E-02 
630	 9.97463632965492E-02 
631	 9.99262418773495E-02 
632	 0.100132564655943 
633	 0.100371120906456 
634	 0.100582633358859 
635	 0.100676175767612 
636	 0.100923381470602 
637	 0.101173389874488 
638	 0.101303954142288 
639	 0.101438515762804 
640	 0.101641901402587 
641	 0.101885394462484 
642	 0.102094697046086 
643	 0.102272999402726 
644	 0.102450927695825 
645	 0.102647584930938 
646	 0.102861396618132 
647	 0.103045410182716 
648	 0.103216231092418 
649	 0.103413695926462 
650	 0.10368954279382 
651	 0.103940632336315 
652	 0.104140734970683 
653	 0.104339434953533 
654	 0.104621426939686 
655	 0.104881821545666 
656	 0.105060002649093 
657	 0.105287098622261 
658	 0.105583107869011 
659	 0.105896039496862 
660	 0.106145744643432 
661	 0.106365075129781 
662	 0.106624554434693 
663	 0.106947794330838 
664	 0.107287939577969 
665	 0.107604080327777 
666	 0.10791004919486 
667	 0.108223188135992 
668	 0.108486359149736 
669	 0.108791416950485 
670	 0.109153599240216 
671	 0.109519104050829 
672	 0.109867171289643 
673	 0.110216926595007 
674	 0.110590322466471 
675	 0.111007085919939 
676	 0.111353635410851 
677	 0.111685784905799 
678	 0.112113772921033 
679	 0.112539265604772 
680	 0.112976645519255 
681	 0.1134186009732 
682	 0.113818266079651 
683	 0.114254971800828 
684	 0.114711690640278 
685	 0.115155480865083 
686	 0.11559123380885 
687	 0.116055698373386 
688	 0.116539697261659 
689	 0.117003347405192 
690	 0.117466419830646 
691	 0.117962188575699 
692	 0.118498810251253 
693	 0.119039216869247 
694	 0.119521064905806 
695	 0.119986059241567 
696	 0.120503862332578 
697	 0.121049542186978 
698	 0.121581010684757 
699	 0.122111046013269 
700	 0.122707170852665 
701	 0.123250431418909 
702	 0.12377872325146 
703	 0.124337767681402 
704	 0.124896855638189 
705	 0.125442353023151 
706	 0.125991044226748 
707	 0.12656778998774 
708	 0.127122316877706 
709	 0.127693548442816 
710	 0.128284274815714 
711	 0.12883620657445 
712	 0.129345186363038 
713	 0.129856063823964 
714	 0.130410603661044 
715	 0.130978257099502 
716	 0.131524521270931 
717	 0.132056923518156 
718	 0.132607406430631 
719	 0.133119537143006 
720	 0.133576469005438 
721	 0.134004661776076 
722	 0.134504193712982 
723	 0.134962764408925 
724	 0.135419591498797 
725	 0.135926037906227 
726	 0.136322923980819 
727	 0.136701963188817 
728	 0.137092717106127 
729	 0.137454863427899 
730	 0.13777179192951 
731	 0.138107531510879 
732	 0.138480842146574 
733	 0.138771169020258 
734	 0.139010087090975 
735	 0.13923468743403 
736	 0.139476783657554 
737	 0.139702382575332 
738	 0.139885360230224 
739	 0.140040593054586 
740	 0.14022287041299 
741	 0.140325811442964 
742	 0.140383349763259 
743	 0.14043771158162 
744	 0.140463850943195 
745	 0.140491356177692 
746	 0.140513817477439 
747	 0.140502517614973 
748	 0.140410455319534 
749	 0.140301993297568 
750	 0.140199534261749 
751	 0.140063192461237 
752	 0.139955523660583 
753	 0.139853214933075 
754	 0.13971757389024 
755	 0.139528886235742 
756	 0.13929713024791 
757	 0.139057550465914 
758	 0.138847150036044 
759	 0.138619029299702 
760	 0.138330400693256 
761	 0.138006243250068 
762	 0.137750718370407 
763	 0.137462739554254 
764	 0.137147738599631 
765	 0.136827669335082 
766	 0.13649562064761 
767	 0.136148351647394 
768	 0.135806200855416 
769	 0.135487814466756 
770	 0.135118456622021 
771	 0.134735359641627 
772	 0.134355624690571 
773	 0.133960179240379 
774	 0.133578454142461 
775	 0.133204224088601 
776	 0.132825622225767 
777	 0.132439861845973 
778	 0.132065116920745 
779	 0.131683281720005 
780	 0.131271968662122 
781	 0.130896519863711 
782	 0.130518509991082 
783	 0.130111270334259 
784	 0.129673888824459 
785	 0.129289319828568 
786	 0.12889318015106 
787	 0.128448951687541 
788	 0.128052318111192 
789	 0.127709772857477 
790	 0.127372150832699 
791	 0.126980191231791 
792	 0.126557378181736 
793	 0.126191875583815 
794	 0.12587905057191 
795	 0.125534555232103 
796	 0.125161368055726 
797	 0.124786110273196 
798	 0.124428786021848 
799	 0.124087684750813 
800	 0.123758121783788 
801	 0.123406257885126 
802	 0.123019635808238 
803	 0.122692997738072 
804	 0.122415091824903 
805	 0.122130087367714 
806	 0.121777477484588 
807	 0.121502050359148 
808	 0.121190913527216 
809	 0.120836888265204 
810	 0.120599059464783 
811	 0.12034799486418 
812	 0.120050458616838 
813	 0.119726229768079 
814	 0.119473635379285 
815	 0.119225041499199 
816	 0.118982593859751 
817	 0.118767429534686 
818	 0.118542659962588 
819	 0.118328840640624 
820	 0.118094040441891 
821	 0.117778521410653 
822	 0.117565901895473 
823	 0.117363216290394 
824	 0.117121000977451 
825	 0.116931490871878 
826	 0.11676607561169 
827	 0.116573387956256 
828	 0.116341461903366 
829	 0.11620811562545 
830	 0.116035686264269 
831	 0.115832190510765 
832	 0.115674500314443 
833	 0.11558114281882 
834	 0.115435835709508 
835	 0.115229517514656 
836	 0.115064158742777 
837	 0.114986452862474 
838	 0.114911718717571 
839	 0.114784058609865 
840	 0.114637654063842 
841	 0.114469979734349 
842	 0.114340058856509 
843	 0.114279256011286 
844	 0.114188282709735 
845	 0.114099912494364 
846	 0.114021075736065 
847	 0.113947824762619 
848	 0.113882023943006 
849	 0.11380590140014 
850	 0.113742073985168 
851	 0.113733961301049 
852	 0.113658460818336 
853	 0.113585180894999 
854	 0.113547705290939 
855	 0.113487957647337 
856	 0.113504237010023 
857	 0.113540617628574 
858	 0.11353156086213 
859	 0.113478350647438 
860	 0.113464901987285 
861	 0.113479589300497 
862	 0.113487874818334 
863	 0.113533775365993 
864	 0.113555638443997 
865	 0.113571707709582 
866	 0.113633962059156 
867	 0.11364265561563 
868	 0.113666435453698 
869	 0.113727342154901 
870	 0.113784620416532 
871	 0.113827352003869 
872	 0.113897837203928 
873	 0.113995543853037 
874	 0.114038930642344 
875	 0.114112758888013 
876	 0.114195358921365 
877	 0.114257940511986 
878	 0.114317925982096 
879	 0.114442172456723 
880	 0.114590672391249 
881	 0.114709960883728 
882	 0.114870851278934 
883	 0.115031862921626 
884	 0.115142513792915 
885	 0.115188556027053 
886	 0.115379696953743 
887	 0.11554897359629 
888	 0.115672804137255 
889	 0.115863627946197 
890	 0.116068658220875 
891	 0.116219736830588 
892	 0.116347698426981 
893	 0.116593538443256 
894	 0.11678326589254 
895	 0.116951773102153 
896	 0.117157311244332 
897	 0.117422951104265 
898	 0.117682158433204 
899	 0.117920792932335 
900	 0.118139846846561 
901	 0.118329353845291 
902	 0.118566780678349 
903	 0.11881312125138 
904	 0.119023488992815 
905	 0.119294168753771 
906	 0.119603837070886 
907	 0.119909344317423 
908	 0.120180054877826 
909	 0.120499842715249 
910	 0.120804251349229 
911	 0.121105796500953 
912	 0.121454537645399 
913	 0.121753750274354 
914	 0.122070710443406 
915	 0.122425120811968 
916	 0.122778028964914 
917	 0.12307299045227 
918	 0.123420544043907 
919	 0.123817758846275 
920	 0.124123734099892 
921	 0.124495075027738 
922	 0.124942270623234 
923	 0.125401085828267 
924	 0.125751906690855 
925	 0.126147175602927 
926	 0.126597384705346 
927	 0.127050916087031 
928	 0.127405826000364 
929	 0.127857470735066 
930	 0.128379650465158 
931	 0.128891057617844 
932	 0.129330376942629 
933	 0.129794514250289 
934	 0.130299839030896 
935	 0.130824832282814 
936	 0.13132063319403 
937	 0.131836950713955 
938	 0.132392276245887 
939	 0.132978201196388 
940	 0.133543009111664 
941	 0.134084426734908 
942	 0.13465835938073 
943	 0.13529356966541 
944	 0.135821390766368 
945	 0.136341426091531 
946	 0.136926466504858 
947	 0.137587781299023 
948	 0.138165561222688 
949	 0.138703260948656 
950	 0.139292482324368 
951	 0.140007135192259 
952	 0.140744938475442 
953	 0.141442165876478 
954	 0.142082113512886 
955	 0.142688642963028 
956	 0.143310549734013 
957	 0.14405990716916 
958	 0.144848393556521 
959	 0.145506988508251 
960	 0.146167992874563 
961	 0.146847733201686 
962	 0.147640075369739 
963	 0.148597320482885 
964	 0.149272770840526 
965	 0.149961226085108 
966	 0.15076097853807 
967	 0.15158477018178 
968	 0.152337087851718 
969	 0.153129043913942 
970	 0.153909416195881 
971	 0.154563580259957 
972	 0.155341085270411 
973	 0.156264453809637 
974	 0.157188384624108 
975	 0.157948884568766 
976	 0.158869090796143 
977	 0.159782547789175 
978	 0.160552623914391 
979	 0.161189391439051 
980	 0.162232241209888 
981	 0.163116775104844 
982	 0.163905244806229 
983	 0.16496726656213 
984	 0.165830698341597 
985	 0.166707539439052 
986	 0.167591684418616 
987	 0.168385809967269 
988	 0.1692866405613 
989	 0.170286674794618 
990	 0.171237926713258 
991	 0.172020877044602 
992	 0.172935782405292 
993	 0.173837227811655 
994	 0.174779089516123 
995	 0.175830633955625 
996	 0.176750189122183 
997	 0.177536798927346 
998	 0.178334802509556 
999	 0.179295879664096 
1000	 0.180384044820754 
1001	 0.180480161670036 
1002	 0.181340846473211 
1003	 0.182180467817125 
1004	 0.183039793315369 
1005	 0.183957204967476 
1006	 0.184830059419041 
1007	 0.185694615946434 
1008	 0.186544535806836 
1009	 0.187321513012186 
1010	 0.188150349078834 
1011	 0.188971758537949 
1012	 0.189738920291751 
1013	 0.190537885576038 
1014	 0.191264066050752 
1015	 0.191997165857247 
1016	 0.192764726515324 
1017	 0.193520045955961 
1018	 0.194258294562385 
1019	 0.195082300263943 
1020	 0.195904758528172 
1021	 0.196689018247512 
1022	 0.197440386927743 
1023	 0.198119855544671 
1024	 0.19875545895447 
1025	 0.199346309468536 
1026	 0.200001908094084 
1027	 0.200752917114004 
1028	 0.201508987083152 
1029	 0.202233533261603 
1030	 0.202988835056547 
1031	 0.203709370346191 
1032	 0.204403113596323 
1033	 0.205026210951596 
1034	 0.205716635639053 
1035	 0.206365253395037 
1036	 0.20696549172623 
1037	 0.207651376280012 
1038	 0.208268486506803 
1039	 0.208819632241306 
1040	 0.2093799856239 
1041	 0.209976967000508 
1042	 0.210671198302817 
1043	 0.211358819102479 
1044	 0.212018393855104 
1045	 0.212722402333457 
1046	 0.213337788816415 
1047	 0.213846692277402 
1048	 0.214422408833967 
1049	 0.214959525731206 
1050	 0.215514250914816 
1051	 0.216126468166481 
1052	 0.216714519056586 
1053	 0.217385343575247 
1054	 0.218018622988957 
1055	 0.218567294930696 
1056	 0.21909310467184 
1057	 0.219620450156774 
1058	 0.220071747532706 
1059	 0.220604887062542 
1060	 0.221179673005186 
1061	 0.221765034125926 
1062	 0.222338766593381 
1063	 0.222864016758783 
1064	 0.223378589458297 
1065	 0.223912765487336 
1066	 0.224461382523218 
1067	 0.225004974123922 
1068	 0.225540567964461 
1069	 0.226065220284593 
1070	 0.226593927415135 
1071	 0.227114796099182 
1072	 0.227636172997915 
1073	 0.228180558259886 
1074	 0.228669513623489 
1075	 0.229105785311093 
1076	 0.229584903598441 
1077	 0.230043883587522 
1078	 0.230513200623208 
1079	 0.231026168512218 
1080	 0.231527955043446 
1081	 0.232041791613631 
1082	 0.232536908039806 
1083	 0.233006742539164 
1084	 0.23345110738944 
1085	 0.233913772753753 
1086	 0.23435172800127 
1087	 0.234812827197588 
1088	 0.235286662040125 
1089	 0.235778220379524 
1090	 0.23627967504665 
1091	 0.236760315719237 
1092	 0.23725728343783 
1093	 0.237734607646955 
1094	 0.238159731277053 
1095	 0.238606634740966 
1096	 0.239083456787005 
1097	 0.239562342397872 
1098	 0.240020725187831 
1099	 0.240470109115739 
1100	 0.240939510472653 
1101	 0.2413800944116 
1102	 0.241861725329879 
1103	 0.242391396114035 
1104	 0.242925288728387 
1105	 0.24338916218262 
1106	 0.243855491093077 
1107	 0.244303611799512 
1108	 0.244741615626214 
1109	 0.245251019347022 
1110	 0.245795709187545 
1111	 0.24629906946092 
1112	 0.246804910412668 
1113	 0.247295538556785 
1114	 0.247737112170706 
1115	 0.24822512056609 
1116	 0.248738923376333 
1117	 0.249261539944201 
1118	 0.249803605818747 
1119	 0.250347510909091 
1120	 0.250894210458078 
1121	 0.251398378723554 
1122	 0.251883909577592 
1123	 0.252383464838839 
1124	 0.252874678903387 
1125	 0.253355261795073 
1126	 0.253842525596526 
1127	 0.254322970762812 
1128	 0.254810163637925 
1129	 0.255302062215243 
1130	 0.255790616861175 
1131	 0.256290704998952 
1132	 0.256780132629541 
1133	 0.257254582960781 
1134	 0.257737327400713 
1135	 0.2582268037929 
1136	 0.258708627009373 
1137	 0.259175166309549 
1138	 0.259643017629814 
1139	 0.260087084245033 
1140	 0.260496479873232 
1141	 0.260928702540253 
1142	 0.261367120858563 
1143	 0.26179043403914 
1144	 0.262208065432087 
1145	 0.26263349043717 
1146	 0.263053090060635 
1147	 0.263467190009907 
1148	 0.263891374963617 
1149	 0.264305034312988 
1150	 0.264712624946151 
1151	 0.26510637742223 
1152	 0.265500186702941 
1153	 0.265893240981252 
1154	 0.266258759278947 
1155	 0.266599420224502 
1156	 0.26695137669897 
1157	 0.267283182233772 
1158	 0.26763675271573 
1159	 0.268010732055158 
1160	 0.268365777793569 
1161	 0.268727026745942 
1162	 0.269070701558451 
1163	 0.269395791025609 
1164	 0.269725119272384 
1165	 0.270055501972062 
1166	 0.270375112086363 
1167	 0.270679878673576 
1168	 0.270987946525951 
1169	 0.271292412137653 
1170	 0.271579322030531 
1171	 0.271889056812925 
1172	 0.272220027006495 
1173	 0.272524572458772 
1174	 0.272825505627017 
1175	 0.273127191886589 
1176	 0.273425670229409 
1177	 0.27370871871112 
1178	 0.273983490907117 
1179	 0.274261010066175 
1180	 0.274517337710857 
1181	 0.274785188437183 
1182	 0.275070162930769 
1183	 0.275360471649928 
1184	 0.275612008555082 
1185	 0.27584030772579 
1186	 0.276088931494937 
1187	 0.276319308938557 
1188	 0.276562882249053 
1189	 0.27683467423145 
1190	 0.277078159742763 
1191	 0.27730819089039 
1192	 0.277532856631629 
1193	 0.277758383363173 
1194	 0.277964055743006 
1195	 0.27814997254861 
1196	 0.278336031243275 
1197	 0.278501094834638 
1198	 0.278676048525042 
1199	 0.278853464609562 
1200	 0.279036665942615 
1201	 0.279209694522825 
1202	 0.279377909161445 
1203	 0.279556728585572 
1204	 0.279732612975313 
1205	 0.27991405522903 
1206	 0.280119574889422 
1207	 0.280294878887851 
1208	 0.28046233754198 
1209	 0.280615938700308 
1210	 0.280740408842638 
1211	 0.280880487668963 
1212	 0.281007843209566 
1213	 0.281153115918826 
1214	 0.281333063046827 
1215	 0.28148426173484 
1216	 0.281627035366727 
1217	 0.281770599767196 
1218	 0.281900263841722 
1219	 0.282001475768786 
1220	 0.282123697033549 
1221	 0.282244993127747 
1222	 0.282380603792534 
1223	 0.282534823047932 
1224	 0.282669602268012 
1225	 0.282808452302852 
1226	 0.282940202811097 
1227	 0.283052112274491 
1228	 0.28317393255655 
1229	 0.28332001433907 
1230	 0.283435242800143 
1231	 0.283517749539762 
1232	 0.283620764333 
1233	 0.283724317401055 
1234	 0.283811349004502 
1235	 0.283920107892814 
1236	 0.284054847944512 
1237	 0.284174351698097 
1238	 0.284294207839342 
1239	 0.284405670426347 
1240	 0.284524146688342 
1241	 0.284620119302092 
1242	 0.284683240375759 
1243	 0.284774754632111 
1244	 0.28487058534739 
1245	 0.284963136048448 
1246	 0.285073990324429 
1247	 0.285174881033816 
1248	 0.285271760903416 
1249	 0.285354753041704 
1250	 0.285429171062679 
1251	 0.285505641434754 
1252	 0.285587966302384 
1253	 0.28566686570899 
1254	 0.28573866505429 
1255	 0.285812161410745 
1256	 0.285892727363812 
1257	 0.285956609805719 
1258	 0.286043701173074 
1259	 0.286166621103708 
1260	 0.286261823650649 
1261	 0.2863456509129 
1262	 0.286434066725273 
1263	 0.286512264390247 
1264	 0.286599008109641 
1265	 0.286701506567831 
1266	 0.286791612756189 
1267	 0.286888143982361 
1268	 0.286965446972708 
1269	 0.287028011603494 
1270	 0.287070145331622 
1271	 0.28712385831268 
1272	 0.28715827876134 
1273	 0.287215902146342 
1274	 0.287286087524018 
1275	 0.287359594978416 
1276	 0.287447426542941 
1277	 0.287526657983234 
1278	 0.287611984060997 
1279	 0.28768512112552 
1280	 0.287752082089265 
1281	 0.287812212987039 
1282	 0.287865513490165 
1283	 0.287914367377729 
1284	 0.287940498635924 
1285	 0.28799265325504 
1286	 0.288041967609 
1287	 0.288090871424209 
1288	 0.288149892245692 
1289	 0.288219259023027 
1290	 0.288288051579968 
1291	 0.288369665989719 
1292	 0.288430093107755 
1293	 0.288490536109036 
1294	 0.288535998093799 
1295	 0.288562193466045 
1296	 0.288589609940209 
1297	 0.288613228997534 
1298	 0.288631174613925 
1299	 0.288639872884017 
1300	 0.288647116934997 
1301	 0.288642579247419 
1302	 0.288651329298543 
1303	 0.28867226311361 
1304	 0.28867876652823 
1305	 0.288689112628282 
1306	 0.288686827217376 
1307	 0.288670826914982 
1308	 0.288656665651852 
1309	 0.288626637307283 
1310	 0.288581291960652 
1311	 0.288549607180096 
1312	 0.28851271692307 
1313	 0.288476955186318 
1314	 0.288459471857859 
1315	 0.288421423889006 
1316	 0.288355138114478 
1317	 0.288312114178129 
1318	 0.288266150059119 
1319	 0.288239366440095 
1320	 0.288243915529923 
1321	 0.288230621555255 
1322	 0.288220869053883 
1323	 0.288197089890701 
1324	 0.288187247566463 
1325	 0.288181385782554 
1326	 0.288190492704381 
1327	 0.28822170856206 
1328	 0.288222255002779 
1329	 0.288200326920051 
1330	 0.2882095537119 
1331	 0.288226794800745 
1332	 0.288228247729539 
1333	 0.288232277676175 
1334	 0.288257533520396 
1335	 0.288269858261391 
1336	 0.28830206305756 
1337	 0.288381624180347 
1338	 0.288427560944278 
1339	 0.288451844630728 
1340	 0.288487733423576 
1341	 0.288523462471866 
1342	 0.288557998320594 
1343	 0.288598980690867 
1344	 0.28863498057218 
1345	 0.288649757714733 
1346	 0.288670729934264 
1347	 0.288688722466658 
1348	 0.288703327680006 
1349	 0.288734158413155 
1350	 0.288758827894929 
1351	 0.288765054808741 
1352	 0.288764560896833 
1353	 0.288748139439154 
1354	 0.288708120962628 
1355	 0.288677828199037 
1356	 0.288624212119306 
1357	 0.288609367141765 
1358	 0.288617358449155 
1359	 0.288617004329548 
1360	 0.288626875219859 
1361	 0.288646624169411 
1362	 0.288657505019974 
1363	 0.288690271790391 
1364	 0.288747531227756 
1365	 0.288805197071643 
1366	 0.288862856391784 
1367	 0.288939775373304 
1368	 0.289035800289987 
1369	 0.28914578036665 
1370	 0.289253855356037 
1371	 0.289344802975018 
1372	 0.289396340594982 
1373	 0.289421202346224 
1374	 0.289417264214101 
1375	 0.28939421326543 
1376	 0.289319492627443 
1377	 0.289200484112016 
1378	 0.289067538244477 
1379	 0.288868192301083 
1380	 0.288713916623695 
1381	 0.288560999865498 
1382	 0.288414160160691 
1383	 0.288299732761703 
1384	 0.288150014709234 
1385	 0.287993107663013 
1386	 0.287816672602357 
1387	 0.287630355379428 
1388	 0.287415168288559 
1389	 0.287188396928951 
1390	 0.286932988576974 
1391	 0.286620169978997 
1392	 0.286267943318448 
1393	 0.285878359833399 
1394	 0.285459752886754 
1395	 0.285018804252003 
1396	 0.284573082924672 
1397	 0.284120488997729 
1398	 0.283654207047354 
1399	 0.283173242527255 
1400	 0.282688408897339 
1401	 0.282183834110397 
1402	 0.281636170624702 
1403	 0.281135948977501 
1404	 0.280639992823705 
1405	 0.280158782264475 
1406	 0.279714333711385 
1407	 0.279250089091665 
1408	 0.278773475768683 
1409	 0.278315883703856 
1410	 0.27782875141282 
1411	 0.277414291520153 
1412	 0.277036886423665 
1413	 0.276687748347525 
1414	 0.276392281330176 
1415	 0.276113657540462 
1416	 0.275821989593155 
1417	 0.275551215940678 
1418	 0.275304034891479 
1419	 0.275054871064038 
1420	 0.274823830945941 
1421	 0.274614248825183 
1422	 0.274405992335864 
1423	 0.274202268027153 
1424	 0.273992124494804 
1425	 0.273774687787327 
1426	 0.273581263930716 
1427	 0.273380628724163 
1428	 0.273212017889699 
1429	 0.273073510690425 
1430	 0.272942719596806 
1431	 0.272836182799663 
1432	 0.272721517496217 
1433	 0.272612439507455 
1434	 0.272508856768287 
1435	 0.272393945462919 
1436	 0.272305072752245 
1437	 0.272251383527698 
1438	 0.272177216134135 
1439	 0.272105186721669 
1440	 0.272034339593597 
1441	 0.271938976814844 
1442	 0.271851556403853 
1443	 0.271783146533001 
1444	 0.271720470394088 
1445	 0.27167947435221 
1446	 0.271651066701838 
1447	 0.271608855481188 
1448	 0.271568152773945 
1449	 0.271542318254819 
1450	 0.271517267829396 
1451	 0.271522635933958 
1452	 0.271558245432619 
1453	 0.271592214624971 
1454	 0.271657884718746 
1455	 0.271686956374731 
1456	 0.27170378455632 
1457	 0.271724303172462 
1458	 0.271710216155696 
1459	 0.271741149026607 
1460	 0.27179166032521 
1461	 0.271861401149832 
1462	 0.271971892837129 
1463	 0.272058572684567 
1464	 0.272159053520903 
1465	 0.272236148313664 
1466	 0.272274389335665 
1467	 0.272348730220315 
1468	 0.272421875375143 
1469	 0.27251901248486 
1470	 0.272651653744034 
1471	 0.272781573579067 
1472	 0.272913058685667 
1473	 0.273017444974868 
1474	 0.27307933782984 
1475	 0.273178438141826 
1476	 0.273287225662874 
1477	 0.27340335622881 
1478	 0.273580481353347 
1479	 0.273755877283219 
1480	 0.273925010780581 
1481	 0.274106608158464 
1482	 0.274267196096094 
1483	 0.274413043943795 
1484	 0.274566726146147 
1485	 0.27470444493782 
1486	 0.274865048532931 
1487	 0.275047168481621 
1488	 0.275205926547274 
1489	 0.275368737095437 
1490	 0.27552736565882 
1491	 0.275669391804223 
1492	 0.275810948686441 
1493	 0.275949310986559 
1494	 0.27609595678275 
1495	 0.276241629225281 
1496	 0.276389577604965 
1497	 0.276551754373159 
1498	 0.276697455753049 
1499	 0.27683823092093 
1500	 0.276969632924728 
1501	 0.277083769268493 
1502	 0.277212525034414 
1503	 0.277347153908402 
1504	 0.277458352536758 
1505	 0.27760212660771 
1506	 0.277762283786981 
1507	 0.277875232699995 
1508	 0.277985439901556 
1509	 0.278096418980629 
1510	 0.278176693792088 
1511	 0.278293600730976 
1512	 0.278431724517946 
1513	 0.278559783528097 
1514	 0.278675131475141 
1515	 0.278787843774964 
1516	 0.278914441131499 
1517	 0.279021013604017 
1518	 0.279122479789397 
1519	 0.279217721117782 
1520	 0.279292597142838 
1521	 0.279381598099645 
1522	 0.279468991168351 
1523	 0.279570469456015 
1524	 0.279686066321108 
1525	 0.279791175963441 
1526	 0.279898019299909 
1527	 0.280006073585154 
1528	 0.280111359784945 
1529	 0.280216725759824 
1530	 0.280330689663371 
1531	 0.280434188379666 
1532	 0.280533129261357 
1533	 0.280623141609967 
1534	 0.280699202016841 
1535	 0.280787518885882 
1536	 0.280873819143372 
1537	 0.280958895331239 
1538	 0.281052050095137 
1539	 0.281141752058218 
1540	 0.28122098161486 
1541	 0.281311642182228 
1542	 0.281414342841789 
1543	 0.281507710930008 
1544	 0.281603233241247 
1545	 0.281695481040545 
1546	 0.281783819446246 
1547	 0.281865467849561 
1548	 0.281957706308726 
1549	 0.282026103433489 
1550	 0.2820856199294 
1551	 0.282159923852892 
1552	 0.282230168478305 
1553	 0.282298645344628 
1554	 0.282380938245826 
1555	 0.282465497681385 
1556	 0.282550725585388 
1557	 0.28264182849124 
1558	 0.28270898206972 
1559	 0.282769337484683 
1560	 0.282825728447535 
1561	 0.282866349788342 
1562	 0.282913052493898 
1563	 0.282958065060695 
1564	 0.283007964110103 
1565	 0.283051699722823 
1566	 0.283111515869739 
1567	 0.283188821959808 
1568	 0.28325295501521 
1569	 0.28331823424773 
1570	 0.283383837831104 
1571	 0.28345287254696 
1572	 0.283504216353095 
1573	 0.283547114015061 
1574	 0.283589616203845 
1575	 0.283610396809555 
1576	 0.283650367558372 
1577	 0.283710679138028 
1578	 0.283757082331817 
1579	 0.283798382188038 
1580	 0.283841939280262 
1581	 0.283880591789954 
1582	 0.283918001862037 
1583	 0.283957754773008 
1584	 0.283998013141958 
1585	 0.284027886668408 
1586	 0.284074945015305 
1587	 0.284148797878602 
1588	 0.284190016910133 
1589	 0.284218127003779 
1590	 0.284253175295673 
1591	 0.284274893221815 
1592	 0.284295508885345 
1593	 0.284318754990124 
1594	 0.284347367514932 
1595	 0.284378258204217 
1596	 0.284392958468927 
1597	 0.284407006844111 
1598	 0.284419933339319 
1599	 0.284411114444408 
1600	 0.28441217303718 
1601	 0.284410898954964 
1602	 0.284435132176602 
1603	 0.284483105793286 
1604	 0.284514147424077 
1605	 0.284566132408017 
1606	 0.284602369741513 
1607	 0.284618806625772 
1608	 0.284619717598711 
1609	 0.284648836448945 
1610	 0.284676093953949 
1611	 0.284687687213662 
1612	 0.284723834122079 
1613	 0.284754672906943 
1614	 0.284742562029113 
1615	 0.284741624936001 
1616	 0.284752904748582 
1617	 0.284776444200896 
1618	 0.284815592887333 
1619	 0.284847250833158 
1620	 0.284879562403332 
1621	 0.284888170008061 
1622	 0.284866469028547 
1623	 0.284876346199788 
1624	 0.284884708181173 
1625	 0.284905501046686 
1626	 0.284948848503444 
1627	 0.284973747129706 
1628	 0.284995871069729 
1629	 0.285011316162996 
1630	 0.285024188815681 
1631	 0.285025685052324 
1632	 0.285014195558537 
1633	 0.285015087980375 
1634	 0.285005667237732 
1635	 0.285016703504175 
1636	 0.285053875016773 
1637	 0.285059161793389 
1638	 0.285053291567874 
1639	 0.285062352492328 
1640	 0.285062839436143 
1641	 0.285065636029794 
1642	 0.285089093134876 
1643	 0.28508893542881 
1644	 0.285060887852778 
1645	 0.285059404943496 
1646	 0.285062382144387 
1647	 0.285074827688558 
1648	 0.28510226983675 
1649	 0.285124667003399 
1650	 0.285164992775741 
1651	 0.285168090156598 
1652	 0.285145678146296 
1653	 0.285144874099338 
1654	 0.285119830317211 
1655	 0.285131962358906 
1656	 0.28519256489645 
1657	 0.285207491118315 
1658	 0.285223791286039 
1659	 0.285210992806498 
1660	 0.285160587916452 
1661	 0.285125447160814 
1662	 0.285073160560379 
1663	 0.285042118279442 
1664	 0.285024363028036 
1665	 0.28499997760047 
1666	 0.284982014433094 
1667	 0.284961604335698 
1668	 0.284930999806499 
1669	 0.284916700634898 
1670	 0.284908012536051 
1671	 0.28491106976235 
1672	 0.284930847907749 
1673	 0.284942913775469 
1674	 0.284972123463036 
1675	 0.284973251804187 
1676	 0.284964315586488 
1677	 0.28494037001199 
1678	 0.284883561719558 
1679	 0.284853639045991 
1680	 0.284812745449149 
1681	 0.284803274276234 
1682	 0.284825228451026 
1683	 0.284835968299842 
1684	 0.284866249059173 
1685	 0.284874846299025 
1686	 0.284870095152357 
1687	 0.284870611984604 
1688	 0.284867200060855 
1689	 0.284861145636699 
1690	 0.284855812680361 
1691	 0.284844467115265 
1692	 0.28483088269406 
1693	 0.284806086298254 
1694	 0.284770195254398 
1695	 0.284742809342766 
1696	 0.284694898225794 
1697	 0.284680775856712 
1698	 0.284701073345107 
1699	 0.28469446873681 
1700	 0.284687672973424 
1701	 0.284687799489181 
1702	 0.284673129876353 
1703	 0.284672876194878 
1704	 0.284710009902515 
1705	 0.284698056360878 
1706	 0.284652973389998 
1707	 0.284630984515307 
1708	 0.28460342976587 
1709	 0.284564488776487 
1710	 0.284521148756681 
1711	 0.284499628612961 
1712	 0.284472381210312 
1713	 0.284448674412809 
1714	 0.284459970602542 
1715	 0.284442797086028 
1716	 0.284389679121329 
1717	 0.284369047740283 
1718	 0.284379161880888 
1719	 0.28434562611337 
1720	 0.284305324051066 
1721	 0.284252307034047 
1722	 0.284157454519946 
1723	 0.284093972223832 
1724	 0.284043367447828 
1725	 0.283988155301693 
1726	 0.283930180131647 
1727	 0.283889223848999 
1728	 0.28386011684877 
1729	 0.283820010883732 
1730	 0.283788717383337 
1731	 0.283751264783311 
1732	 0.283708805437851 
1733	 0.28365504074954 
1734	 0.283609196539869 
1735	 0.283536682453557 
1736	 0.283421768181521 
1737	 0.283348309104991 
1738	 0.28328514874727 
1739	 0.283211481689442 
1740	 0.283157131139071 
1741	 0.283092325475471 
1742	 0.282999490567449 
1743	 0.282942689266635 
1744	 0.282910934990806 
1745	 0.28286114314481 
1746	 0.282822499966028 
1747	 0.282766626798537 
1748	 0.282691401464269 
1749	 0.282611358917416 
1750	 0.282538495206766 
1751	 0.282453919305817 
1752	 0.282380065111985 
1753	 0.282344166440958 
1754	 0.282298554584293 
1755	 0.282254457645273 
1756	 0.282216978581133 
1757	 0.282171457316901 
1758	 0.282123732562095 
1759	 0.282072977348834 
1760	 0.282028567152824 
1761	 0.281955227633953 
1762	 0.281879438576762 
1763	 0.28183331305476 
1764	 0.281793557859247 
1765	 0.281755861298984 
1766	 0.281715018792616 
1767	 0.281672191168693 
1768	 0.281617489121298 
1769	 0.281561358347792 
1770	 0.281511471995709 
1771	 0.281464355601373 
1772	 0.281408506773962 
1773	 0.281359052528805 
1774	 0.28131252342119 
1775	 0.281225291200103 
1776	 0.281149761728174 
1777	 0.281095344623058 
1778	 0.281050212545436 
1779	 0.281039425744054 
1780	 0.281020309615987 
1781	 0.280978997914419 
1782	 0.280941424985859 
1783	 0.280926098826015 
1784	 0.280911030502337 
1785	 0.280927840991854 
1786	 0.280928617499097 
1787	 0.280905074723573 
1788	 0.28089711063187 
1789	 0.280895994999992 
1790	 0.28088032633182 
1791	 0.280877552847626 
1792	 0.280855795363833 
1793	 0.280805831840284 
1794	 0.280778227086111 
1795	 0.280732333057585 
1796	 0.280725896915375 
1797	 0.280764635743014 
1798	 0.280774680744157 
1799	 0.280800339259557 
1800	 0.280797446774585 
1801	 0.279142182954211 
1802	 0.279365029085188 
1803	 0.279609114708793 
1804	 0.279842294885379 
1805	 0.280027762737174 
1806	 0.280169198733805 
1807	 0.280325244202938 
1808	 0.280455643930582 
1809	 0.28055880516672 
1810	 0.28065106485121 
1811	 0.280738362505436 
1812	 0.280800607878948 
1813	 0.280843179035554 
1814	 0.28090223014773 
1815	 0.280942269221986 
1816	 0.280967890945333 
1817	 0.280986559492208 
1818	 0.280982053432365 
1819	 0.280987070247525 
1820	 0.280994644666775 
1821	 0.280992985448337 
1822	 0.280983320901307 
1823	 0.280973090348657 
1824	 0.280987348112478 
1825	 0.280986131587522 
1826	 0.280959275112309 
1827	 0.280953058518615 
1828	 0.280921038944295 
1829	 0.280846651385991 
1830	 0.280796859688267 
1831	 0.28076132917227 
1832	 0.280700766797244 
1833	 0.280621366819968 
1834	 0.280571317140212 
1835	 0.280557819194061 
1836	 0.280535265199918 
1837	 0.280513660133021 
1838	 0.280509021575338 
1839	 0.280495430234692 
1840	 0.280459842263868 
1841	 0.280428400141151 
1842	 0.280443604162383 
1843	 0.280436978759597 
1844	 0.280405971100215 
1845	 0.280407679256538 
1846	 0.280413310434188 
1847	 0.280399230808813 
1848	 0.280378523123917 
1849	 0.280364338971543 
1850	 0.280347438763579 
1851	 0.280321590948495 
1852	 0.280291907120852 
1853	 0.280256141640623 
1854	 0.280201177605814 
1855	 0.280108412636187 
1856	 0.280012931005637 
1857	 0.279934323272183 
1858	 0.279828512874085 
1859	 0.279713561230153 
1860	 0.279563666545603 
1861	 0.27939212678127 
1862	 0.279183572778649 
1863	 0.278945229086859 
1864	 0.278646184999493 
1865	 0.278309467373721 
1866	 0.277911143155345 
1867	 0.277480353708408 
1868	 0.277023516086076 
1869	 0.276544183774087 
1870	 0.276099050178762 
1871	 0.275652425650392 
1872	 0.275207784346976 
1873	 0.274777367770027 
1874	 0.27435856237014 
1875	 0.273925039491184 
1876	 0.273476702103557 
1877	 0.272992549705756 
1878	 0.272417969209156 
1879	 0.271746016470161 
1880	 0.271005363603663 
1881	 0.270165349754112 
1882	 0.269262997315166 
1883	 0.268287880836311 
1884	 0.267268717572454 
1885	 0.266172235749447 
1886	 0.264990596930201 
1887	 0.263735272065041 
1888	 0.262398406602044 
1889	 0.2609743389866 
1890	 0.259502168608898 
1891	 0.258007660131248 
1892	 0.25647885790292 
1893	 0.254904003165998 
1894	 0.253288186332026 
1895	 0.251625695417834 
1896	 0.249934802688644 
1897	 0.248191019569806 
1898	 0.246423065559448 
1899	 0.244721872153741 
1900	 0.243065628232674 
1901	 0.241431735337363 
1902	 0.239892816665906 
1903	 0.238462704178719 
1904	 0.2370493605769 
1905	 0.235669710421737 
1906	 0.234396284997457 
1907	 0.233158196493109 
1908	 0.231954770878277 
1909	 0.230833616443994 
1910	 0.229738917528489 
1911	 0.228698646568213 
1912	 0.227711198860144 
1913	 0.22677891043864 
1914	 0.225897207495858 
1915	 0.225074639964821 
1916	 0.224302287671653 
1917	 0.223598237732626 
1918	 0.222954453798263 
1919	 0.222334874712387 
1920	 0.221786203260763 
1921	 0.221286895301647 
1922	 0.22084245384545 
1923	 0.220498152560654 
1924	 0.220180239767042 
1925	 0.219938425779081 
1926	 0.219708362016907 
1927	 0.219529481957563 
1928	 0.219338100414539 
1929	 0.219165575279955 
1930	 0.219028029125407 
1931	 0.218904926301372 
1932	 0.218813535322441 
1933	 0.218774573863659 
1934	 0.218772734057839 
1935	 0.218783934147577 
1936	 0.218821344671379 
1937	 0.218878997260846 
1938	 0.218953897603757 
1939	 0.219052407605713 
1940	 0.219164348447485 
1941	 0.219321072802849 
1942	 0.219509869864927 
1943	 0.219712900511062 
1944	 0.219945270350193 
1945	 0.220190437178272 
1946	 0.220440063806257 
1947	 0.220694972771092 
1948	 0.22096885768402 
1949	 0.221254697669907 
1950	 0.221551300313789 
1951	 0.221859649402249 
1952	 0.222180958016815 
1953	 0.222516975577523 
1954	 0.22287973241719 
1955	 0.223254787795979 
1956	 0.223606137603742 
1957	 0.223978400507296 
1958	 0.224352069617439 
1959	 0.22474809437442 
1960	 0.22517325675443 
1961	 0.225581556133092 
1962	 0.226001468580465 
1963	 0.226407045802459 
1964	 0.226787133230189 
1965	 0.227196194946119 
1966	 0.227598516188605 
1967	 0.227978948602275 
1968	 0.228390120239709 
1969	 0.228814581501668 
1970	 0.22923230954021 
1971	 0.229672251422129 
1972	 0.230095599149968 
1973	 0.230493958982276 
1974	 0.230913710272139 
1975	 0.2313503540992 
1976	 0.231769987813978 
1977	 0.232201594704304 
1978	 0.232635520911969 
1979	 0.233042812352147 
1980	 0.233472704970468 
1981	 0.233896616951813 
1982	 0.234309349473622 
1983	 0.234740716834403 
1984	 0.235185940522279 
1985	 0.2356274695902 
1986	 0.236099333754241 
1987	 0.236539562946885 
1988	 0.236951770633046 
1989	 0.237375708489177 
1990	 0.237819308479409 
1991	 0.238220282766564 
1992	 0.238641624902377 
1993	 0.239085194203612 
1994	 0.239502699757248 
1995	 0.239887753431528 
1996	 0.240308419277176 
1997	 0.240751194268721 
1998	 0.241180096194699 
1999	 0.241621583952981 
2000	 0.242051744654719 
2001	 0.242488034412688 
2002	 0.242874621149132 
2003	 0.243276370186149 
2004	 0.243695138806718 
2005	 0.244098452412576 
2006	 0.244492013492854 
2007	 0.244892526665814 
2008	 0.245288418038219 
2009	 0.245694323104153 
2010	 0.246107793860497 
2011	 0.246517604305066 
2012	 0.246934013966769 
2013	 0.247341798197977 
2014	 0.247733828951167 
2015	 0.248153204480637 
2016	 0.248559197890628 
2017	 0.248942976167796 
2018	 0.249320601632027 
2019	 0.249678162516379 
2020	 0.250047114169211 
2021	 0.25041006780252 
2022	 0.250776704559405 
2023	 0.251146382151334 
2024	 0.251519524306036 
2025	 0.251890582751848 
2026	 0.252265637729614 
2027	 0.252640886619353 
2028	 0.253037399974166 
2029	 0.253412107392517 
2030	 0.253789717291402 
2031	 0.254135992905342 
2032	 0.254466029200293 
2033	 0.25478487014308 
2034	 0.255051886406253 
2035	 0.255379181078994 
2036	 0.255732434294366 
2037	 0.256072637623346 
2038	 0.256458838467506 
2039	 0.256800802947686 
2040	 0.257103271665873 
2041	 0.257419481320588 
2042	 0.257710810256948 
2043	 0.257995505792804 
2044	 0.258275649560767 
2045	 0.258538354440912 
2046	 0.258816356795497 
2047	 0.259096318830151 
2048	 0.259376952814281 
2049	 0.259676910983033 
2050	 0.259952764956011 
2051	 0.260219930588209 
2052	 0.260473928548244 
2053	 0.26070108097765 
2054	 0.260942350804699 
2055	 0.261183171374589 
2056	 0.261416583274552 
2057	 0.261663576387184 
2058	 0.261923051419179 
2059	 0.262174007188305 
2060	 0.262428797455761 
2061	 0.262679292541529 
2062	 0.262935866100823 
2063	 0.263172782054503 
2064	 0.263387819397496 
2065	 0.263618684909441 
2066	 0.263842820976905 
2067	 0.264072899865087 
2068	 0.264313933676122 
2069	 0.264560810411163 
2070	 0.264797466541901 
2071	 0.265033762957924 
2072	 0.265255042218236 
2073	 0.265465685479724 
2074	 0.265681214635312 
2075	 0.265879275989393 
2076	 0.266096309316175 
2077	 0.266321862884629 
2078	 0.266554298693647 
2079	 0.266823152650511 
2080	 0.267044907279953 
2081	 0.267228819417985 
2082	 0.267441888962293 
2083	 0.267638260469286 
2084	 0.267838825716909 
2085	 0.268065528210434 
2086	 0.268341293790495 
2087	 0.268573180331108 
2088	 0.268798153585493 
2089	 0.26901277031263 
2090	 0.269213515150972 
2091	 0.269413057943191 
2092	 0.269600660884921 
2093	 0.269793575967305 
2094	 0.269977608768984 
2095	 0.270174143439213 
2096	 0.270377353929422 
2097	 0.270582088360228 
2098	 0.27079576174447 
2099	 0.271008494963882 
2100	 0.271219728165646 
2101	 0.271445669977175 
2102	 0.271628744761429 
2103	 0.271769379625094 
2104	 0.27196719809004 
2105	 0.272157063748583 
2106	 0.272371766961668 
2107	 0.272651268639744 
2108	 0.272890696737549 
2109	 0.273121566596162 
2110	 0.273336768741614 
2111	 0.273529515665207 
2112	 0.27373664521996 
2113	 0.273939093951413 
2114	 0.27413641931746 
2115	 0.274339565936332 
2116	 0.274554303587095 
2117	 0.27476591376531 
2118	 0.274962668819391 
2119	 0.275188344233599 
2120	 0.275445843122009 
2121	 0.275673286293432 
2122	 0.275918953956273 
2123	 0.276122360047561 
2124	 0.276287577113936 
2125	 0.276457806345954 
2126	 0.276616063499694 
2127	 0.276760436583403 
2128	 0.276885529313072 
2129	 0.277018383461711 
2130	 0.277134345211771 
2131	 0.277265230232226 
2132	 0.277380135639769 
2133	 0.277507928761472 
2134	 0.27760235919231 
2135	 0.277669719193138 
2136	 0.277738347290985 
2137	 0.277798058314482 
2138	 0.277848403334538 
2139	 0.277891893127721 
2140	 0.277926157351051 
2141	 0.277940886846523 
2142	 0.277959617879347 
2143	 0.277988004851426 
2144	 0.277988726479537 
2145	 0.277987416359416 
2146	 0.277962225861829 
2147	 0.27789587176485 
2148	 0.27783405039981 
2149	 0.277769292419474 
2150	 0.277690133172348 
2151	 0.277615595084765 
2152	 0.277548742698074 
2153	 0.277466308740197 
2154	 0.277383250899315 
2155	 0.277278502853321 
2156	 0.277169687524126 
2157	 0.2770315863632 
2158	 0.276853260819859 
2159	 0.276689970921161 
2160	 0.276505114167155 
2161	 0.276332042467209 
2162	 0.276181994717996 
2163	 0.276013157270502 
2164	 0.275826439554936 
2165	 0.275658165119566 
2166	 0.275468118828008 
2167	 0.275268835872377 
2168	 0.27505330163449 
2169	 0.274815915739709 
2170	 0.274598103303548 
2171	 0.274368258498209 
2172	 0.274153233965834 
2173	 0.273946644817239 
2174	 0.273756348846161 
2175	 0.273578839154024 
2176	 0.273400691268705 
2177	 0.273252400994729 
2178	 0.273079568775663 
2179	 0.272906710243151 
2180	 0.27270540615121 
2181	 0.27246928846048 
2182	 0.272248040244937 
2183	 0.272022576376707 
2184	 0.271774288085147 
2185	 0.271546622544841 
2186	 0.271336030533206 
2187	 0.271111652697316 
2188	 0.270880123623494 
2189	 0.270656756509503 
2190	 0.270428191731182 
2191	 0.270217579952163 
2192	 0.270016302949072 
2193	 0.269818883313785 
2194	 0.269607057498983 
2195	 0.269447385003946 
2196	 0.269307921463984 
2197	 0.269194696815907 
2198	 0.269168168701429 
2199	 0.269087597755093 
2200	 0.268950863904408 
2201	 0.268882552452675 
2202	 0.268838650852643 
2203	 0.268791277376181 
2204	 0.268763301471923 
2205	 0.268797047813712 
2206	 0.268790029792815 
2207	 0.268747104759613 
2208	 0.268748484459378 
2209	 0.268774577380259 
2210	 0.268804220227142 
2211	 0.268859563112758 
2212	 0.268887594345699 
2213	 0.268906245605177 
2214	 0.268942454660169 
2215	 0.268962083246919 
2216	 0.269007648555836 
2217	 0.269084944070082 
2218	 0.269153658109157 
2219	 0.269255835112529 
2220	 0.269308095723207 
2221	 0.269328013956744 
2222	 0.269359332180372 
2223	 0.269351066633884 
2224	 0.269351515895983 
2225	 0.269370064423213 
2226	 0.269420885186706 
2227	 0.269426086680316 
2228	 0.269412766747629 
2229	 0.269415052338359 
2230	 0.269398198144806 
2231	 0.269403760917171 
2232	 0.269433419564041 
2233	 0.269450905925571 
2234	 0.269467453592894 
2235	 0.269480205160945 
2236	 0.269501939297351 
2237	 0.269507055618529 
2238	 0.26950721953784 
2239	 0.269493260766706 
2240	 0.269473302715593 
2241	 0.26942745744872 
2242	 0.269340689915102 
2243	 0.269276243125723 
2244	 0.269190437828104 
2245	 0.269135369650299 
2246	 0.26910092175648 
2247	 0.269046563037043 
2248	 0.269002323606073 
2249	 0.268955171155682 
2250	 0.26892607183637 
2251	 0.268908432870407 
2252	 0.268882501539711 
2253	 0.268873719616966 
2254	 0.268834608610519 
2255	 0.268776871984992 
2256	 0.268731893319431 
2257	 0.268684212083928 
2258	 0.268619133983068 
2259	 0.268539256770743 
2260	 0.268473671388474 
2261	 0.268386137255053 
2262	 0.268338898869264 
2263	 0.268308852863553 
2264	 0.268306966912318 
2265	 0.26835003387748 
2266	 0.268371301382399 
2267	 0.268421358644797 
2268	 0.26845085237231 
2269	 0.268466281424656 
2270	 0.268459833965261 
2271	 0.268469679637748 
2272	 0.268489710819828 
2273	 0.26849205157276 
2274	 0.268518943926832 
2275	 0.268538191082788 
2276	 0.268561376552865 
2277	 0.268555779196324 
2278	 0.268546796193653 
2279	 0.268529068532946 
2280	 0.268459500925689 
2281	 0.268452447194271 
2282	 0.268483580927563 
2283	 0.268493250054494 
2284	 0.26851736240839 
2285	 0.268543323934113 
2286	 0.2685664262824 
2287	 0.268582264839625 
2288	 0.268600585637697 
2289	 0.268626720133477 
2290	 0.26867160332115 
2291	 0.268673341402157 
2292	 0.268667652748481 
2293	 0.268645238182199 
2294	 0.268542629270321 
2295	 0.268490505483245 
2296	 0.268448633581246 
2297	 0.268448785557515 
2298	 0.268457464908635 
2299	 0.268485411258431 
2300	 0.268477331124091 
2301	 0.268466633693346 
2302	 0.268459530039865 
2303	 0.268424061636195 
2304	 0.268403327724296 
2305	 0.268367830487575 
2306	 0.268324282176178 
2307	 0.26825331866756 
2308	 0.268216118387719 
2309	 0.268204935053598 
2310	 0.268136946629393 
2311	 0.268067246080442 
2312	 0.2679642814078 
2313	 0.267793534899145 
2314	 0.267673909670905 
2315	 0.267553067902786 
2316	 0.267444578084072 
2317	 0.267345075954599 
2318	 0.26726435442388 
2319	 0.267221444197874 
2320	 0.267152526923464 
2321	 0.267093122893151 
2322	 0.267029049302104 
2323	 0.266929765115454 
2324	 0.266841879606521 
2325	 0.266770004212515 
2326	 0.266688613053811 
2327	 0.266584348786042 
2328	 0.266530942617944 
2329	 0.266457405216024 
2330	 0.266379527995256 
2331	 0.266333626129949 
2332	 0.266248378392314 
2333	 0.266160085081244 
2334	 0.266090753489547 
2335	 0.265960686700346 
2336	 0.265836338055046 
2337	 0.265731942834496 
2338	 0.265593771077732 
2339	 0.265514686759628 
2340	 0.265455262766126 
2341	 0.265343640801416 
2342	 0.265207532800502 
2343	 0.265029876386341 
2344	 0.264820184211675 
2345	 0.26466495201988 
2346	 0.264572438003676 
2347	 0.264407761960081 
2348	 0.2642078904127 
2349	 0.264057461562454 
2350	 0.263874887829492 
2351	 0.263730207320993 
2352	 0.263702879832527 
2353	 0.263550133605132 
2354	 0.263317591960346 
2355	 0.263117861684477 
2356	 0.262863508613245 
2357	 0.262643063315709 
2358	 0.262473516606462 
2359	 0.26225704565895 
2360	 0.262014497572482 
2361	 0.261788891819615 
2362	 0.26155872715603 
2363	 0.261322206350298 
2364	 0.261092611675657 
2365	 0.260833632506472 
2366	 0.260535232277771 
2367	 0.260278255987962 
2368	 0.260043115225999 
2369	 0.259789465281837 
2370	 0.259558382512426 
2371	 0.259272854132285 
2372	 0.259009349327616 
2373	 0.25878011117429 
2374	 0.258580225748332 
2375	 0.25835119644404 
2376	 0.258040293387108 
2377	 0.257706965488376 
2378	 0.257378679296884 
2379	 0.257063333713883 
2380	 0.256757192629656 
2381	 0.256487561885603 
2382	 0.256197227360286 
2383	 0.255906929981859 
2384	 0.255706853124188 
2385	 0.25546144681729 
2386	 0.255167784949177 
2387	 0.254869034049757 
2388	 0.25456791405637 
2389	 0.254328733975912 
2390	 0.254126980154483 
2391	 0.253958529780121 
2392	 0.253736586324988 
2393	 0.25339567751756 
2394	 0.253012775317882 
2395	 0.25269032485309 
2396	 0.252381670318641 
2397	 0.252092452798509 
2398	 0.251854308668638 
2399	 0.251527374873056 
2400	 0.251269327898254 
2401	 0.251051840699369 
2402	 0.250733032699218 
2403	 0.250420598528052 
2404	 0.250055030070695 
2405	 0.249678446519661 
2406	 0.249267482846146 
2407	 0.248936991318098 
2408	 0.248709676959741 
2409	 0.248304101832808 
2410	 0.247979717175227 
2411	 0.247697482357683 
2412	 0.247294187109059 
2413	 0.247052814758189 
2414	 0.246813590550837 
2415	 0.246479620665734 
2416	 0.246155794049248 
2417	 0.245769096529367 
2418	 0.245425990765071 
2419	 0.245116089894192 
2420	 0.244837461591979 
2421	 0.244585514259299 
2422	 0.244278190127726 
2423	 0.243981590091931 
2424	 0.243637876059098 
2425	 0.243258953308472 
2426	 0.242908862884125 
2427	 0.242513692983293 
2428	 0.242161488178348 
2429	 0.241849855964699 
2430	 0.241461639170658 
2431	 0.241053386483311 
2432	 0.240727044872161 
2433	 0.240379346819809 
2434	 0.240039958254838 
2435	 0.239809938846951 
2436	 0.239462905887839 
2437	 0.238955609569933 
2438	 0.23865684264109 
2439	 0.238523577295119 
2440	 0.238224521418503 
2441	 0.237942251483511 
2442	 0.237618108392549 
2443	 0.237072977252531 
2444	 0.236707692895695 
2445	 0.236483095147013 
2446	 0.236193367592503 
2447	 0.235932943890498 
2448	 0.235705205108203 
2449	 0.235512852848329 
2450	 0.235222391926983 
2451	 0.234941793406443 
2452	 0.234629249202416 
2453	 0.234184242986233 
2454	 0.233863105995148 
2455	 0.233643374235837 
2456	 0.233292014564847 
2457	 0.232895376623161 
2458	 0.232490780786525 
2459	 0.23194201928086 
2460	 0.23154067967899 
2461	 0.23128342815835 
2462	 0.231002414677533 
2463	 0.230786166703503 
2464	 0.230520846924867 
2465	 0.230184796503678 
2466	 0.22989758414152 
2467	 0.229665417280605 
2468	 0.229278654141423 
2469	 0.228829109279555 
2470	 0.228240293079963 
2471	 0.227866359649208 
2472	 0.227688769907394 
2473	 0.227582284741337 
2474	 0.2274234384155 
2475	 0.227149007377967 
2476	 0.226879511108243 
2477	 0.226383659340983 
2478	 0.226004269782059 
2479	 0.22577804355046 
2480	 0.225273999285705 
2481	 0.224922576625408 
2482	 0.224769203320105 
2483	 0.224580682045755 
2484	 0.224553163561959 
2485	 0.224423018872621 
2486	 0.224144720910576 
2487	 0.223824566660462 
2488	 0.223414497291039 
2489	 0.223186374591086 
2490	 0.222913147228394 
2491	 0.222550261186083 
2492	 0.222182093808855 
2493	 0.221744895911561 
2494	 0.221566875184453 
2495	 0.221430019644377 
2496	 0.221279442404348 
2497	 0.221299767516379 
2498	 0.221132716711243 
2499	 0.220782301778162 
2500	 0.220602648521169 
