Wavelength	LMW_2400004.asd
350	 4.72188720124209E-02 
351	 5.67437466195398E-02 
352	 5.16841114599152E-02 
353	 3.61023423927443E-02 
354	 5.38772486011598E-02 
355	 5.84430868456947E-02 
356	 5.38987838711882E-02 
357	 5.36509540435486E-02 
358	 5.38502876050151E-02 
359	 4.72480581636595E-02 
360	 4.02616625484223E-02 
361	 4.58102046181873E-02 
362	 4.59248211825339E-02 
363	 4.51523733303109E-02 
364	 4.62640951941338E-02 
365	 4.44647106778885E-02 
366	 4.71865794230191E-02 
367	 4.92924758677607E-02 
368	 4.60731229950102E-02 
369	 4.84309815713779E-02 
370	 4.96611015952943E-02 
371	 4.77867961058821E-02 
372	 4.48052479844364E-02 
373	 4.55359349744716E-02 
374	 4.72976570944134E-02 
375	 0.048489503538668 
376	 5.15568316675555E-02 
377	 4.93260758709499E-02 
378	 4.62812657741373E-02 
379	 4.79855739925835E-02 
380	 4.86747096479172E-02 
381	 4.78640662873317E-02 
382	 4.76751510257884E-02 
383	 5.12953806011285E-02 
384	 0.051032741788896 
385	 4.93524355598465E-02 
386	 4.90158038491917E-02 
387	 5.06083237045131E-02 
388	 0.051552088404201 
389	 5.14870396589217E-02 
390	 5.07647876216272E-02 
391	 0.048736174925988 
392	 4.90950928568227E-02 
393	 5.16911325297933E-02 
394	 5.30440989825919E-02 
395	 0.051187153901281 
396	 5.08275882292392E-02 
397	 0.053933649034763 
398	 0.054432265749461 
399	 5.44154297016868E-02 
400	 5.37859985707544E-02 
401	 5.25092526893612E-02 
402	 5.49055914055618E-02 
403	 5.60128964191597E-02 
404	 5.46181267533847E-02 
405	 5.37935872483853E-02 
406	 5.43190392972641E-02 
407	 5.57289656748371E-02 
408	 5.68194022395985E-02 
409	 5.51176935187817E-02 
410	 5.42781221896948E-02 
411	 5.50652106542749E-02 
412	 5.65279067492123E-02 
413	 5.65634760640368E-02 
414	 5.65990726673318E-02 
415	 5.68361031521682E-02 
416	 5.54635358811748E-02 
417	 5.52201915287484E-02 
418	 5.60049673720156E-02 
419	 5.68740101292604E-02 
420	 5.67105984811649E-02 
421	 5.62888439872376E-02 
422	 5.62614898921932E-02 
423	 5.69842482287021E-02 
424	 0.056824715221651 
425	 5.65501533135635E-02 
426	 5.66007651786117E-02 
427	 5.62255999783801E-02 
428	 5.59744587512773E-02 
429	 5.59656064375232E-02 
430	 5.61221668170167E-02 
431	 5.61817774635733E-02 
432	 0.056086412938768 
433	 5.58674957313834E-02 
434	 5.56252363480848E-02 
435	 5.53421922172987E-02 
436	 5.52258746504091E-02 
437	 0.055347902550476 
438	 5.53233770758708E-02 
439	 5.54660372440283E-02 
440	 5.57030006602231E-02 
441	 5.58320203358655E-02 
442	 0.056311032981911 
443	 5.67058101113229E-02 
444	 5.67225414805877E-02 
445	 0.056374069227649 
446	 5.62788491734764E-02 
447	 5.64783070169338E-02 
448	 5.67818902482006E-02 
449	 5.69100332916026E-02 
450	 0.056954186888273 
451	 5.69207982385418E-02 
452	 5.67641079926077E-02 
453	 5.70703230447031E-02 
454	 5.73420664783116E-02 
455	 5.72645778788397E-02 
456	 5.74462922868046E-02 
457	 5.76060372394606E-02 
458	 5.76696606761982E-02 
459	 5.76754195825375E-02 
460	 5.78324442116184E-02 
461	 5.77691652771305E-02 
462	 5.75221286450748E-02 
463	 5.77646019201826E-02 
464	 5.78831548115574E-02 
465	 5.78363679577658E-02 
466	 5.77712587270506E-02 
467	 5.79011658865636E-02 
468	 5.80917133348965E-02 
469	 5.81929473744744E-02 
470	 5.80854845167121E-02 
471	 5.82240647781742E-02 
472	 5.82871796343014E-02 
473	 5.81246375055193E-02 
474	 5.83105859402659E-02 
475	 5.85003540141167E-02 
476	 5.85825207159666E-02 
477	 5.85606399917009E-02 
478	 5.85127285127922E-02 
479	 5.85320500702834E-02 
480	 5.86162071163707E-02 
481	 5.86320927170839E-02 
482	 5.87864390209484E-02 
483	 5.88453504406804E-02 
484	 5.86544088123188E-02 
485	 5.88855433248826E-02 
486	 5.90278999992213E-02 
487	 5.89814811124774E-02 
488	 5.90064558156191E-02 
489	 5.90525363391522E-02 
490	 5.89936433740407E-02 
491	 5.88496163981078E-02 
492	 5.90618781529669E-02 
493	 5.91127434158078E-02 
494	 5.90317654027315E-02 
495	 5.90980535493585E-02 
496	 5.93981665586849E-02 
497	 5.93690012562881E-02 
498	 5.89998673203293E-02 
499	 5.91735518046185E-02 
500	 5.93492240748162E-02 
501	 5.95049312415098E-02 
502	 5.96915062548045E-02 
503	 5.96298616353388E-02 
504	 5.95656939220451E-02 
505	 0.059561236353326 
506	 5.95054478086917E-02 
507	 0.059665615659442 
508	 5.97996691244705E-02 
509	 5.97269709494916E-02 
510	 5.96724072339138E-02 
511	 5.97548548487977E-02 
512	 5.98619591794007E-02 
513	 5.97915111530254E-02 
514	 5.97970092268726E-02 
515	 5.98440361731264E-02 
516	 5.99157598829018E-02 
517	 6.00959332835733E-02 
518	 6.02016297321952E-02 
519	 6.01607730635463E-02 
520	 6.00106461110841E-02 
521	 6.00990959262204E-02 
522	 6.02095578859954E-02 
523	 6.02186014242818E-02 
524	 6.01376389738774E-02 
525	 6.00339848537146E-02 
526	 0.060020747558599 
527	 6.01458623230242E-02 
528	 6.02649049965445E-02 
529	 6.02393584084815E-02 
530	 6.01661292502042E-02 
531	 6.02822742662755E-02 
532	 6.05215355974212E-02 
533	 0.06063972649474 
534	 6.05688530455178E-02 
535	 6.06545605435897E-02 
536	 6.06848010441896E-02 
537	 6.06831886523386E-02 
538	 6.07419334387725E-02 
539	 6.07887211515982E-02 
540	 6.08036095461924E-02 
541	 6.08408008183659E-02 
542	 6.10497119778655E-02 
543	 6.11518627658925E-02 
544	 6.11806802058506E-02 
545	 6.12448649038587E-02 
546	 6.13801894629021E-02 
547	 6.14739186392556E-02 
548	 6.15119915660136E-02 
549	 6.15694015596118E-02 
550	 0.061703677095965 
551	 6.18250557439082E-02 
552	 6.18827514399936E-02 
553	 6.19984288829297E-02 
554	 6.21292782023631E-02 
555	 0.062309599915017 
556	 6.25858871231292E-02 
557	 6.27594828383626E-02 
558	 6.28840352904749E-02 
559	 6.30343110939859E-02 
560	 6.32817901248858E-02 
561	 0.063366502621491 
562	 6.34577787834953E-02 
563	 6.37940830519802E-02 
564	 6.40976969309695E-02 
565	 6.44356832029052E-02 
566	 6.48035608516122E-02 
567	 6.50980741563832E-02 
568	 0.065393111628807 
569	 6.56432376652562E-02 
570	 6.58250568106458E-02 
571	 6.60721836648818E-02 
572	 6.63585074570698E-02 
573	 6.66888391344004E-02 
574	 6.70793933174178E-02 
575	 6.74121499140097E-02 
576	 6.77751878055137E-02 
577	 6.82306608013568E-02 
578	 6.87067096795554E-02 
579	 6.92898877438154E-02 
580	 6.98894584854957E-02 
581	 7.03693387599709E-02 
582	 7.08663418531887E-02 
583	 7.13341182772455E-02 
584	 7.17691814686566E-02 
585	 7.22478861847945E-02 
586	 7.28901091844886E-02 
587	 7.35734474253854E-02 
588	 7.41432547235416E-02 
589	 7.46716812640159E-02 
590	 7.51507026724167E-02 
591	 7.55900568165165E-02 
592	 7.60142729642453E-02 
593	 7.62977361358738E-02 
594	 7.66010859887635E-02 
595	 7.70565882575735E-02 
596	 0.077574956723267 
597	 7.81742720442802E-02 
598	 7.88158182824948E-02 
599	 7.94430028829311E-02 
600	 8.01246741639133E-02 
601	 8.07283630411332E-02 
602	 8.11850134024033E-02 
603	 0.081571350445242 
604	 8.19728585544073E-02 
605	 8.24055624476279E-02 
606	 0.08284785269638 
607	 8.32572799841132E-02 
608	 8.36505195532397E-02 
609	 8.40306967498944E-02 
610	 8.43824595894628E-02 
611	 8.46908981970144E-02 
612	 8.49809600043271E-02 
613	 8.52814537350927E-02 
614	 8.56036223137072E-02 
615	 8.59220569907007E-02 
616	 8.61993641808216E-02 
617	 8.64018683531281E-02 
618	 8.66649342232522E-02 
619	 8.68945138924804E-02 
620	 8.70467664577387E-02 
621	 8.72584179092608E-02 
622	 8.74966314776102E-02 
623	 8.76990565912642E-02 
624	 8.78095080167463E-02 
625	 0.087919504068026 
626	 8.80843101925187E-02 
627	 8.82917919638181E-02 
628	 8.84476667584637E-02 
629	 8.85914288257202E-02 
630	 8.87203843857969E-02 
631	 8.88331800747807E-02 
632	 8.89657953830531E-02 
633	 8.91289952633867E-02 
634	 8.92803286981104E-02 
635	 8.93479969149698E-02 
636	 8.95094559948702E-02 
637	 8.96614770947924E-02 
638	 8.97313346827199E-02 
639	 0.089840035971182 
640	 0.089971772303556 
641	 9.01282371518677E-02 
642	 9.03042696194649E-02 
643	 9.04158018161599E-02 
644	 9.05480372421769E-02 
645	 9.07143082756674E-02 
646	 9.07987543085526E-02 
647	 9.09204098291037E-02 
648	 9.10622786169871E-02 
649	 9.11908092838234E-02 
650	 9.13845178917674E-02 
651	 9.15543769365569E-02 
652	 9.16807927692323E-02 
653	 9.18133982472114E-02 
654	 9.20513428512812E-02 
655	 9.22559631512388E-02 
656	 9.23497336109129E-02 
657	 9.25146519406181E-02 
658	 9.27000930184208E-02 
659	 9.29088612840306E-02 
660	 9.31493223315049E-02 
661	 9.33057208387236E-02 
662	 9.35050639428689E-02 
663	 9.37652756358072E-02 
664	 9.39118657858679E-02 
665	 9.41142161645668E-02 
666	 9.43336805274663E-02 
667	 0.094510939926782 
668	 0.094758034472874 
669	 9.50143662626889E-02 
670	 9.52600912170626E-02 
671	 9.55126766677478E-02 
672	 9.57714588551245E-02 
673	 9.60412843525283E-02 
674	 0.09631444360992 
675	 0.096551728199507 
676	 0.09678111739798 
677	 9.70183696725444E-02 
678	 9.72751867016934E-02 
679	 9.75635504796798E-02 
680	 0.097875662796239 
681	 9.81988559353035E-02 
682	 9.85179226964777E-02 
683	 0.098808466971687 
684	 0.099091365560364 
685	 0.099392669619037 
686	 9.97054451674024E-02 
687	 0.100038948526018 
688	 0.100385297128394 
689	 0.100723158048237 
690	 0.10103224490651 
691	 0.101333535906533 
692	 0.101654173418487 
693	 0.102025089079022 
694	 0.102382964738216 
695	 0.102724095704814 
696	 0.103071172150968 
697	 0.103458840655068 
698	 0.103811731180783 
699	 0.104139205776013 
700	 0.104541256173654 
701	 0.104899300781848 
702	 0.105267334579372 
703	 0.105680943964794 
704	 0.106015108518386 
705	 0.10637232554115 
706	 0.106746891495646 
707	 0.107087507237039 
708	 0.107474255736446 
709	 0.107864575763963 
710	 0.108231978402573 
711	 0.108593700246156 
712	 0.108946522058272 
713	 0.109298352722986 
714	 0.109654666796713 
715	 0.109992633447846 
716	 0.110376117437493 
717	 0.110769754725821 
718	 0.111074481568822 
719	 0.11136411036 
720	 0.1116732585584 
721	 0.112005103026823 
722	 0.112313454288017 
723	 0.112650907639781 
724	 0.112974486117975 
725	 0.113231591943612 
726	 0.113492089686874 
727	 0.113741376449196 
728	 0.113977233352278 
729	 0.114210312697175 
730	 0.114406954735013 
731	 0.114613546531722 
732	 0.114852703887303 
733	 0.115063842734761 
734	 0.115203987396807 
735	 0.115321299653065 
736	 0.11548690134924 
737	 0.115639325198604 
738	 0.115771167351251 
739	 0.115883615240592 
740	 0.115982979525153 
741	 0.116059079447484 
742	 0.116097367932336 
743	 0.116104201284118 
744	 0.116143193996663 
745	 0.116171738692224 
746	 0.116199650206753 
747	 0.116246501662725 
748	 0.11622904118121 
749	 0.116138630524364 
750	 0.116030232469128 
751	 0.11602077898967 
752	 0.115940465901203 
753	 0.115863059051779 
754	 0.115850495074752 
755	 0.115764576969102 
756	 0.115621092715791 
757	 0.11548684555223 
758	 0.115426962996614 
759	 0.11527679797688 
760	 0.115092829236743 
761	 0.114921046032383 
762	 0.114765703937512 
763	 0.114617554217482 
764	 0.114444940606908 
765	 0.114239356958377 
766	 0.114076285282584 
767	 0.113880005268209 
768	 0.113671073756658 
769	 0.113506656485629 
770	 0.113332771087249 
771	 0.113133094119513 
772	 0.112911839078427 
773	 0.112692999855005 
774	 0.112473786449821 
775	 0.11226011874433 
776	 0.112051626343577 
777	 0.11182868582127 
778	 0.111607428117963 
779	 0.11137588801368 
780	 0.111121674965827 
781	 0.110913412752961 
782	 0.110703113607169 
783	 0.110470812406946 
784	 0.110236718233591 
785	 0.110009961075354 
786	 0.109767748399167 
787	 0.109508318178954 
788	 0.109295049523312 
789	 0.109092473457106 
790	 0.108883873161048 
791	 0.108654909652991 
792	 0.108367002915057 
793	 0.108120882471188 
794	 0.10793478772837 
795	 0.107746215682643 
796	 0.107490341248693 
797	 0.107268884535327 
798	 0.107114459246988 
799	 0.10688460650825 
800	 0.106650986512224 
801	 0.106431644363351 
802	 0.106227241482735 
803	 0.106032675511173 
804	 0.105835057676098 
805	 0.105628724061946 
806	 0.105418223033372 
807	 0.105243756586935 
808	 0.105071752553827 
809	 0.104882963538473 
810	 0.104688013230909 
811	 0.104530491842363 
812	 0.104360285082805 
813	 0.10415174996869 
814	 0.104002151820435 
815	 0.103887651192504 
816	 0.103748141492375 
817	 0.103541818687623 
818	 0.103417749152916 
819	 0.103268470411781 
820	 0.103077587433834 
821	 0.102914845210607 
822	 0.102743088937943 
823	 0.102618056668556 
824	 0.102536391460305 
825	 0.102379679220687 
826	 0.102256672044593 
827	 0.102146850654079 
828	 0.10201700213501 
829	 0.101908368797535 
830	 0.101807187231156 
831	 0.101703060150564 
832	 0.101595035068105 
833	 0.101532357767026 
834	 0.101454573201571 
835	 0.101330282223652 
836	 0.101173281863707 
837	 0.101098754237204 
838	 0.10108036316611 
839	 0.101062227904118 
840	 0.100985508615279 
841	 0.100896490967088 
842	 0.100816761385156 
843	 0.100759225314902 
844	 0.100739260070158 
845	 0.100669248228645 
846	 0.100556187907351 
847	 0.100458631280647 
848	 0.100425563520367 
849	 0.100403293266243 
850	 0.100393077367473 
851	 0.100432735217516 
852	 0.100359886143976 
853	 0.100287648606343 
854	 0.100277765845392 
855	 0.100258938712092 
856	 0.100246621272268 
857	 0.100267942585626 
858	 0.100314905435831 
859	 0.100281959636239 
860	 0.100237142728989 
861	 0.10022587294777 
862	 0.100264103666288 
863	 0.100281012147938 
864	 0.100299569830045 
865	 0.100312419519958 
866	 0.100304747882419 
867	 0.100356312926987 
868	 0.100381811412568 
869	 0.100374111806633 
870	 0.100414889000921 
871	 0.100458963255952 
872	 0.100537801705139 
873	 0.100639912544424 
874	 0.100670723800928 
875	 0.100683489749 
876	 0.10070055457617 
877	 0.100741349004243 
878	 0.100838762846803 
879	 0.100943482878892 
880	 0.101005338406103 
881	 0.101016599263643 
882	 0.101122495859684 
883	 0.101272380879788 
884	 0.101383691418204 
885	 0.101399748148379 
886	 0.101505283607799 
887	 0.101612841406822 
888	 0.101695093112059 
889	 0.101795479294216 
890	 0.101947950757987 
891	 0.102106530188232 
892	 0.102226814192724 
893	 0.102288932625179 
894	 0.10240460131966 
895	 0.102541256720307 
896	 0.102672745168087 
897	 0.102839603578775 
898	 0.102972804787765 
899	 0.103125063581772 
900	 0.103311273459758 
901	 0.103347116880899 
902	 0.103492503062686 
903	 0.103718753492781 
904	 0.103906122021915 
905	 0.104013432283017 
906	 0.104119831562453 
907	 0.104303708054511 
908	 0.104592137148643 
909	 0.104810486842299 
910	 0.104925481223924 
911	 0.105070068357592 
912	 0.105415530592521 
913	 0.105661038944213 
914	 0.105856615797069 
915	 0.106054932537836 
916	 0.106276139486682 
917	 0.106470306823358 
918	 0.106680632011991 
919	 0.106910384499839 
920	 0.107109741878601 
921	 0.10734276947324 
922	 0.107590507483306 
923	 0.107839208709213 
924	 0.108104499112944 
925	 0.108383546120871 
926	 0.108670419039887 
927	 0.108942556060277 
928	 0.109150521514319 
929	 0.109404922555913 
930	 0.109719434753299 
931	 0.11006208224153 
932	 0.110366135540077 
933	 0.110692381989286 
934	 0.110955483279568 
935	 0.111134810981358 
936	 0.11151256072399 
937	 0.111864922051887 
938	 0.112178031780545 
939	 0.112502567972094 
940	 0.112851983476226 
941	 0.113178170651224 
942	 0.113490871748048 
943	 0.113825049056671 
944	 0.114210323086355 
945	 0.114563481009402 
946	 0.114891136203325 
947	 0.115223373694745 
948	 0.115477822544542 
949	 0.115804942995222 
950	 0.116177305704562 
951	 0.116505712676387 
952	 0.116910573558948 
953	 0.117341538316291 
954	 0.117758491192289 
955	 0.118134724907794 
956	 0.118451126887828 
957	 0.118818294313936 
958	 0.119225893676407 
959	 0.119603198307093 
960	 0.120042152316166 
961	 0.120384466479359 
962	 0.120741529859966 
963	 0.121304198005368 
964	 0.121609587984466 
965	 0.121966467502156 
966	 0.122419666757638 
967	 0.122824181281111 
968	 0.123278170961895 
969	 0.123721254099898 
970	 0.124084089958333 
971	 0.124350850590755 
972	 0.124779866796495 
973	 0.125221818265466 
974	 0.125617534120555 
975	 0.126017437344625 
976	 0.126580440819771 
977	 0.127124585639825 
978	 0.127527012590666 
979	 0.127776300063568 
980	 0.128079652109343 
981	 0.128481421240281 
982	 0.128925494080664 
983	 0.129325731710249 
984	 0.129748183082517 
985	 0.13029952090091 
986	 0.130785401205472 
987	 0.131008030877938 
988	 0.131624133307758 
989	 0.132053947237552 
990	 0.132289787293142 
991	 0.132642771726587 
992	 0.133235714486528 
993	 0.133600278652447 
994	 0.133897953766572 
995	 0.134437111308194 
996	 0.134827293174386 
997	 0.134994936319463 
998	 0.135282180325602 
999	 0.135965921755032 
1000	 0.136529573572663 
1001	 0.13383690572354 
1002	 0.134132840080514 
1003	 0.13443220311532 
1004	 0.134739189535116 
1005	 0.135115342939326 
1006	 0.135434487391902 
1007	 0.135726243314334 
1008	 0.13597365826436 
1009	 0.136300597458326 
1010	 0.136576471881257 
1011	 0.136810248856591 
1012	 0.137083939253308 
1013	 0.137325455025388 
1014	 0.137552319916799 
1015	 0.137860777437637 
1016	 0.138171818705592 
1017	 0.138434342974228 
1018	 0.138660686794473 
1019	 0.138905292262634 
1020	 0.139128118054831 
1021	 0.139325556062824 
1022	 0.139560599899464 
1023	 0.139761933343623 
1024	 0.139975875589582 
1025	 0.140243976722949 
1026	 0.140474595100127 
1027	 0.140699898612943 
1028	 0.140923505641332 
1029	 0.141092418550269 
1030	 0.141309599320827 
1031	 0.141513314137648 
1032	 0.141732162866113 
1033	 0.14186302227625 
1034	 0.142056088712865 
1035	 0.142239551634746 
1036	 0.142368458562589 
1037	 0.142572606583191 
1038	 0.142701723346149 
1039	 0.142814771851122 
1040	 0.143040668335461 
1041	 0.1432512020667 
1042	 0.143463045679754 
1043	 0.14369739358208 
1044	 0.143911099893842 
1045	 0.144086122863866 
1046	 0.144259365524459 
1047	 0.144451349358405 
1048	 0.144640068700784 
1049	 0.144807723740637 
1050	 0.144941020917372 
1051	 0.145096923068492 
1052	 0.145268743491096 
1053	 0.145434099503659 
1054	 0.14566204694416 
1055	 0.145866256736057 
1056	 0.145998208098012 
1057	 0.146169513596718 
1058	 0.146339247517915 
1059	 0.146487667694641 
1060	 0.146624482100255 
1061	 0.146828037272762 
1062	 0.146968056141332 
1063	 0.14706207905785 
1064	 0.147185563526248 
1065	 0.147321346198538 
1066	 0.14746045353934 
1067	 0.147589297733648 
1068	 0.14775091758946 
1069	 0.147847538793218 
1070	 0.147926461342401 
1071	 0.147975704018406 
1072	 0.148047888926049 
1073	 0.14809887327738 
1074	 0.148160934258821 
1075	 0.14824366367415 
1076	 0.148287108014379 
1077	 0.148348831529047 
1078	 0.148432461018773 
1079	 0.14850693113974 
1080	 0.148586246532799 
1081	 0.14866362421687 
1082	 0.14870110369555 
1083	 0.148756450103724 
1084	 0.148826916012173 
1085	 0.148889511854302 
1086	 0.14894454173095 
1087	 0.149003683612297 
1088	 0.149069955479287 
1089	 0.149117926941095 
1090	 0.149170544825975 
1091	 0.149218720652002 
1092	 0.149254297340369 
1093	 0.149283977281487 
1094	 0.149316632444655 
1095	 0.149374069366619 
1096	 0.149439853299019 
1097	 0.149519049698572 
1098	 0.149598100437933 
1099	 0.149665441153528 
1100	 0.149758127503125 
1101	 0.149891212762948 
1102	 0.149992118379158 
1103	 0.150090128901605 
1104	 0.150189587196941 
1105	 0.150276236715464 
1106	 0.15032898348845 
1107	 0.150414970841172 
1108	 0.150531155688325 
1109	 0.150646570330964 
1110	 0.150745938550118 
1111	 0.150846313550325 
1112	 0.150930036033658 
1113	 0.151047936587317 
1114	 0.15118973585943 
1115	 0.151313058415522 
1116	 0.151438873751922 
1117	 0.151571903477334 
1118	 0.151698739885605 
1119	 0.151817372935066 
1120	 0.15197672955225 
1121	 0.152140065825657 
1122	 0.15226664609311 
1123	 0.152410924660226 
1124	 0.152560154209498 
1125	 0.152707752528023 
1126	 0.152852874429281 
1127	 0.153001588701464 
1128	 0.153159351902925 
1129	 0.153316309267134 
1130	 0.153472355934627 
1131	 0.153643526683852 
1132	 0.153808095030726 
1133	 0.153970158603472 
1134	 0.154124702815676 
1135	 0.154292438925774 
1136	 0.154433497235923 
1137	 0.154544432676598 
1138	 0.154635944367956 
1139	 0.154751118108418 
1140	 0.154867229867656 
1141	 0.154972774366281 
1142	 0.155079093918703 
1143	 0.155194408014257 
1144	 0.155304457463232 
1145	 0.155408508902875 
1146	 0.155533777979977 
1147	 0.155641184785429 
1148	 0.155719717250739 
1149	 0.155806700313637 
1150	 0.155897372608691 
1151	 0.155987371186477 
1152	 0.156065926117263 
1153	 0.156148830479958 
1154	 0.156243507717637 
1155	 0.156352811136818 
1156	 0.15644041039079 
1157	 0.156535870549278 
1158	 0.156612366456155 
1159	 0.156657387081297 
1160	 0.156722487554566 
1161	 0.156790529700787 
1162	 0.156861087429595 
1163	 0.156941934207541 
1164	 0.15701396103907 
1165	 0.157089295304397 
1166	 0.157150819463168 
1167	 0.157203584962175 
1168	 0.157270784359491 
1169	 0.15733244845289 
1170	 0.157400263410655 
1171	 0.157451535675419 
1172	 0.157491929315391 
1173	 0.157540461265396 
1174	 0.157574746687366 
1175	 0.157625068710006 
1176	 0.157699900869081 
1177	 0.157752720160222 
1178	 0.157793854985567 
1179	 0.157846113476637 
1180	 0.157898086112628 
1181	 0.157943373732546 
1182	 0.158000828066637 
1183	 0.158043092581531 
1184	 0.158082440490342 
1185	 0.158101320744588 
1186	 0.158147450915195 
1187	 0.158208435074099 
1188	 0.158253614658671 
1189	 0.158302399361233 
1190	 0.158347829663502 
1191	 0.158382638915778 
1192	 0.158419414587137 
1193	 0.158459455486076 
1194	 0.158499845238332 
1195	 0.158530497976919 
1196	 0.158571755004499 
1197	 0.15863313548707 
1198	 0.158676185047607 
1199	 0.158713490610228 
1200	 0.158750961574613 
1201	 0.158777496142075 
1202	 0.15878157520465 
1203	 0.158811160784103 
1204	 0.158848170502736 
1205	 0.158881619658128 
1206	 0.158926278035266 
1207	 0.158963056453449 
1208	 0.158986739630157 
1209	 0.159024618912559 
1210	 0.159075001250538 
1211	 0.159115801549661 
1212	 0.159163228963206 
1213	 0.159200747065669 
1214	 0.159225304245325 
1215	 0.159252391747423 
1216	 0.159277958065637 
1217	 0.159301530935824 
1218	 0.159322827128532 
1219	 0.159336634912168 
1220	 0.159366149628838 
1221	 0.159405735216898 
1222	 0.15943209249278 
1223	 0.159455538491932 
1224	 0.15949105810709 
1225	 0.159518875601769 
1226	 0.159557050653168 
1227	 0.159622387934715 
1228	 0.15967003626605 
1229	 0.159705049850041 
1230	 0.159746696804139 
1231	 0.15979591073097 
1232	 0.159832472315932 
1233	 0.159863974235472 
1234	 0.159900635783248 
1235	 0.159911318839987 
1236	 0.159889938938721 
1237	 0.159903890589078 
1238	 0.159921612377057 
1239	 0.159935822108382 
1240	 0.159962591654383 
1241	 0.159991457592036 
1242	 0.160017423865008 
1243	 0.160039457063248 
1244	 0.160069739823978 
1245	 0.160098470998237 
1246	 0.1601125513652 
1247	 0.16013655534028 
1248	 0.160169907892329 
1249	 0.160209230952905 
1250	 0.16024627485954 
1251	 0.160278411050348 
1252	 0.160306810165763 
1253	 0.160334209985268 
1254	 0.160358697069864 
1255	 0.160380667514597 
1256	 0.160393222067934 
1257	 0.160390266329533 
1258	 0.160411025871112 
1259	 0.160441360842665 
1260	 0.160459396088372 
1261	 0.160486615359055 
1262	 0.160510756841512 
1263	 0.160519104562782 
1264	 0.160533840887724 
1265	 0.160556114400862 
1266	 0.160580510308541 
1267	 0.160606271200043 
1268	 0.16062359527463 
1269	 0.160652235375235 
1270	 0.160693841093931 
1271	 0.160726456820123 
1272	 0.160752797716507 
1273	 0.160790878020355 
1274	 0.160834677931175 
1275	 0.160876268254465 
1276	 0.16091775160013 
1277	 0.160967663757148 
1278	 0.161015613990011 
1279	 0.161075652314664 
1280	 0.161161907153052 
1281	 0.161228559604599 
1282	 0.161289107024048 
1283	 0.16134924812734 
1284	 0.161398990676502 
1285	 0.16145230329415 
1286	 0.161505913255178 
1287	 0.161560493351893 
1288	 0.161609645267439 
1289	 0.161656908172988 
1290	 0.161692745993389 
1291	 0.161732297364968 
1292	 0.161739240267746 
1293	 0.161718668271415 
1294	 0.16170809770909 
1295	 0.161675295445018 
1296	 0.161662616349575 
1297	 0.161664915018736 
1298	 0.1616550849028 
1299	 0.161659221079455 
1300	 0.161634682520155 
1301	 0.161590855907353 
1302	 0.161544953039243 
1303	 0.16148408605717 
1304	 0.161407267527278 
1305	 0.161354081446622 
1306	 0.161315671623068 
1307	 0.161260161386053 
1308	 0.161191548042928 
1309	 0.161117203924757 
1310	 0.161014835864462 
1311	 0.160939927962391 
1312	 0.160877925448068 
1313	 0.160808759751779 
1314	 0.160744225762835 
1315	 0.160680298373363 
1316	 0.160609094235669 
1317	 0.160545681267717 
1318	 0.160477069693691 
1319	 0.160433328869426 
1320	 0.160409391245901 
1321	 0.160382413857838 
1322	 0.160370832540846 
1323	 0.160359558706345 
1324	 0.160346420545197 
1325	 0.160332024296849 
1326	 0.160338128913936 
1327	 0.160361147445698 
1328	 0.160371358887309 
1329	 0.160386636181949 
1330	 0.160415775716511 
1331	 0.160443759602813 
1332	 0.160487581046652 
1333	 0.160550837270947 
1334	 0.160619698755555 
1335	 0.160703859450928 
1336	 0.160776620860769 
1337	 0.160849415016925 
1338	 0.16092691645514 
1339	 0.161000327685713 
1340	 0.161076567475501 
1341	 0.161161695776256 
1342	 0.161249548010274 
1343	 0.161340874567884 
1344	 0.161421994757895 
1345	 0.161519098564866 
1346	 0.16159103846363 
1347	 0.161630876250652 
1348	 0.161691192875405 
1349	 0.161729969834449 
1350	 0.161752394903858 
1351	 0.161784631139531 
1352	 0.16180925199438 
1353	 0.161841967117419 
1354	 0.161887111245361 
1355	 0.16192015057021 
1356	 0.161940329590869 
1357	 0.161984794128774 
1358	 0.162021147658793 
1359	 0.162084835347272 
1360	 0.162186209285739 
1361	 0.162270821121184 
1362	 0.16235680838189 
1363	 0.162451768184375 
1364	 0.16253710917887 
1365	 0.1626440786212 
1366	 0.162763563179319 
1367	 0.162896792345349 
1368	 0.163062213793289 
1369	 0.163220270598067 
1370	 0.163358423533873 
1371	 0.163482652606397 
1372	 0.163579342775015 
1373	 0.163650644446455 
1374	 0.163706953849218 
1375	 0.16375979703059 
1376	 0.16377637429168 
1377	 0.163758744379755 
1378	 0.163731468190797 
1379	 0.163666466414461 
1380	 0.163628024494679 
1381	 0.163558080461923 
1382	 0.16354634498862 
1383	 0.163582928214248 
1384	 0.163601086314766 
1385	 0.163658778433531 
1386	 0.163684791506282 
1387	 0.163691065861829 
1388	 0.163690775567413 
1389	 0.163688347637758 
1390	 0.163661648436023 
1391	 0.163620661420253 
1392	 0.163571429231072 
1393	 0.163485876695871 
1394	 0.16340544464039 
1395	 0.163329256676213 
1396	 0.163239512461546 
1397	 0.163160186905414 
1398	 0.163089488566556 
1399	 0.163010313687417 
1400	 0.162933329186917 
1401	 0.162844068956035 
1402	 0.162742194294321 
1403	 0.162660315640424 
1404	 0.162559761054928 
1405	 0.162499082917672 
1406	 0.162492496892672 
1407	 0.162437300692303 
1408	 0.162385065399989 
1409	 0.162320419322335 
1410	 0.162200137502645 
1411	 0.162127386765168 
1412	 0.162074213594137 
1413	 0.162032875477781 
1414	 0.16200563650189 
1415	 0.161973349076945 
1416	 0.161929797027156 
1417	 0.161888739356737 
1418	 0.161847799055501 
1419	 0.161825618546704 
1420	 0.161825863053265 
1421	 0.161824834526108 
1422	 0.161829968167087 
1423	 0.161827771703663 
1424	 0.16180701229891 
1425	 0.161762055949552 
1426	 0.161736942088196 
1427	 0.161702499603931 
1428	 0.161685715990586 
1429	 0.161685917753393 
1430	 0.16168116792863 
1431	 0.161685991660947 
1432	 0.161676683960006 
1433	 0.161660272464046 
1434	 0.161649203140387 
1435	 0.161619732341655 
1436	 0.161616353965714 
1437	 0.161639130079506 
1438	 0.161650394293113 
1439	 0.161671974784972 
1440	 0.161687970617149 
1441	 0.161672795356777 
1442	 0.161648389248686 
1443	 0.161649158154887 
1444	 0.16164853307826 
1445	 0.16167599454854 
1446	 0.161727846767676 
1447	 0.16175334250332 
1448	 0.161770137884458 
1449	 0.161773698217885 
1450	 0.161765477473198 
1451	 0.161766741126868 
1452	 0.161757820413143 
1453	 0.161774992109075 
1454	 0.161809247977243 
1455	 0.161832667405579 
1456	 0.161873759261442 
1457	 0.161892436850766 
1458	 0.161893138664894 
1459	 0.161905455535949 
1460	 0.161900499779448 
1461	 0.161923783839429 
1462	 0.161975985552948 
1463	 0.162008667329117 
1464	 0.162051167220886 
1465	 0.162083404935946 
1466	 0.162091907697293 
1467	 0.162112497281153 
1468	 0.162131797003563 
1469	 0.162164227081152 
1470	 0.16220446361677 
1471	 0.16225691813611 
1472	 0.162302659644237 
1473	 0.162344740371846 
1474	 0.162354808327956 
1475	 0.162349634557705 
1476	 0.162347406380308 
1477	 0.162365969632667 
1478	 0.162428242592254 
1479	 0.162484439092694 
1480	 0.162554896631142 
1481	 0.16262140236956 
1482	 0.162656675690479 
1483	 0.162661198023305 
1484	 0.162692600994238 
1485	 0.162704696645484 
1486	 0.162747580721552 
1487	 0.162821561005377 
1488	 0.162873291354422 
1489	 0.162931959546644 
1490	 0.162981287532144 
1491	 0.163025599470106 
1492	 0.163060894643865 
1493	 0.163074198617037 
1494	 0.163110753691076 
1495	 0.163149298263501 
1496	 0.163188961157382 
1497	 0.163259947991664 
1498	 0.163304165424592 
1499	 0.16333081452166 
1500	 0.163358291568112 
1501	 0.163368214283133 
1502	 0.163387606061397 
1503	 0.163404749526553 
1504	 0.163432533278974 
1505	 0.163458608892619 
1506	 0.163484972689898 
1507	 0.163524249653743 
1508	 0.163546208894788 
1509	 0.163563657622011 
1510	 0.163594545834457 
1511	 0.163608242993124 
1512	 0.16361560764457 
1513	 0.163630219899874 
1514	 0.163640823708004 
1515	 0.163664472212397 
1516	 0.163704509822212 
1517	 0.163739706951526 
1518	 0.163787537753292 
1519	 0.163823656943249 
1520	 0.163853390745403 
1521	 0.163885525482352 
1522	 0.163916015558679 
1523	 0.163948207616558 
1524	 0.163985320003048 
1525	 0.164008956587762 
1526	 0.164026828707741 
1527	 0.164046315880406 
1528	 0.164050665364347 
1529	 0.164069149752817 
1530	 0.164104615215345 
1531	 0.164125571489539 
1532	 0.16414168075652 
1533	 0.164162956645971 
1534	 0.164174742449173 
1535	 0.164193120664321 
1536	 0.164224540723331 
1537	 0.164246927588621 
1538	 0.164260225218276 
1539	 0.164285028357597 
1540	 0.164320345543439 
1541	 0.164340770878119 
1542	 0.16435859267728 
1543	 0.164379294670677 
1544	 0.164384741375844 
1545	 0.164401544718272 
1546	 0.164432423495248 
1547	 0.164459636679574 
1548	 0.164478576054638 
1549	 0.164501940710567 
1550	 0.164524895477928 
1551	 0.164532543419253 
1552	 0.164540365193419 
1553	 0.164551380005029 
1554	 0.164556055817519 
1555	 0.164566524202963 
1556	 0.164575179990595 
1557	 0.164578417001052 
1558	 0.164590271368951 
1559	 0.164587033774905 
1560	 0.164585846159502 
1561	 0.164589024067617 
1562	 0.164575434618847 
1563	 0.164544243334852 
1564	 0.164538797128067 
1565	 0.164528322043212 
1566	 0.164532587895156 
1567	 0.164557049253119 
1568	 0.164576362707071 
1569	 0.164599675063627 
1570	 0.164620322482238 
1571	 0.164658873757497 
1572	 0.164669925149972 
1573	 0.164657491976171 
1574	 0.164659422628714 
1575	 0.164643637033836 
1576	 0.164649330308425 
1577	 0.16467886198237 
1578	 0.164697532252723 
1579	 0.164727759605369 
1580	 0.164738008928974 
1581	 0.164733016869722 
1582	 0.164730579338035 
1583	 0.164716701467598 
1584	 0.16470936288583 
1585	 0.164699823517447 
1586	 0.164702532995076 
1587	 0.164706594061274 
1588	 0.164723900320629 
1589	 0.164769872492048 
1590	 0.164789669066724 
1591	 0.164808961496073 
1592	 0.16481355493754 
1593	 0.16478978789352 
1594	 0.164781806006771 
1595	 0.164782691636979 
1596	 0.164770027626675 
1597	 0.164751491185577 
1598	 0.164734854282478 
1599	 0.164699100477495 
1600	 0.164684119940573 
1601	 0.164678930030806 
1602	 0.164685919615005 
1603	 0.164718629405223 
1604	 0.164734417066717 
1605	 0.164755738216176 
1606	 0.164769230815874 
1607	 0.164772813263849 
1608	 0.164773130353139 
1609	 0.164747694042939 
1610	 0.16471924528369 
1611	 0.164691021879817 
1612	 0.164672499570408 
1613	 0.164697738553357 
1614	 0.164720265782972 
1615	 0.164704427328985 
1616	 0.164695333832548 
1617	 0.164711847915095 
1618	 0.164729070646794 
1619	 0.16477703575712 
1620	 0.164816040070861 
1621	 0.164829325954123 
1622	 0.16481021369044 
1623	 0.16481214485096 
1624	 0.164810098985663 
1625	 0.164815736471621 
1626	 0.164827615274959 
1627	 0.164830404901092 
1628	 0.164835679753929 
1629	 0.164830620400042 
1630	 0.164812457430731 
1631	 0.164812282341403 
1632	 0.164816594898903 
1633	 0.164814121207032 
1634	 0.164816810163838 
1635	 0.164818176135763 
1636	 0.164817349610613 
1637	 0.164803704443442 
1638	 0.164789573233322 
1639	 0.16477525920223 
1640	 0.164738621606045 
1641	 0.1647276337046 
1642	 0.164734756723769 
1643	 0.164736243651783 
1644	 0.164749499743623 
1645	 0.164741978048352 
1646	 0.164723504477284 
1647	 0.164713993893723 
1648	 0.164692131769455 
1649	 0.164685639522528 
1650	 0.16469956196108 
1651	 0.164693935079056 
1652	 0.164677594684615 
1653	 0.164672926427447 
1654	 0.164665320433829 
1655	 0.164665413030669 
1656	 0.164686245743441 
1657	 0.164679273127308 
1658	 0.164651320440808 
1659	 0.164645781053592 
1660	 0.164636656106498 
1661	 0.164633592302029 
1662	 0.164658249343957 
1663	 0.164652771616454 
1664	 0.164622129856539 
1665	 0.16461155010357 
1666	 0.164601278897406 
1667	 0.164590669270751 
1668	 0.164588476954099 
1669	 0.164584179827568 
1670	 0.164567057858662 
1671	 0.164570912755794 
1672	 0.164588889528964 
1673	 0.164607264939117 
1674	 0.16464326861567 
1675	 0.164660357676251 
1676	 0.164675391953087 
1677	 0.164679628197873 
1678	 0.164669961133852 
1679	 0.164661989310949 
1680	 0.164639792298357 
1681	 0.164637428786279 
1682	 0.164643155346056 
1683	 0.16464660027989 
1684	 0.164667193968277 
1685	 0.164668874234634 
1686	 0.164654402269435 
1687	 0.164650815685428 
1688	 0.164644189540542 
1689	 0.164644284929942 
1690	 0.164655172315347 
1691	 0.164655612693563 
1692	 0.164645404133066 
1693	 0.164652433611786 
1694	 0.164673305190184 
1695	 0.164676301557978 
1696	 0.164681373687089 
1697	 0.164682437916136 
1698	 0.164667910446684 
1699	 0.164655737317009 
1700	 0.164639321095537 
1701	 0.164642740298661 
1702	 0.164649163808249 
1703	 0.164657343537407 
1704	 0.164690257329562 
1705	 0.164704848911351 
1706	 0.164705069522222 
1707	 0.164712713061744 
1708	 0.164723065294446 
1709	 0.164728570306848 
1710	 0.164726772864111 
1711	 0.164734273395634 
1712	 0.164754813586659 
1713	 0.164750392459782 
1714	 0.164736990905153 
1715	 0.164727494957727 
1716	 0.164691949973158 
1717	 0.164692105260038 
1718	 0.16472616455422 
1719	 0.164726142103103 
1720	 0.164721405802813 
1721	 0.164719219956806 
1722	 0.164708906241809 
1723	 0.164687888855465 
1724	 0.164671114216192 
1725	 0.1646384155129 
1726	 0.16457120385943 
1727	 0.164535266331211 
1728	 0.164505961529805 
1729	 0.164495595933106 
1730	 0.164501068598455 
1731	 0.164512454610541 
1732	 0.164552986726948 
1733	 0.164552537292452 
1734	 0.164544783863635 
1735	 0.164524199339299 
1736	 0.164469938927504 
1737	 0.164444011350177 
1738	 0.164426953437426 
1739	 0.164403511509121 
1740	 0.164376030938151 
1741	 0.164365228827658 
1742	 0.164369704884971 
1743	 0.164343902821811 
1744	 0.164322482224881 
1745	 0.164292072982656 
1746	 0.164228149529001 
1747	 0.164196584738029 
1748	 0.164172919845476 
1749	 0.164136704358906 
1750	 0.164097952821927 
1751	 0.16409413833593 
1752	 0.164070314980847 
1753	 0.164026076526063 
1754	 0.163999777705061 
1755	 0.163936807440206 
1756	 0.163902493738844 
1757	 0.163920620161382 
1758	 0.163902218704903 
1759	 0.163896646979059 
1760	 0.163898939227205 
1761	 0.163865673255717 
1762	 0.163862617360172 
1763	 0.163875742155581 
1764	 0.163865555225723 
1765	 0.163861809981449 
1766	 0.163874004953755 
1767	 0.163868344367055 
1768	 0.163847331156422 
1769	 0.163821430242236 
1770	 0.163790691710966 
1771	 0.16378644676824 
1772	 0.163784639954223 
1773	 0.163793047957428 
1774	 0.163820933748226 
1775	 0.163815376156541 
1776	 0.163802506808956 
1777	 0.163815979885502 
1778	 0.163813409506318 
1779	 0.163817560405516 
1780	 0.163846830540622 
1781	 0.163837386132508 
1782	 0.163811558367469 
1783	 0.163798253351573 
1784	 0.163778286250641 
1785	 0.16376158375558 
1786	 0.163743655046475 
1787	 0.163700887434602 
1788	 0.163685572983737 
1789	 0.163703688095808 
1790	 0.163702477026467 
1791	 0.163713718270316 
1792	 0.163703363082536 
1793	 0.163645570101469 
1794	 0.163632923402757 
1795	 0.163646258997844 
1796	 0.163641716241362 
1797	 0.163651903492031 
1798	 0.163660423995773 
1799	 0.163649937862801 
1800	 0.163646489287737 
1801	 0.161840716324271 
1802	 0.162055787281475 
1803	 0.162284530479589 
1804	 0.16255578557923 
1805	 0.16281702119407 
1806	 0.163023744774473 
1807	 0.163241246544184 
1808	 0.163401631813371 
1809	 0.163491878263795 
1810	 0.163587863179269 
1811	 0.163670103297091 
1812	 0.163732847886583 
1813	 0.163758977386894 
1814	 0.163810796684343 
1815	 0.163875481587851 
1816	 0.163886959578452 
1817	 0.163899597197862 
1818	 0.163897595292309 
1819	 0.163906640734697 
1820	 0.163908959451424 
1821	 0.163910048988356 
1822	 0.163883816585514 
1823	 0.163894236007364 
1824	 0.163909794350863 
1825	 0.163912512958061 
1826	 0.16394205039674 
1827	 0.163949951469208 
1828	 0.163939033535956 
1829	 0.163893724877077 
1830	 0.163848872917857 
1831	 0.16378360456032 
1832	 0.163746649006704 
1833	 0.163701291367635 
1834	 0.163660099455954 
1835	 0.163683344515003 
1836	 0.16370689564318 
1837	 0.163700698051089 
1838	 0.163724079261071 
1839	 0.1637645358296 
1840	 0.163818316987041 
1841	 0.163857162748797 
1842	 0.16393773265097 
1843	 0.163994343934302 
1844	 0.164003486035754 
1845	 0.164032382550095 
1846	 0.164081300983078 
1847	 0.16413612652071 
1848	 0.164182640851237 
1849	 0.164252168584399 
1850	 0.164300851397085 
1851	 0.164325607450756 
1852	 0.164336661835689 
1853	 0.164387027688033 
1854	 0.164425360313032 
1855	 0.164439528770395 
1856	 0.164457940994122 
1857	 0.164495894400739 
1858	 0.164498551550536 
1859	 0.164489443029241 
1860	 0.164476835763748 
1861	 0.164480944972208 
1862	 0.164412311060819 
1863	 0.164316126151523 
1864	 0.164235613301158 
1865	 0.1641049248902 
1866	 0.163937763213807 
1867	 0.163798433691877 
1868	 0.16364184379953 
1869	 0.163499040413906 
1870	 0.16342371232322 
1871	 0.163367168682032 
1872	 0.163336629256861 
1873	 0.163342471586303 
1874	 0.16338723707545 
1875	 0.163454391464728 
1876	 0.16352914651759 
1877	 0.163606772968304 
1878	 0.163622324768238 
1879	 0.163567510585247 
1880	 0.163485664748025 
1881	 0.163346138224779 
1882	 0.163189765752958 
1883	 0.163013377925051 
1884	 0.162785467810352 
1885	 0.162530063825548 
1886	 0.16225889556067 
1887	 0.161951807941574 
1888	 0.161673997090703 
1889	 0.161379173592569 
1890	 0.161044036462247 
1891	 0.160708755825718 
1892	 0.160358989311351 
1893	 0.159991577628351 
1894	 0.159611858591884 
1895	 0.159229658340024 
1896	 0.158812605730248 
1897	 0.158360406717946 
1898	 0.157900980529357 
1899	 0.157447989392517 
1900	 0.157023482851831 
1901	 0.156619565298358 
1902	 0.15625080643686 
1903	 0.155928836946018 
1904	 0.155616455881478 
1905	 0.155324526211336 
1906	 0.155059734182663 
1907	 0.154811068134157 
1908	 0.15457387884827 
1909	 0.154325896488589 
1910	 0.154066181055998 
1911	 0.153832151847065 
1912	 0.153597939269089 
1913	 0.153372430734358 
1914	 0.153157562145627 
1915	 0.15296604291784 
1916	 0.152788093506783 
1917	 0.152603786171225 
1918	 0.152454487503103 
1919	 0.152332090236781 
1920	 0.152210567179873 
1921	 0.152100676014659 
1922	 0.15202030173558 
1923	 0.151975389166641 
1924	 0.151927717683801 
1925	 0.151900665278982 
1926	 0.151875702119529 
1927	 0.151864441637277 
1928	 0.151836899382791 
1929	 0.151811125576478 
1930	 0.151810587330566 
1931	 0.151810529438786 
1932	 0.151815141351772 
1933	 0.151828402147345 
1934	 0.151842277224781 
1935	 0.151871389322562 
1936	 0.151912354831726 
1937	 0.1519462133557 
1938	 0.151992786386691 
1939	 0.152035482306328 
1940	 0.152058113017173 
1941	 0.15209557172833 
1942	 0.152177831738785 
1943	 0.152283825741554 
1944	 0.152401020587499 
1945	 0.152496755193192 
1946	 0.152584894587082 
1947	 0.152643167629616 
1948	 0.152721921136451 
1949	 0.152808418039803 
1950	 0.152895824922865 
1951	 0.15299045527637 
1952	 0.153076832614121 
1953	 0.153155495900848 
1954	 0.153243355396183 
1955	 0.153334075841034 
1956	 0.153411450763925 
1957	 0.153505115056044 
1958	 0.153592914932494 
1959	 0.153712154071212 
1960	 0.15387115849023 
1961	 0.154001509628588 
1962	 0.154141376795968 
1963	 0.154275306588533 
1964	 0.154387445929076 
1965	 0.154495164638188 
1966	 0.154641159329652 
1967	 0.154789904924396 
1968	 0.154939760269497 
1969	 0.15511134138345 
1970	 0.15524974104248 
1971	 0.15537227802824 
1972	 0.155501635141371 
1973	 0.155618723489544 
1974	 0.155736441408435 
1975	 0.155857430487331 
1976	 0.15597609762899 
1977	 0.156092451775395 
1978	 0.156199704181552 
1979	 0.156320765796019 
1980	 0.156464945398935 
1981	 0.156603853914356 
1982	 0.156749228524882 
1983	 0.15689373430007 
1984	 0.157040587824564 
1985	 0.15718908375827 
1986	 0.157352018825019 
1987	 0.157495102721386 
1988	 0.157634860269155 
1989	 0.157759603164358 
1990	 0.157883474522191 
1991	 0.158002535361899 
1992	 0.158129898399777 
1993	 0.158272615531614 
1994	 0.158396145112163 
1995	 0.158519768301737 
1996	 0.158622961468765 
1997	 0.158693907343168 
1998	 0.158799173018456 
1999	 0.158904435007698 
2000	 0.159011864658494 
2001	 0.159137767453656 
2002	 0.159266481786389 
2003	 0.159376996551382 
2004	 0.159518231502914 
2005	 0.159650633710376 
2006	 0.159796096897164 
2007	 0.159930403886913 
2008	 0.16005765175988 
2009	 0.160190404247812 
2010	 0.160330270622067 
2011	 0.160461065398106 
2012	 0.160577674142329 
2013	 0.160709495579268 
2014	 0.160844983505885 
2015	 0.160985777465133 
2016	 0.161131030006528 
2017	 0.161270300886246 
2018	 0.161397362347733 
2019	 0.161506417462451 
2020	 0.161624347356369 
2021	 0.161749426258877 
2022	 0.161853977450834 
2023	 0.161935850025747 
2024	 0.162037855535379 
2025	 0.162125991636552 
2026	 0.162233346198661 
2027	 0.162356779539162 
2028	 0.162505726428852 
2029	 0.16262855948863 
2030	 0.162748931105628 
2031	 0.162860479766587 
2032	 0.162963516245887 
2033	 0.16306025197321 
2034	 0.163148503238226 
2035	 0.163239200211808 
2036	 0.163322812129856 
2037	 0.163409896163873 
2038	 0.16350084652238 
2039	 0.163587397732513 
2040	 0.163671899391383 
2041	 0.163751069129817 
2042	 0.163832581889623 
2043	 0.163915630261571 
2044	 0.164008342198917 
2045	 0.16411444427685 
2046	 0.164205251471667 
2047	 0.164290836673258 
2048	 0.164385875367369 
2049	 0.164483954536829 
2050	 0.16457332038502 
2051	 0.164677401133561 
2052	 0.164759802103993 
2053	 0.164798769610474 
2054	 0.164872291415171 
2055	 0.16494925367335 
2056	 0.165042801936161 
2057	 0.165139795530856 
2058	 0.165278753917474 
2059	 0.165358683441683 
2060	 0.165414799797687 
2061	 0.165471232737491 
2062	 0.165501414400331 
2063	 0.16553722998769 
2064	 0.165560284549208 
2065	 0.165603435081683 
2066	 0.165638816764932 
2067	 0.165694747034124 
2068	 0.165770528045443 
2069	 0.16586856206094 
2070	 0.165946181437136 
2071	 0.166025218046167 
2072	 0.166103845345325 
2073	 0.166178723271911 
2074	 0.16625081108305 
2075	 0.166321167913285 
2076	 0.166397604267639 
2077	 0.166473680718959 
2078	 0.166547474879313 
2079	 0.166641412842661 
2080	 0.166706851235983 
2081	 0.166738143997818 
2082	 0.16679080799991 
2083	 0.166831887827931 
2084	 0.166893492408881 
2085	 0.166950173300472 
2086	 0.16702694778437 
2087	 0.167079821052548 
2088	 0.16711334203785 
2089	 0.167162827927803 
2090	 0.167213805599236 
2091	 0.167265640006283 
2092	 0.167314817586892 
2093	 0.167381527255469 
2094	 0.167446454105579 
2095	 0.167529516697964 
2096	 0.167648120196644 
2097	 0.167749110648584 
2098	 0.167852950869794 
2099	 0.167959596981462 
2100	 0.168041016172038 
2101	 0.168101033118141 
2102	 0.168175515953573 
2103	 0.168231806570617 
2104	 0.168315400755489 
2105	 0.168429005500884 
2106	 0.168512995863912 
2107	 0.16858905480119 
2108	 0.168672067410354 
2109	 0.168743673893413 
2110	 0.168818961515739 
2111	 0.168900576882486 
2112	 0.168988552765717 
2113	 0.169069552810554 
2114	 0.169159590435865 
2115	 0.16926051311213 
2116	 0.169381187411011 
2117	 0.169486188443296 
2118	 0.169604963451388 
2119	 0.169687624786117 
2120	 0.16974729153582 
2121	 0.169815706128441 
2122	 0.169867709234262 
2123	 0.169919047661846 
2124	 0.169981560663592 
2125	 0.170027430845031 
2126	 0.17005129821818 
2127	 0.170080191039619 
2128	 0.170100562057665 
2129	 0.170127057206027 
2130	 0.170145964157695 
2131	 0.17018512112432 
2132	 0.170215438248244 
2133	 0.170250273927489 
2134	 0.170283348824465 
2135	 0.170314525671828 
2136	 0.17034614494161 
2137	 0.170400177413421 
2138	 0.170409697693585 
2139	 0.170393043449734 
2140	 0.170380500175983 
2141	 0.170341848927275 
2142	 0.170306607533439 
2143	 0.170292131567372 
2144	 0.170245933924381 
2145	 0.170168428911141 
2146	 0.17009510100664 
2147	 0.169989539130027 
2148	 0.16991059599087 
2149	 0.169839942041883 
2150	 0.169785732792134 
2151	 0.169716028235065 
2152	 0.169651409679611 
2153	 0.169585580967436 
2154	 0.169524186334209 
2155	 0.16943565549593 
2156	 0.169342816479345 
2157	 0.169240355838442 
2158	 0.169096608782055 
2159	 0.168978600024267 
2160	 0.16888463619654 
2161	 0.168769812493407 
2162	 0.168644138916922 
2163	 0.168524463023962 
2164	 0.168417839400643 
2165	 0.168274609303707 
2166	 0.168132423972155 
2167	 0.167990520122445 
2168	 0.167840773064618 
2169	 0.167660164760408 
2170	 0.16751427128936 
2171	 0.167366859454673 
2172	 0.167257279435163 
2173	 0.167186661447676 
2174	 0.167096806727349 
2175	 0.167036208191297 
2176	 0.166951033729909 
2177	 0.166845268053352 
2178	 0.166740181430875 
2179	 0.166630467522966 
2180	 0.166520902277446 
2181	 0.166392878090925 
2182	 0.166282548964141 
2183	 0.166187205267453 
2184	 0.166089095133879 
2185	 0.165987890310385 
2186	 0.165892459597601 
2187	 0.165794739006741 
2188	 0.165691255417924 
2189	 0.165589236421653 
2190	 0.165492163859421 
2191	 0.16539277568507 
2192	 0.16528164951548 
2193	 0.165185245843469 
2194	 0.165090952824188 
2195	 0.165010831947011 
2196	 0.164935160549601 
2197	 0.164878015983965 
2198	 0.164846647493344 
2199	 0.164809762861929 
2200	 0.164781451558023 
2201	 0.164758977012906 
2202	 0.164735133757486 
2203	 0.164724451150338 
2204	 0.164705844144447 
2205	 0.164692924767321 
2206	 0.164677481691683 
2207	 0.164652780122063 
2208	 0.164640242924361 
2209	 0.164643106888115 
2210	 0.164630349139069 
2211	 0.164608320245973 
2212	 0.164599252380424 
2213	 0.164584730613587 
2214	 0.164582100413947 
2215	 0.164595321839472 
2216	 0.164605403468426 
2217	 0.164637953392727 
2218	 0.164635121185961 
2219	 0.164606513153045 
2220	 0.164593307351902 
2221	 0.164562432234095 
2222	 0.16453030734617 
2223	 0.164542490488502 
2224	 0.164554941638699 
2225	 0.164569656500941 
2226	 0.164596118802095 
2227	 0.164602994563983 
2228	 0.164599396973612 
2229	 0.164613830252505 
2230	 0.164627593021807 
2231	 0.164643203293201 
2232	 0.164679261684363 
2233	 0.164694280613716 
2234	 0.164691482205263 
2235	 0.164697686187926 
2236	 0.164710855210281 
2237	 0.164709724929389 
2238	 0.164696684676615 
2239	 0.16468807923777 
2240	 0.164673578640992 
2241	 0.164659011611666 
2242	 0.164648749647305 
2243	 0.164639823566383 
2244	 0.164637539142997 
2245	 0.164606785827772 
2246	 0.164616059848396 
2247	 0.164611307410314 
2248	 0.164607626216896 
2249	 0.164607283472396 
2250	 0.164613131062384 
2251	 0.164620245938001 
2252	 0.164614002580986 
2253	 0.164612899595145 
2254	 0.164601057376392 
2255	 0.164559423974498 
2256	 0.164554139552225 
2257	 0.164569637445489 
2258	 0.164570601454291 
2259	 0.164572825285222 
2260	 0.164581535611231 
2261	 0.16458455190424 
2262	 0.164603475079527 
2263	 0.164638835726483 
2264	 0.164678554810744 
2265	 0.164720036882683 
2266	 0.164765692726945 
2267	 0.164828546461211 
2268	 0.164885608227065 
2269	 0.164961960321662 
2270	 0.165017849812611 
2271	 0.164997672180916 
2272	 0.16497770047815 
2273	 0.164975223655532 
2274	 0.164960942594396 
2275	 0.164985148016187 
2276	 0.165080099673328 
2277	 0.165116337036405 
2278	 0.165135938556484 
2279	 0.165150023943838 
2280	 0.165127185476645 
2281	 0.165164578401651 
2282	 0.165230221920216 
2283	 0.165278518000136 
2284	 0.165373292179102 
2285	 0.165423620893095 
2286	 0.165426321016001 
2287	 0.165446124266294 
2288	 0.165453119818996 
2289	 0.165481732663854 
2290	 0.165525200179746 
2291	 0.165563013821844 
2292	 0.16562578941281 
2293	 0.165664923436719 
2294	 0.165663527098448 
2295	 0.16569521501627 
2296	 0.165743932335101 
2297	 0.165780145630054 
2298	 0.165838158097903 
2299	 0.165903179320485 
2300	 0.165907665108204 
2301	 0.165924055228228 
2302	 0.165949598655354 
2303	 0.165981043796467 
2304	 0.165983164642259 
2305	 0.165912868359674 
2306	 0.165885165764622 
2307	 0.165808221863154 
2308	 0.165797334764485 
2309	 0.165858217622786 
2310	 0.165875411764975 
2311	 0.165869067825301 
2312	 0.165901522489866 
2313	 0.165962283634041 
2314	 0.165990867843985 
2315	 0.166048842981101 
2316	 0.166063266745587 
2317	 0.166011652303402 
2318	 0.165993670186712 
2319	 0.165952331499684 
2320	 0.165964541946837 
2321	 0.166014284859689 
2322	 0.166065921162088 
2323	 0.166187698801535 
2324	 0.166241375945852 
2325	 0.166231578532277 
2326	 0.166275624448068 
2327	 0.166301629822477 
2328	 0.16637733143605 
2329	 0.166477210256772 
2330	 0.166527784546082 
2331	 0.166577048344423 
2332	 0.16660216448412 
2333	 0.166635825757249 
2334	 0.166691121926126 
2335	 0.166765262364342 
2336	 0.166857377844042 
2337	 0.166985389195403 
2338	 0.167105656541148 
2339	 0.16715961135887 
2340	 0.167210867393234 
2341	 0.167204470534242 
2342	 0.167198478207909 
2343	 0.1672146372122 
2344	 0.167197868713122 
2345	 0.167210795051183 
2346	 0.167249346861627 
2347	 0.167256626517482 
2348	 0.167251503313701 
2349	 0.167274162618078 
2350	 0.167290003211717 
2351	 0.167299794779314 
2352	 0.16735868321293 
2353	 0.167339076742933 
2354	 0.16726497042019 
2355	 0.16720815298553 
2356	 0.167078572735303 
2357	 0.167053210087632 
2358	 0.167080055970782 
2359	 0.167115582589252 
2360	 0.167261147509072 
2361	 0.167302067549681 
2362	 0.167299285547081 
2363	 0.167263572951885 
2364	 0.167134934324359 
2365	 0.167061989000997 
2366	 0.167005004548286 
2367	 0.16696107145876 
2368	 0.166951032800659 
2369	 0.166918573819471 
2370	 0.166887607837045 
2371	 0.166816315820053 
2372	 0.166754925345577 
2373	 0.166724579782884 
2374	 0.166758985339066 
2375	 0.166764239028635 
2376	 0.166699143981973 
2377	 0.166626718569401 
2378	 0.166552370463534 
2379	 0.166443657021053 
2380	 0.166377909322809 
2381	 0.166371742542464 
2382	 0.166297457603397 
2383	 0.166250689550568 
2384	 0.166252566218317 
2385	 0.16626653734909 
2386	 0.166360142325652 
2387	 0.166319310249947 
2388	 0.166170839674695 
2389	 0.166098136143754 
2390	 0.165908840795585 
2391	 0.165795083537223 
2392	 0.165917141974987 
2393	 0.16588432380714 
2394	 0.165839914326152 
2395	 0.165860217457741 
2396	 0.165727060590687 
2397	 0.165679663386784 
2398	 0.165648081313807 
2399	 0.165567524737691 
2400	 0.165514202515645 
2401	 0.165418464645818 
2402	 0.165343518938554 
2403	 0.165269847415963 
2404	 0.165212198596445 
2405	 0.165163025472192 
2406	 0.165105413566926 
2407	 0.165102808279677 
2408	 0.165061779987348 
2409	 0.164920912775451 
2410	 0.164797418636967 
2411	 0.164666029362723 
2412	 0.164449332163009 
2413	 0.164390347227102 
2414	 0.16444270298643 
2415	 0.164361394052218 
2416	 0.164331766732357 
2417	 0.164379752096673 
2418	 0.164393117409903 
2419	 0.164408680877136 
2420	 0.16434150236467 
2421	 0.1642522821651 
2422	 0.164165589538307 
2423	 0.16393327051726 
2424	 0.163881677125841 
2425	 0.163983496117863 
2426	 0.1639604676393 
2427	 0.163959659598226 
2428	 0.163906845927081 
2429	 0.163747729182349 
2430	 0.16368965370654 
2431	 0.1636815964609 
2432	 0.163612448259829 
2433	 0.163577295848648 
2434	 0.163480308211767 
2435	 0.163256123360569 
2436	 0.163158568754516 
2437	 0.163180754907661 
2438	 0.163111315782336 
2439	 0.16303319682368 
2440	 0.162888102875195 
2441	 0.162594365644464 
2442	 0.162438439447658 
2443	 0.16232023817083 
2444	 0.162310710804882 
2445	 0.162445495070952 
2446	 0.162466214821835 
2447	 0.162541933322336 
2448	 0.162481479798258 
2449	 0.1622948865175 
2450	 0.162127654982259 
2451	 0.161887797970364 
2452	 0.161708254083766 
2453	 0.161560951712877 
2454	 0.161446787191714 
2455	 0.161410042161257 
2456	 0.161258218836748 
2457	 0.161000081756657 
2458	 0.160829339043707 
2459	 0.160563347507446 
2460	 0.160429758566919 
2461	 0.160502067713411 
2462	 0.16044602248146 
2463	 0.160376311507711 
2464	 0.160365865092026 
2465	 0.1603663491769 
2466	 0.160302215035195 
2467	 0.160280504248876 
2468	 0.160154834049978 
2469	 0.159882582756775 
2470	 0.159779181447391 
2471	 0.159644571921638 
2472	 0.159812666870229 
2473	 0.159842849867842 
2474	 0.159862711984357 
2475	 0.159854420070346 
2476	 0.159602262399037 
2477	 0.159523584161478 
2478	 0.159394851875186 
2479	 0.159294287768781 
2480	 0.159424349317366 
2481	 0.1595162994567 
2482	 0.159614274459127 
2483	 0.159637365435942 
2484	 0.159693946932263 
2485	 0.159416201814506 
2486	 0.158974835649189 
2487	 0.15890382004304 
2488	 0.158575280973701 
2489	 0.158337650188628 
2490	 0.158342517019005 
2491	 0.158132136786489 
2492	 0.15797310577011 
2493	 0.157980357588343 
2494	 0.15814045828612 
2495	 0.15832454789872 
2496	 0.158416540803437 
2497	 0.158496430691875 
2498	 0.158425491186868 
2499	 0.158151646541091 
2500	 0.158091836455231 
