Wavelength	LMW_1300000.asd
350	 5.38087291686317E-02 
351	 5.40003704651028E-02 
352	 5.33328893672804E-02 
353	 5.15566822297292E-02 
354	 4.47935876209992E-02 
355	 4.77058806180977E-02 
356	 5.12773036752986E-02 
357	 4.66651979040085E-02 
358	 5.04677013830891E-02 
359	 4.99611352293145E-02 
360	 4.43079420994795E-02 
361	 4.09924858056324E-02 
362	 4.37251120108508E-02 
363	 4.39898745307251E-02 
364	 4.01529635996245E-02 
365	 4.35737812627667E-02 
366	 0.046406314534895 
367	 4.77782856622922E-02 
368	 4.87551779256634E-02 
369	 0.050573215386937 
370	 4.77621013688444E-02 
371	 4.34500014098985E-02 
372	 4.58085168251976E-02 
373	 4.73700540193549E-02 
374	 4.72908720692192E-02 
375	 4.67763717043108E-02 
376	 4.91540356571029E-02 
377	 4.81306127599994E-02 
378	 4.77348381884245E-02 
379	 5.18607861978069E-02 
380	 5.05829646398192E-02 
381	 4.70867696611377E-02 
382	 4.58226033724394E-02 
383	 5.06515931083569E-02 
384	 0.050594461936837 
385	 4.77719743323352E-02 
386	 4.60699145686341E-02 
387	 4.91307503234061E-02 
388	 5.11499723223257E-02 
389	 5.10699840114862E-02 
390	 4.97591752807102E-02 
391	 4.86555264471242E-02 
392	 4.89148181738477E-02 
393	 5.04705175269519E-02 
394	 5.21965934961948E-02 
395	 5.20212187587402E-02 
396	 5.26271099565324E-02 
397	 5.50579273160099E-02 
398	 5.52679302819192E-02 
399	 5.42153589860474E-02 
400	 5.41949737041567E-02 
401	 5.67696461783752E-02 
402	 5.65230558838867E-02 
403	 5.54508217573585E-02 
404	 5.50861830796761E-02 
405	 5.58992916945268E-02 
406	 5.60824040324216E-02 
407	 5.66569381317593E-02 
408	 5.78526530696153E-02 
409	 5.61270562589039E-02 
410	 5.59818620316497E-02 
411	 5.70335308746683E-02 
412	 5.69566283921905E-02 
413	 5.77031855723545E-02 
414	 5.78045789415816E-02 
415	 5.71006761856801E-02 
416	 5.74362124822373E-02 
417	 5.69722146607125E-02 
418	 5.67753313715382E-02 
419	 5.77297790832951E-02 
420	 0.057858213139952 
421	 5.72161278870284E-02 
422	 5.67358996758703E-02 
423	 5.76005868107264E-02 
424	 5.75371667038939E-02 
425	 5.68956269009669E-02 
426	 5.62801185294528E-02 
427	 5.60891856364756E-02 
428	 5.58530616295052E-02 
429	 5.59794904489794E-02 
430	 5.66927374935149E-02 
431	 5.59153867760008E-02 
432	 5.51626794198711E-02 
433	 5.51988917256875E-02 
434	 5.58525697665933E-02 
435	 5.60356909513574E-02 
436	 5.57336204625552E-02 
437	 5.53512683481625E-02 
438	 5.57421439843012E-02 
439	 0.056197279201139 
440	 5.65266256759386E-02 
441	 5.68125609103981E-02 
442	 5.71041839692626E-02 
443	 5.71967275815012E-02 
444	 5.71012903972338E-02 
445	 5.71762620338606E-02 
446	 0.057266967476498 
447	 0.057470354623381 
448	 5.78756214010266E-02 
449	 5.82693513543083E-02 
450	 5.87783808679755E-02 
451	 5.92195144732099E-02 
452	 5.91778005124592E-02 
453	 5.89495205494964E-02 
454	 5.88829690628428E-02 
455	 5.91662850934952E-02 
456	 5.96595100180987E-02 
457	 5.99130959554412E-02 
458	 6.00086840777743E-02 
459	 6.02049391282618E-02 
460	 5.99276291106116E-02 
461	 5.98512608736803E-02 
462	 0.060240269980089 
463	 6.06597678603193E-02 
464	 6.06355245634682E-02 
465	 0.060504977746645 
466	 6.06846600308548E-02 
467	 6.08413013233657E-02 
468	 6.10987502785494E-02 
469	 6.13744582190891E-02 
470	 0.061423039558296 
471	 6.12362694821561E-02 
472	 6.10177022555333E-02 
473	 6.09601893626622E-02 
474	 0.061169390006258 
475	 6.13709515418005E-02 
476	 6.15256696873568E-02 
477	 6.16859438148365E-02 
478	 0.061714961886805 
479	 6.18358952275338E-02 
480	 6.20115908254239E-02 
481	 6.17978544011466E-02 
482	 6.19384728134381E-02 
483	 0.06222605215328 
484	 6.22933955836874E-02 
485	 6.22956378348829E-02 
486	 6.21956133627575E-02 
487	 6.21676465965961E-02 
488	 0.062510675312964 
489	 6.25596622038885E-02 
490	 6.24484690284861E-02 
491	 6.23914186945181E-02 
492	 6.24428914201674E-02 
493	 6.23806158260051E-02 
494	 6.23340659758184E-02 
495	 6.25371939724875E-02 
496	 6.26438909657089E-02 
497	 6.26861334239655E-02 
498	 6.27242368486242E-02 
499	 6.28091608311438E-02 
500	 6.27124747696907E-02 
501	 6.26143820143868E-02 
502	 6.27199700374739E-02 
503	 6.28016157186847E-02 
504	 6.26957352215649E-02 
505	 6.25567639245865E-02 
506	 6.27898806992726E-02 
507	 6.29025350050112E-02 
508	 6.28712674613066E-02 
509	 6.27935372819436E-02 
510	 6.28440919516918E-02 
511	 6.27227946585144E-02 
512	 6.25430332252532E-02 
513	 6.26024093477888E-02 
514	 6.26930672570573E-02 
515	 6.27724737202951E-02 
516	 6.28312292118325E-02 
517	 6.28829524341925E-02 
518	 6.29254401512366E-02 
519	 6.28923827811846E-02 
520	 6.27598999383339E-02 
521	 6.28224123567982E-02 
522	 6.28683838955821E-02 
523	 6.28543124629871E-02 
524	 0.06293798015974 
525	 6.29612423727666E-02 
526	 6.29339365643526E-02 
527	 6.29109263760135E-02 
528	 6.29633654426906E-02 
529	 6.30220904605226E-02 
530	 6.30617689666418E-02 
531	 6.30913805701336E-02 
532	 6.31445175388696E-02 
533	 6.32620185236391E-02 
534	 6.34081095730807E-02 
535	 6.33786372527524E-02 
536	 6.33703092656822E-02 
537	 6.33883673395791E-02 
538	 6.33862107278048E-02 
539	 6.35034871567854E-02 
540	 6.36078115606415E-02 
541	 6.36460571310629E-02 
542	 6.36961188050386E-02 
543	 6.37437662647675E-02 
544	 6.38107225526359E-02 
545	 6.39042417773062E-02 
546	 6.39470821836818E-02 
547	 6.39641552037436E-02 
548	 0.064004658069906 
549	 6.41288926469141E-02 
550	 6.42515179546868E-02 
551	 6.43982040887489E-02 
552	 6.45828030838546E-02 
553	 6.47459686410758E-02 
554	 6.48055218693198E-02 
555	 6.48556478982808E-02 
556	 6.50565042781545E-02 
557	 6.52168633648419E-02 
558	 6.53874489501075E-02 
559	 6.56024996757205E-02 
560	 0.065821473302562 
561	 6.60345552109272E-02 
562	 6.62423515660658E-02 
563	 0.066459162370143 
564	 6.67408814802335E-02 
565	 6.70071780323724E-02 
566	 6.72766886680006E-02 
567	 6.76832596641133E-02 
568	 6.80753263698557E-02 
569	 6.84446014831797E-02 
570	 6.88065670573753E-02 
571	 6.91279418128121E-02 
572	 6.94674696897346E-02 
573	 6.98641240366012E-02 
574	 7.03275763353595E-02 
575	 7.07196294132188E-02 
576	 7.10791510525515E-02 
577	 0.071465517849043 
578	 7.19109264116161E-02 
579	 7.24367104110086E-02 
580	 0.073050603518382 
581	 7.37329222280919E-02 
582	 7.43481531035523E-02 
583	 7.49913085728996E-02 
584	 7.56626048216704E-02 
585	 7.61994160001028E-02 
586	 7.67700592078534E-02 
587	 7.73625244538679E-02 
588	 7.79346386677459E-02 
589	 7.85666317776595E-02 
590	 7.91645611934542E-02 
591	 7.97301195748025E-02 
592	 8.03541844482233E-02 
593	 8.09361892327549E-02 
594	 8.15598131053011E-02 
595	 8.22852997312734E-02 
596	 8.30260758227579E-02 
597	 8.37611175980055E-02 
598	 8.45012428557117E-02 
599	 8.52701783301822E-02 
600	 8.59895390654736E-02 
601	 0.086660183972917 
602	 8.72767868925293E-02 
603	 8.78060930883915E-02 
604	 8.82966061802665E-02 
605	 8.88129380038869E-02 
606	 0.08939691571066 
607	 8.99438982982774E-02 
608	 9.04478855913885E-02 
609	 0.090927530669478 
610	 9.14227667487435E-02 
611	 9.19000503501673E-02 
612	 0.092388863297693 
613	 9.28925664131849E-02 
614	 9.32873628117513E-02 
615	 9.36348638799475E-02 
616	 9.39676563367411E-02 
617	 9.42969667685058E-02 
618	 0.094671816333251 
619	 9.49918319590209E-02 
620	 9.52209376259245E-02 
621	 9.55071021725563E-02 
622	 9.57775579623161E-02 
623	 9.60409104472153E-02 
624	 9.63232303049455E-02 
625	 9.65605579387923E-02 
626	 9.67704817932037E-02 
627	 9.69746586803615E-02 
628	 9.71892226584192E-02 
629	 9.74501059542506E-02 
630	 9.76717225392181E-02 
631	 9.77987218976783E-02 
632	 0.098025262913473 
633	 9.82579847719059E-02 
634	 9.84235991056482E-02 
635	 9.84907989649576E-02 
636	 9.87423184593623E-02 
637	 9.90043286224677E-02 
638	 9.91395667072397E-02 
639	 9.92999707873683E-02 
640	 9.94813816890969E-02 
641	 9.96731178024066E-02 
642	 9.98605139910227E-02 
643	 0.100070536906293 
644	 0.100278219480674 
645	 0.100470226389213 
646	 0.100656652999534 
647	 0.100831862674873 
648	 0.100999013525529 
649	 0.101180413339678 
650	 0.101473942741914 
651	 0.101729622953571 
652	 0.101897661205419 
653	 0.102033339402314 
654	 0.102332505577299 
655	 0.102613132915229 
656	 0.102762423639235 
657	 0.103019536726945 
658	 0.10329306071811 
659	 0.103563548397129 
660	 0.103837333756219 
661	 0.104080275797331 
662	 0.104342447113276 
663	 0.104635473776951 
664	 0.10490358911375 
665	 0.105200205441502 
666	 0.105480953573988 
667	 0.105720586500327 
668	 0.10609143039484 
669	 0.106442106183875 
670	 0.106744707478738 
671	 0.107079990072781 
672	 0.107448108116053 
673	 0.107822712848771 
674	 0.108180321092703 
675	 0.108516530835557 
676	 0.108849903702817 
677	 0.109212038682604 
678	 0.109626812979404 
679	 0.110028062731554 
680	 0.110412676599281 
681	 0.110809410307522 
682	 0.111280592009882 
683	 0.111700776402442 
684	 0.112094419760287 
685	 0.112516588853407 
686	 0.112976286877986 
687	 0.11344482983664 
688	 0.113909294044393 
689	 0.114368611503293 
690	 0.114812299550146 
691	 0.115280145012435 
692	 0.115786901890937 
693	 0.116288026984747 
694	 0.116766621723269 
695	 0.117245531545391 
696	 0.117754137135844 
697	 0.118258242211378 
698	 0.118753611357513 
699	 0.119258068458622 
700	 0.119808602886484 
701	 0.120350123930538 
702	 0.120887692460382 
703	 0.121428060852508 
704	 0.121939733686342 
705	 0.122471469051367 
706	 0.123009576936369 
707	 0.123518962684583 
708	 0.12408770333259 
709	 0.124674205401457 
710	 0.125244006581535 
711	 0.125796977271434 
712	 0.126319265576018 
713	 0.126838748540257 
714	 0.127375235653979 
715	 0.127861851168956 
716	 0.12837385164443 
717	 0.128916547778767 
718	 0.12943862388667 
719	 0.12990096773117 
720	 0.130340414180163 
721	 0.130785980207093 
722	 0.131223659836609 
723	 0.131717371471488 
724	 0.132218111059184 
725	 0.132657325735858 
726	 0.13309247132804 
727	 0.133462612795766 
728	 0.133776323967934 
729	 0.134108319315572 
730	 0.134454455896738 
731	 0.134797673541999 
732	 0.135114836352434 
733	 0.135372285534516 
734	 0.135644234008481 
735	 0.13589757229076 
736	 0.136076426171747 
737	 0.136284952978667 
738	 0.13646151755904 
739	 0.136600402737857 
740	 0.136767010443202 
741	 0.136905872385015 
742	 0.136994535867496 
743	 0.137035681598023 
744	 0.13707933792841 
745	 0.137081386469061 
746	 0.137076951266169 
747	 0.137109254688114 
748	 0.137002758098448 
749	 0.136866469932023 
750	 0.136758833186308 
751	 0.136645561525003 
752	 0.136564876957648 
753	 0.136473180599829 
754	 0.136320652559828 
755	 0.136088572381666 
756	 0.135867234775915 
757	 0.135663307819523 
758	 0.135440486997572 
759	 0.135214777168257 
760	 0.134937583173829 
761	 0.13463390889038 
762	 0.134422119700901 
763	 0.134143584567855 
764	 0.133817265983902 
765	 0.133491941101136 
766	 0.13317272928929 
767	 0.132823660459169 
768	 0.132473405440242 
769	 0.132168501851311 
770	 0.131837699908588 
771	 0.131476792349163 
772	 0.131100272470698 
773	 0.130735454706236 
774	 0.130321697739535 
775	 0.129936954514802 
776	 0.129615691802871 
777	 0.129184015145776 
778	 0.12880468273462 
779	 0.128467445309366 
780	 0.128093244158306 
781	 0.127721232546437 
782	 0.127338822932883 
783	 0.126946380992204 
784	 0.126561458013917 
785	 0.126186033047613 
786	 0.125794643715316 
787	 0.125389776699907 
788	 0.125056402734299 
789	 0.124713207638656 
790	 0.124325055131271 
791	 0.123893998743764 
792	 0.123503489415828 
793	 0.123166136450745 
794	 0.122855141089711 
795	 0.122516742319845 
796	 0.122143814983238 
797	 0.121791350879329 
798	 0.12147498320683 
799	 0.121118651475703 
800	 0.120798311454469 
801	 0.120476229521933 
802	 0.120111318642727 
803	 0.119784929206859 
804	 0.11948795374174 
805	 0.11919950436582 
806	 0.118896646556694 
807	 0.11860650828755 
808	 0.11829964625517 
809	 0.117985906839925 
810	 0.117729644670339 
811	 0.117506663112853 
812	 0.117246378611204 
813	 0.11692644416042 
814	 0.116681321558472 
815	 0.116419983854593 
816	 0.116153923939947 
817	 0.115927857973972 
818	 0.115726809338169 
819	 0.115518441472364 
820	 0.115280217302091 
821	 0.115008520197706 
822	 0.114787292553845 
823	 0.114586210244802 
824	 0.114374147433285 
825	 0.114149769685084 
826	 0.113954755622952 
827	 0.11377105698894 
828	 0.113583650632427 
829	 0.113448405641593 
830	 0.113278548410255 
831	 0.113107079872771 
832	 0.113003802821497 
833	 0.112880414819081 
834	 0.112692378009454 
835	 0.112475609036031 
836	 0.112333368682895 
837	 0.112272983094571 
838	 0.112193494996949 
839	 0.112048932168642 
840	 0.111917805159468 
841	 0.11179645735839 
842	 0.111711886982917 
843	 0.111659680670592 
844	 0.111517081879538 
845	 0.111419521945251 
846	 0.111364942082974 
847	 0.111289820742849 
848	 0.111189561046483 
849	 0.111121945405657 
850	 0.111081457362144 
851	 0.111012151034347 
852	 0.110972405662053 
853	 0.110922658633673 
854	 0.110867102569336 
855	 0.110888873565848 
856	 0.110907851617618 
857	 0.110907227032013 
858	 0.110880108802292 
859	 0.11079316554834 
860	 0.11078305897372 
861	 0.110820243000241 
862	 0.110831340015112 
863	 0.110850419472187 
864	 0.11089800446912 
865	 0.110946081841906 
866	 0.110950030404047 
867	 0.110972526777876 
868	 0.110999347068333 
869	 0.111039619501417 
870	 0.111124339228249 
871	 0.111154163754958 
872	 0.111214175546541 
873	 0.111328253741944 
874	 0.111375306722774 
875	 0.111465612074603 
876	 0.111558200167667 
877	 0.111615642399288 
878	 0.111707778522261 
879	 0.111815269091748 
880	 0.11190426767092 
881	 0.111968501509883 
882	 0.112132432951048 
883	 0.112329075166817 
884	 0.112472733257046 
885	 0.112513533930938 
886	 0.112637306360628 
887	 0.112833084320422 
888	 0.113043026774543 
889	 0.11319706261323 
890	 0.113382211861285 
891	 0.113540179712165 
892	 0.113668410494168 
893	 0.113848907751116 
894	 0.113993986808561 
895	 0.114174009092009 
896	 0.11442065255228 
897	 0.114645202956173 
898	 0.114834709580115 
899	 0.115075006644465 
900	 0.115387943291674 
901	 0.115550792530235 
902	 0.115735182178773 
903	 0.115968167795017 
904	 0.116227044873298 
905	 0.116505157402174 
906	 0.116786358349143 
907	 0.117035379961069 
908	 0.117245897664624 
909	 0.117584844594714 
910	 0.117919383714737 
911	 0.118232379199345 
912	 0.118583275560799 
913	 0.118923185010708 
914	 0.119210407963664 
915	 0.119467518225076 
916	 0.119770368629181 
917	 0.120138167192567 
918	 0.120497291899876 
919	 0.120829700400273 
920	 0.121192218363082 
921	 0.12155101230869 
922	 0.121933097567065 
923	 0.122344750733801 
924	 0.122750565503243 
925	 0.123109825891148 
926	 0.123553330086091 
927	 0.124096857310928 
928	 0.124487788440584 
929	 0.124908646158258 
930	 0.125342610663462 
931	 0.125773080637658 
932	 0.126300638356236 
933	 0.12680205340748 
934	 0.127221127870724 
935	 0.127601701399759 
936	 0.128208716784651 
937	 0.128710615882437 
938	 0.129176912826454 
939	 0.1297553995334 
940	 0.130373342067535 
941	 0.130853959338222 
942	 0.131312713618971 
943	 0.131907982238641 
944	 0.132450098462012 
945	 0.133012441883632 
946	 0.133632903323865 
947	 0.134285966020602 
948	 0.134756538958232 
949	 0.135367262407035 
950	 0.136076005111225 
951	 0.136684586964147 
952	 0.137298632030376 
953	 0.137920284978301 
954	 0.138575038916188 
955	 0.139281628383149 
956	 0.1399699602977 
957	 0.140656381759783 
958	 0.141318735113589 
959	 0.141937287874458 
960	 0.142652540793241 
961	 0.143356692731307 
962	 0.14405973995849 
963	 0.144824042948394 
964	 0.145482604947965 
965	 0.146237750544001 
966	 0.147038854741247 
967	 0.147707024633641 
968	 0.14847236800236 
969	 0.149241888174945 
970	 0.150007222148343 
971	 0.150829967118733 
972	 0.151761621043651 
973	 0.152547413616788 
974	 0.153245589009965 
975	 0.154101668594687 
976	 0.155015876742346 
977	 0.155942272147416 
978	 0.156777556604727 
979	 0.15744628189721 
980	 0.158196875615364 
981	 0.159026528748519 
982	 0.159849297320188 
983	 0.160608311695892 
984	 0.161616754906461 
985	 0.162566735032669 
986	 0.163382405571183 
987	 0.164178131902703 
988	 0.165143613232657 
989	 0.166016412608547 
990	 0.166807410393687 
991	 0.16768833565158 
992	 0.168813259268771 
993	 0.169531094147143 
994	 0.170184744993111 
995	 0.171317166989454 
996	 0.172264312301818 
997	 0.17307237890714 
998	 0.173954367229827 
999	 0.17503902866471 
1000	 0.175918310913341 
1001	 0.175941587035084 
1002	 0.176757559784882 
1003	 0.177627229397408 
1004	 0.178458855097515 
1005	 0.179262704537137 
1006	 0.180076538410044 
1007	 0.180902134577676 
1008	 0.181688137132514 
1009	 0.18243381457298 
1010	 0.183232262329031 
1011	 0.184035871623777 
1012	 0.184804077312461 
1013	 0.185595616517663 
1014	 0.186366231739015 
1015	 0.187097308884545 
1016	 0.187825926800858 
1017	 0.18855544053466 
1018	 0.189269924518419 
1019	 0.190013522801847 
1020	 0.190738359600222 
1021	 0.191468526704571 
1022	 0.192232623655868 
1023	 0.192927800341037 
1024	 0.193643997944488 
1025	 0.194361536097169 
1026	 0.194993366574189 
1027	 0.195639779133444 
1028	 0.196335626605307 
1029	 0.197024527325523 
1030	 0.197724148166211 
1031	 0.198404321601308 
1032	 0.199106496706238 
1033	 0.199731640983222 
1034	 0.200396367420101 
1035	 0.201044845466077 
1036	 0.20161295542376 
1037	 0.202232891824554 
1038	 0.202831259180638 
1039	 0.203416092533974 
1040	 0.204072834736504 
1041	 0.204752215109014 
1042	 0.205330744012652 
1043	 0.205902098651812 
1044	 0.206501772533649 
1045	 0.207113706770299 
1046	 0.207676889719633 
1047	 0.208289791775069 
1048	 0.208894218585148 
1049	 0.209443880126167 
1050	 0.210010939739068 
1051	 0.210621739481866 
1052	 0.211174932570242 
1053	 0.211703042913315 
1054	 0.212323195398889 
1055	 0.212894647137439 
1056	 0.213471332622539 
1057	 0.214052522562467 
1058	 0.214654487611465 
1059	 0.215206141449623 
1060	 0.215729630700929 
1061	 0.216265897187305 
1062	 0.216798284028696 
1063	 0.217301021690659 
1064	 0.217781774635524 
1065	 0.218279116586094 
1066	 0.218762107819373 
1067	 0.21926324803664 
1068	 0.219818239446231 
1069	 0.220349685158805 
1070	 0.22083780654714 
1071	 0.221275617255353 
1072	 0.221761546964714 
1073	 0.222223462970306 
1074	 0.222701705727288 
1075	 0.223207087200816 
1076	 0.22373122974259 
1077	 0.224222297562162 
1078	 0.224717798165276 
1079	 0.225214168881871 
1080	 0.225665158338309 
1081	 0.226083566539876 
1082	 0.226519637255874 
1083	 0.226972665586026 
1084	 0.227433758839442 
1085	 0.227888397780055 
1086	 0.228380989332767 
1087	 0.228810189740614 
1088	 0.229173562062723 
1089	 0.229603158622273 
1090	 0.230051446995836 
1091	 0.230493246625248 
1092	 0.231005379340329 
1093	 0.231528520546323 
1094	 0.231994541535121 
1095	 0.232438171028487 
1096	 0.232868307056383 
1097	 0.233281985198882 
1098	 0.23373832645013 
1099	 0.234244422689955 
1100	 0.23470877632482 
1101	 0.235161309306806 
1102	 0.235628845751757 
1103	 0.236100014442302 
1104	 0.236534983772964 
1105	 0.236972544850447 
1106	 0.237465684649306 
1107	 0.237948319166647 
1108	 0.238412418039186 
1109	 0.238892524347059 
1110	 0.239399795471486 
1111	 0.239893216670781 
1112	 0.240367709992934 
1113	 0.240846929030088 
1114	 0.241329651755525 
1115	 0.241820664500848 
1116	 0.242328624986672 
1117	 0.242823245428468 
1118	 0.243316495786331 
1119	 0.243806247681129 
1120	 0.244325408755859 
1121	 0.244783565312546 
1122	 0.245282223695704 
1123	 0.245805100933727 
1124	 0.24630950512631 
1125	 0.246810265736167 
1126	 0.247307154762414 
1127	 0.247795046934807 
1128	 0.248289993476188 
1129	 0.24878371587055 
1130	 0.249266440441297 
1131	 0.249757315397188 
1132	 0.250240618548221 
1133	 0.250700829615348 
1134	 0.25117393776655 
1135	 0.251663824939932 
1136	 0.252131161974572 
1137	 0.252594423685517 
1138	 0.253062809729377 
1139	 0.253514148222319 
1140	 0.253964581195625 
1141	 0.254384313339862 
1142	 0.254762321393329 
1143	 0.255178856256903 
1144	 0.255597643619983 
1145	 0.256008747971653 
1146	 0.256458347882997 
1147	 0.256867264530959 
1148	 0.257229805114369 
1149	 0.257605411283423 
1150	 0.257974480467447 
1151	 0.258344697414818 
1152	 0.25870935229887 
1153	 0.259099815271914 
1154	 0.259474634910961 
1155	 0.259847193027456 
1156	 0.26021878299359 
1157	 0.260602225897889 
1158	 0.260951258507387 
1159	 0.261273639223099 
1160	 0.261617142786176 
1161	 0.261950617997963 
1162	 0.262286330725351 
1163	 0.26265516509009 
1164	 0.262989580729707 
1165	 0.263308917043052 
1166	 0.263600711639088 
1167	 0.263897473139244 
1168	 0.264199352193919 
1169	 0.264510746620636 
1170	 0.264832947767353 
1171	 0.265150623563459 
1172	 0.265483347391799 
1173	 0.265789308075487 
1174	 0.266085523195854 
1175	 0.266374612242746 
1176	 0.2666460199861 
1177	 0.266920985361282 
1178	 0.267203051562121 
1179	 0.267467107864357 
1180	 0.267716173709801 
1181	 0.267965905644086 
1182	 0.268202773693924 
1183	 0.268439140119392 
1184	 0.268684398053653 
1185	 0.268937073916084 
1186	 0.269186440661602 
1187	 0.269447636366054 
1188	 0.269681520594756 
1189	 0.269908476583015 
1190	 0.270123744827587 
1191	 0.270313136770684 
1192	 0.270515602978081 
1193	 0.270713887392446 
1194	 0.27091764396535 
1195	 0.271132512816029 
1196	 0.27133467113077 
1197	 0.271546845360205 
1198	 0.27173563746811 
1199	 0.271910122525663 
1200	 0.272061728842802 
1201	 0.272232781550025 
1202	 0.272391703940872 
1203	 0.272566349941857 
1204	 0.272760861517265 
1205	 0.272939810945297 
1206	 0.273123377990404 
1207	 0.273288703511703 
1208	 0.273437908644447 
1209	 0.273594805506025 
1210	 0.273747584112384 
1211	 0.273893606351439 
1212	 0.274041296254528 
1213	 0.274185442227648 
1214	 0.274316469150543 
1215	 0.274450495977935 
1216	 0.274585356138501 
1217	 0.274722170882144 
1218	 0.274861838678636 
1219	 0.275002005284357 
1220	 0.275141874061021 
1221	 0.275293958566415 
1222	 0.275425801057591 
1223	 0.275548941265418 
1224	 0.275667734176936 
1225	 0.275769341964358 
1226	 0.275881529569807 
1227	 0.275996247026986 
1228	 0.276108334434854 
1229	 0.276215974002815 
1230	 0.276333870320234 
1231	 0.276464725064176 
1232	 0.276581710302986 
1233	 0.276695810636784 
1234	 0.276815808743559 
1235	 0.276925266293371 
1236	 0.277020072852191 
1237	 0.277120895558109 
1238	 0.277230758613082 
1239	 0.277320839073364 
1240	 0.277390806978656 
1241	 0.277478109357511 
1242	 0.277557253636916 
1243	 0.277651045673147 
1244	 0.277766550542592 
1245	 0.277869719388741 
1246	 0.277976105627659 
1247	 0.278077693793774 
1248	 0.278179370245977 
1249	 0.278268696398586 
1250	 0.278370060031695 
1251	 0.278445801048546 
1252	 0.278524026332144 
1253	 0.278592250978106 
1254	 0.278669991548753 
1255	 0.278737607959489 
1256	 0.278823862617087 
1257	 0.278930278964157 
1258	 0.279020103526973 
1259	 0.279112493773589 
1260	 0.279203038964342 
1261	 0.279279497706772 
1262	 0.279364819019078 
1263	 0.279464318377507 
1264	 0.279550976822918 
1265	 0.27963853607752 
1266	 0.279716341413047 
1267	 0.2797888113124 
1268	 0.27984259819276 
1269	 0.279906018890572 
1270	 0.279960116660908 
1271	 0.280032156079648 
1272	 0.280123209702499 
1273	 0.280187064954503 
1274	 0.280243970802204 
1275	 0.280301714424704 
1276	 0.280337920337293 
1277	 0.280391785022477 
1278	 0.280460191381809 
1279	 0.280525531801808 
1280	 0.280599229944933 
1281	 0.280658248379334 
1282	 0.280705258933784 
1283	 0.280762677619819 
1284	 0.280805673381866 
1285	 0.280871128802175 
1286	 0.28094948811697 
1287	 0.281014877447037 
1288	 0.281077614674448 
1289	 0.281140699862752 
1290	 0.281185803447523 
1291	 0.281211064480113 
1292	 0.281260703360665 
1293	 0.281316765447448 
1294	 0.28135747793205 
1295	 0.281415242661778 
1296	 0.281445111961287 
1297	 0.281441293949438 
1298	 0.281449239495859 
1299	 0.281468404781885 
1300	 0.281461518867118 
1301	 0.281429202997596 
1302	 0.281408542590683 
1303	 0.281382416543324 
1304	 0.28134164017364 
1305	 0.281322007203318 
1306	 0.281313738614273 
1307	 0.281281858952728 
1308	 0.281232788816369 
1309	 0.281209195305121 
1310	 0.281200782051881 
1311	 0.28116273481188 
1312	 0.281129541962008 
1313	 0.281088621682855 
1314	 0.281007751842589 
1315	 0.280959154613676 
1316	 0.280921739811992 
1317	 0.280896561959895 
1318	 0.280889369189355 
1319	 0.280880099075597 
1320	 0.280899520204844 
1321	 0.280886974659506 
1322	 0.280863123873635 
1323	 0.28081247983652 
1324	 0.280769991086387 
1325	 0.280785335728924 
1326	 0.280803506764601 
1327	 0.280808544659831 
1328	 0.280822324390817 
1329	 0.280803683603575 
1330	 0.280804480419109 
1331	 0.280815060773521 
1332	 0.280821985992601 
1333	 0.28082528113007 
1334	 0.280838421444657 
1335	 0.280842796263093 
1336	 0.280875697596067 
1337	 0.280930087890403 
1338	 0.28097415818398 
1339	 0.28104284170699 
1340	 0.281090518896391 
1341	 0.281122707474719 
1342	 0.281161117441496 
1343	 0.281203723210996 
1344	 0.281218635037318 
1345	 0.281267972965684 
1346	 0.281323464173784 
1347	 0.281368453404079 
1348	 0.281407900755848 
1349	 0.281414831400465 
1350	 0.281403848136195 
1351	 0.281405792683491 
1352	 0.281409026873122 
1353	 0.281401766948701 
1354	 0.28139579090938 
1355	 0.281381701356501 
1356	 0.281340981082354 
1357	 0.281331472192546 
1358	 0.281322324924392 
1359	 0.28133711368955 
1360	 0.281380394787477 
1361	 0.281420150686967 
1362	 0.281468135745979 
1363	 0.281528255286396 
1364	 0.281585814545442 
1365	 0.281662301831202 
1366	 0.281754389039141 
1367	 0.281865088831909 
1368	 0.281992319781188 
1369	 0.28210961000965 
1370	 0.282196464204641 
1371	 0.282278795858658 
1372	 0.282324002224714 
1373	 0.282337525679562 
1374	 0.282340665326152 
1375	 0.282347696093713 
1376	 0.282282884684518 
1377	 0.282175035219246 
1378	 0.282052328277652 
1379	 0.281852266674292 
1380	 0.28170367066915 
1381	 0.281566975689893 
1382	 0.281420913651342 
1383	 0.281291623257658 
1384	 0.281145955110146 
1385	 0.280994176294518 
1386	 0.280827577300511 
1387	 0.280682666137137 
1388	 0.280474887485886 
1389	 0.280244242416319 
1390	 0.279964744680989 
1391	 0.279615351227664 
1392	 0.279228771925898 
1393	 0.278812951839124 
1394	 0.278370327412915 
1395	 0.277922399891848 
1396	 0.277471266602431 
1397	 0.277014198625334 
1398	 0.27655481477183 
1399	 0.276072175918965 
1400	 0.275582458426807 
1401	 0.275074115398566 
1402	 0.274521497552784 
1403	 0.274009750356362 
1404	 0.273493481216992 
1405	 0.273003554161294 
1406	 0.272556890910564 
1407	 0.272084956984231 
1408	 0.271596071207013 
1409	 0.271142398664535 
1410	 0.270663194474891 
1411	 0.270250847920093 
1412	 0.269888097493309 
1413	 0.269559089053723 
1414	 0.269235296000438 
1415	 0.268941592570127 
1416	 0.268640059227459 
1417	 0.2683529200455 
1418	 0.268112801441281 
1419	 0.267859385094574 
1420	 0.267632926769593 
1421	 0.267417473886895 
1422	 0.267203880769172 
1423	 0.267031815565308 
1424	 0.266827513607888 
1425	 0.266614381077307 
1426	 0.266420097603309 
1427	 0.266203115192145 
1428	 0.266028972804315 
1429	 0.265896279085318 
1430	 0.265752550243854 
1431	 0.265626066610553 
1432	 0.265490635824881 
1433	 0.265338501775089 
1434	 0.265219723454961 
1435	 0.26511136673681 
1436	 0.265015645628418 
1437	 0.264962477164474 
1438	 0.264881775391303 
1439	 0.264792468866199 
1440	 0.264703351672299 
1441	 0.264604277867084 
1442	 0.264518493899121 
1443	 0.264462171308787 
1444	 0.264403708810601 
1445	 0.264366783863285 
1446	 0.264338757014555 
1447	 0.264303499006055 
1448	 0.264274014805937 
1449	 0.264217660037532 
1450	 0.264172431226698 
1451	 0.264157574970062 
1452	 0.264142905892926 
1453	 0.264167431538905 
1454	 0.264249523966694 
1455	 0.264290971082155 
1456	 0.264336101249421 
1457	 0.264381506175829 
1458	 0.264407762398853 
1459	 0.264456342676884 
1460	 0.264513333442973 
1461	 0.264584236841253 
1462	 0.264674799659928 
1463	 0.26475414487127 
1464	 0.264844081137948 
1465	 0.264928789090184 
1466	 0.265000106860173 
1467	 0.265084967854973 
1468	 0.26516995490893 
1469	 0.265270316247397 
1470	 0.265395489054651 
1471	 0.265494684841981 
1472	 0.265608732983899 
1473	 0.265724324797739 
1474	 0.265793584723988 
1475	 0.265896634228365 
1476	 0.266007468724816 
1477	 0.266113862062109 
1478	 0.266285701963086 
1479	 0.266465467177287 
1480	 0.266635001979517 
1481	 0.266817631177525 
1482	 0.266976621118574 
1483	 0.267109294644233 
1484	 0.267254471542674 
1485	 0.267395035871282 
1486	 0.267546571929441 
1487	 0.267699247542608 
1488	 0.267860366307332 
1489	 0.268045202354493 
1490	 0.268198165719154 
1491	 0.268335439240928 
1492	 0.26848209991637 
1493	 0.26860857605544 
1494	 0.268754408111839 
1495	 0.268923355673621 
1496	 0.269078292913612 
1497	 0.269238224396291 
1498	 0.269383892827484 
1499	 0.269515459200913 
1500	 0.269653440148878 
1501	 0.269786939698783 
1502	 0.269919262015122 
1503	 0.270059994504425 
1504	 0.270183324735203 
1505	 0.270300516575779 
1506	 0.270424900894564 
1507	 0.270562090714526 
1508	 0.270693715276442 
1509	 0.270816461319664 
1510	 0.270924879777017 
1511	 0.271008366285501 
1512	 0.2711138607226 
1513	 0.271245487129296 
1514	 0.271377258491634 
1515	 0.271518255414186 
1516	 0.2716378122007 
1517	 0.271733843165437 
1518	 0.271793532852488 
1519	 0.271886838368955 
1520	 0.271972947049923 
1521	 0.272074422691416 
1522	 0.272199003351511 
1523	 0.272311214422475 
1524	 0.272424504945968 
1525	 0.272527553247313 
1526	 0.272624198431666 
1527	 0.272728230902799 
1528	 0.272822077023898 
1529	 0.272920840084641 
1530	 0.273047154209306 
1531	 0.27314160135322 
1532	 0.273211158088411 
1533	 0.273295853519875 
1534	 0.273374084970544 
1535	 0.273445863309727 
1536	 0.273524348030395 
1537	 0.273593076135916 
1538	 0.273631773530713 
1539	 0.273699878173312 
1540	 0.273787383816808 
1541	 0.273872281495695 
1542	 0.273968875886353 
1543	 0.274066574688975 
1544	 0.274164100010132 
1545	 0.27425646690538 
1546	 0.274353212681694 
1547	 0.274452140577684 
1548	 0.274523868710502 
1549	 0.274604472436125 
1550	 0.274684132717166 
1551	 0.274754724466369 
1552	 0.274837453410696 
1553	 0.274906916864237 
1554	 0.274966961550993 
1555	 0.275034533493631 
1556	 0.275091113757428 
1557	 0.275154311630809 
1558	 0.27522808062175 
1559	 0.275275362677712 
1560	 0.275317430643294 
1561	 0.275342805317207 
1562	 0.275387160511454 
1563	 0.27541833860589 
1564	 0.275490523858567 
1565	 0.275604048990939 
1566	 0.275682833953504 
1567	 0.275773877684123 
1568	 0.275828976212528 
1569	 0.27584996117454 
1570	 0.275884266721642 
1571	 0.275906007944042 
1572	 0.275941601603105 
1573	 0.275979294923841 
1574	 0.27602286117006 
1575	 0.2760767700685 
1576	 0.276124577700908 
1577	 0.276174365787216 
1578	 0.276222776267476 
1579	 0.276265579658179 
1580	 0.27631592672323 
1581	 0.276372859059891 
1582	 0.276423288223549 
1583	 0.276471113143737 
1584	 0.276523856311231 
1585	 0.2765819525596 
1586	 0.276629947035818 
1587	 0.276678442244404 
1588	 0.276724337524673 
1589	 0.276760135073114 
1590	 0.276793493424666 
1591	 0.276829401070064 
1592	 0.276858988357484 
1593	 0.276881900527996 
1594	 0.276901160527628 
1595	 0.276912958306697 
1596	 0.276930380483788 
1597	 0.276943664995938 
1598	 0.276958163757799 
1599	 0.276982224538194 
1600	 0.276998835676977 
1601	 0.277000112485729 
1602	 0.277017917817518 
1603	 0.277047403112665 
1604	 0.277069400255176 
1605	 0.277097585653012 
1606	 0.277123260869248 
1607	 0.277135495301557 
1608	 0.27715856875749 
1609	 0.277198249885963 
1610	 0.27724202359688 
1611	 0.277273291082726 
1612	 0.277296560358613 
1613	 0.277327363577338 
1614	 0.277351116395231 
1615	 0.277364288318937 
1616	 0.277400687501376 
1617	 0.277413610024422 
1618	 0.277403413637414 
1619	 0.277424938589278 
1620	 0.277441069755606 
1621	 0.277458090944298 
1622	 0.277474403537336 
1623	 0.27750759792321 
1624	 0.277553221213284 
1625	 0.277572643106914 
1626	 0.277599784396732 
1627	 0.277604761628169 
1628	 0.277573241898863 
1629	 0.277571434430239 
1630	 0.277577648800086 
1631	 0.277584910217791 
1632	 0.277601749974683 
1633	 0.277607679915338 
1634	 0.277611277500207 
1635	 0.277612462743712 
1636	 0.277603917459595 
1637	 0.277607154261014 
1638	 0.277618047908762 
1639	 0.277621846901868 
1640	 0.277626219298525 
1641	 0.277631960100852 
1642	 0.277631646783488 
1643	 0.277640229253091 
1644	 0.277659855215501 
1645	 0.277667502722944 
1646	 0.277668985946846 
1647	 0.277679261806352 
1648	 0.277683989626752 
1649	 0.277701647991599 
1650	 0.277748924281313 
1651	 0.277750171976607 
1652	 0.277724757976609 
1653	 0.277724435985454 
1654	 0.277707357184683 
1655	 0.277704589508901 
1656	 0.277737241010514 
1657	 0.277736281281277 
1658	 0.277705789082128 
1659	 0.277700296643531 
1660	 0.27770286559312 
1661	 0.277697240744283 
1662	 0.27770579223036 
1663	 0.277689718849812 
1664	 0.277651027748846 
1665	 0.277622642267526 
1666	 0.277585489802664 
1667	 0.277556646419229 
1668	 0.277542163535012 
1669	 0.277506410207298 
1670	 0.277449881656608 
1671	 0.277421858753687 
1672	 0.277375330870052 
1673	 0.277382039431033 
1674	 0.277450982138269 
1675	 0.27747794365261 
1676	 0.277528133940437 
1677	 0.277537179539764 
1678	 0.277504508611675 
1679	 0.277485697825519 
1680	 0.277448047401534 
1681	 0.277432247820872 
1682	 0.277422916579388 
1683	 0.277420200031979 
1684	 0.277434290958662 
1685	 0.277439415757796 
1686	 0.277452276055202 
1687	 0.277445961194903 
1688	 0.277431620926577 
1689	 0.277411656243634 
1690	 0.277366905430607 
1691	 0.277346557289711 
1692	 0.277339257340104 
1693	 0.277320503711425 
1694	 0.277309173717668 
1695	 0.277289417076229 
1696	 0.277248840285209 
1697	 0.277231077959517 
1698	 0.277225678070215 
1699	 0.277217102900653 
1700	 0.277214962536033 
1701	 0.277216441757396 
1702	 0.277226968349769 
1703	 0.277219522636994 
1704	 0.277207638219706 
1705	 0.277196215359613 
1706	 0.277168720380505 
1707	 0.27715312795219 
1708	 0.277151738002345 
1709	 0.277137872568269 
1710	 0.277119112056515 
1711	 0.277093562098459 
1712	 0.277052932870302 
1713	 0.27703885252329 
1714	 0.277037847783694 
1715	 0.277022287184688 
1716	 0.277015508893103 
1717	 0.277005299418611 
1718	 0.276989233311934 
1719	 0.276954673606018 
1720	 0.276918433702409 
1721	 0.27687746402302 
1722	 0.276812098211193 
1723	 0.276755200138354 
1724	 0.276715944164435 
1725	 0.276649604637827 
1726	 0.276554931787831 
1727	 0.276482557298595 
1728	 0.276403164267527 
1729	 0.276342988888789 
1730	 0.276295130055763 
1731	 0.276259083316 
1732	 0.276246279773874 
1733	 0.276214290802009 
1734	 0.276193027490517 
1735	 0.276149033090624 
1736	 0.276085899295211 
1737	 0.276016517206112 
1738	 0.275932402644976 
1739	 0.275854380626478 
1740	 0.275763660812008 
1741	 0.275691748863082 
1742	 0.27562892532729 
1743	 0.275578639288537 
1744	 0.275542508359328 
1745	 0.275497900330415 
1746	 0.275467590783889 
1747	 0.275401790258375 
1748	 0.275332147438927 
1749	 0.275215951993864 
1750	 0.275095692769289 
1751	 0.275018561396819 
1752	 0.27493923966927 
1753	 0.274857763595559 
1754	 0.27481463073202 
1755	 0.274754309819184 
1756	 0.27468543046454 
1757	 0.274672684560037 
1758	 0.274647283939036 
1759	 0.274598750561765 
1760	 0.274545112462229 
1761	 0.27446896673171 
1762	 0.274415881973094 
1763	 0.274371638950541 
1764	 0.274325158032903 
1765	 0.274316770307541 
1766	 0.274300744269192 
1767	 0.27426526643204 
1768	 0.274236297611624 
1769	 0.274181296611831 
1770	 0.274109636065296 
1771	 0.274061623226143 
1772	 0.274030916633554 
1773	 0.274005804082366 
1774	 0.273988362450494 
1775	 0.273930659367521 
1776	 0.273843151782769 
1777	 0.273766021615054 
1778	 0.273698196988465 
1779	 0.273664242223029 
1780	 0.273649735287504 
1781	 0.273620377780757 
1782	 0.273567591736007 
1783	 0.273576006370825 
1784	 0.273576136856632 
1785	 0.273601961414233 
1786	 0.273597009755219 
1787	 0.273547387876347 
1788	 0.273525795665012 
1789	 0.273510820079169 
1790	 0.273518594696898 
1791	 0.273579091520826 
1792	 0.273571077570744 
1793	 0.273515168451098 
1794	 0.273492647227092 
1795	 0.273438319893435 
1796	 0.273432591619783 
1797	 0.273498783538493 
1798	 0.273516792951755 
1799	 0.273508219414247 
1800	 0.273512490934437 
1801	 0.272377847650451 
1802	 0.272546144378043 
1803	 0.272745965244853 
1804	 0.272997355157405 
1805	 0.273202812957899 
1806	 0.273363100146661 
1807	 0.273550587895717 
1808	 0.273682986939457 
1809	 0.273756032634322 
1810	 0.273851774667921 
1811	 0.273960138543175 
1812	 0.274005987534306 
1813	 0.274036276656125 
1814	 0.274075582097792 
1815	 0.274078936563865 
1816	 0.274075621995151 
1817	 0.274088492177766 
1818	 0.274105479994543 
1819	 0.274118445360188 
1820	 0.274136675796156 
1821	 0.274158828306744 
1822	 0.274157781917153 
1823	 0.274175796756373 
1824	 0.274202343990659 
1825	 0.274169478853222 
1826	 0.274123866223981 
1827	 0.274074966813136 
1828	 0.27401144180514 
1829	 0.273917058100127 
1830	 0.273843355014358 
1831	 0.273773083595637 
1832	 0.273693950132379 
1833	 0.273614342486923 
1834	 0.273534024606902 
1835	 0.273489519691674 
1836	 0.273477368203075 
1837	 0.273492717165717 
1838	 0.273507789039659 
1839	 0.273504916476226 
1840	 0.273502345366831 
1841	 0.273473140781017 
1842	 0.273422458686826 
1843	 0.273413252099317 
1844	 0.273423359864139 
1845	 0.273414791290073 
1846	 0.273420857541859 
1847	 0.273407063021504 
1848	 0.273375931584842 
1849	 0.273361462639938 
1850	 0.273336422642892 
1851	 0.273305495205197 
1852	 0.273285059077774 
1853	 0.273250285999583 
1854	 0.273184573480218 
1855	 0.273110813482901 
1856	 0.273013327464518 
1857	 0.27292293606329 
1858	 0.272816260277296 
1859	 0.272698528770546 
1860	 0.272554207918117 
1861	 0.272399490864917 
1862	 0.272188236212449 
1863	 0.271955687117655 
1864	 0.271679226997691 
1865	 0.271321749601634 
1866	 0.270888724019681 
1867	 0.270440799436313 
1868	 0.269974897272622 
1869	 0.269517901320082 
1870	 0.269121357256021 
1871	 0.268701291632463 
1872	 0.268284558902562 
1873	 0.267859375115147 
1874	 0.267441051547237 
1875	 0.266979156559367 
1876	 0.266493697555956 
1877	 0.266010514675838 
1878	 0.265433790111725 
1879	 0.264784504408865 
1880	 0.264047842674878 
1881	 0.263213216303337 
1882	 0.262305381758885 
1883	 0.261320281335308 
1884	 0.260256140352745 
1885	 0.259134586107136 
1886	 0.257949229619573 
1887	 0.256659982578275 
1888	 0.255302868267807 
1889	 0.253873391863111 
1890	 0.252391880899562 
1891	 0.250888964404512 
1892	 0.249348369647203 
1893	 0.247773293449619 
1894	 0.246155598511978 
1895	 0.244518848145568 
1896	 0.242833285736567 
1897	 0.241130974741565 
1898	 0.239422689913234 
1899	 0.237705220874195 
1900	 0.236061023213396 
1901	 0.234456757652228 
1902	 0.232923732858121 
1903	 0.231478796375575 
1904	 0.230072056676372 
1905	 0.228710441403404 
1906	 0.227420398308467 
1907	 0.226169941901011 
1908	 0.224982714318686 
1909	 0.223858047141008 
1910	 0.222752844511486 
1911	 0.221729980561777 
1912	 0.220760976389096 
1913	 0.219843983162274 
1914	 0.218987921050373 
1915	 0.218184999889778 
1916	 0.217432581198072 
1917	 0.216727440749482 
1918	 0.216094944123228 
1919	 0.21549209025084 
1920	 0.214961987876437 
1921	 0.214503830985249 
1922	 0.214096014910969 
1923	 0.21375543165261 
1924	 0.213446166812476 
1925	 0.213209363893949 
1926	 0.21296854760909 
1927	 0.212751747677057 
1928	 0.21255668151809 
1929	 0.212382527512622 
1930	 0.212242364744421 
1931	 0.212141373614254 
1932	 0.212078615148791 
1933	 0.212053227226935 
1934	 0.212047565800146 
1935	 0.212062416247051 
1936	 0.212095774729532 
1937	 0.212160072088855 
1938	 0.212255036533126 
1939	 0.212364460717862 
1940	 0.212498053085399 
1941	 0.21265010884979 
1942	 0.212820117207826 
1943	 0.213030487377076 
1944	 0.213255113390403 
1945	 0.213493670481885 
1946	 0.213744443686904 
1947	 0.214006055847486 
1948	 0.214276408701805 
1949	 0.214559920729219 
1950	 0.214858000337744 
1951	 0.215170736197308 
1952	 0.215488627914987 
1953	 0.215816273121745 
1954	 0.216173547377203 
1955	 0.21652573063186 
1956	 0.21687471523319 
1957	 0.217238696732375 
1958	 0.2176070439086 
1959	 0.217989281301199 
1960	 0.218395545334333 
1961	 0.218789888109525 
1962	 0.219193075120883 
1963	 0.219590697468786 
1964	 0.219990392864892 
1965	 0.220369828198172 
1966	 0.220753814041153 
1967	 0.221133709097341 
1968	 0.221535135119781 
1969	 0.221941084655645 
1970	 0.222364006856199 
1971	 0.222822692050091 
1972	 0.223254783875423 
1973	 0.223677569208838 
1974	 0.224102239220431 
1975	 0.224524626777218 
1976	 0.224940645906918 
1977	 0.225362357118622 
1978	 0.225792772231468 
1979	 0.226210530087548 
1980	 0.226628138134855 
1981	 0.227055591075859 
1982	 0.227489301926851 
1983	 0.227921060242873 
1984	 0.228358196953445 
1985	 0.22879872424012 
1986	 0.229247743691581 
1987	 0.229677825615334 
1988	 0.23011210748634 
1989	 0.230529803379155 
1990	 0.230925540060556 
1991	 0.231326250747896 
1992	 0.231732432647653 
1993	 0.232141270117215 
1994	 0.232552354798009 
1995	 0.232965216524923 
1996	 0.233379426564646 
1997	 0.233800632144553 
1998	 0.234218393115478 
1999	 0.234638271178491 
2000	 0.235053371183239 
2001	 0.235484481069029 
2002	 0.235867052292109 
2003	 0.236259672020032 
2004	 0.236675092849116 
2005	 0.237088461604108 
2006	 0.237513433636332 
2007	 0.237930774110368 
2008	 0.238361177598691 
2009	 0.238762262309518 
2010	 0.239132635241087 
2011	 0.239525690757387 
2012	 0.239910360131659 
2013	 0.240303523424812 
2014	 0.240708801301561 
2015	 0.241129011995705 
2016	 0.241539771327419 
2017	 0.241941779211273 
2018	 0.242321750837746 
2019	 0.242696902159548 
2020	 0.243047476859628 
2021	 0.243348211061366 
2022	 0.243689895606891 
2023	 0.244027588984811 
2024	 0.244383368115453 
2025	 0.244765915965725 
2026	 0.245143088785723 
2027	 0.245527798963221 
2028	 0.24591677147404 
2029	 0.246292062743126 
2030	 0.246674109394006 
2031	 0.247027309705106 
2032	 0.247368834255435 
2033	 0.247690068726477 
2034	 0.247972047355185 
2035	 0.248280858208894 
2036	 0.248588414841887 
2037	 0.248890959808268 
2038	 0.249201293722993 
2039	 0.249511326591285 
2040	 0.249809566236281 
2041	 0.250112561360836 
2042	 0.250428769154522 
2043	 0.250738361318238 
2044	 0.251042005726224 
2045	 0.251340321587496 
2046	 0.251632850792966 
2047	 0.251925468514039 
2048	 0.252205893302305 
2049	 0.25248091901337 
2050	 0.252741907813448 
2051	 0.252976642697872 
2052	 0.253225193458048 
2053	 0.25346503490746 
2054	 0.25371767409855 
2055	 0.253976160203108 
2056	 0.254255951006671 
2057	 0.254515601745464 
2058	 0.254776957648122 
2059	 0.255021851072149 
2060	 0.255247292191893 
2061	 0.255486322097839 
2062	 0.255729153112144 
2063	 0.25596076239622 
2064	 0.256195014305917 
2065	 0.25642185249033 
2066	 0.25661409181673 
2067	 0.256838989457762 
2068	 0.257088936131127 
2069	 0.257337064327944 
2070	 0.257555664949558 
2071	 0.257778061103633 
2072	 0.257986899271306 
2073	 0.258152267636894 
2074	 0.258355122088662 
2075	 0.258579485719144 
2076	 0.258793630254469 
2077	 0.259001338332764 
2078	 0.259225091772318 
2079	 0.259473580628657 
2080	 0.259693626200398 
2081	 0.259901715124856 
2082	 0.260120622167486 
2083	 0.260320946464066 
2084	 0.260530491382163 
2085	 0.260752081702924 
2086	 0.2610050966528 
2087	 0.261221236630288 
2088	 0.261431343206676 
2089	 0.261625557958646 
2090	 0.261790648745256 
2091	 0.261978097037757 
2092	 0.262159593197904 
2093	 0.262352159220392 
2094	 0.262561486227678 
2095	 0.26276463388005 
2096	 0.262975154190874 
2097	 0.263174852080064 
2098	 0.263381534962852 
2099	 0.263560000076919 
2100	 0.263750340100822 
2101	 0.263932335468859 
2102	 0.264122308525936 
2103	 0.2643102287572 
2104	 0.264513748217003 
2105	 0.264719346272325 
2106	 0.264936988928012 
2107	 0.265178522142461 
2108	 0.265408215345253 
2109	 0.26563891547622 
2110	 0.265869956744354 
2111	 0.26611280735553 
2112	 0.266333469654638 
2113	 0.266532644963024 
2114	 0.266745494973393 
2115	 0.266962899881507 
2116	 0.26717637528358 
2117	 0.267375834515594 
2118	 0.267577294893486 
2119	 0.26778857964233 
2120	 0.267980214280921 
2121	 0.268189490294126 
2122	 0.268447272795823 
2123	 0.268651378110949 
2124	 0.26881960104619 
2125	 0.269001022069245 
2126	 0.269171692817617 
2127	 0.269337182874411 
2128	 0.269519505250405 
2129	 0.269671848757344 
2130	 0.269807456546642 
2131	 0.269917465938879 
2132	 0.270023703827632 
2133	 0.270114330965695 
2134	 0.270192364804138 
2135	 0.270257347497625 
2136	 0.270315034759478 
2137	 0.270355181234558 
2138	 0.270394259836861 
2139	 0.270438496695288 
2140	 0.270455678449988 
2141	 0.270454299068879 
2142	 0.270444661446124 
2143	 0.270414454327977 
2144	 0.270379380128755 
2145	 0.270310304676436 
2146	 0.270276133785542 
2147	 0.270264359436216 
2148	 0.270244452610535 
2149	 0.2702076715082 
2150	 0.270187486745079 
2151	 0.270143254995857 
2152	 0.270078016809294 
2153	 0.26998931282606 
2154	 0.269892486642765 
2155	 0.269783546295407 
2156	 0.269629341808702 
2157	 0.269492360008738 
2158	 0.269380593453435 
2159	 0.269232470745343 
2160	 0.269060398785889 
2161	 0.268885325890297 
2162	 0.268689043451274 
2163	 0.268491376834835 
2164	 0.268296292209619 
2165	 0.268084845900446 
2166	 0.267863159655574 
2167	 0.2676184940354 
2168	 0.267401377895591 
2169	 0.267179144421471 
2170	 0.266973592572266 
2171	 0.266784016110367 
2172	 0.266604178425724 
2173	 0.266434111358389 
2174	 0.26626620300703 
2175	 0.266127774714675 
2176	 0.265961904525091 
2177	 0.265790825291737 
2178	 0.265603591737776 
2179	 0.265385228805282 
2180	 0.265185601616113 
2181	 0.264994954886863 
2182	 0.264786286704103 
2183	 0.264583962704478 
2184	 0.264362242326056 
2185	 0.264142634962503 
2186	 0.263896520026798 
2187	 0.26368141745282 
2188	 0.263486989799053 
2189	 0.2632764524752 
2190	 0.263053391280061 
2191	 0.26285964260654 
2192	 0.262669249284926 
2193	 0.262492157348542 
2194	 0.262331827831218 
2195	 0.262192674877145 
2196	 0.262067125758119 
2197	 0.261949856601207 
2198	 0.26185734413722 
2199	 0.261772535898339 
2200	 0.261677852336691 
2201	 0.261615792886669 
2202	 0.261573817062712 
2203	 0.261570760773038 
2204	 0.261557383746797 
2205	 0.261568747369537 
2206	 0.261557096906263 
2207	 0.261529370537962 
2208	 0.261530408286667 
2209	 0.261536896331508 
2210	 0.261552444435515 
2211	 0.261584825628399 
2212	 0.261623391619593 
2213	 0.261682644879754 
2214	 0.261717001328645 
2215	 0.261733012551355 
2216	 0.2617845177271 
2217	 0.261842328554109 
2218	 0.261891155117908 
2219	 0.261983551597559 
2220	 0.262041584352876 
2221	 0.262058625860995 
2222	 0.262077654904413 
2223	 0.262125757763259 
2224	 0.262191568415114 
2225	 0.262239521728331 
2226	 0.262310551530765 
2227	 0.262333870760777 
2228	 0.262319682053637 
2229	 0.262323353853664 
2230	 0.262317596143207 
2231	 0.262308587720851 
2232	 0.262299356830553 
2233	 0.262288111644858 
2234	 0.262264701257834 
2235	 0.26225338389026 
2236	 0.262258055288288 
2237	 0.262243543829331 
2238	 0.262212633747441 
2239	 0.262191249258367 
2240	 0.262164038310753 
2241	 0.262144270083275 
2242	 0.262140580080221 
2243	 0.262129433034281 
2244	 0.262128963285822 
2245	 0.262107259143072 
2246	 0.262055117286744 
2247	 0.261999174594207 
2248	 0.261920011454446 
2249	 0.261785777643965 
2250	 0.26172740546167 
2251	 0.261700210088483 
2252	 0.26163723902559 
2253	 0.261601649242431 
2254	 0.261530675255768 
2255	 0.261393171862824 
2256	 0.261331096970943 
2257	 0.261315400269041 
2258	 0.261266909389712 
2259	 0.261231005315204 
2260	 0.261185038099527 
2261	 0.261088149781216 
2262	 0.261056867636663 
2263	 0.261077414989745 
2264	 0.261078789089665 
2265	 0.261114223038985 
2266	 0.261127145736657 
2267	 0.261101057541741 
2268	 0.261110196995997 
2269	 0.261163360429633 
2270	 0.261163883919212 
2271	 0.261172338809351 
2272	 0.261177992686146 
2273	 0.261155383903162 
2274	 0.261177167473148 
2275	 0.261205509831329 
2276	 0.261279560770983 
2277	 0.26129899186849 
2278	 0.261311640347813 
2279	 0.261296378820214 
2280	 0.261227218237998 
2281	 0.261203532470422 
2282	 0.261176626761322 
2283	 0.261180233625119 
2284	 0.261230213844969 
2285	 0.261247852604396 
2286	 0.26126546557418 
2287	 0.2612750236836 
2288	 0.2612713257777 
2289	 0.261266000845386 
2290	 0.261265285702406 
2291	 0.261251222581334 
2292	 0.261207395707708 
2293	 0.261186906616554 
2294	 0.261187304007496 
2295	 0.261164100417651 
2296	 0.261132506809673 
2297	 0.261117237073565 
2298	 0.26105097681743 
2299	 0.261012579315576 
2300	 0.261038868963139 
2301	 0.261071852914397 
2302	 0.261133561252406 
2303	 0.261161705979838 
2304	 0.261156693724004 
2305	 0.261129649365056 
2306	 0.261089260462775 
2307	 0.261040898383874 
2308	 0.260958617271256 
2309	 0.260820638672505 
2310	 0.260733069310175 
2311	 0.260652342841628 
2312	 0.260543043754983 
2313	 0.260457373464724 
2314	 0.260348087100178 
2315	 0.260173090479792 
2316	 0.260055306933262 
2317	 0.259965862995742 
2318	 0.259868949474756 
2319	 0.259774996777958 
2320	 0.259701160804491 
2321	 0.259647124042482 
2322	 0.259595317870964 
2323	 0.259575501146789 
2324	 0.259530421155492 
2325	 0.259478211457808 
2326	 0.259414986768264 
2327	 0.259335031517665 
2328	 0.259243511153699 
2329	 0.259207834685929 
2330	 0.259150282059156 
2331	 0.259077985126063 
2332	 0.259001503893174 
2333	 0.258811298983594 
2334	 0.258625001909578 
2335	 0.258544436104768 
2336	 0.258425977954739 
2337	 0.258343456721344 
2338	 0.258262973603479 
2339	 0.258088442375194 
2340	 0.257940282497156 
2341	 0.257792210859631 
2342	 0.257663072462832 
2343	 0.25756989307336 
2344	 0.257451203733215 
2345	 0.257298548609925 
2346	 0.257126858396778 
2347	 0.25696346804649 
2348	 0.256733801383807 
2349	 0.256580851440368 
2350	 0.256485305019325 
2351	 0.256380438348861 
2352	 0.256351222526885 
2353	 0.256201639591653 
2354	 0.255971289465384 
2355	 0.255787508355821 
2356	 0.255546595616918 
2357	 0.255337780734979 
2358	 0.255221800100583 
2359	 0.255020516852539 
2360	 0.254729378008217 
2361	 0.254468153847967 
2362	 0.254191126428511 
2363	 0.253950505130042 
2364	 0.253743325328324 
2365	 0.253523924612813 
2366	 0.25331712960837 
2367	 0.253091860092483 
2368	 0.252857531111548 
2369	 0.252616061834275 
2370	 0.252388745447027 
2371	 0.252112009285511 
2372	 0.251794745285811 
2373	 0.25150329846146 
2374	 0.251303443145212 
2375	 0.251063031360908 
2376	 0.250832424445672 
2377	 0.250588143141782 
2378	 0.25028060824883 
2379	 0.250046829425419 
2380	 0.24983577520619 
2381	 0.249608790459752 
2382	 0.24929461839274 
2383	 0.24895803988036 
2384	 0.248670227854098 
2385	 0.248343910467789 
2386	 0.248060038902654 
2387	 0.24776333067382 
2388	 0.247415003791068 
2389	 0.247188635512928 
2390	 0.247031597501752 
2391	 0.246817929018615 
2392	 0.246568811106189 
2393	 0.246224956105677 
2394	 0.245855254090463 
2395	 0.245590655995901 
2396	 0.245311564172688 
2397	 0.245069758021954 
2398	 0.244879336558924 
2399	 0.244510961270147 
2400	 0.244127402484885 
2401	 0.243833435233046 
2402	 0.24346060292656 
2403	 0.243104322728628 
2404	 0.24284880767659 
2405	 0.242545156733764 
2406	 0.242169324467792 
2407	 0.241846428324794 
2408	 0.24151416855794 
2409	 0.241149123266437 
2410	 0.240833650759292 
2411	 0.240581127744811 
2412	 0.240375294405245 
2413	 0.240058369313594 
2414	 0.239772786308163 
2415	 0.239547877585656 
2416	 0.239269210965639 
2417	 0.238985926161002 
2418	 0.238732500949888 
2419	 0.238468060976701 
2420	 0.238119901257611 
2421	 0.237688878576453 
2422	 0.237361416867477 
2423	 0.237052608061499 
2424	 0.23675500169181 
2425	 0.236568584267062 
2426	 0.236279734404064 
2427	 0.235893144011629 
2428	 0.235500505132117 
2429	 0.235082090200887 
2430	 0.234756254829211 
2431	 0.234461564669747 
2432	 0.234096761735366 
2433	 0.233768569849227 
2434	 0.233379694265957 
2435	 0.23282851033374 
2436	 0.232503232203702 
2437	 0.23233026979347 
2438	 0.232080000957492 
2439	 0.23192279640403 
2440	 0.231634248443014 
2441	 0.231247839004431 
2442	 0.230836675196544 
2443	 0.230316389758277 
2444	 0.229968830639922 
2445	 0.229665008798538 
2446	 0.229386407714214 
2447	 0.229297656445809 
2448	 0.229021547693048 
2449	 0.228580953559056 
2450	 0.228246428572535 
2451	 0.227901821392613 
2452	 0.227545862445531 
2453	 0.227269160875352 
2454	 0.226977199270089 
2455	 0.226686495794127 
2456	 0.226351221659772 
2457	 0.225958095359424 
2458	 0.225558358009496 
2459	 0.225046088179027 
2460	 0.224646496906216 
2461	 0.224373739962582 
2462	 0.224019765527704 
2463	 0.223725786202802 
2464	 0.22337079643893 
2465	 0.222812861062002 
2466	 0.22257948978928 
2467	 0.222531935500564 
2468	 0.222368885095085 
2469	 0.22235929581778 
2470	 0.222061614335202 
2471	 0.221757678453281 
2472	 0.221253227783075 
2473	 0.220834623906678 
2474	 0.220563919945986 
2475	 0.220171623850202 
2476	 0.219958869013482 
2477	 0.219859728404632 
2478	 0.219559017065913 
2479	 0.219297924850005 
2480	 0.218928630410119 
2481	 0.218603082719307 
2482	 0.218408290726894 
2483	 0.218118053967614 
2484	 0.217925465908584 
2485	 0.217700947226005 
2486	 0.217379017514074 
2487	 0.217041315995519 
2488	 0.216664149351652 
2489	 0.216212904351871 
2490	 0.215777199859195 
2491	 0.215435731520424 
2492	 0.215120865971746 
2493	 0.214845572294483 
2494	 0.214571678154032 
2495	 0.214447347885824 
2496	 0.214351486205737 
2497	 0.214164287901867 
2498	 0.214157998355303 
2499	 0.213877197381735 
2500	 0.213401164459465 
