Wavelength	LMW_1600008.asd
350	 0.103341035788154 
351	 9.86178499744302E-02 
352	 9.24458985544123E-02 
353	 8.84573702732604E-02 
354	 8.79784628643117E-02 
355	 8.65446186880144E-02 
356	 8.72727516133863E-02 
357	 0.092492968920022 
358	 9.43589381627298E-02 
359	 9.40895538639397E-02 
360	 9.34237919705196E-02 
361	 9.39485923553114E-02 
362	 9.40601653673219E-02 
363	 9.27543685251691E-02 
364	 0.091642248945521 
365	 9.67255866017282E-02 
366	 9.44850641268459E-02 
367	 9.23131055000022E-02 
368	 9.86378273968788E-02 
369	 0.103131057856243 
370	 0.101569397291535 
371	 9.84009607676775E-02 
372	 0.102645997951067 
373	 0.104765526696915 
374	 0.106117310493776 
375	 0.107680222625948 
376	 0.107198609131273 
377	 0.106059818427565 
378	 0.107530188126348 
379	 0.112981386327983 
380	 0.114587464420174 
381	 0.11312705896841 
382	 0.113141600416111 
383	 0.120262811785721 
384	 0.119402324298888 
385	 0.118643021593987 
386	 0.12287001562072 
387	 0.12451478399504 
388	 0.127275241466224 
389	 0.130069497563307 
390	 0.131029745619643 
391	 0.131419078879312 
392	 0.133110600053107 
393	 0.136553519624464 
394	 0.140800350396077 
395	 0.142063134341737 
396	 0.143342335239773 
397	 0.146738672853344 
398	 0.150136296182505 
399	 0.152781535468533 
400	 0.154778058469866 
401	 0.156628932347628 
402	 0.158721356260427 
403	 0.160515340369595 
404	 0.162257473195496 
405	 0.16500505396043 
406	 0.167507070913939 
407	 0.17012225529906 
408	 0.172695692471598 
409	 0.172570419001439 
410	 0.173962861428935 
411	 0.176233085045818 
412	 0.176968889632075 
413	 0.17916055455172 
414	 0.180663556323263 
415	 0.181022663701575 
416	 0.182453741445374 
417	 0.183050326820012 
418	 0.183739724373931 
419	 0.185315932013773 
420	 0.185873213743399 
421	 0.185945843962797 
422	 0.18632244182415 
423	 0.187674995984809 
424	 0.187914454686435 
425	 0.187456342844374 
426	 0.187115189080246 
427	 0.18790284663402 
428	 0.187828223941727 
429	 0.187357958537487 
430	 0.187500584111958 
431	 0.187689761684551 
432	 0.187428585391884 
433	 0.18704506386184 
434	 0.187579362530996 
435	 0.188211243732444 
436	 0.188790793357667 
437	 0.189352925703781 
438	 0.189994514338376 
439	 0.191151575107873 
440	 0.192642320634275 
441	 0.193986228912342 
442	 0.195060352317579 
443	 0.196462923436509 
444	 0.198330990119708 
445	 0.200019481043851 
446	 0.201869055551859 
447	 0.203677644782404 
448	 0.205230756639107 
449	 0.206846893505254 
450	 0.208817929841712 
451	 0.210853983404315 
452	 0.212250867354616 
453	 0.213828312531659 
454	 0.215392925985025 
455	 0.216780235407614 
456	 0.218396808927273 
457	 0.219651472727017 
458	 0.220662211490141 
459	 0.22183641557589 
460	 0.223036841428858 
461	 0.224125420100206 
462	 0.225122066495079 
463	 0.226266397150997 
464	 0.227259667561527 
465	 0.228206322936481 
466	 0.229237176276993 
467	 0.230124876717394 
468	 0.230910728768313 
469	 0.231686470495271 
470	 0.232554934004973 
471	 0.233192798243384 
472	 0.233859500939798 
473	 0.234743522017792 
474	 0.235650434480893 
475	 0.236527824849683 
476	 0.237211107240911 
477	 0.237619701922243 
478	 0.238539857581527 
479	 0.239473237355264 
480	 0.240215415700741 
481	 0.241123754297319 
482	 0.242128770000002 
483	 0.243017258704561 
484	 0.243657109517893 
485	 0.244435920325946 
486	 0.245045105040336 
487	 0.245572422400144 
488	 0.246422002840748 
489	 0.247336179402941 
490	 0.248289247453453 
491	 0.249255885354994 
492	 0.250132398447879 
493	 0.250800577200787 
494	 0.251496941451106 
495	 0.252558636459069 
496	 0.253695207301881 
497	 0.254631289155512 
498	 0.255347685636061 
499	 0.256184709633205 
500	 0.257084251645185 
501	 0.257924863718081 
502	 0.25865557511987 
503	 0.259677747331768 
504	 0.260533931844266 
505	 0.261213066098886 
506	 0.262117482045553 
507	 0.263009167655451 
508	 0.263867392955208 
509	 0.26470567190486 
510	 0.265530827756667 
511	 0.266269459696328 
512	 0.267036959973947 
513	 0.268005038286658 
514	 0.268879763140706 
515	 0.269673522046786 
516	 0.270451862139323 
517	 0.271319171177434 
518	 0.272015820469894 
519	 0.272716887647984 
520	 0.273650186333994 
521	 0.274527185346665 
522	 0.275393081502269 
523	 0.276217985150185 
524	 0.276880183527569 
525	 0.277592823625354 
526	 0.27841504010747 
527	 0.279307570175672 
528	 0.280043335116069 
529	 0.280860412801765 
530	 0.281748418863946 
531	 0.282542426037493 
532	 0.283328061646271 
533	 0.284121174894125 
534	 0.284940416744763 
535	 0.285840478975372 
536	 0.286703748534817 
537	 0.287552267690382 
538	 0.28843365858299 
539	 0.289144168514815 
540	 0.289909216673052 
541	 0.290801329372638 
542	 0.291644571077815 
543	 0.292583569841892 
544	 0.293524936447034 
545	 0.294370190760954 
546	 0.295260690633393 
547	 0.296183038257318 
548	 0.297138111229317 
549	 0.298137403800522 
550	 0.299070101795725 
551	 0.29998865640022 
552	 0.300946356604485 
553	 0.301923805462202 
554	 0.302823337832591 
555	 0.303722414589001 
556	 0.304748908142164 
557	 0.305571340208871 
558	 0.306349117616878 
559	 0.307159640996844 
560	 0.307816043516797 
561	 0.308697393979576 
562	 0.30973241366639 
563	 0.310720836645949 
564	 0.311724523523841 
565	 0.312737392289887 
566	 0.313836964398979 
567	 0.315188667660462 
568	 0.316461132789889 
569	 0.317456987266481 
570	 0.31811043357637 
571	 0.318582138823628 
572	 0.319249516739509 
573	 0.320179723792496 
574	 0.321183425973927 
575	 0.321980009443889 
576	 0.322588648729076 
577	 0.323127090826 
578	 0.323775296228386 
579	 0.324614768084448 
580	 0.325693974334023 
581	 0.32700064977832 
582	 0.328377022034933 
583	 0.329520535183192 
584	 0.330269144949002 
585	 0.330658616087743 
586	 0.331075830702343 
587	 0.331471094300104 
588	 0.331745428039357 
589	 0.332242446914886 
590	 0.332661681082841 
591	 0.332964098007767 
592	 0.333358301881978 
593	 0.333614934025442 
594	 0.333967027779802 
595	 0.334644089563689 
596	 0.335655338587777 
597	 0.336823502998828 
598	 0.338045233274255 
599	 0.3392528584619 
600	 0.340282381270047 
601	 0.341071982880655 
602	 0.341656282564568 
603	 0.342208494016117 
604	 0.34271502515744 
605	 0.343205211359948 
606	 0.343727713878236 
607	 0.344396824955509 
608	 0.344982331268206 
609	 0.345461622759659 
610	 0.34606895208946 
611	 0.346775520393727 
612	 0.347595884731024 
613	 0.348471752037377 
614	 0.349105278529675 
615	 0.349723804157425 
616	 0.350344545257108 
617	 0.350850830545039 
618	 0.351472198229575 
619	 0.352027450877257 
620	 0.352460211098884 
621	 0.353126007723111 
622	 0.353745390982208 
623	 0.354312778459786 
624	 0.354907457225137 
625	 0.355411067655137 
626	 0.355898169368228 
627	 0.356414196800328 
628	 0.356944877141175 
629	 0.357465074170135 
630	 0.357931207228802 
631	 0.358344595973735 
632	 0.358878097710525 
633	 0.35948054347167 
634	 0.360045282692755 
635	 0.360450764489255 
636	 0.36101938131463 
637	 0.361579563183408 
638	 0.36198259908465 
639	 0.362339304483563 
640	 0.362763839002284 
641	 0.363261921411321 
642	 0.363775793498678 
643	 0.364269517034492 
644	 0.364726270000588 
645	 0.365144089955234 
646	 0.365535055665094 
647	 0.36592112632611 
648	 0.366346211306764 
649	 0.366836997461297 
650	 0.367341858261771 
651	 0.367797576349028 
652	 0.36819822184207 
653	 0.368595312851285 
654	 0.369122142484978 
655	 0.369616535696001 
656	 0.369979276516429 
657	 0.370402432709291 
658	 0.370831397464096 
659	 0.371297623758333 
660	 0.371833885481218 
661	 0.372213935817128 
662	 0.372514700147297 
663	 0.372847640778213 
664	 0.373326056515176 
665	 0.373896134965115 
666	 0.374388010571591 
667	 0.374693797332722 
668	 0.375082154672687 
669	 0.375547276914979 
670	 0.376024509804064 
671	 0.37641448134504 
672	 0.376806979903483 
673	 0.377272933256385 
674	 0.377795710589681 
675	 0.378169940058171 
676	 0.378442305137073 
677	 0.378741108666017 
678	 0.379202428164911 
679	 0.379706601237711 
680	 0.380154650784773 
681	 0.380523254096777 
682	 0.380883454719935 
683	 0.381254163885281 
684	 0.381653854693837 
685	 0.382079029471185 
686	 0.382465103457139 
687	 0.382832267022706 
688	 0.383206156421881 
689	 0.383608808422093 
690	 0.383985053294338 
691	 0.384345914674443 
692	 0.384711078013257 
693	 0.385101760716379 
694	 0.385455722510848 
695	 0.385778753710913 
696	 0.386108198511665 
697	 0.386490568335693 
698	 0.386897388857447 
699	 0.387294476147728 
700	 0.387648321980252 
701	 0.387905189605034 
702	 0.388168332884592 
703	 0.388513760487852 
704	 0.388849112762863 
705	 0.389163994250528 
706	 0.389450058533339 
707	 0.38971914387804 
708	 0.390119345689051 
709	 0.390463539269941 
710	 0.390692781412192 
711	 0.390984143748875 
712	 0.391253407493183 
713	 0.391494356247729 
714	 0.391726841545427 
715	 0.39198804112383 
716	 0.392252986045303 
717	 0.39253005776299 
718	 0.392838817897212 
719	 0.393023362046221 
720	 0.393190317793186 
721	 0.393398698374019 
722	 0.393524753391241 
723	 0.39381954055485 
724	 0.394200304482527 
725	 0.394479706502756 
726	 0.394600356338225 
727	 0.39469315248113 
728	 0.394818908312221 
729	 0.394961556666381 
730	 0.395133936565889 
731	 0.395335717820735 
732	 0.395554480881508 
733	 0.395762830496283 
734	 0.395918885884961 
735	 0.396019334768997 
736	 0.396096019717938 
737	 0.396256352568659 
738	 0.396437013729749 
739	 0.396579732656812 
740	 0.396652242267055 
741	 0.396791038937535 
742	 0.396933117961367 
743	 0.397007762178602 
744	 0.397031128465558 
745	 0.397158153786441 
746	 0.39733791541792 
747	 0.397426463706445 
748	 0.397428060632486 
749	 0.397409029086807 
750	 0.397431456915825 
751	 0.397540019964995 
752	 0.397667188962677 
753	 0.397801340513123 
754	 0.39791947484584 
755	 0.3979227917905 
756	 0.397886746028629 
757	 0.397891408629335 
758	 0.397991273782501 
759	 0.398064469261251 
760	 0.39801616991141 
761	 0.397911971028696 
762	 0.398002395334928 
763	 0.398003374943221 
764	 0.39793908265837 
765	 0.39790690387775 
766	 0.398003109361732 
767	 0.398048596236929 
768	 0.398012813911673 
769	 0.39795562120617 
770	 0.397959479522069 
771	 0.39795319642084 
772	 0.397904055702723 
773	 0.397843246568313 
774	 0.397731923806171 
775	 0.397654979582424 
776	 0.397666245544582 
777	 0.397672678746572 
778	 0.39761430239669 
779	 0.397557341472216 
780	 0.397592396417105 
781	 0.397549959910646 
782	 0.397459792432148 
783	 0.397355134380548 
784	 0.397255984023415 
785	 0.397177069171723 
786	 0.397111325401454 
787	 0.397062676595482 
788	 0.397081099239807 
789	 0.397086694726051 
790	 0.397014235281975 
791	 0.396829443385725 
792	 0.396583786642021 
793	 0.396490627014858 
794	 0.396546952484176 
795	 0.39655395553545 
796	 0.396436529470531 
797	 0.396307944152573 
798	 0.396226143948579 
799	 0.396084355878476 
800	 0.395948918014133 
801	 0.39581759304783 
802	 0.39569769011647 
803	 0.395725307654519 
804	 0.395664522636454 
805	 0.395533677495113 
806	 0.395501417883743 
807	 0.395483316231679 
808	 0.395402780944676 
809	 0.395251456699992 
810	 0.395108771362725 
811	 0.395116020689568 
812	 0.395030074544196 
813	 0.394728048401814 
814	 0.394647846872995 
815	 0.394585247160931 
816	 0.394509977264112 
817	 0.3944531896943 
818	 0.394404210470332 
819	 0.394335362643151 
820	 0.394215867608293 
821	 0.394026675157554 
822	 0.393881310947492 
823	 0.393791667968834 
824	 0.393717879481718 
825	 0.393566186955098 
826	 0.393486674737896 
827	 0.393406507536514 
828	 0.393261210608911 
829	 0.393224699014283 
830	 0.393096824187441 
831	 0.392991948112338 
832	 0.393091260503207 
833	 0.392991054471364 
834	 0.392796401158761 
835	 0.392592046719574 
836	 0.392419119203818 
837	 0.392500288815038 
838	 0.392596989901819 
839	 0.392522057388285 
840	 0.392311101557375 
841	 0.39217153391385 
842	 0.392064877919489 
843	 0.391920658415985 
844	 0.391816664240353 
845	 0.39171265620049 
846	 0.391633426253589 
847	 0.391605247985699 
848	 0.391486878467705 
849	 0.391387466828827 
850	 0.391361618575515 
851	 0.391387187096108 
852	 0.39131941596875 
853	 0.391210684011986 
854	 0.391087359448119 
855	 0.390896335545078 
856	 0.39098274141013 
857	 0.391113478893003 
858	 0.391027199146398 
859	 0.390728910962419 
860	 0.390664737221829 
861	 0.390768681250969 
862	 0.390794208187259 
863	 0.390664039431627 
864	 0.390564164868792 
865	 0.390577206986336 
866	 0.39066453397977 
867	 0.390522403753068 
868	 0.390344335403044 
869	 0.390304708858296 
870	 0.390471651445752 
871	 0.390506058578024 
872	 0.390503126272761 
873	 0.390531808488722 
874	 0.390497060793268 
875	 0.390314836286961 
876	 0.390159247375763 
877	 0.390170607496535 
878	 0.390230575974041 
879	 0.390304584820937 
880	 0.390331172492682 
881	 0.390290732482061 
882	 0.390331674455578 
883	 0.390419455161598 
884	 0.390486877791758 
885	 0.390480418491015 
886	 0.390531359582629 
887	 0.390557049802368 
888	 0.390573758826492 
889	 0.390676452064117 
890	 0.390752869341288 
891	 0.390796566498471 
892	 0.390793548386637 
893	 0.39071455218565 
894	 0.39075549267725 
895	 0.390877140596965 
896	 0.391022562527636 
897	 0.391200020498562 
898	 0.391211527865158 
899	 0.391263880313673 
900	 0.391485447350191 
901	 0.391505581932957 
902	 0.391482728185281 
903	 0.39154752542157 
904	 0.391734915038434 
905	 0.391763684234003 
906	 0.391761030330403 
907	 0.391825719249656 
908	 0.391991202509634 
909	 0.392069331880109 
910	 0.392155885828287 
911	 0.392304560965735 
912	 0.392505488935976 
913	 0.392612093291852 
914	 0.392687917763839 
915	 0.392788378293703 
916	 0.392944270881559 
917	 0.393238387189999 
918	 0.393374026825736 
919	 0.393287933161581 
920	 0.393247300373775 
921	 0.393495223615219 
922	 0.393772532006683 
923	 0.393944284650631 
924	 0.394189146449635 
925	 0.394249657740448 
926	 0.394339041401668 
927	 0.394590289675362 
928	 0.394806833521279 
929	 0.394903370725751 
930	 0.395046077828278 
931	 0.395312040110101 
932	 0.395409491700341 
933	 0.395714997059962 
934	 0.395976943763676 
935	 0.395964721968559 
936	 0.396037185071048 
937	 0.396228755639412 
938	 0.3965143259448 
939	 0.396831639949423 
940	 0.397134188403396 
941	 0.397349563598869 
942	 0.397565030434963 
943	 0.397839675654765 
944	 0.397844394401135 
945	 0.397949696468882 
946	 0.398222054209785 
947	 0.398524063033976 
948	 0.398582099561373 
949	 0.398621130308963 
950	 0.398817516636243 
951	 0.399204239979373 
952	 0.399365697598102 
953	 0.399622554363098 
954	 0.399891873469813 
955	 0.399949189427739 
956	 0.400205469067667 
957	 0.400462472182376 
958	 0.400613195560092 
959	 0.400687901928558 
960	 0.400980828328598 
961	 0.401309157815355 
962	 0.401629539447583 
963	 0.401961394819488 
964	 0.401981544558984 
965	 0.402223291902859 
966	 0.402613381407759 
967	 0.402755000583962 
968	 0.40320176256685 
969	 0.403527832026422 
970	 0.403705756310966 
971	 0.404012118351035 
972	 0.40451128424975 
973	 0.404819913322755 
974	 0.404919408228753 
975	 0.405092449407523 
976	 0.405627845756773 
977	 0.406029108977786 
978	 0.406208554249121 
979	 0.406396250890577 
980	 0.406701893457255 
981	 0.406835005063561 
982	 0.406928806584587 
983	 0.407338841628974 
984	 0.408037458670025 
985	 0.408553678357781 
986	 0.408802854762001 
987	 0.408961674774938 
988	 0.409090928881626 
989	 0.409333234481447 
990	 0.409700308879183 
991	 0.410107915093048 
992	 0.410448476483612 
993	 0.410666800632054 
994	 0.410863995961368 
995	 0.411153123906781 
996	 0.411381745409558 
997	 0.411702925384814 
998	 0.412149886349665 
999	 0.412650223527209 
1000	 0.41299781543654 
1001	 0.410638595871112 
1002	 0.410806264839561 
1003	 0.410965088942737 
1004	 0.41113933816354 
1005	 0.411342398715444 
1006	 0.411545556862116 
1007	 0.411737670921553 
1008	 0.41195014017191 
1009	 0.412196254581338 
1010	 0.412418250454573 
1011	 0.412661680383218 
1012	 0.41286006727328 
1013	 0.412998200674089 
1014	 0.413219995935192 
1015	 0.413428243395935 
1016	 0.413587432592439 
1017	 0.413770881674917 
1018	 0.413987749917127 
1019	 0.414167347981749 
1020	 0.414348341164191 
1021	 0.414608277236415 
1022	 0.41482283647766 
1023	 0.414969944865771 
1024	 0.41515567681015 
1025	 0.415327458177055 
1026	 0.415520566468775 
1027	 0.415770144632352 
1028	 0.415995422965087 
1029	 0.416212349215699 
1030	 0.416443797108493 
1031	 0.416645228485817 
1032	 0.416838440222063 
1033	 0.417014882309089 
1034	 0.41718872036571 
1035	 0.417353743865469 
1036	 0.417563248567214 
1037	 0.417772023811828 
1038	 0.417910006245508 
1039	 0.418070915785664 
1040	 0.41829165288333 
1041	 0.418496726035317 
1042	 0.418707623660661 
1043	 0.418941361648161 
1044	 0.419143912910899 
1045	 0.419313024127833 
1046	 0.419433880659321 
1047	 0.419612532472503 
1048	 0.419839648959294 
1049	 0.419992864938317 
1050	 0.420224104812522 
1051	 0.420483674753883 
1052	 0.420646497275205 
1053	 0.420861611322666 
1054	 0.421055264242463 
1055	 0.421208668061319 
1056	 0.42138415635194 
1057	 0.421571508372889 
1058	 0.421775892683156 
1059	 0.421973716977092 
1060	 0.422188872693276 
1061	 0.42237780391263 
1062	 0.422548735213253 
1063	 0.422679211824444 
1064	 0.422839866653854 
1065	 0.42305005304154 
1066	 0.423224757146358 
1067	 0.423433771396727 
1068	 0.42363834387356 
1069	 0.42381137533867 
1070	 0.424003803401837 
1071	 0.424202473453355 
1072	 0.424398633035825 
1073	 0.424626264270399 
1074	 0.424815526304567 
1075	 0.424982084269026 
1076	 0.425160165118396 
1077	 0.425340694878565 
1078	 0.425451164257893 
1079	 0.42557171228581 
1080	 0.425775757570588 
1081	 0.425915954113935 
1082	 0.426039070860033 
1083	 0.426191672350577 
1084	 0.426352785385333 
1085	 0.426477677724122 
1086	 0.426625308360588 
1087	 0.426747372409403 
1088	 0.426823269364239 
1089	 0.426918987549018 
1090	 0.427062031524589 
1091	 0.427173207335291 
1092	 0.427313203318273 
1093	 0.427453366195478 
1094	 0.427541824349754 
1095	 0.427636919156295 
1096	 0.427719518847008 
1097	 0.427821329141273 
1098	 0.427905457415665 
1099	 0.427966491628786 
1100	 0.428064528962345 
1101	 0.428171832283047 
1102	 0.428279841982577 
1103	 0.428402788798723 
1104	 0.428557004459572 
1105	 0.428702726085995 
1106	 0.428789271814517 
1107	 0.428869946914796 
1108	 0.428972451114787 
1109	 0.42906804091519 
1110	 0.429176820567133 
1111	 0.429263702680621 
1112	 0.429352220400024 
1113	 0.429442367378028 
1114	 0.429502313470737 
1115	 0.429585360457919 
1116	 0.429690725289071 
1117	 0.429800819749529 
1118	 0.42990888630301 
1119	 0.4300266565058 
1120	 0.430157305981545 
1121	 0.43030531130454 
1122	 0.430481979089702 
1123	 0.430646575359569 
1124	 0.430774433131754 
1125	 0.430903358190634 
1126	 0.43100028271038 
1127	 0.431027554825567 
1128	 0.431119845334991 
1129	 0.431237489056215 
1130	 0.431334055107058 
1131	 0.431437771302986 
1132	 0.431546884683171 
1133	 0.431662034878941 
1134	 0.431758809280531 
1135	 0.43185614904253 
1136	 0.431947563717683 
1137	 0.432024388683896 
1138	 0.432102442882762 
1139	 0.432175569057597 
1140	 0.432254509599338 
1141	 0.432330579796126 
1142	 0.43239279609761 
1143	 0.432463055249162 
1144	 0.432551495024802 
1145	 0.432624907304563 
1146	 0.432685209816897 
1147	 0.432746005583872 
1148	 0.432804754057816 
1149	 0.432859807032821 
1150	 0.432890717489418 
1151	 0.432961415422199 
1152	 0.433042330200973 
1153	 0.433119972391122 
1154	 0.433181612478649 
1155	 0.433243198072206 
1156	 0.433303518044688 
1157	 0.433322965564214 
1158	 0.433405297344901 
1159	 0.433567356900914 
1160	 0.433639352880757 
1161	 0.433689840215647 
1162	 0.433742725592311 
1163	 0.433717090693362 
1164	 0.433749742585821 
1165	 0.433821463376547 
1166	 0.433904637364701 
1167	 0.433984127044897 
1168	 0.434077983757078 
1169	 0.434167963906545 
1170	 0.434261848547452 
1171	 0.434356264521597 
1172	 0.434449461480791 
1173	 0.434551197300976 
1174	 0.434674110749051 
1175	 0.434765395021115 
1176	 0.434847786906709 
1177	 0.434927791483431 
1178	 0.434975682058684 
1179	 0.435045876327865 
1180	 0.435123156563352 
1181	 0.435211255538202 
1182	 0.435323114787054 
1183	 0.435422515255896 
1184	 0.43550159059434 
1185	 0.435573934142115 
1186	 0.435652614043384 
1187	 0.435704803671957 
1188	 0.435784879506137 
1189	 0.435895480809318 
1190	 0.435984534210928 
1191	 0.436068031920086 
1192	 0.43615057309219 
1193	 0.436232003900804 
1194	 0.436306883644133 
1195	 0.436374777411848 
1196	 0.436445677619723 
1197	 0.436504929119568 
1198	 0.436576875954626 
1199	 0.436655022369486 
1200	 0.436744620728207 
1201	 0.436820227565903 
1202	 0.436894723613684 
1203	 0.436975198496622 
1204	 0.437049368645127 
1205	 0.437129408627486 
1206	 0.437225201565819 
1207	 0.437307086373238 
1208	 0.437391515963752 
1209	 0.437455765421431 
1210	 0.437489986877805 
1211	 0.437552222787034 
1212	 0.437610778351717 
1213	 0.437677434737906 
1214	 0.437760706549079 
1215	 0.437853262033284 
1216	 0.437951859333356 
1217	 0.438061081762119 
1218	 0.438142600271506 
1219	 0.438231683648417 
1220	 0.438300341185 
1221	 0.438333775104271 
1222	 0.438385003358997 
1223	 0.438440128505916 
1224	 0.438494323448482 
1225	 0.438535873477754 
1226	 0.438596958447058 
1227	 0.438681200263265 
1228	 0.438746997552122 
1229	 0.438809423509186 
1230	 0.438876554214702 
1231	 0.43893550709203 
1232	 0.438995732460878 
1233	 0.439058799446223 
1234	 0.43914266797797 
1235	 0.439186333857712 
1236	 0.439198112200368 
1237	 0.439246696824248 
1238	 0.43929391819148 
1239	 0.439342045571493 
1240	 0.439416575907322 
1241	 0.439473364401757 
1242	 0.439498011177757 
1243	 0.439556384369534 
1244	 0.439642718689921 
1245	 0.439710617155952 
1246	 0.439790473448947 
1247	 0.439856922354366 
1248	 0.439896210446853 
1249	 0.439954142271076 
1250	 0.440011619842842 
1251	 0.440067381238821 
1252	 0.440140856632658 
1253	 0.440232478903231 
1254	 0.440307730671677 
1255	 0.440381629104885 
1256	 0.440465286221289 
1257	 0.440555729893337 
1258	 0.440626762914932 
1259	 0.440712697678586 
1260	 0.440769956413073 
1261	 0.44077353416847 
1262	 0.44081807737167 
1263	 0.440880859829414 
1264	 0.440930243307442 
1265	 0.440985786635474 
1266	 0.441046718177665 
1267	 0.441112999075488 
1268	 0.441155724407272 
1269	 0.441204641661247 
1270	 0.441261438379539 
1271	 0.441315000670729 
1272	 0.441363481925228 
1273	 0.441400558867208 
1274	 0.441431443608489 
1275	 0.441476626324085 
1276	 0.441505235116427 
1277	 0.441553585592782 
1278	 0.441642611922843 
1279	 0.44169836490323 
1280	 0.441743743524547 
1281	 0.441782468637794 
1282	 0.441805412182107 
1283	 0.441828082036889 
1284	 0.44183459226912 
1285	 0.441851434972628 
1286	 0.441879447536262 
1287	 0.44193297351293 
1288	 0.442001740372958 
1289	 0.442112060303388 
1290	 0.442181076708421 
1291	 0.442242792719439 
1292	 0.442307551726575 
1293	 0.442348543677373 
1294	 0.442419051036034 
1295	 0.442522734163724 
1296	 0.442599972446094 
1297	 0.442679378206436 
1298	 0.442742303869435 
1299	 0.442780838401287 
1300	 0.442827922035796 
1301	 0.442870288386164 
1302	 0.442918832247119 
1303	 0.442971298350276 
1304	 0.443018991144442 
1305	 0.443095217491356 
1306	 0.443145178359714 
1307	 0.443159653503011 
1308	 0.443174163351956 
1309	 0.443167407862383 
1310	 0.443117505630951 
1311	 0.443088680085638 
1312	 0.44306839691184 
1313	 0.443031205219697 
1314	 0.442976160550011 
1315	 0.442939287159135 
1316	 0.442896574049006 
1317	 0.442864011726981 
1318	 0.442861185483232 
1319	 0.442826778640722 
1320	 0.442785849769024 
1321	 0.442737289001703 
1322	 0.442675407197859 
1323	 0.44259073869003 
1324	 0.442536305029032 
1325	 0.442487856224075 
1326	 0.442434553987744 
1327	 0.44241474756678 
1328	 0.442359501302631 
1329	 0.442280912649864 
1330	 0.442218993648884 
1331	 0.442136761072225 
1332	 0.442087651259048 
1333	 0.442075964664047 
1334	 0.442029756816411 
1335	 0.441975558136041 
1336	 0.441937240768916 
1337	 0.441880540605392 
1338	 0.441842599243949 
1339	 0.441857564023117 
1340	 0.441818611731127 
1341	 0.441758809611986 
1342	 0.441693065394533 
1343	 0.441612874879826 
1344	 0.441497234983457 
1345	 0.441410245685775 
1346	 0.441300219798107 
1347	 0.441173423306743 
1348	 0.441040733150201 
1349	 0.440863490930342 
1350	 0.440661099849215 
1351	 0.440440330997928 
1352	 0.440179049029653 
1353	 0.439933901377102 
1354	 0.439686109211082 
1355	 0.439418401177781 
1356	 0.439116344684995 
1357	 0.438874214825258 
1358	 0.438604280301245 
1359	 0.438414716013561 
1360	 0.438296696597177 
1361	 0.438184484704996 
1362	 0.438106609853605 
1363	 0.438057118670842 
1364	 0.438035296177201 
1365	 0.438038091094016 
1366	 0.438071345581629 
1367	 0.438123907233529 
1368	 0.438230537448223 
1369	 0.438299505802608 
1370	 0.438319084472768 
1371	 0.438325989350026 
1372	 0.438253285962137 
1373	 0.438121344757896 
1374	 0.437937577165022 
1375	 0.437746395184264 
1376	 0.437400348865783 
1377	 0.436946179925649 
1378	 0.436445063299528 
1379	 0.435772679312214 
1380	 0.435209511669593 
1381	 0.434618369746093 
1382	 0.434082771941384 
1383	 0.433644958871681 
1384	 0.433126701339381 
1385	 0.432670156683601 
1386	 0.432068908677312 
1387	 0.431416874093298 
1388	 0.430647407000894 
1389	 0.429807463654167 
1390	 0.428812617613347 
1391	 0.427665266044729 
1392	 0.426413268359627 
1393	 0.424986570653198 
1394	 0.423496239063079 
1395	 0.421979439765837 
1396	 0.420423261381013 
1397	 0.418927466619526 
1398	 0.417425353661418 
1399	 0.415972411456697 
1400	 0.414557742968248 
1401	 0.413167460893354 
1402	 0.411766970987971 
1403	 0.410481578416541 
1404	 0.409217951602598 
1405	 0.408098092110022 
1406	 0.407091370036906 
1407	 0.406150843950109 
1408	 0.405238152362825 
1409	 0.404536099907889 
1410	 0.403831098005219 
1411	 0.403490962638547 
1412	 0.403379242368942 
1413	 0.403532208994617 
1414	 0.404011101141833 
1415	 0.40472999478667 
1416	 0.405666472860671 
1417	 0.406768335746663 
1418	 0.407952902294796 
1419	 0.409146094108396 
1420	 0.410351314122731 
1421	 0.411498389862449 
1422	 0.412491518396767 
1423	 0.413406253393489 
1424	 0.414149357007321 
1425	 0.414709491544751 
1426	 0.415213165106502 
1427	 0.415564838242338 
1428	 0.415923798848833 
1429	 0.41621083367808 
1430	 0.416465358748845 
1431	 0.416708890428802 
1432	 0.416861433082765 
1433	 0.416915898394155 
1434	 0.416981724263161 
1435	 0.416957667507861 
1436	 0.416995054023031 
1437	 0.417083026291459 
1438	 0.417113602257787 
1439	 0.417138088097213 
1440	 0.417157539276607 
1441	 0.417094888452725 
1442	 0.417021438860224 
1443	 0.41696250864976 
1444	 0.416902309055987 
1445	 0.416903284102898 
1446	 0.416901929545195 
1447	 0.416875095967737 
1448	 0.416862170063782 
1449	 0.416780077746663 
1450	 0.416663776182611 
1451	 0.416579095488857 
1452	 0.416479050248359 
1453	 0.416410448463993 
1454	 0.416388716726617 
1455	 0.416313268994615 
1456	 0.416231368447229 
1457	 0.416129028026397 
1458	 0.415975270319845 
1459	 0.415868916147465 
1460	 0.415757841565431 
1461	 0.415683264915649 
1462	 0.415654474912139 
1463	 0.415602929149443 
1464	 0.415573279630282 
1465	 0.415525514790395 
1466	 0.415430174344201 
1467	 0.41539230670997 
1468	 0.415360307320576 
1469	 0.415368187158179 
1470	 0.415428183673307 
1471	 0.415500823624877 
1472	 0.415587684113012 
1473	 0.415668766572216 
1474	 0.415715745570188 
1475	 0.415790245804582 
1476	 0.415860547828295 
1477	 0.41595975600087 
1478	 0.416139304627343 
1479	 0.416297161203634 
1480	 0.416461142046895 
1481	 0.416638281337557 
1482	 0.416772067069497 
1483	 0.416875473074514 
1484	 0.416979683105689 
1485	 0.417044405770256 
1486	 0.417154808691742 
1487	 0.417277458132471 
1488	 0.417400716677092 
1489	 0.41756386079703 
1490	 0.417684141210251 
1491	 0.417785939461044 
1492	 0.417878273636395 
1493	 0.417935620660664 
1494	 0.418025535581009 
1495	 0.418117958897719 
1496	 0.418211352805132 
1497	 0.418351593743455 
1498	 0.418434018974218 
1499	 0.41848527123219 
1500	 0.418534476584612 
1501	 0.418540718381287 
1502	 0.418563502384502 
1503	 0.418584082034114 
1504	 0.41861718921289 
1505	 0.418659536887594 
1506	 0.418691378465818 
1507	 0.418731136021993 
1508	 0.418766029395357 
1509	 0.418767002870291 
1510	 0.418791407463007 
1511	 0.418829637688691 
1512	 0.418845649075103 
1513	 0.418886215248718 
1514	 0.418912310979276 
1515	 0.418926032880032 
1516	 0.418945351523607 
1517	 0.418945369585326 
1518	 0.418935922387054 
1519	 0.418929209723563 
1520	 0.418902904734029 
1521	 0.418895713496404 
1522	 0.41890859214274 
1523	 0.418888751819977 
1524	 0.418859658470838 
1525	 0.418829228512844 
1526	 0.418775820648186 
1527	 0.418736042706753 
1528	 0.418706184545305 
1529	 0.418668656502353 
1530	 0.418630037329674 
1531	 0.418588935552047 
1532	 0.418537530891116 
1533	 0.418499582889332 
1534	 0.418464785771181 
1535	 0.418433792715389 
1536	 0.41840899631024 
1537	 0.418392230731658 
1538	 0.418384060901697 
1539	 0.418368283672009 
1540	 0.418366128954748 
1541	 0.418350006596838 
1542	 0.418319707449507 
1543	 0.418288987805672 
1544	 0.418258272132602 
1545	 0.41821652638391 
1546	 0.418160095164823 
1547	 0.41811078538381 
1548	 0.418070842459592 
1549	 0.41802435617242 
1550	 0.417976375781869 
1551	 0.417943967947896 
1552	 0.417918252825669 
1553	 0.417884268382995 
1554	 0.417841950738649 
1555	 0.417810289052746 
1556	 0.417768386439197 
1557	 0.417709131709855 
1558	 0.417661862199069 
1559	 0.417613988226609 
1560	 0.417559208690609 
1561	 0.417494783612455 
1562	 0.41742191796892 
1563	 0.417338450720891 
1564	 0.417270896603738 
1565	 0.417203694436529 
1566	 0.417131544603914 
1567	 0.417065202499356 
1568	 0.417008308262847 
1569	 0.416948496002992 
1570	 0.416877374292852 
1571	 0.416824956680346 
1572	 0.41675082584367 
1573	 0.416633230771541 
1574	 0.416560650241202 
1575	 0.416499798363436 
1576	 0.416452451437334 
1577	 0.41643894488264 
1578	 0.416401700672331 
1579	 0.416366120500693 
1580	 0.416330340480426 
1581	 0.416291258533646 
1582	 0.416238236106065 
1583	 0.416186880333674 
1584	 0.416116850221274 
1585	 0.41602109107731 
1586	 0.415934685819766 
1587	 0.415839421708909 
1588	 0.415755182086911 
1589	 0.41567860533464 
1590	 0.415593177931316 
1591	 0.415509603276153 
1592	 0.415424477007697 
1593	 0.415333232350872 
1594	 0.41524411891909 
1595	 0.415158919299271 
1596	 0.415067809647248 
1597	 0.414974206147958 
1598	 0.414873694940827 
1599	 0.414771503000457 
1600	 0.414664875319901 
1601	 0.414546398890265 
1602	 0.414435020171807 
1603	 0.414312775574924 
1604	 0.414206678840724 
1605	 0.414119485124675 
1606	 0.414023792906439 
1607	 0.413935226628147 
1608	 0.413842475925542 
1609	 0.413749020216701 
1610	 0.413641663174266 
1611	 0.413545484752257 
1612	 0.413445465270637 
1613	 0.413337289291018 
1614	 0.413239902744071 
1615	 0.413104911513361 
1616	 0.412998215326835 
1617	 0.412932442957004 
1618	 0.412838786281377 
1619	 0.412775020398821 
1620	 0.412710569645667 
1621	 0.41261459911071 
1622	 0.412486218551689 
1623	 0.41237497403962 
1624	 0.412248178394087 
1625	 0.412153959018221 
1626	 0.412071435291599 
1627	 0.411994852696228 
1628	 0.411953793330811 
1629	 0.411857599560689 
1630	 0.411742455312435 
1631	 0.411624591647385 
1632	 0.411472524817192 
1633	 0.411347880155869 
1634	 0.411235370541895 
1635	 0.411114728248705 
1636	 0.41100224063366 
1637	 0.410865045922762 
1638	 0.410703331498765 
1639	 0.410579302814515 
1640	 0.410450945882697 
1641	 0.410343173694619 
1642	 0.410288618494391 
1643	 0.41017120658134 
1644	 0.410018655215326 
1645	 0.409896787170269 
1646	 0.409761816984931 
1647	 0.40963725997556 
1648	 0.409544446490625 
1649	 0.409420533137825 
1650	 0.409268367002837 
1651	 0.409140966517976 
1652	 0.409014708338689 
1653	 0.408897915475484 
1654	 0.408802960285127 
1655	 0.408684901553866 
1656	 0.408572086261004 
1657	 0.408428891282631 
1658	 0.408243436757964 
1659	 0.408101814177598 
1660	 0.407955928109826 
1661	 0.407831633305471 
1662	 0.40775444902258 
1663	 0.407638680442373 
1664	 0.407521533984193 
1665	 0.407377446232181 
1666	 0.407202291468412 
1667	 0.407043644648019 
1668	 0.406868800906768 
1669	 0.406709552061937 
1670	 0.40656211937247 
1671	 0.406418480937209 
1672	 0.406258455198489 
1673	 0.406149495518622 
1674	 0.406082379871607 
1675	 0.405997638317119 
1676	 0.40596944904969 
1677	 0.405857239303906 
1678	 0.405684565986459 
1679	 0.405537994938404 
1680	 0.405367178423303 
1681	 0.405194287570773 
1682	 0.405012966097666 
1683	 0.404864578981236 
1684	 0.404715585965387 
1685	 0.40457248061774 
1686	 0.404485047114216 
1687	 0.404340760642088 
1688	 0.404156218246424 
1689	 0.40398179115263 
1690	 0.403792102485256 
1691	 0.403608825075061 
1692	 0.403423128098757 
1693	 0.403241299985309 
1694	 0.403048095516664 
1695	 0.40288700194339 
1696	 0.40274123952704 
1697	 0.402602993157268 
1698	 0.402499372964865 
1699	 0.402371126988488 
1700	 0.402235183093647 
1701	 0.402100192104987 
1702	 0.401954929622018 
1703	 0.401820874033005 
1704	 0.401699584178548 
1705	 0.401563022227382 
1706	 0.401423762558692 
1707	 0.401278683534429 
1708	 0.401125918235549 
1709	 0.400965102804251 
1710	 0.400798625255181 
1711	 0.40063437295149 
1712	 0.400451261193442 
1713	 0.400295757433668 
1714	 0.400155654797595 
1715	 0.400011180469727 
1716	 0.39987705855032 
1717	 0.399738347174015 
1718	 0.399605404613565 
1719	 0.399459707758442 
1720	 0.399316270771665 
1721	 0.399157886391887 
1722	 0.39898559948278 
1723	 0.398800555764111 
1724	 0.398601412075227 
1725	 0.398402494508037 
1726	 0.398188437967141 
1727	 0.397983739534926 
1728	 0.397769046104983 
1729	 0.397585755255684 
1730	 0.397408309013813 
1731	 0.397258573780466 
1732	 0.39714799963062 
1733	 0.397021802572807 
1734	 0.396922665037784 
1735	 0.396774159854399 
1736	 0.396605180262845 
1737	 0.396428964397199 
1738	 0.39622333136791 
1739	 0.39601909863664 
1740	 0.395798058904911 
1741	 0.395611554244701 
1742	 0.395414774018569 
1743	 0.395260342886352 
1744	 0.395157137922838 
1745	 0.395031056510398 
1746	 0.394923935435348 
1747	 0.394800127906338 
1748	 0.394645850812037 
1749	 0.394470145828174 
1750	 0.39427875826089 
1751	 0.394080408612028 
1752	 0.393840562625148 
1753	 0.393630290573749 
1754	 0.393472717200468 
1755	 0.393314401600095 
1756	 0.393176300857417 
1757	 0.393014414519451 
1758	 0.392784408991607 
1759	 0.392568242230472 
1760	 0.392407899334227 
1761	 0.39226864526821 
1762	 0.392168756117489 
1763	 0.392068915657483 
1764	 0.391924730801839 
1765	 0.391786410119036 
1766	 0.391638810924351 
1767	 0.39148531464157 
1768	 0.391340599390245 
1769	 0.391207275760905 
1770	 0.391088953034352 
1771	 0.390976185616786 
1772	 0.390869596024477 
1773	 0.390733683422701 
1774	 0.390576852244215 
1775	 0.390434786481613 
1776	 0.390297613482296 
1777	 0.39014558174164 
1778	 0.390002152233058 
1779	 0.38983536475115 
1780	 0.389654648029048 
1781	 0.389509186040062 
1782	 0.38939923760305 
1783	 0.389334225074016 
1784	 0.389244332828682 
1785	 0.389177159625437 
1786	 0.389084516169061 
1787	 0.388973529575424 
1788	 0.388848345111365 
1789	 0.388714271317341 
1790	 0.3885648344614 
1791	 0.38836774301993 
1792	 0.388203603682965 
1793	 0.388043068884726 
1794	 0.387906355363036 
1795	 0.387812911522643 
1796	 0.387695302513995 
1797	 0.387565002677083 
1798	 0.387442194614421 
1799	 0.387300903015909 
1800	 0.387186510216096 
1801	 0.379901755853165 
1802	 0.380240603985798 
1803	 0.38061791679719 
1804	 0.381068266243318 
1805	 0.381512946510234 
1806	 0.381865373735871 
1807	 0.382179134297842 
1808	 0.382415279826804 
1809	 0.38253539666293 
1810	 0.382658011482554 
1811	 0.382728793034222 
1812	 0.38282145969531 
1813	 0.382866636758432 
1814	 0.38288255327346 
1815	 0.382891422698562 
1816	 0.382861644862823 
1817	 0.382811936860745 
1818	 0.382713520902803 
1819	 0.382647571234502 
1820	 0.38258126230426 
1821	 0.382494942424141 
1822	 0.382434511305153 
1823	 0.382386132640003 
1824	 0.382316786173622 
1825	 0.382213274669476 
1826	 0.382075658440712 
1827	 0.381925300813563 
1828	 0.38176196222736 
1829	 0.381590959141579 
1830	 0.381381386011544 
1831	 0.381141906027355 
1832	 0.380895002457221 
1833	 0.380632819917871 
1834	 0.380377888395256 
1835	 0.380169075457482 
1836	 0.37997816134283 
1837	 0.379809604092126 
1838	 0.379657968294389 
1839	 0.379542321494131 
1840	 0.379467840368024 
1841	 0.379401486460869 
1842	 0.379333343806089 
1843	 0.379304249006384 
1844	 0.379275635110594 
1845	 0.379251209195208 
1846	 0.379245891737918 
1847	 0.379229184575262 
1848	 0.379193578926746 
1849	 0.37918808413552 
1850	 0.379193158196218 
1851	 0.379227026744739 
1852	 0.379230511747323 
1853	 0.379213974805909 
1854	 0.379179030231114 
1855	 0.379119660486179 
1856	 0.379054950719048 
1857	 0.379013193374349 
1858	 0.378968380838035 
1859	 0.378894008064996 
1860	 0.37877003854217 
1861	 0.378624447957566 
1862	 0.378431245603538 
1863	 0.37816857835213 
1864	 0.377823153725982 
1865	 0.377437640862165 
1866	 0.376946246454828 
1867	 0.376424395544055 
1868	 0.375881189233142 
1869	 0.375336539890562 
1870	 0.374902480788439 
1871	 0.374522284754897 
1872	 0.374203618916099 
1873	 0.373979349728273 
1874	 0.373747270542202 
1875	 0.373515533521645 
1876	 0.373269115852365 
1877	 0.372950996878126 
1878	 0.372592882550386 
1879	 0.372110009170358 
1880	 0.371491940563967 
1881	 0.370753671559663 
1882	 0.369892217730901 
1883	 0.368897891848883 
1884	 0.367787751918557 
1885	 0.366599682464482 
1886	 0.365315954988653 
1887	 0.363938452487744 
1888	 0.362512761074824 
1889	 0.360980955013337 
1890	 0.359379538018606 
1891	 0.357748627270794 
1892	 0.356050347381639 
1893	 0.354312519250256 
1894	 0.352528378403547 
1895	 0.350710859712817 
1896	 0.348844467052507 
1897	 0.346964891893127 
1898	 0.345069509736213 
1899	 0.343216942892311 
1900	 0.341459380577211 
1901	 0.339762379794084 
1902	 0.33819075068581 
1903	 0.336792444637899 
1904	 0.335409224560891 
1905	 0.334084994835647 
1906	 0.332859723414803 
1907	 0.331696356467098 
1908	 0.330550530621433 
1909	 0.32948257175125 
1910	 0.32846385235945 
1911	 0.327499802209296 
1912	 0.326601537316549 
1913	 0.325748537648323 
1914	 0.324945259834842 
1915	 0.324206364412412 
1916	 0.32352242743723 
1917	 0.322880458854016 
1918	 0.322315705921864 
1919	 0.321833922833615 
1920	 0.321421019175929 
1921	 0.321056154140686 
1922	 0.320744032708253 
1923	 0.320482270165045 
1924	 0.320247932191427 
1925	 0.320056463311707 
1926	 0.319887591518552 
1927	 0.319754457841895 
1928	 0.319644056098272 
1929	 0.319542796810287 
1930	 0.319494080254486 
1931	 0.319466028020938 
1932	 0.319437405710464 
1933	 0.319430467522578 
1934	 0.319409381472011 
1935	 0.319425698949045 
1936	 0.319439550818392 
1937	 0.31950853651933 
1938	 0.319641758658084 
1939	 0.319765915975815 
1940	 0.319901089920042 
1941	 0.320066743701631 
1942	 0.320253804464563 
1943	 0.320432524406674 
1944	 0.320661067734602 
1945	 0.320919134510691 
1946	 0.321170682969846 
1947	 0.321440073470285 
1948	 0.321698927331676 
1949	 0.321950872573301 
1950	 0.322213407060092 
1951	 0.322488000202339 
1952	 0.322738860760899 
1953	 0.322998200558744 
1954	 0.32331367622779 
1955	 0.323583448830728 
1956	 0.323871314139264 
1957	 0.324193241660325 
1958	 0.32453841402688 
1959	 0.324876342638661 
1960	 0.325259761372206 
1961	 0.325611927819019 
1962	 0.325951078171982 
1963	 0.326285556199641 
1964	 0.326621218022102 
1965	 0.326927888500104 
1966	 0.327244801932158 
1967	 0.327553276740988 
1968	 0.327861790250125 
1969	 0.328165130575529 
1970	 0.328479991456011 
1971	 0.328798063374736 
1972	 0.32911570465141 
1973	 0.329433531234027 
1974	 0.3297588188832 
1975	 0.330095112533312 
1976	 0.33041361182178 
1977	 0.330733428885754 
1978	 0.331087376949208 
1979	 0.331438494603858 
1980	 0.331784675721878 
1981	 0.332117379340517 
1982	 0.332449408330604 
1983	 0.332772943671201 
1984	 0.33307636924098 
1985	 0.333387909387918 
1986	 0.333712821993433 
1987	 0.334013257788603 
1988	 0.334294031999123 
1989	 0.334578044380334 
1990	 0.334861283065436 
1991	 0.335153802771818 
1992	 0.335446438511517 
1993	 0.335749969361179 
1994	 0.336052790392215 
1995	 0.336359959987536 
1996	 0.336655887585053 
1997	 0.336951717830979 
1998	 0.337248996216851 
1999	 0.337533259196558 
2000	 0.337822648193162 
2001	 0.338120016048868 
2002	 0.338419528454737 
2003	 0.338706146688094 
2004	 0.338999382384272 
2005	 0.339308469191717 
2006	 0.339632779943831 
2007	 0.339949110238508 
2008	 0.340274289820391 
2009	 0.340602428329739 
2010	 0.340935063548518 
2011	 0.341257207304947 
2012	 0.34157779621037 
2013	 0.341898891966945 
2014	 0.342208925069939 
2015	 0.342527307247399 
2016	 0.342845129123911 
2017	 0.343162903005342 
2018	 0.343465921866042 
2019	 0.343753905397957 
2020	 0.344039705000625 
2021	 0.344321349627595 
2022	 0.344596552225933 
2023	 0.344849243370108 
2024	 0.345125830753849 
2025	 0.34541885455794 
2026	 0.345693046449232 
2027	 0.34596452125087 
2028	 0.346251756747823 
2029	 0.346511310327465 
2030	 0.346743833376935 
2031	 0.34699410102379 
2032	 0.347252533009402 
2033	 0.347484672239151 
2034	 0.347708367345036 
2035	 0.347928232888357 
2036	 0.348125352629917 
2037	 0.348331372460372 
2038	 0.348550955325484 
2039	 0.348748551471446 
2040	 0.348925397675968 
2041	 0.349120335020565 
2042	 0.349281322865647 
2043	 0.349427094115584 
2044	 0.349582652575047 
2045	 0.349726632177051 
2046	 0.349878840445592 
2047	 0.35004870238625 
2048	 0.350198213755985 
2049	 0.350326548898838 
2050	 0.350476024586091 
2051	 0.350633129094131 
2052	 0.35077623484568 
2053	 0.350923888196964 
2054	 0.351074637272331 
2055	 0.351223327135882 
2056	 0.351351950156677 
2057	 0.35149395039557 
2058	 0.351656312276234 
2059	 0.351788910165961 
2060	 0.351905309212486 
2061	 0.352023156128208 
2062	 0.352129095157096 
2063	 0.352235122023661 
2064	 0.352347917562207 
2065	 0.35244245754493 
2066	 0.352509664970272 
2067	 0.352600213652007 
2068	 0.352681296418181 
2069	 0.352780003800313 
2070	 0.352890287713887 
2071	 0.353030883062898 
2072	 0.353140059035521 
2073	 0.353251718111506 
2074	 0.353342401842696 
2075	 0.353413794611222 
2076	 0.353488899447785 
2077	 0.353549056596432 
2078	 0.353618172612201 
2079	 0.353681913676823 
2080	 0.353756076734198 
2081	 0.353851612387643 
2082	 0.353925442543785 
2083	 0.353985096824824 
2084	 0.354064540845261 
2085	 0.354119871453465 
2086	 0.354157463078056 
2087	 0.354190019220168 
2088	 0.354206998854549 
2089	 0.354241969258187 
2090	 0.35427126281239 
2091	 0.354307837738441 
2092	 0.354363699554582 
2093	 0.354408776207587 
2094	 0.354437897312715 
2095	 0.354483040970753 
2096	 0.354546588582808 
2097	 0.354595781714547 
2098	 0.354629520534707 
2099	 0.35469278103568 
2100	 0.354739957673193 
2101	 0.354771611313325 
2102	 0.354824975020865 
2103	 0.354888263213066 
2104	 0.354953582756912 
2105	 0.355022358912647 
2106	 0.355102927780215 
2107	 0.355194515971968 
2108	 0.355285568806753 
2109	 0.355376442440493 
2110	 0.355485158348882 
2111	 0.355594606435573 
2112	 0.35572412725997 
2113	 0.355883390482576 
2114	 0.356043851605823 
2115	 0.356196554232836 
2116	 0.356359459747744 
2117	 0.356503079644226 
2118	 0.356629334884842 
2119	 0.356771494551204 
2120	 0.356920431888631 
2121	 0.357056731453881 
2122	 0.357200852441294 
2123	 0.357323770030139 
2124	 0.357440097393377 
2125	 0.357530344242001 
2126	 0.35758876170269 
2127	 0.357658922437212 
2128	 0.357700788653108 
2129	 0.357760689334948 
2130	 0.357837518778707 
2131	 0.357929238547113 
2132	 0.357976681665166 
2133	 0.358022654325571 
2134	 0.358028677984649 
2135	 0.357992807245301 
2136	 0.35795717322571 
2137	 0.357915226999076 
2138	 0.357837289441496 
2139	 0.357756512854587 
2140	 0.357613996319153 
2141	 0.357401919842562 
2142	 0.357202537925893 
2143	 0.356972639913781 
2144	 0.356730029042948 
2145	 0.356500423864212 
2146	 0.356229328392334 
2147	 0.355915407268689 
2148	 0.355591274967955 
2149	 0.355242309082707 
2150	 0.35485977769536 
2151	 0.354484539881926 
2152	 0.354101942133234 
2153	 0.353694452833036 
2154	 0.353285415080955 
2155	 0.352838004486391 
2156	 0.352360114984442 
2157	 0.351861449606833 
2158	 0.351321070368809 
2159	 0.350791723418689 
2160	 0.350259178443938 
2161	 0.34969766139924 
2162	 0.349147831258483 
2163	 0.348550608483994 
2164	 0.347889019360921 
2165	 0.347233337498605 
2166	 0.346578951960257 
2167	 0.345914213952304 
2168	 0.345225722999198 
2169	 0.344556564696864 
2170	 0.343814998249627 
2171	 0.343014233997298 
2172	 0.342211831700821 
2173	 0.341371700471114 
2174	 0.340528734117559 
2175	 0.339700502318279 
2176	 0.338804111758998 
2177	 0.337874030265186 
2178	 0.336905326157581 
2179	 0.335867652624644 
2180	 0.334823809337985 
2181	 0.333750926251735 
2182	 0.33266592273905 
2183	 0.331562274135184 
2184	 0.330425884486676 
2185	 0.329309736955376 
2186	 0.328178375466845 
2187	 0.327065017302457 
2188	 0.32595239388807 
2189	 0.324865726339422 
2190	 0.323763154259506 
2191	 0.322737967956779 
2192	 0.321700987336603 
2193	 0.320809722363696 
2194	 0.319984166475278 
2195	 0.319277261954379 
2196	 0.318721471315724 
2197	 0.318200948260513 
2198	 0.317785531738466 
2199	 0.317403248949929 
2200	 0.317033772239101 
2201	 0.31678471684132 
2202	 0.316607700449213 
2203	 0.316518447155988 
2204	 0.31654956476789 
2205	 0.316694252516944 
2206	 0.316944576354251 
2207	 0.31728688064603 
2208	 0.317774541556021 
2209	 0.318426424851316 
2210	 0.319110410993084 
2211	 0.319932989693994 
2212	 0.320762205364176 
2213	 0.321674046022542 
2214	 0.322562353913295 
2215	 0.323535095035058 
2216	 0.324419732842748 
2217	 0.325306299346897 
2218	 0.326097020959713 
2219	 0.326823250819477 
2220	 0.327498764745928 
2221	 0.32809405513367 
2222	 0.328642098842995 
2223	 0.329183350363839 
2224	 0.329660160706827 
2225	 0.330093569188141 
2226	 0.330486393702811 
2227	 0.330827113486175 
2228	 0.331100886455329 
2229	 0.331359407462284 
2230	 0.331581554917694 
2231	 0.331771445066115 
2232	 0.331934124948544 
2233	 0.332049437083598 
2234	 0.332113747327365 
2235	 0.332156933997419 
2236	 0.332151211284318 
2237	 0.33214022688359 
2238	 0.332094332539236 
2239	 0.332055529381814 
2240	 0.332024239158965 
2241	 0.331952187772905 
2242	 0.331842343308167 
2243	 0.331750446850978 
2244	 0.331658610063149 
2245	 0.331527893422724 
2246	 0.331397307036168 
2247	 0.331260321209356 
2248	 0.331119461789309 
2249	 0.330949077833097 
2250	 0.330789422521901 
2251	 0.330643574713279 
2252	 0.330481593675374 
2253	 0.330281146772591 
2254	 0.33012418397881 
2255	 0.329985062820431 
2256	 0.329859716800416 
2257	 0.329746406979284 
2258	 0.329653989878591 
2259	 0.32958172228913 
2260	 0.329516588164182 
2261	 0.329473979930073 
2262	 0.329439805719577 
2263	 0.329407025989557 
2264	 0.329399881589806 
2265	 0.329423527858794 
2266	 0.329436235879447 
2267	 0.329456458157231 
2268	 0.329487050576794 
2269	 0.329533776867036 
2270	 0.329554617198434 
2271	 0.329603648838327 
2272	 0.329659001443434 
2273	 0.329684926214785 
2274	 0.329767218328445 
2275	 0.329840520876314 
2276	 0.329921257206707 
2277	 0.330007034325334 
2278	 0.330118703290636 
2279	 0.330190634777101 
2280	 0.330231929775103 
2281	 0.330314897289505 
2282	 0.3304062677643 
2283	 0.330492382809363 
2284	 0.330646766198103 
2285	 0.330696637913168 
2286	 0.330663884506 
2287	 0.330653952688108 
2288	 0.330592578153437 
2289	 0.330565934372946 
2290	 0.330570143587732 
2291	 0.330552967175678 
2292	 0.33053140540699 
2293	 0.330501202590786 
2294	 0.330443499676669 
2295	 0.330418296504616 
2296	 0.330426035541882 
2297	 0.330396547889862 
2298	 0.330374017753055 
2299	 0.330323719932344 
2300	 0.330224826226638 
2301	 0.330118119775152 
2302	 0.329993096858477 
2303	 0.329863278809298 
2304	 0.329707456674356 
2305	 0.32952417742986 
2306	 0.329343444288697 
2307	 0.329152135291502 
2308	 0.32895616196656 
2309	 0.328739989579307 
2310	 0.328546174233507 
2311	 0.328359054305997 
2312	 0.328145557860142 
2313	 0.327955592143171 
2314	 0.327721045044869 
2315	 0.327447560319007 
2316	 0.327171597298407 
2317	 0.326881247759738 
2318	 0.326568185678025 
2319	 0.326185601534512 
2320	 0.325885746574405 
2321	 0.325605504347023 
2322	 0.325341473935873 
2323	 0.325167725956571 
2324	 0.324931328240458 
2325	 0.324650643573537 
2326	 0.324390795764993 
2327	 0.324121585211182 
2328	 0.323863929307313 
2329	 0.323609052988382 
2330	 0.323358628163079 
2331	 0.323053086685656 
2332	 0.322653989063327 
2333	 0.322218583947145 
2334	 0.321806728848539 
2335	 0.321407783131945 
2336	 0.321006453595519 
2337	 0.320679491310778 
2338	 0.320342899398324 
2339	 0.320001238759214 
2340	 0.319730974809772 
2341	 0.319431992198917 
2342	 0.319134208965182 
2343	 0.318837143846122 
2344	 0.318514895842474 
2345	 0.318204417873046 
2346	 0.317893213601798 
2347	 0.317581176948687 
2348	 0.317255658451234 
2349	 0.3169660716998 
2350	 0.316679273890816 
2351	 0.316416363407228 
2352	 0.316175280922096 
2353	 0.315977432860385 
2354	 0.315815710543216 
2355	 0.315663631785479 
2356	 0.315580354076078 
2357	 0.315424853734872 
2358	 0.315256004360235 
2359	 0.315064426156631 
2360	 0.314798429513137 
2361	 0.31459887093433 
2362	 0.314404840023137 
2363	 0.314240243186938 
2364	 0.314195379404905 
2365	 0.314026951491733 
2366	 0.313804864592828 
2367	 0.313557503837419 
2368	 0.313188435670101 
2369	 0.312868491034993 
2370	 0.312546713868168 
2371	 0.312300367445313 
2372	 0.312012141852596 
2373	 0.3116680099219 
2374	 0.311296314939753 
2375	 0.310928452441495 
2376	 0.310539516513542 
2377	 0.310154266608766 
2378	 0.309840303617558 
2379	 0.30945408703088 
2380	 0.308980515849984 
2381	 0.308584153716766 
2382	 0.308078110807236 
2383	 0.307613187101207 
2384	 0.307303064188265 
2385	 0.306875928637742 
2386	 0.306561001571731 
2387	 0.306217674880134 
2388	 0.305749760522488 
2389	 0.305414920274783 
2390	 0.305035999505193 
2391	 0.304666693425825 
2392	 0.304354823833839 
2393	 0.303964619121811 
2394	 0.303533243733515 
2395	 0.303083086261681 
2396	 0.302661525503904 
2397	 0.302256021430784 
2398	 0.30183568384584 
2399	 0.301474018163125 
2400	 0.301089648913914 
2401	 0.30065119439447 
2402	 0.300195178943971 
2403	 0.299642916666512 
2404	 0.299053481392544 
2405	 0.298409430950189 
2406	 0.297778220942458 
2407	 0.297289449096337 
2408	 0.296769738017867 
2409	 0.296248353628865 
2410	 0.295777473304411 
2411	 0.295176170550675 
2412	 0.29460278106815 
2413	 0.294080515984926 
2414	 0.293536861451562 
2415	 0.293021571740531 
2416	 0.292477581768481 
2417	 0.291938756620168 
2418	 0.291351608072427 
2419	 0.29072338236489 
2420	 0.290100168319219 
2421	 0.289380980806684 
2422	 0.288800472332564 
2423	 0.288302097836542 
2424	 0.287776592164499 
2425	 0.287348775057521 
2426	 0.286816445588106 
2427	 0.286211516543342 
2428	 0.285628932975686 
2429	 0.28504824320835 
2430	 0.284445392803388 
2431	 0.283798295089629 
2432	 0.28318637103114 
2433	 0.282526712683027 
2434	 0.281999013333361 
2435	 0.281558653813772 
2436	 0.28112199811188 
2437	 0.280814151091742 
2438	 0.280414055364888 
2439	 0.279974271926085 
2440	 0.279483331568496 
2441	 0.278935087560682 
2442	 0.278446304941749 
2443	 0.277886218610549 
2444	 0.277505599883512 
2445	 0.277299398073258 
2446	 0.276977878374358 
2447	 0.276659762759863 
2448	 0.276385590847284 
2449	 0.27612565437904 
2450	 0.275712876335567 
2451	 0.275343119495925 
2452	 0.274869336085064 
2453	 0.274152481011849 
2454	 0.27368096617792 
2455	 0.273237603089598 
2456	 0.272887447633739 
2457	 0.272686633664429 
2458	 0.272427466967734 
2459	 0.272228602212768 
2460	 0.271948871056416 
2461	 0.271653118218937 
2462	 0.271363566135225 
2463	 0.271109868620891 
2464	 0.270724308272737 
2465	 0.270188274737415 
2466	 0.269831751454694 
2467	 0.269441826094244 
2468	 0.269072291847442 
2469	 0.268887735531149 
2470	 0.268548144187256 
2471	 0.268181235573941 
2472	 0.268021022361993 
2473	 0.267708524682924 
2474	 0.267403566814102 
2475	 0.267270907444754 
2476	 0.266946108434244 
2477	 0.266718491376329 
2478	 0.266444008590874 
2479	 0.265800154845993 
2480	 0.265347786580318 
2481	 0.264985666942078 
2482	 0.264564378928862 
2483	 0.264463927322851 
2484	 0.26433844667952 
2485	 0.263952891068176 
2486	 0.263626361254282 
2487	 0.263325189044271 
2488	 0.262960230005082 
2489	 0.262832086757201 
2490	 0.262706996630704 
2491	 0.262461969229005 
2492	 0.262196412632183 
2493	 0.261671499455126 
2494	 0.261207730021253 
2495	 0.260967796959523 
2496	 0.26078585801058 
2497	 0.260660605053781 
2498	 0.26055577265556 
2499	 0.260319801513909 
2500	 0.259843641932071 
