Wavelength	LMW_2100003.asd
350	 8.70553082757603E-02 
351	 9.30839151092101E-02 
352	 9.77085044334854E-02 
353	 9.78797592529461E-02 
354	 9.29069090579043E-02 
355	 9.26778915753692E-02 
356	 0.094936935677691 
357	 0.09648626959663 
358	 0.10481623167506 
359	 0.107050688921399 
360	 0.105144433790045 
361	 0.109466870539082 
362	 0.109732380957935 
363	 0.108139497283073 
364	 0.108267127318001 
365	 0.113857718188737 
366	 0.1146851812477 
367	 0.114590160471142 
368	 0.118455264293195 
369	 0.118654136965654 
370	 0.120616590459886 
371	 0.124015329882649 
372	 0.124874993524471 
373	 0.126827228701128 
374	 0.130206959391292 
375	 0.134343043282623 
376	 0.137967377892186 
377	 0.136092884881993 
378	 0.133920350023787 
379	 0.136838643354455 
380	 0.137279776228214 
381	 0.136763696602615 
382	 0.137874662775927 
383	 0.143033335924201 
384	 0.145934963799947 
385	 0.145271078396154 
386	 0.14331462952603 
387	 0.147727905071563 
388	 0.150229112872221 
389	 0.151375932843577 
390	 0.153606914383253 
391	 0.153914938425402 
392	 0.155200431172894 
393	 0.158604705281092 
394	 0.163337897173213 
395	 0.165395767942555 
396	 0.166427645812865 
397	 0.168105214676066 
398	 0.170132584710834 
399	 0.170823395133057 
400	 0.171482002932552 
401	 0.173667013885122 
402	 0.17346272834089 
403	 0.174387272580931 
404	 0.176639515245661 
405	 0.176809642268802 
406	 0.176806355145784 
407	 0.178103573351563 
408	 0.180333201984446 
409	 0.178504961984469 
410	 0.177976275124379 
411	 0.179251103775456 
412	 0.180495819579684 
413	 0.181318101707884 
414	 0.181780468485168 
415	 0.181863423722772 
416	 0.181314598443492 
417	 0.181313021943028 
418	 0.181993931815183 
419	 0.18295343021747 
420	 0.183172078468736 
421	 0.182568810794009 
422	 0.182033655360985 
423	 0.182765453713688 
424	 0.18240713277404 
425	 0.181517384613987 
426	 0.180864177925301 
427	 0.18090323881596 
428	 0.180876088331519 
429	 0.180638647573745 
430	 0.180283172118661 
431	 0.179943134968477 
432	 0.179608217242167 
433	 0.179552376383915 
434	 0.180261301633265 
435	 0.18002791977518 
436	 0.17995132087402 
437	 0.180952858363957 
438	 0.182005382684097 
439	 0.18361704816685 
440	 0.18571493821184 
441	 0.187907665973214 
442	 0.189808158859419 
443	 0.191308131752848 
444	 0.192474859871735 
445	 0.193565908103353 
446	 0.194294033578929 
447	 0.194756658124891 
448	 0.195199028970668 
449	 0.196038490186589 
450	 0.196458562037476 
451	 0.196503053631673 
452	 0.196934310272032 
453	 0.197308912275149 
454	 0.19747444411128 
455	 0.197559577646078 
456	 0.198338747299826 
457	 0.198574955181405 
458	 0.198493684129439 
459	 0.19885671600146 
460	 0.198934099263633 
461	 0.199034015625348 
462	 0.199253530208985 
463	 0.199264380551325 
464	 0.199509774230503 
465	 0.199838108313612 
466	 0.200007840654537 
467	 0.200133968973472 
468	 0.200245357798173 
469	 0.200289037585307 
470	 0.200173556471611 
471	 0.200272982134868 
472	 0.200405250987384 
473	 0.20040467122148 
474	 0.200362191097937 
475	 0.200367298552714 
476	 0.200399962621691 
477	 0.200416846238084 
478	 0.200635872364594 
479	 0.200787765596186 
480	 0.20075613958257 
481	 0.200683573474508 
482	 0.200760315272051 
483	 0.200907538996375 
484	 0.200986584426505 
485	 0.200994526570401 
486	 0.200905805106127 
487	 0.200773126675877 
488	 0.200705542631521 
489	 0.200638598289301 
490	 0.200545314900177 
491	 0.20045286876365 
492	 0.200527702183281 
493	 0.200473590382487 
494	 0.200349514449965 
495	 0.200362147834525 
496	 0.20044447701592 
497	 0.200448033570164 
498	 0.200320162279583 
499	 0.200147796935759 
500	 0.200136703486429 
501	 0.200166396057168 
502	 0.200043800502334 
503	 0.199711310753239 
504	 0.199587757775805 
505	 0.199659749650154 
506	 0.199522313364586 
507	 0.199278874017367 
508	 0.19911171070799 
509	 0.199106425099521 
510	 0.199063312061617 
511	 0.198920832782863 
512	 0.198745797831113 
513	 0.198662737306308 
514	 0.198601022730403 
515	 0.19844544554529 
516	 0.198211468501175 
517	 0.198142606923035 
518	 0.198080184745299 
519	 0.197915087052621 
520	 0.197613434409231 
521	 0.19741834339957 
522	 0.197337722240105 
523	 0.197301342088163 
524	 0.197177928223677 
525	 0.197021741572961 
526	 0.196857397511619 
527	 0.19669385779737 
528	 0.196499491526327 
529	 0.196340617111013 
530	 0.196204032632255 
531	 0.196028070718502 
532	 0.195835829037033 
533	 0.195733107805199 
534	 0.195705468711024 
535	 0.195450328442875 
536	 0.195294823333647 
537	 0.195154928002912 
538	 0.194856640056606 
539	 0.194782230775617 
540	 0.194678219709827 
541	 0.194473118870396 
542	 0.19440195806932 
543	 0.194302466233778 
544	 0.194159647799944 
545	 0.193985214931613 
546	 0.193716613560525 
547	 0.193522942777915 
548	 0.193419113800639 
549	 0.1932842975932 
550	 0.193089466998636 
551	 0.192886233053137 
552	 0.192732623824333 
553	 0.192672150488887 
554	 0.192552668360009 
555	 0.192379874465398 
556	 0.192244051212382 
557	 0.192161782989324 
558	 0.192039849162087 
559	 0.191883493185731 
560	 0.19190177902485 
561	 0.19185124859704 
562	 0.191724898785541 
563	 0.191595645876967 
564	 0.191482888337173 
565	 0.191369048552473 
566	 0.191230746761681 
567	 0.191043370591165 
568	 0.190921614100814 
569	 0.190788596670027 
570	 0.190561879687907 
571	 0.190289823500743 
572	 0.190061981850692 
573	 0.189915080405113 
574	 0.189834456613497 
575	 0.189701890978464 
576	 0.189553444634301 
577	 0.189413699995168 
578	 0.189215087633056 
579	 0.18905463277239 
580	 0.188875473929735 
581	 0.188587753994496 
582	 0.188361799325881 
583	 0.188191630315392 
584	 0.188067430845071 
585	 0.187995780413389 
586	 0.188038430397249 
587	 0.188097684027173 
588	 0.188060618917017 
589	 0.187963377509011 
590	 0.187919247804993 
591	 0.187886085763489 
592	 0.187691971212822 
593	 0.187566634690874 
594	 0.187546924819135 
595	 0.187587905832769 
596	 0.187554085992545 
597	 0.187431589719107 
598	 0.187258511558883 
599	 0.18709929629436 
600	 0.186936380350617 
601	 0.186776609543824 
602	 0.186631184944055 
603	 0.186510265830892 
604	 0.186483117049722 
605	 0.186483075271063 
606	 0.186401734531546 
607	 0.186199862502112 
608	 0.186043780114613 
609	 0.18598757105455 
610	 0.185943064564028 
611	 0.185809259623475 
612	 0.185683719181638 
613	 0.185644722618645 
614	 0.18551885005681 
615	 0.185424856171791 
616	 0.185370668843525 
617	 0.185290415688244 
618	 0.185236338464391 
619	 0.185145525186999 
620	 0.185004780998438 
621	 0.184947675794964 
622	 0.184865202137339 
623	 0.184744352283733 
624	 0.184620167679206 
625	 0.18458278132792 
626	 0.184496873618296 
627	 0.184342810190541 
628	 0.184274490180164 
629	 0.184258346233501 
630	 0.18423509862654 
631	 0.18415832779221 
632	 0.184072942164321 
633	 0.183978206954969 
634	 0.183885622432138 
635	 0.183814507232946 
636	 0.183742617632859 
637	 0.183675982855288 
638	 0.183608738632347 
639	 0.183484129834637 
640	 0.183422198192492 
641	 0.183377138370907 
642	 0.183254613667665 
643	 0.183244246699414 
644	 0.18319565828358 
645	 0.183067357058166 
646	 0.183021208164955 
647	 0.182955485713143 
648	 0.182879291034122 
649	 0.182815161482177 
650	 0.182699045620595 
651	 0.182646709042003 
652	 0.182643194341902 
653	 0.182562880966545 
654	 0.182480157496786 
655	 0.182394909303603 
656	 0.182306964119028 
657	 0.182248802117608 
658	 0.182198312645571 
659	 0.182141573640323 
660	 0.18206740362262 
661	 0.181952173320075 
662	 0.181866384507008 
663	 0.181835568275344 
664	 0.181811437356808 
665	 0.181706692707666 
666	 0.181597855113859 
667	 0.181558023630193 
668	 0.181420614649618 
669	 0.181333099205796 
670	 0.181296357718275 
671	 0.181191578844153 
672	 0.181119099352921 
673	 0.181075172792079 
674	 0.181042205555246 
675	 0.181024507006692 
676	 0.180913946731071 
677	 0.180777576240312 
678	 0.180729531412554 
679	 0.180602904986175 
680	 0.180498126422262 
681	 0.180461160457337 
682	 0.180439502122555 
683	 0.180334749931153 
684	 0.180200811543943 
685	 0.180105064521532 
686	 0.179989111533716 
687	 0.179929483756227 
688	 0.179896124985896 
689	 0.179792297959345 
690	 0.179704912698505 
691	 0.179606307175436 
692	 0.179485998686846 
693	 0.179398589591376 
694	 0.179337394302825 
695	 0.179275293365491 
696	 0.179185471246891 
697	 0.179097081227785 
698	 0.179011949199476 
699	 0.178924648337358 
700	 0.178825362835069 
701	 0.178773020609516 
702	 0.17869345400648 
703	 0.178547570800798 
704	 0.178470941948798 
705	 0.178432747305675 
706	 0.178360003906355 
707	 0.178185438641356 
708	 0.178085751019183 
709	 0.178025861503741 
710	 0.177951443266623 
711	 0.177812857018201 
712	 0.177744219392108 
713	 0.177690124226193 
714	 0.177584964548328 
715	 0.177551445027833 
716	 0.177460474045201 
717	 0.17730913277601 
718	 0.177190418192871 
719	 0.177125096214806 
720	 0.17708396701338 
721	 0.177026847055577 
722	 0.176906300090853 
723	 0.176803359340105 
724	 0.176718607201276 
725	 0.176625620818997 
726	 0.176515669451007 
727	 0.176426490638038 
728	 0.176352455939706 
729	 0.176249197448578 
730	 0.176155103839051 
731	 0.176083352515521 
732	 0.176029404279617 
733	 0.175960173673836 
734	 0.175884740541989 
735	 0.175798444289951 
736	 0.175695814495481 
737	 0.17559236647977 
738	 0.175504774151439 
739	 0.175431753284344 
740	 0.175353615242996 
741	 0.175307076360458 
742	 0.175228531114251 
743	 0.175085828821789 
744	 0.174982866281202 
745	 0.174910552050208 
746	 0.174861744763751 
747	 0.174817308967211 
748	 0.174691045343418 
749	 0.174595861475472 
750	 0.174558857706909 
751	 0.174483249891741 
752	 0.1743733921418 
753	 0.174265312233416 
754	 0.174190032316851 
755	 0.174141146299027 
756	 0.17406439951199 
757	 0.173979360167754 
758	 0.173932107939537 
759	 0.173855717868187 
760	 0.173734003058453 
761	 0.173607657249395 
762	 0.173577259402459 
763	 0.173506696131792 
764	 0.173416090998583 
765	 0.17334387396988 
766	 0.173263337957438 
767	 0.173211688626281 
768	 0.173173792332293 
769	 0.173105761742107 
770	 0.172967784592329 
771	 0.172857071133116 
772	 0.172803681793742 
773	 0.172743549005616 
774	 0.172714814251937 
775	 0.172653793886939 
776	 0.172531827249866 
777	 0.172476494776245 
778	 0.172379286141821 
779	 0.172294447234606 
780	 0.172306501503272 
781	 0.172192587804685 
782	 0.172101533406351 
783	 0.172062534554731 
784	 0.171955386484836 
785	 0.171900635486095 
786	 0.171859786186445 
787	 0.171784800925489 
788	 0.17166840828313 
789	 0.171638315780194 
790	 0.171618639088171 
791	 0.171499651473583 
792	 0.171446638512748 
793	 0.171387427092665 
794	 0.171311811618428 
795	 0.171268684481168 
796	 0.171216762570571 
797	 0.171167060607729 
798	 0.171116791344961 
799	 0.17102179711658 
800	 0.170945407884179 
801	 0.170886346470546 
802	 0.170823299664517 
803	 0.170741285130984 
804	 0.170683420002057 
805	 0.17063298846797 
806	 0.170542150085901 
807	 0.170448151734165 
808	 0.170377099821727 
809	 0.170332388512624 
810	 0.170290214339128 
811	 0.170284257641517 
812	 0.17025904052867 
813	 0.17017972803595 
814	 0.170120022618653 
815	 0.170041781930897 
816	 0.169948919369032 
817	 0.169874655268044 
818	 0.16991553979201 
819	 0.169903291253453 
820	 0.169814972620322 
821	 0.16975937457097 
822	 0.169681918947304 
823	 0.16960852708561 
824	 0.169554541305748 
825	 0.16950066271609 
826	 0.169451266550767 
827	 0.169416499855221 
828	 0.169385110131975 
829	 0.169264373374163 
830	 0.169212065605485 
831	 0.169189755610618 
832	 0.169090239457685 
833	 0.169041257036241 
834	 0.168992625703554 
835	 0.168917879492049 
836	 0.168830611016434 
837	 0.168809110058798 
838	 0.168801815173879 
839	 0.168754924613405 
840	 0.168649821922776 
841	 0.168569628240103 
842	 0.168553018801453 
843	 0.16857626331225 
844	 0.168464869948303 
845	 0.168450058741815 
846	 0.168460684216782 
847	 0.168339772387501 
848	 0.16832277518739 
849	 0.168302704334215 
850	 0.168237175531105 
851	 0.168160929635345 
852	 0.168123416064949 
853	 0.168048171239776 
854	 0.167934429846426 
855	 0.167912289001131 
856	 0.167850681994006 
857	 0.167846267270018 
858	 0.167922541787915 
859	 0.167774222865507 
860	 0.167682224975555 
861	 0.167644247595888 
862	 0.167572928347887 
863	 0.167484594464334 
864	 0.167420563789889 
865	 0.167376796858763 
866	 0.167325097228081 
867	 0.1672904329307 
868	 0.16728295463764 
869	 0.167287597930843 
870	 0.167266084908723 
871	 0.167195675840901 
872	 0.167124770234895 
873	 0.167072245564616 
874	 0.166990117830378 
875	 0.166924616522384 
876	 0.166918273366323 
877	 0.166948876370601 
878	 0.166829114015988 
879	 0.166734250044028 
880	 0.166708526340596 
881	 0.166729531798177 
882	 0.166727301944557 
883	 0.166653569511985 
884	 0.16654319633952 
885	 0.166471052752609 
886	 0.166434860822301 
887	 0.166381872295056 
888	 0.166336700068414 
889	 0.166371930662222 
890	 0.166337522632823 
891	 0.166221106234863 
892	 0.166084975509439 
893	 0.166049775272678 
894	 0.166094900110847 
895	 0.166107867865857 
896	 0.166049143311569 
897	 0.166042255930624 
898	 0.16601355464478 
899	 0.16594469378089 
900	 0.165857525284071 
901	 0.165842818113837 
902	 0.165799268408887 
903	 0.165733257192702 
904	 0.165682812454516 
905	 0.165651822442263 
906	 0.165619290934185 
907	 0.165601869168373 
908	 0.165614957038724 
909	 0.165579943897171 
910	 0.165483648607554 
911	 0.165417701265389 
912	 0.165480227141987 
913	 0.165352252836283 
914	 0.165240293865699 
915	 0.165221468838999 
916	 0.165211710148815 
917	 0.165166349493122 
918	 0.165163475060377 
919	 0.165184561643096 
920	 0.165098456300169 
921	 0.165049307068174 
922	 0.164997459112351 
923	 0.164922043197343 
924	 0.164872884049997 
925	 0.164839762265892 
926	 0.164859856088941 
927	 0.164881777937583 
928	 0.164688222987463 
929	 0.164621447822814 
930	 0.164666601265066 
931	 0.164703561516796 
932	 0.164603212431908 
933	 0.164594860155933 
934	 0.164592376016312 
935	 0.164492937137717 
936	 0.164429483039696 
937	 0.164337598962477 
938	 0.164277485086837 
939	 0.164295468080525 
940	 0.164257665374418 
941	 0.164212791334962 
942	 0.164227554488991 
943	 0.164308821172432 
944	 0.164221554693622 
945	 0.164101187799568 
946	 0.164008405728976 
947	 0.163959879891387 
948	 0.163973589433608 
949	 0.163869895237449 
950	 0.163760156442003 
951	 0.163833060751028 
952	 0.163855023626723 
953	 0.163850402482022 
954	 0.163848170958786 
955	 0.163852843502735 
956	 0.16374705718708 
957	 0.163684779421649 
958	 0.163666789325105 
959	 0.163613357017776 
960	 0.163630668160572 
961	 0.163616301297371 
962	 0.163556402717904 
963	 0.163498889448941 
964	 0.163417007725908 
965	 0.163424695761326 
966	 0.163468977640717 
967	 0.163421176769656 
968	 0.163467510540626 
969	 0.163365957997357 
970	 0.163197726153292 
971	 0.163205339656884 
972	 0.163076827060843 
973	 0.162977417956406 
974	 0.162973186006071 
975	 0.163027072974137 
976	 0.163092940238614 
977	 0.163095487629495 
978	 0.162975852613429 
979	 0.162765851660008 
980	 0.162885857000129 
981	 0.162855082018897 
982	 0.162680492624391 
983	 0.162674907891108 
984	 0.162831272066177 
985	 0.162753134316468 
986	 0.162528837547611 
987	 0.162481010385777 
988	 0.16249505952063 
989	 0.162533342203277 
990	 0.162536798233214 
991	 0.162463117902395 
992	 0.162366806810764 
993	 0.162273724408823 
994	 0.162266213159773 
995	 0.162359994516275 
996	 0.162226636556028 
997	 0.162278207011366 
998	 0.162409119968732 
999	 0.162392740038954 
1000	 0.162399097552966 
1001	 0.157643755607007 
1002	 0.157646290339811 
1003	 0.157721488749634 
1004	 0.157746228827041 
1005	 0.157725061461552 
1006	 0.15767997261826 
1007	 0.15763268011746 
1008	 0.157555237311085 
1009	 0.157456319413969 
1010	 0.157375178894884 
1011	 0.157343070779882 
1012	 0.157332666246757 
1013	 0.157304304739451 
1014	 0.157258404572121 
1015	 0.15724410042473 
1016	 0.157237294076271 
1017	 0.157216235142253 
1018	 0.15719547003722 
1019	 0.157160417777086 
1020	 0.157134689764986 
1021	 0.157130752407823 
1022	 0.157083677474742 
1023	 0.157071298897303 
1024	 0.157018731155424 
1025	 0.15687146791675 
1026	 0.156779284148925 
1027	 0.156724835198806 
1028	 0.156704699764301 
1029	 0.156695513613852 
1030	 0.156646061210787 
1031	 0.156608759623872 
1032	 0.156551760292759 
1033	 0.15648839412405 
1034	 0.156451602413139 
1035	 0.156456788707346 
1036	 0.156444329417038 
1037	 0.156395178706994 
1038	 0.15633900139379 
1039	 0.15629727800478 
1040	 0.156242380973295 
1041	 0.15619499387946 
1042	 0.156182947685629 
1043	 0.156132297985722 
1044	 0.156073633068204 
1045	 0.15600693688462 
1046	 0.155931286150815 
1047	 0.155852667063806 
1048	 0.155816753502679 
1049	 0.155785881819885 
1050	 0.155761121964661 
1051	 0.155721625319777 
1052	 0.155679796725697 
1053	 0.155634216809398 
1054	 0.155583897585503 
1055	 0.155517620378375 
1056	 0.155454500314172 
1057	 0.155414156017409 
1058	 0.155397919382786 
1059	 0.155348380417642 
1060	 0.155313699751594 
1061	 0.155239151420403 
1062	 0.155156832761543 
1063	 0.15513954300245 
1064	 0.155108095405697 
1065	 0.155094177292975 
1066	 0.155065487063475 
1067	 0.154975690872227 
1068	 0.15493342706624 
1069	 0.154944330633111 
1070	 0.154903571104226 
1071	 0.154868046785623 
1072	 0.154788727564502 
1073	 0.15462363113635 
1074	 0.154526561881866 
1075	 0.154426554467274 
1076	 0.1543765446842 
1077	 0.154369546786847 
1078	 0.154384251457179 
1079	 0.154336264672524 
1080	 0.154311796977831 
1081	 0.154300784563975 
1082	 0.154226494622464 
1083	 0.154171655894888 
1084	 0.154130639070223 
1085	 0.15407386556332 
1086	 0.153998160250171 
1087	 0.153944362578794 
1088	 0.15390611078661 
1089	 0.15384737464774 
1090	 0.153791165861753 
1091	 0.153736412143715 
1092	 0.153693725067252 
1093	 0.15366810759904 
1094	 0.153652365141822 
1095	 0.153646081231045 
1096	 0.153632253939247 
1097	 0.153602568751904 
1098	 0.15356091839761 
1099	 0.153504968546455 
1100	 0.153456133167559 
1101	 0.153387733021071 
1102	 0.153333690944742 
1103	 0.153292929582813 
1104	 0.153244381425322 
1105	 0.153192869070724 
1106	 0.153173955141182 
1107	 0.153151312038978 
1108	 0.153088316552559 
1109	 0.15303549247737 
1110	 0.152999457806152 
1111	 0.152968922589612 
1112	 0.152965377234754 
1113	 0.152931478356142 
1114	 0.152880292782932 
1115	 0.152843170432852 
1116	 0.152803056411965 
1117	 0.152764261392855 
1118	 0.152747234217372 
1119	 0.152697106696863 
1120	 0.152656173451273 
1121	 0.15260602712166 
1122	 0.152537660160226 
1123	 0.152522349527082 
1124	 0.152499404326601 
1125	 0.152486080228143 
1126	 0.152439658595908 
1127	 0.152396488778103 
1128	 0.15234555491771 
1129	 0.152253620055013 
1130	 0.152205112943601 
1131	 0.152180375108571 
1132	 0.152146460993326 
1133	 0.152122584014281 
1134	 0.152093064262514 
1135	 0.152059255742313 
1136	 0.152042546262756 
1137	 0.152002299227637 
1138	 0.151949106375256 
1139	 0.15190000223712 
1140	 0.151837579938107 
1141	 0.151788675922542 
1142	 0.151746593181287 
1143	 0.151702991787451 
1144	 0.151657464725747 
1145	 0.151616059634283 
1146	 0.151584070546656 
1147	 0.151544246782105 
1148	 0.15150597431191 
1149	 0.15146208680278 
1150	 0.151410869820669 
1151	 0.151361432452908 
1152	 0.151296539687924 
1153	 0.151231191298456 
1154	 0.151175091755443 
1155	 0.151106407406364 
1156	 0.151064789885251 
1157	 0.151050671350003 
1158	 0.151017773901468 
1159	 0.150993834801467 
1160	 0.150957892728347 
1161	 0.150890895559941 
1162	 0.150858618453337 
1163	 0.150868198997001 
1164	 0.15083470357242 
1165	 0.150790865631219 
1166	 0.150750472952917 
1167	 0.150699481145513 
1168	 0.150612457808584 
1169	 0.150561320723539 
1170	 0.150544223278227 
1171	 0.150491081053611 
1172	 0.150422762033578 
1173	 0.150365192675647 
1174	 0.150291858021214 
1175	 0.150238321750762 
1176	 0.150195074130765 
1177	 0.150157508841818 
1178	 0.150141951132627 
1179	 0.150107011465154 
1180	 0.150062800599124 
1181	 0.150028241392375 
1182	 0.149994620858733 
1183	 0.149948043795882 
1184	 0.149909134975274 
1185	 0.149885741830436 
1186	 0.14984277810936 
1187	 0.149783393990288 
1188	 0.149736891789362 
1189	 0.149695926477705 
1190	 0.149644942071824 
1191	 0.149584808561357 
1192	 0.149537363603818 
1193	 0.149480774274637 
1194	 0.149442852803451 
1195	 0.14943741835536 
1196	 0.149410223868537 
1197	 0.149372813367676 
1198	 0.149343647440879 
1199	 0.149314258096703 
1200	 0.149281061229562 
1201	 0.149239819050105 
1202	 0.149203571071548 
1203	 0.149159210660395 
1204	 0.14909143499659 
1205	 0.149047302155568 
1206	 0.149015928085001 
1207	 0.148981693710408 
1208	 0.148953927499298 
1209	 0.148923309232202 
1210	 0.148903182448424 
1211	 0.148864062182071 
1212	 0.148813646452471 
1213	 0.148763947356746 
1214	 0.148690305227133 
1215	 0.148635305123907 
1216	 0.148588372686601 
1217	 0.148552156206265 
1218	 0.148512224166969 
1219	 0.148485606653916 
1220	 0.148441919861711 
1221	 0.14838499896386 
1222	 0.148341178433501 
1223	 0.148294136627602 
1224	 0.148254672404654 
1225	 0.148232057980997 
1226	 0.148195602920363 
1227	 0.148156578157776 
1228	 0.148112776211784 
1229	 0.148062737857606 
1230	 0.148010062730268 
1231	 0.147936612205113 
1232	 0.147887593030798 
1233	 0.147848214651671 
1234	 0.147822047299819 
1235	 0.147777148808796 
1236	 0.147742361154213 
1237	 0.147695807807059 
1238	 0.147620665515462 
1239	 0.147573783566481 
1240	 0.147546838044282 
1241	 0.147508616530983 
1242	 0.147473494465796 
1243	 0.147434121774307 
1244	 0.147396936858664 
1245	 0.147348405936563 
1246	 0.147281812911826 
1247	 0.147232770370029 
1248	 0.147194810342288 
1249	 0.147138084714639 
1250	 0.147096512712909 
1251	 0.147057405782464 
1252	 0.146996772502294 
1253	 0.146902961207375 
1254	 0.146852236187341 
1255	 0.146813482870575 
1256	 0.146769339413758 
1257	 0.146752313649652 
1258	 0.146710560384275 
1259	 0.14664945105111 
1260	 0.14659210411448 
1261	 0.146523639610339 
1262	 0.146469134572052 
1263	 0.146418013355257 
1264	 0.146368695794282 
1265	 0.146335428696908 
1266	 0.146292311442052 
1267	 0.146238248997742 
1268	 0.146192727983157 
1269	 0.146143027101592 
1270	 0.146093847299395 
1271	 0.146036752610889 
1272	 0.145969471076794 
1273	 0.145918184130977 
1274	 0.145868446509805 
1275	 0.14581839105638 
1276	 0.145778864076142 
1277	 0.145738024173152 
1278	 0.145695357697459 
1279	 0.145650810664911 
1280	 0.145621232219594 
1281	 0.145570223052188 
1282	 0.145485678626073 
1283	 0.145428660200634 
1284	 0.145377532780265 
1285	 0.145329893509227 
1286	 0.14528950590468 
1287	 0.145253781118942 
1288	 0.145207076797439 
1289	 0.145147523411052 
1290	 0.145096652989851 
1291	 0.145045321846639 
1292	 0.145000299376421 
1293	 0.144955937550354 
1294	 0.144913266219322 
1295	 0.144886026922392 
1296	 0.144841667235156 
1297	 0.1447853749057 
1298	 0.144737359018693 
1299	 0.144682413465916 
1300	 0.144631950450832 
1301	 0.144597434469016 
1302	 0.144547260257463 
1303	 0.144490869004915 
1304	 0.144425669274211 
1305	 0.144366525804132 
1306	 0.144308165084257 
1307	 0.14423881275466 
1308	 0.144186487074435 
1309	 0.14413225633101 
1310	 0.144072337932084 
1311	 0.144019403184994 
1312	 0.143980458706891 
1313	 0.143931699510656 
1314	 0.14387770177377 
1315	 0.143827216028889 
1316	 0.143776450202321 
1317	 0.143727893490111 
1318	 0.143684746821753 
1319	 0.143633049227644 
1320	 0.143577118303137 
1321	 0.143522056873254 
1322	 0.143456773587943 
1323	 0.143405943592652 
1324	 0.143347030794221 
1325	 0.143303520727743 
1326	 0.14326614702231 
1327	 0.143206663695182 
1328	 0.143153415855035 
1329	 0.143100028117951 
1330	 0.143043308932054 
1331	 0.142981843553032 
1332	 0.142923329543599 
1333	 0.142859124231869 
1334	 0.142807340591302 
1335	 0.142759677115392 
1336	 0.142711446271334 
1337	 0.142673316514061 
1338	 0.142630859757775 
1339	 0.142583785835293 
1340	 0.142542029585569 
1341	 0.142513805479055 
1342	 0.142469288778642 
1343	 0.142421089849305 
1344	 0.142358777049799 
1345	 0.142302722559542 
1346	 0.142244091122944 
1347	 0.142189799425662 
1348	 0.142141947741079 
1349	 0.142083472451559 
1350	 0.14202325589861 
1351	 0.141966289246436 
1352	 0.141912126352271 
1353	 0.141853707703028 
1354	 0.141796294509022 
1355	 0.141730554471759 
1356	 0.141653606112513 
1357	 0.141589969027924 
1358	 0.1415236778309 
1359	 0.141472360991193 
1360	 0.141439273817768 
1361	 0.141392961673144 
1362	 0.141353546673453 
1363	 0.141300175452506 
1364	 0.141230360377757 
1365	 0.141171058634309 
1366	 0.141107994159293 
1367	 0.141054605775649 
1368	 0.140999955066411 
1369	 0.140949004323278 
1370	 0.140884665772525 
1371	 0.14080927963178 
1372	 0.140754345611356 
1373	 0.140695283144978 
1374	 0.140620891315825 
1375	 0.140539632165976 
1376	 0.140472783045062 
1377	 0.1403936942868 
1378	 0.140321062386363 
1379	 0.140277067018683 
1380	 0.140203527781979 
1381	 0.140100720206139 
1382	 0.140018029658236 
1383	 0.139940772804873 
1384	 0.139857767789439 
1385	 0.13977905743406 
1386	 0.139701479982956 
1387	 0.139622648480836 
1388	 0.13954121449119 
1389	 0.139473718519343 
1390	 0.139378541723131 
1391	 0.139277834135232 
1392	 0.139154019635453 
1393	 0.139016111662116 
1394	 0.13888717268542 
1395	 0.138750902591083 
1396	 0.138615964572815 
1397	 0.138476608635164 
1398	 0.138340571120773 
1399	 0.13818315705271 
1400	 0.138015176544976 
1401	 0.137846115224118 
1402	 0.137666493480783 
1403	 0.137482017336529 
1404	 0.137289419848986 
1405	 0.137103431617129 
1406	 0.136910649750914 
1407	 0.136722570281031 
1408	 0.136544287123145 
1409	 0.136360339348261 
1410	 0.136163806077767 
1411	 0.135982657024839 
1412	 0.135809643393603 
1413	 0.135637141688918 
1414	 0.135471145292552 
1415	 0.135324679967414 
1416	 0.13518653502474 
1417	 0.135047303902017 
1418	 0.134919321842717 
1419	 0.134782117308472 
1420	 0.134629735147085 
1421	 0.134491183005432 
1422	 0.134358515619694 
1423	 0.134226812071871 
1424	 0.134091921573309 
1425	 0.133964520748504 
1426	 0.133826245817346 
1427	 0.133676891993645 
1428	 0.133533531625403 
1429	 0.133383946410272 
1430	 0.133246556376541 
1431	 0.133122206679867 
1432	 0.132985916377601 
1433	 0.132848563404797 
1434	 0.132714821789076 
1435	 0.132578682844629 
1436	 0.132436745238126 
1437	 0.132290426329188 
1438	 0.132158523871129 
1439	 0.132033373689542 
1440	 0.131890677637824 
1441	 0.131775103443282 
1442	 0.131663211927781 
1443	 0.131523406452258 
1444	 0.13139787953385 
1445	 0.131270168436051 
1446	 0.131139945648157 
1447	 0.131039259602163 
1448	 0.130945676041837 
1449	 0.130865910505109 
1450	 0.130797146746086 
1451	 0.130734696697166 
1452	 0.130673791531067 
1453	 0.130636456142789 
1454	 0.13062142000709 
1455	 0.130600294389136 
1456	 0.130585952450892 
1457	 0.130582591634706 
1458	 0.130575650457691 
1459	 0.130589126361008 
1460	 0.130628388501903 
1461	 0.130662303876445 
1462	 0.130705488627546 
1463	 0.130747818818371 
1464	 0.130792072104105 
1465	 0.130838379414455 
1466	 0.13089538635566 
1467	 0.130936213589444 
1468	 0.13097346854604 
1469	 0.131004073213892 
1470	 0.131021138750702 
1471	 0.13103443873602 
1472	 0.131063576021653 
1473	 0.131087647124582 
1474	 0.131108453402664 
1475	 0.131130413706447 
1476	 0.131132324928781 
1477	 0.131133070148324 
1478	 0.131140192692676 
1479	 0.131148626411806 
1480	 0.131164683676357 
1481	 0.13117531727537 
1482	 0.131183934545386 
1483	 0.131186563641759 
1484	 0.131195518299167 
1485	 0.131209603905142 
1486	 0.131215431473988 
1487	 0.131223552419362 
1488	 0.131221801590449 
1489	 0.131208292331687 
1490	 0.131198331132795 
1491	 0.131185070399805 
1492	 0.131171572421546 
1493	 0.131160272396557 
1494	 0.131141261055532 
1495	 0.131107670287776 
1496	 0.131092937111536 
1497	 0.131093724829467 
1498	 0.131078975131256 
1499	 0.131074984214301 
1500	 0.131052279315941 
1501	 0.130998967146993 
1502	 0.130958385655807 
1503	 0.130914603043725 
1504	 0.130876812059913 
1505	 0.130854860283863 
1506	 0.130829308630519 
1507	 0.130806747481421 
1508	 0.130795230073156 
1509	 0.130762074797473 
1510	 0.13072186093165 
1511	 0.130686038778984 
1512	 0.130644526967345 
1513	 0.130605604179712 
1514	 0.130581858705129 
1515	 0.130547183160452 
1516	 0.130505838812147 
1517	 0.130481112607981 
1518	 0.130464145312037 
1519	 0.130442211597707 
1520	 0.13043584636428 
1521	 0.130409498960138 
1522	 0.130370090258952 
1523	 0.130337051073596 
1524	 0.130297832720803 
1525	 0.130263022979243 
1526	 0.130235020141693 
1527	 0.130194807753814 
1528	 0.130144027203381 
1529	 0.130101685112083 
1530	 0.130054219854572 
1531	 0.130017413662991 
1532	 0.12999295852821 
1533	 0.129963621415499 
1534	 0.129937294045116 
1535	 0.129908749060236 
1536	 0.129872416558004 
1537	 0.129847721520238 
1538	 0.129832531913532 
1539	 0.129811498176131 
1540	 0.129800923411402 
1541	 0.129779875383805 
1542	 0.129741705132695 
1543	 0.129711534432511 
1544	 0.129677013598499 
1545	 0.129652075907105 
1546	 0.129636680758664 
1547	 0.129632061151804 
1548	 0.129597516139964 
1549	 0.129554185591492 
1550	 0.129499023840208 
1551	 0.129430357611381 
1552	 0.129390085418136 
1553	 0.129355250943543 
1554	 0.129309859204561 
1555	 0.129266173906075 
1556	 0.129219825694042 
1557	 0.129174324085195 
1558	 0.12914370273509 
1559	 0.129122905992281 
1560	 0.129087925788062 
1561	 0.129053502295377 
1562	 0.129007465431965 
1563	 0.128945733294613 
1564	 0.128895192657299 
1565	 0.128850335281952 
1566	 0.128791502554482 
1567	 0.128725445212928 
1568	 0.128666091009875 
1569	 0.12859408891423 
1570	 0.128535559658853 
1571	 0.128497767439423 
1572	 0.128444809645995 
1573	 0.128388166770517 
1574	 0.128329144420902 
1575	 0.128256342688343 
1576	 0.128197872813035 
1577	 0.128141669200844 
1578	 0.128093067320755 
1579	 0.128067215326217 
1580	 0.128017085763639 
1581	 0.12795519679237 
1582	 0.127899952743709 
1583	 0.127834675485685 
1584	 0.127776408293622 
1585	 0.127728369397071 
1586	 0.127672815243013 
1587	 0.127601323815559 
1588	 0.127549602010977 
1589	 0.127518601759328 
1590	 0.127473935703817 
1591	 0.127434080013708 
1592	 0.127388265477661 
1593	 0.127325215452481 
1594	 0.12726984490751 
1595	 0.12722943636101 
1596	 0.127172671463018 
1597	 0.127102150410579 
1598	 0.127037716457188 
1599	 0.126972989876937 
1600	 0.126899818810001 
1601	 0.126824722459149 
1602	 0.126750502928186 
1603	 0.126658764719667 
1604	 0.126579591670895 
1605	 0.126520966174452 
1606	 0.126448388721551 
1607	 0.126362284861373 
1608	 0.126291374769259 
1609	 0.126230324947862 
1610	 0.126165273126424 
1611	 0.126109114273914 
1612	 0.126063596640436 
1613	 0.126011048906835 
1614	 0.125943187738534 
1615	 0.125896468510927 
1616	 0.125848040014212 
1617	 0.125764887116742 
1618	 0.125697010056714 
1619	 0.125627949663318 
1620	 0.125541567442031 
1621	 0.12547668740299 
1622	 0.125430682486699 
1623	 0.125370707281525 
1624	 0.125310743033866 
1625	 0.125245590593065 
1626	 0.125171716238392 
1627	 0.125112762004666 
1628	 0.125058094308019 
1629	 0.124999803211746 
1630	 0.124952862857599 
1631	 0.124891325013 
1632	 0.124817026569627 
1633	 0.124750191196956 
1634	 0.124685716813057 
1635	 0.124611647389085 
1636	 0.124535955113964 
1637	 0.124455624642384 
1638	 0.124361322249531 
1639	 0.124283798486412 
1640	 0.124214457626225 
1641	 0.124135901215696 
1642	 0.124062011181074 
1643	 0.123981486493965 
1644	 0.123886891362362 
1645	 0.123808567254191 
1646	 0.123732709262754 
1647	 0.123669627755742 
1648	 0.123624290164948 
1649	 0.123561974464536 
1650	 0.123503623875095 
1651	 0.12343683390569 
1652	 0.123351688990253 
1653	 0.123284434103477 
1654	 0.12323235933067 
1655	 0.123158993032255 
1656	 0.12307855140693 
1657	 0.123002749303435 
1658	 0.122914066605223 
1659	 0.122835190255827 
1660	 0.122767248059492 
1661	 0.122695572758921 
1662	 0.122612298708445 
1663	 0.122552075958049 
1664	 0.12251240462945 
1665	 0.122457186973625 
1666	 0.122416466557482 
1667	 0.122350288347718 
1668	 0.122257535828336 
1669	 0.122180539507655 
1670	 0.122093760318102 
1671	 0.122024206902579 
1672	 0.12196767303797 
1673	 0.121911610984978 
1674	 0.121874944779342 
1675	 0.121810151129035 
1676	 0.121729851576104 
1677	 0.121660761033549 
1678	 0.121582644520586 
1679	 0.121506248268881 
1680	 0.121437978414278 
1681	 0.121367951603749 
1682	 0.12129064895507 
1683	 0.121214967852034 
1684	 0.121145696923218 
1685	 0.121074999265281 
1686	 0.120991416340554 
1687	 0.120925877060297 
1688	 0.120872754584759 
1689	 0.120821317358218 
1690	 0.12079029141684 
1691	 0.120731667480892 
1692	 0.120660167999147 
1693	 0.120594241276744 
1694	 0.120512205725014 
1695	 0.120440917114611 
1696	 0.120386842825971 
1697	 0.120315066232099 
1698	 0.120222310594525 
1699	 0.120156117664047 
1700	 0.12009997961499 
1701	 0.120039782636528 
1702	 0.119994850046411 
1703	 0.119940429733159 
1704	 0.119878725660237 
1705	 0.119812154191857 
1706	 0.119741528510502 
1707	 0.119681060287197 
1708	 0.119613168502156 
1709	 0.119554446542862 
1710	 0.119502300923405 
1711	 0.119465422577222 
1712	 0.119455916606861 
1713	 0.11940839695304 
1714	 0.119355449011943 
1715	 0.119297830852133 
1716	 0.119200495258256 
1717	 0.119133401776652 
1718	 0.119090886501646 
1719	 0.11904413275828 
1720	 0.118997940191308 
1721	 0.118950224495037 
1722	 0.118918706910177 
1723	 0.118856516817386 
1724	 0.11877653632437 
1725	 0.118701388933309 
1726	 0.118606188078144 
1727	 0.118525267096347 
1728	 0.118447772950129 
1729	 0.118378446822244 
1730	 0.118320027471003 
1731	 0.118259698714207 
1732	 0.118210559255424 
1733	 0.118140818399535 
1734	 0.118054889671961 
1735	 0.117980041179756 
1736	 0.117899227134175 
1737	 0.117834908391184 
1738	 0.11778569769091 
1739	 0.117729861020073 
1740	 0.117682139134049 
1741	 0.117609845804194 
1742	 0.117521537360171 
1743	 0.117450131567356 
1744	 0.117372346121782 
1745	 0.117300622886016 
1746	 0.117245058886602 
1747	 0.117178902972667 
1748	 0.117101476545725 
1749	 0.117032369223321 
1750	 0.116973005424005 
1751	 0.116901503524974 
1752	 0.116827251425322 
1753	 0.116769006807376 
1754	 0.116703820105676 
1755	 0.11662193062179 
1756	 0.116541996859326 
1757	 0.1164700425203 
1758	 0.116397047749612 
1759	 0.116327692321994 
1760	 0.116272395784207 
1761	 0.116225567174452 
1762	 0.116158241741769 
1763	 0.116088140263494 
1764	 0.116036771983708 
1765	 0.115947182823357 
1766	 0.11585198374455 
1767	 0.115796480843215 
1768	 0.115741308718895 
1769	 0.115684899658943 
1770	 0.115633426140042 
1771	 0.115562503781587 
1772	 0.115483252841993 
1773	 0.115446096232868 
1774	 0.115413058834127 
1775	 0.115355977151952 
1776	 0.115302578827107 
1777	 0.115229015444251 
1778	 0.115160547805829 
1779	 0.115117797030026 
1780	 0.115079287831626 
1781	 0.115030866384184 
1782	 0.114970497100027 
1783	 0.114918970662174 
1784	 0.114864845204966 
1785	 0.114815535016435 
1786	 0.114764147341452 
1787	 0.114713132717826 
1788	 0.114657985912379 
1789	 0.114586639100304 
1790	 0.114524285245109 
1791	 0.114470774424552 
1792	 0.114409194248902 
1793	 0.114346653293625 
1794	 0.114302333341567 
1795	 0.114255613686215 
1796	 0.114216158538325 
1797	 0.114200798408779 
1798	 0.114166293713327 
1799	 0.114120390734479 
1800	 0.114073824391193 
1801	 0.111876904931688 
1802	 0.111858150170908 
1803	 0.111851980342608 
1804	 0.111809709650912 
1805	 0.111788732460985 
1806	 0.111791684867998 
1807	 0.111747737743498 
1808	 0.111723757021883 
1809	 0.111713897964373 
1810	 0.111694162829422 
1811	 0.111661806287553 
1812	 0.111651208407841 
1813	 0.111632189973963 
1814	 0.111584899413968 
1815	 0.11154815607003 
1816	 0.111510747435248 
1817	 0.111480383033424 
1818	 0.11147099058883 
1819	 0.111433116247303 
1820	 0.111385849845941 
1821	 0.111332568502143 
1822	 0.111267562349676 
1823	 0.111215146474294 
1824	 0.111178386641833 
1825	 0.111160020339153 
1826	 0.111151968322491 
1827	 0.111131059246776 
1828	 0.111108262871449 
1829	 0.111092487129083 
1830	 0.111061855451472 
1831	 0.111028333864283 
1832	 0.110967560328706 
1833	 0.110906554749541 
1834	 0.110845223171884 
1835	 0.110789263246014 
1836	 0.110769407934538 
1837	 0.110741955041076 
1838	 0.110677857504625 
1839	 0.110636137343293 
1840	 0.110591074398539 
1841	 0.110555657014026 
1842	 0.110536903015246 
1843	 0.110532357471274 
1844	 0.110510478177812 
1845	 0.110459739607665 
1846	 0.110405674971394 
1847	 0.110373327744526 
1848	 0.110319686316773 
1849	 0.110269414579207 
1850	 0.110223173797631 
1851	 0.110176368909772 
1852	 0.110109972685029 
1853	 0.110061032712627 
1854	 0.110020258903516 
1855	 0.109986474532739 
1856	 0.109943443150211 
1857	 0.10988960798137 
1858	 0.109837663269545 
1859	 0.109773215972713 
1860	 0.109697648037174 
1861	 0.109610100938748 
1862	 0.109531415374225 
1863	 0.109451327899971 
1864	 0.109342663225353 
1865	 0.10924162844697 
1866	 0.109135025438193 
1867	 0.109002829974486 
1868	 0.108887907802763 
1869	 0.108763168735336 
1870	 0.108652049613801 
1871	 0.108539970465672 
1872	 0.10843984820045 
1873	 0.108320130512144 
1874	 0.108197642675694 
1875	 0.108038956585859 
1876	 0.107899332587611 
1877	 0.107750052776523 
1878	 0.107536184434631 
1879	 0.107334276236632 
1880	 0.107129489490676 
1881	 0.106878327599964 
1882	 0.106647840167838 
1883	 0.106439310613979 
1884	 0.106231901386448 
1885	 0.105984897853605 
1886	 0.105740685113911 
1887	 0.105497911973506 
1888	 0.105224375038981 
1889	 0.104919435453431 
1890	 0.10457974845979 
1891	 0.104260521218089 
1892	 0.103932693081308 
1893	 0.103603025393834 
1894	 0.103277628935113 
1895	 0.102976702672639 
1896	 0.102626550005927 
1897	 0.102206573590333 
1898	 0.101795494192681 
1899	 0.101370952303456 
1900	 0.100954238300182 
1901	 0.100583312660982 
1902	 0.100207430057903 
1903	 9.98565064283398E-02 
1904	 9.94937470510231E-02 
1905	 9.91315375285197E-02 
1906	 9.87500055362148E-02 
1907	 9.84106390255474E-02 
1908	 9.81052540399828E-02 
1909	 9.78008467297441E-02 
1910	 9.75132120113659E-02 
1911	 9.72254839142286E-02 
1912	 9.69180900692987E-02 
1913	 9.66207098161229E-02 
1914	 0.096329263849006 
1915	 9.60474254637352E-02 
1916	 9.57727348288511E-02 
1917	 9.54839825687047E-02 
1918	 9.52180201796133E-02 
1919	 9.49667550132694E-02 
1920	 9.47240607553352E-02 
1921	 9.45085949732848E-02 
1922	 0.094324951580318 
1923	 9.41437238344989E-02 
1924	 9.39602887451958E-02 
1925	 0.093798669107327 
1926	 9.36208965331913E-02 
1927	 9.34265463639489E-02 
1928	 9.32360492590537E-02 
1929	 0.09307902102268 
1930	 9.29157861221391E-02 
1931	 0.092767995773672 
1932	 9.26409667658224E-02 
1933	 9.24855233168836E-02 
1934	 9.23295895351213E-02 
1935	 0.092184750356605 
1936	 9.20435401620683E-02 
1937	 9.18992024314164E-02 
1938	 0.09177273224137 
1939	 0.09162888965666 
1940	 9.14747897855645E-02 
1941	 9.13112608154052E-02 
1942	 9.11527152016492E-02 
1943	 9.09931650780167E-02 
1944	 9.08526131490633E-02 
1945	 9.07251458937401E-02 
1946	 9.05972225608611E-02 
1947	 9.04817451219125E-02 
1948	 9.03639680231098E-02 
1949	 9.02428887616819E-02 
1950	 9.01295897074814E-02 
1951	 9.00190399284552E-02 
1952	 8.99074005528664E-02 
1953	 8.98229218765928E-02 
1954	 8.97695203358966E-02 
1955	 8.97493610363253E-02 
1956	 8.97345891433505E-02 
1957	 8.97002151159053E-02 
1958	 0.089637756751884 
1959	 8.96295039277996E-02 
1960	 8.96301886085383E-02 
1961	 8.96505150504476E-02 
1962	 8.97256486949738E-02 
1963	 0.089782583167296 
1964	 8.98380506349317E-02 
1965	 8.98811820682916E-02 
1966	 8.99503107562971E-02 
1967	 9.00365253432813E-02 
1968	 9.01293264934336E-02 
1969	 9.02419307190357E-02 
1970	 9.03463949148728E-02 
1971	 9.04637656989257E-02 
1972	 9.05674632465014E-02 
1973	 9.06570322412686E-02 
1974	 9.07572622334794E-02 
1975	 0.090867228061303 
1976	 9.09592689658354E-02 
1977	 9.10449428559192E-02 
1978	 0.091152501419006 
1979	 9.12514175853853E-02 
1980	 9.13385853568516E-02 
1981	 0.091435498119147 
1982	 9.15506453735392E-02 
1983	 9.16391220419659E-02 
1984	 9.17217708832964E-02 
1985	 0.091794209698754 
1986	 9.18399621503899E-02 
1987	 9.19004921213091E-02 
1988	 9.19586771931967E-02 
1989	 9.20223936627519E-02 
1990	 9.20888610791322E-02 
1991	 9.21485480200881E-02 
1992	 9.22129598628768E-02 
1993	 9.22651183770476E-02 
1994	 9.23462366651445E-02 
1995	 9.24492830442502E-02 
1996	 9.25451041132424E-02 
1997	 9.26548402855124E-02 
1998	 9.27525652665389E-02 
1999	 9.28384528221844E-02 
2000	 9.29307808846471E-02 
2001	 9.30102685602388E-02 
2002	 9.31223430903249E-02 
2003	 0.093239378499547 
2004	 9.33664902839752E-02 
2005	 9.34842314592849E-02 
2006	 9.36136224722588E-02 
2007	 9.37307608821474E-02 
2008	 9.38286512762747E-02 
2009	 9.39409194014084E-02 
2010	 9.40669882412474E-02 
2011	 9.41791843802787E-02 
2012	 9.42934614324477E-02 
2013	 9.43992487822008E-02 
2014	 9.44969555810641E-02 
2015	 9.45845161973027E-02 
2016	 9.46706700281467E-02 
2017	 9.47497667979804E-02 
2018	 9.48359728091443E-02 
2019	 9.49221317326217E-02 
2020	 9.50061719083507E-02 
2021	 9.51063029441793E-02 
2022	 9.51768927943722E-02 
2023	 9.52248197317986E-02 
2024	 9.52827653760725E-02 
2025	 9.53212019941976E-02 
2026	 9.53732652780167E-02 
2027	 9.54378122447257E-02 
2028	 9.55055514425336E-02 
2029	 9.55605894298489E-02 
2030	 9.56083219379514E-02 
2031	 9.56658619778159E-02 
2032	 9.57260436998784E-02 
2033	 9.57748470170405E-02 
2034	 9.58272833841405E-02 
2035	 9.58724170298651E-02 
2036	 9.58992684553481E-02 
2037	 9.59343425303545E-02 
2038	 9.59747519118186E-02 
2039	 9.60127509227736E-02 
2040	 9.60464562716506E-02 
2041	 9.60840463806326E-02 
2042	 0.096131368294483 
2043	 0.096166175368442 
2044	 9.61961634682304E-02 
2045	 9.62294498946119E-02 
2046	 9.62453044160047E-02 
2047	 9.62427207851283E-02 
2048	 9.62465763969436E-02 
2049	 0.096231314424232 
2050	 9.62367578288358E-02 
2051	 9.62562268271701E-02 
2052	 9.62699367681074E-02 
2053	 9.62972686300273E-02 
2054	 9.63151705225131E-02 
2055	 9.63283666029238E-02 
2056	 9.63340526788295E-02 
2057	 0.096336921780151 
2058	 9.63361905899628E-02 
2059	 9.63302534353239E-02 
2060	 9.63043655014084E-02 
2061	 9.63082301216339E-02 
2062	 9.63284255075061E-02 
2063	 9.63358139155599E-02 
2064	 9.63623506628883E-02 
2065	 9.63708235438532E-02 
2066	 0.096342703383708 
2067	 9.63442694992739E-02 
2068	 9.63605050335232E-02 
2069	 9.63715072749362E-02 
2070	 9.63986422767923E-02 
2071	 9.64559159702312E-02 
2072	 9.64745991343477E-02 
2073	 9.64903771303247E-02 
2074	 9.64880732042031E-02 
2075	 9.64440022288063E-02 
2076	 9.64388302239341E-02 
2077	 9.64254976924125E-02 
2078	 9.64474554811294E-02 
2079	 0.096526259248901 
2080	 9.65639222114288E-02 
2081	 9.66138926573367E-02 
2082	 9.66390570552684E-02 
2083	 9.66278008814458E-02 
2084	 0.096610498496034 
2085	 9.66146551505815E-02 
2086	 9.66220580879651E-02 
2087	 9.66293489947365E-02 
2088	 9.66475190352473E-02 
2089	 9.66613831351427E-02 
2090	 9.66714865402681E-02 
2091	 9.66842106166742E-02 
2092	 9.66908046239455E-02 
2093	 9.67167212026177E-02 
2094	 9.67607527907324E-02 
2095	 9.67882160062872E-02 
2096	 9.68263763090649E-02 
2097	 9.68559041015552E-02 
2098	 9.68667665685695E-02 
2099	 9.68733998872068E-02 
2100	 9.69020942948741E-02 
2101	 0.096938238907704 
2102	 9.69870376226698E-02 
2103	 9.70720896542784E-02 
2104	 9.71065603914997E-02 
2105	 9.71253389567638E-02 
2106	 9.71475921871304E-02 
2107	 9.71321163269367E-02 
2108	 9.71446240715802E-02 
2109	 9.71816811007102E-02 
2110	 0.097208989455966 
2111	 9.72366605045198E-02 
2112	 9.72629352561554E-02 
2113	 9.72913667500916E-02 
2114	 9.73126461616388E-02 
2115	 9.73408324911341E-02 
2116	 9.73626557875932E-02 
2117	 9.74071346220497E-02 
2118	 9.74595726067376E-02 
2119	 9.75234522920949E-02 
2120	 9.76259638312797E-02 
2121	 0.097680597532417 
2122	 9.77274747513268E-02 
2123	 9.77608434576001E-02 
2124	 9.77511269669033E-02 
2125	 9.77660473830549E-02 
2126	 9.78003771571314E-02 
2127	 9.78105927429466E-02 
2128	 9.78010919845415E-02 
2129	 9.78076813737987E-02 
2130	 9.78050039591502E-02 
2131	 9.78018475150289E-02 
2132	 0.09782719355439 
2133	 9.78955440017806E-02 
2134	 9.79141136613699E-02 
2135	 9.79244021858356E-02 
2136	 9.79331681117365E-02 
2137	 9.79179471997337E-02 
2138	 0.097911205163158 
2139	 9.79203054493294E-02 
2140	 9.79085089152791E-02 
2141	 0.097868405706782 
2142	 0.097849506758254 
2143	 9.78564224508661E-02 
2144	 9.78252970790144E-02 
2145	 0.097784272978048 
2146	 9.77349707449573E-02 
2147	 9.76467957138123E-02 
2148	 9.75615737103217E-02 
2149	 0.097493943449665 
2150	 9.74349706395875E-02 
2151	 9.73852357239204E-02 
2152	 9.73451551379726E-02 
2153	 9.73078955969582E-02 
2154	 9.73026789801466E-02 
2155	 9.72505454079168E-02 
2156	 9.71782115412835E-02 
2157	 9.71080884643676E-02 
2158	 9.70048575910184E-02 
2159	 9.69197483191534E-02 
2160	 9.68473173629528E-02 
2161	 9.67706291459925E-02 
2162	 9.67065561036722E-02 
2163	 9.66182397478052E-02 
2164	 9.64933223880006E-02 
2165	 9.64168152093783E-02 
2166	 0.096309136026458 
2167	 9.61675796984007E-02 
2168	 9.60766875654057E-02 
2169	 9.60153835564144E-02 
2170	 0.09592559492943 
2171	 0.09584372872541 
2172	 9.57607101419403E-02 
2173	 9.56597282232113E-02 
2174	 0.095570181059127 
2175	 9.54852909974335E-02 
2176	 9.54167581680222E-02 
2177	 9.53498124749019E-02 
2178	 9.52922826088848E-02 
2179	 9.52884719869797E-02 
2180	 9.52334746276951E-02 
2181	 9.51429139743004E-02 
2182	 9.50620191586724E-02 
2183	 9.49539418988548E-02 
2184	 9.48521913375241E-02 
2185	 9.47654041972348E-02 
2186	 9.46935943803452E-02 
2187	 9.46224577950185E-02 
2188	 0.094554227258355 
2189	 9.44948467164439E-02 
2190	 9.44585810327767E-02 
2191	 9.43966760913832E-02 
2192	 9.43276511321653E-02 
2193	 9.42580951142816E-02 
2194	 9.41545905410329E-02 
2195	 9.40931755571833E-02 
2196	 9.40589846129519E-02 
2197	 9.40211326470279E-02 
2198	 0.09400732692431 
2199	 9.39850633843105E-02 
2200	 9.39650874345418E-02 
2201	 9.39329149169522E-02 
2202	 9.39043370254531E-02 
2203	 9.38522967586032E-02 
2204	 9.38139236946015E-02 
2205	 9.37636655926586E-02 
2206	 9.37329183036107E-02 
2207	 9.37122192817816E-02 
2208	 9.36984478520591E-02 
2209	 9.37068782609974E-02 
2210	 9.36825862495854E-02 
2211	 9.36570975719076E-02 
2212	 9.36189329309524E-02 
2213	 9.35385680984606E-02 
2214	 9.34944709607745E-02 
2215	 9.34620028993756E-02 
2216	 9.34348273504197E-02 
2217	 9.34280482569753E-02 
2218	 9.34126373935798E-02 
2219	 9.33966877577247E-02 
2220	 9.33852244965779E-02 
2221	 9.33772043032898E-02 
2222	 9.33665294321134E-02 
2223	 9.33592000885603E-02 
2224	 9.33335024423266E-02 
2225	 9.33304273385569E-02 
2226	 9.33373247288112E-02 
2227	 9.33231174045379E-02 
2228	 9.33208222510199E-02 
2229	 9.32930669588719E-02 
2230	 9.32122561884118E-02 
2231	 9.31938732989337E-02 
2232	 9.32064767619793E-02 
2233	 9.31973506842336E-02 
2234	 9.32143748898645E-02 
2235	 9.32140829898037E-02 
2236	 9.31779409597265E-02 
2237	 9.31711545873441E-02 
2238	 9.31838882115632E-02 
2239	 9.31866751987604E-02 
2240	 9.32032739659207E-02 
2241	 0.093201291550603 
2242	 9.31934025904689E-02 
2243	 9.31777800312889E-02 
2244	 9.31475174153334E-02 
2245	 9.31121673156077E-02 
2246	 9.30627628564593E-02 
2247	 9.30313487986595E-02 
2248	 9.30210874858956E-02 
2249	 9.30314426542022E-02 
2250	 9.30130287709178E-02 
2251	 9.30051385243481E-02 
2252	 9.29823468128589E-02 
2253	 9.29334210702428E-02 
2254	 9.29048767735554E-02 
2255	 9.28778623461821E-02 
2256	 9.28667210458431E-02 
2257	 9.28680178298219E-02 
2258	 9.28579521235596E-02 
2259	 9.28729755684583E-02 
2260	 9.28571164666323E-02 
2261	 9.28016044454419E-02 
2262	 9.27720222640821E-02 
2263	 9.27517132670966E-02 
2264	 9.27190717580131E-02 
2265	 9.26792670232501E-02 
2266	 9.26575741611018E-02 
2267	 9.26275941259689E-02 
2268	 9.26135611990065E-02 
2269	 9.26445169158677E-02 
2270	 9.26451432690418E-02 
2271	 9.26288916565042E-02 
2272	 9.26079248118179E-02 
2273	 9.25796935690944E-02 
2274	 9.25531964821549E-02 
2275	 9.25224195395475E-02 
2276	 9.24912905977846E-02 
2277	 9.24617053303594E-02 
2278	 9.24299674655344E-02 
2279	 9.23976485369535E-02 
2280	 9.23653897376592E-02 
2281	 9.23406547750605E-02 
2282	 0.092307914222359 
2283	 9.22871388937122E-02 
2284	 9.23006870649571E-02 
2285	 0.092272561301065 
2286	 9.22300658581446E-02 
2287	 9.21821621721819E-02 
2288	 0.092082622802994 
2289	 9.20338240420625E-02 
2290	 9.20278885474277E-02 
2291	 0.091990081582988 
2292	 9.19633197809455E-02 
2293	 9.19280871188114E-02 
2294	 9.18665241042675E-02 
2295	 9.18005881229733E-02 
2296	 9.17381139414418E-02 
2297	 9.16712091263541E-02 
2298	 0.091580228287714 
2299	 9.15122402332023E-02 
2300	 9.14238689104058E-02 
2301	 9.13524916974516E-02 
2302	 0.091270711894063 
2303	 9.11622786474856E-02 
2304	 9.10739756773821E-02 
2305	 9.09938254639732E-02 
2306	 0.090928104750538 
2307	 0.090881664106279 
2308	 9.08093085298566E-02 
2309	 9.07449850359015E-02 
2310	 9.06650988631139E-02 
2311	 9.05584793415753E-02 
2312	 9.04770186235313E-02 
2313	 9.03968165772041E-02 
2314	 9.03251629018055E-02 
2315	 9.02719490789878E-02 
2316	 9.02001958553286E-02 
2317	 9.01284193889516E-02 
2318	 9.00605259418992E-02 
2319	 8.99781777639187E-02 
2320	 8.98956482720276E-02 
2321	 8.98033625751497E-02 
2322	 0.089742459108261 
2323	 8.97072455517359E-02 
2324	 8.96607213046252E-02 
2325	 8.96533873052574E-02 
2326	 8.96027128468331E-02 
2327	 8.95150058595192E-02 
2328	 0.089415607993558 
2329	 0.089330924843672 
2330	 8.92522934760795E-02 
2331	 8.92187769964868E-02 
2332	 0.089186473295032 
2333	 8.91528206640415E-02 
2334	 8.91526481499626E-02 
2335	 8.91316100284597E-02 
2336	 0.08913050079315 
2337	 8.91301683053728E-02 
2338	 8.91312316490452E-02 
2339	 8.91075337254903E-02 
2340	 8.90320142170331E-02 
2341	 8.90062034286468E-02 
2342	 8.89376701561851E-02 
2343	 8.88618101895734E-02 
2344	 8.88036490294539E-02 
2345	 8.87338971447136E-02 
2346	 8.86227154281942E-02 
2347	 8.85694755802033E-02 
2348	 0.088565052519032 
2349	 8.85300035635951E-02 
2350	 8.84933948715354E-02 
2351	 8.84608728489358E-02 
2352	 8.84150373370294E-02 
2353	 8.83689028327372E-02 
2354	 8.83322487882676E-02 
2355	 8.83037796813226E-02 
2356	 8.82900463978948E-02 
2357	 8.82458592985869E-02 
2358	 8.82071467569196E-02 
2359	 8.81466566894843E-02 
2360	 8.80340971994166E-02 
2361	 8.79471783654395E-02 
2362	 8.78468107520874E-02 
2363	 8.77712382053386E-02 
2364	 0.087735902641115 
2365	 0.087662191279445 
2366	 8.76097432019923E-02 
2367	 8.75274591307442E-02 
2368	 0.087329801340382 
2369	 8.72623854445444E-02 
2370	 8.72733857150395E-02 
2371	 8.72658648590037E-02 
2372	 8.72259733254397E-02 
2373	 8.72545910593334E-02 
2374	 0.087210286221912 
2375	 8.70761005685905E-02 
2376	 0.087026262867309 
2377	 8.68848266403865E-02 
2378	 8.66219852437534E-02 
2379	 8.64405595958186E-02 
2380	 8.63200295163235E-02 
2381	 0.086191773468244 
2382	 8.60861655627051E-02 
2383	 8.60473939181204E-02 
2384	 8.60209011772854E-02 
2385	 0.085993929228351 
2386	 0.086013019401661 
2387	 8.59481961375712E-02 
2388	 8.57551698194113E-02 
2389	 8.55925215365203E-02 
2390	 8.54467282515481E-02 
2391	 8.52799576933755E-02 
2392	 8.51548530873894E-02 
2393	 8.50303156865467E-02 
2394	 8.49409048901911E-02 
2395	 8.48889970003193E-02 
2396	 8.47991341527539E-02 
2397	 8.46898858388096E-02 
2398	 8.45201806670629E-02 
2399	 8.43106940558409E-02 
2400	 8.42785463830571E-02 
2401	 8.43246096288314E-02 
2402	 8.42372552047864E-02 
2403	 8.42334107881588E-02 
2404	 8.41895949651227E-02 
2405	 0.084029736919306 
2406	 8.39500985559939E-02 
2407	 8.38314922531367E-02 
2408	 8.37121602982462E-02 
2409	 8.35828666171737E-02 
2410	 8.34773307976483E-02 
2411	 8.34464247973418E-02 
2412	 8.34262434824959E-02 
2413	 8.33655946161742E-02 
2414	 8.32760069005346E-02 
2415	 8.31594246811426E-02 
2416	 8.30697711752847E-02 
2417	 8.29951692071631E-02 
2418	 8.28824532206581E-02 
2419	 8.27804550469691E-02 
2420	 8.26436412845546E-02 
2421	 0.082385658189626 
2422	 0.082216814111361 
2423	 8.21028193954468E-02 
2424	 8.20118203881046E-02 
2425	 8.19485333288441E-02 
2426	 8.18851099002217E-02 
2427	 8.18571505927144E-02 
2428	 8.18049509586837E-02 
2429	 8.17585571438722E-02 
2430	 8.16817152981472E-02 
2431	 8.16270853463796E-02 
2432	 8.14855192214344E-02 
2433	 8.12984580139171E-02 
2434	 8.10908005315207E-02 
2435	 0.080732563065569 
2436	 8.05266063968974E-02 
2437	 0.080385949641621 
2438	 0.080208651537884 
2439	 8.01103054097212E-02 
2440	 8.00100860872523E-02 
2441	 7.98525214496149E-02 
2442	 0.079764648772241 
2443	 7.97738525205189E-02 
2444	 7.96777060372397E-02 
2445	 7.95700519222276E-02 
2446	 7.94474136737115E-02 
2447	 7.92202141746033E-02 
2448	 7.91274139329706E-02 
2449	 7.90916299693384E-02 
2450	 7.89922553865461E-02 
2451	 7.89920853199533E-02 
2452	 7.88923003892141E-02 
2453	 7.87532636056534E-02 
2454	 7.85376578384534E-02 
2455	 7.81794728760163E-02 
2456	 7.79272623997752E-02 
2457	 7.76263589110823E-02 
2458	 7.73887533480709E-02 
2459	 7.72109237531566E-02 
2460	 0.077064724477543 
2461	 7.69753521832761E-02 
2462	 7.68269272179316E-02 
2463	 7.67462461745312E-02 
2464	 7.66817767497187E-02 
2465	 7.65557878414407E-02 
2466	 7.64578756662823E-02 
2467	 7.64413584115477E-02 
2468	 7.63153240897292E-02 
2469	 7.61064815317145E-02 
2470	 0.075881926870658 
2471	 0.075647092376715 
2472	 7.54550658389805E-02 
2473	 7.53181638091905E-02 
2474	 7.52556468420205E-02 
2475	 7.52333063853492E-02 
2476	 0.075103241447575 
2477	 7.49445798392088E-02 
2478	 7.48019528945909E-02 
2479	 7.46112596562872E-02 
2480	 7.44841699352564E-02 
2481	 7.44114369572434E-02 
2482	 7.42709336936388E-02 
2483	 7.42017865080124E-02 
2484	 7.41919284758024E-02 
2485	 7.40405401394737E-02 
2486	 7.38685797586468E-02 
2487	 0.073485777291434 
2488	 7.29014428003941E-02 
2489	 7.24585957082907E-02 
2490	 7.21601914944088E-02 
2491	 7.20435320924673E-02 
2492	 7.20322216430176E-02 
2493	 7.20039335927897E-02 
2494	 7.20221379614298E-02 
2495	 7.19471072790047E-02 
2496	 7.17279912716836E-02 
2497	 7.15337061270496E-02 
2498	 7.11421582969617E-02 
2499	 7.07218195435029E-02 
2500	 7.05542806606386E-02 
