Wavelength	LMW_1300006.asd
350	 5.19125374104575E-02 
351	 5.30267571700903E-02 
352	 0.048919334567073 
353	 4.07993315135495E-02 
354	 4.36288623353652E-02 
355	 4.33706769278264E-02 
356	 4.34799775025873E-02 
357	 4.80842491486317E-02 
358	 0.04638201206789 
359	 4.29221179173548E-02 
360	 0.043107381897102 
361	 5.06509595993401E-02 
362	 4.91781736748466E-02 
363	 4.75398343614804E-02 
364	 4.97851799882498E-02 
365	 4.75313871626943E-02 
366	 4.43022585932291E-02 
367	 4.28670569568709E-02 
368	 4.44477232370939E-02 
369	 0.045480294576717 
370	 4.54441234882598E-02 
371	 0.044995715867717 
372	 0.045581663030216 
373	 0.049134588078426 
374	 4.94019158305634E-02 
375	 4.59421977048105E-02 
376	 5.03787914494592E-02 
377	 4.83330364869296E-02 
378	 0.04548515353658 
379	 4.93556426869518E-02 
380	 4.86983347228332E-02 
381	 4.69724301944731E-02 
382	 4.64755231329688E-02 
383	 4.79282439434659E-02 
384	 4.86310696102298E-02 
385	 4.70533730358283E-02 
386	 4.51152867429322E-02 
387	 5.14353729940228E-02 
388	 5.26407734073199E-02 
389	 5.09361058968884E-02 
390	 5.17472505499006E-02 
391	 4.95790441649794E-02 
392	 0.048827985014884 
393	 5.07194459545484E-02 
394	 5.33042788868848E-02 
395	 0.053562917491886 
396	 5.30956332380253E-02 
397	 5.35798307502485E-02 
398	 5.53362302879638E-02 
399	 5.49374189610968E-02 
400	 5.43848717472135E-02 
401	 5.64965973259681E-02 
402	 5.64531941382904E-02 
403	 5.62743440804994E-02 
404	 5.64121551457214E-02 
405	 5.54107481811136E-02 
406	 5.58938015867152E-02 
407	 5.72215117521591E-02 
408	 5.80871384110996E-02 
409	 5.71307503824102E-02 
410	 5.62623597923302E-02 
411	 0.056105407660923 
412	 5.66512339929598E-02 
413	 5.86665062468432E-02 
414	 5.89386176980114E-02 
415	 5.72812646408046E-02 
416	 5.76585290911504E-02 
417	 5.75716707584924E-02 
418	 5.72896528411302E-02 
419	 0.057447523989381 
420	 5.77647467557358E-02 
421	 0.057421249011987 
422	 5.72057968175035E-02 
423	 5.85458092535303E-02 
424	 5.77788752228831E-02 
425	 5.65964531684106E-02 
426	 5.64084878612971E-02 
427	 5.69878056690999E-02 
428	 5.67281052417505E-02 
429	 5.61500825830235E-02 
430	 5.61895781467368E-02 
431	 5.59261417526989E-02 
432	 5.57736324056224E-02 
433	 5.59270641775529E-02 
434	 5.62905282290195E-02 
435	 5.60134758064824E-02 
436	 5.60277710799678E-02 
437	 5.68139032608469E-02 
438	 5.67564497997439E-02 
439	 5.66293210462795E-02 
440	 5.67506616982317E-02 
441	 5.71384357682471E-02 
442	 5.72581764996488E-02 
443	 5.76324304839089E-02 
444	 5.81981308019281E-02 
445	 5.78444320694283E-02 
446	 5.77770622177568E-02 
447	 0.057982945434369 
448	 5.81680493656762E-02 
449	 5.84321088585011E-02 
450	 5.89493828858146E-02 
451	 5.95020872288581E-02 
452	 5.95897668408572E-02 
453	 0.05979416236603 
454	 5.98046616329539E-02 
455	 5.95405487351938E-02 
456	 5.98739904270427E-02 
457	 6.02204031097937E-02 
458	 6.02742779011061E-02 
459	 5.99965081108078E-02 
460	 6.03296478187487E-02 
461	 6.05655464276957E-02 
462	 6.04721801215801E-02 
463	 6.06863090421101E-02 
464	 6.09776145293028E-02 
465	 6.11895135444721E-02 
466	 0.061265494497137 
467	 6.14907139437596E-02 
468	 6.17608765760951E-02 
469	 6.18433645046732E-02 
470	 6.14824144989315E-02 
471	 6.16139023948795E-02 
472	 0.061845582991582 
473	 0.061848273286071 
474	 6.20177426673644E-02 
475	 6.20343998089263E-02 
476	 6.19407950238402E-02 
477	 6.19452081188915E-02 
478	 6.22235091862157E-02 
479	 6.23686941677493E-02 
480	 6.22559904198726E-02 
481	 6.22071239532753E-02 
482	 6.23651805918446E-02 
483	 6.25125040317534E-02 
484	 6.24721737301419E-02 
485	 6.27346520780663E-02 
486	 0.062742183761804 
487	 0.062532655003052 
488	 6.26284574700858E-02 
489	 6.26996726399814E-02 
490	 6.28204925902997E-02 
491	 0.06298963256852 
492	 6.28524655513182E-02 
493	 6.26134205534389E-02 
494	 6.25596690373901E-02 
495	 6.29024530619629E-02 
496	 6.29550635947706E-02 
497	 6.28959206014076E-02 
498	 6.29174137404712E-02 
499	 6.31142831150125E-02 
500	 0.063005324616714 
501	 6.28541433386226E-02 
502	 6.30001100492356E-02 
503	 6.30732350229419E-02 
504	 6.30657608378997E-02 
505	 6.30732651314263E-02 
506	 6.32543725672366E-02 
507	 0.063265658974897 
508	 6.32579569470507E-02 
509	 0.063349179069618 
510	 6.33079080271902E-02 
511	 0.063178915170241 
512	 6.30969924605746E-02 
513	 6.32066241656645E-02 
514	 6.32551301773401E-02 
515	 6.32535304341692E-02 
516	 0.063256274044966 
517	 6.33465336761648E-02 
518	 6.33157340049278E-02 
519	 6.32349163452669E-02 
520	 6.32482641479411E-02 
521	 6.33649183425281E-02 
522	 6.33679638577579E-02 
523	 6.32656307311776E-02 
524	 6.33070078334942E-02 
525	 6.33329066999135E-02 
526	 6.33261595147552E-02 
527	 6.33222113652387E-02 
528	 6.34417875210711E-02 
529	 6.34394475506758E-02 
530	 6.33623748689432E-02 
531	 6.34352518740001E-02 
532	 6.35170582917025E-02 
533	 6.36223747019365E-02 
534	 6.37496246849784E-02 
535	 6.38288576308419E-02 
536	 6.37895383719381E-02 
537	 6.37780312628663E-02 
538	 0.063961308460007 
539	 6.40070312274123E-02 
540	 6.39825416791485E-02 
541	 0.063985340703427 
542	 6.41098061720311E-02 
543	 6.41497336172107E-02 
544	 6.41903878206878E-02 
545	 6.43337426296605E-02 
546	 6.44077719623432E-02 
547	 6.44884425099202E-02 
548	 0.064577178265691 
549	 6.46143853242058E-02 
550	 6.47276645002205E-02 
551	 6.48693184335631E-02 
552	 6.49974671718132E-02 
553	 6.51826743422249E-02 
554	 6.53185287285944E-02 
555	 6.54356608929793E-02 
556	 6.56228567302459E-02 
557	 6.57838933917617E-02 
558	 6.59144895822658E-02 
559	 6.60564533633146E-02 
560	 6.63220745507921E-02 
561	 6.65122780708779E-02 
562	 6.67054164540078E-02 
563	 6.70266886800413E-02 
564	 6.72909369117495E-02 
565	 6.75494777129794E-02 
566	 6.78674324100199E-02 
567	 6.83063974553975E-02 
568	 6.87432697268368E-02 
569	 6.91008110936371E-02 
570	 6.93759679484329E-02 
571	 6.97557178766337E-02 
572	 7.01507223572588E-02 
573	 7.05545015840177E-02 
574	 7.10118991828983E-02 
575	 0.07143672677024 
576	 7.18895042104298E-02 
577	 7.23835614484801E-02 
578	 0.072760610698115 
579	 7.32239515083602E-02 
580	 7.38338500239151E-02 
581	 7.45642395222257E-02 
582	 7.52778788831261E-02 
583	 7.59597065693856E-02 
584	 7.65931496491561E-02 
585	 7.71391743902782E-02 
586	 7.77666573639853E-02 
587	 0.078405663092284 
588	 0.078965682178459 
589	 0.079608440533989 
590	 0.080256237165732 
591	 8.08834671939925E-02 
592	 8.15200143154873E-02 
593	 8.21026675330921E-02 
594	 8.27489517868444E-02 
595	 8.35161913177437E-02 
596	 8.42027246331268E-02 
597	 8.50081532420422E-02 
598	 8.58628094796049E-02 
599	 8.65768595455638E-02 
600	 8.72826891174092E-02 
601	 8.79569299807154E-02 
602	 8.85759155311457E-02 
603	 8.91476373419812E-02 
604	 8.97331482938512E-02 
605	 9.02993944522623E-02 
606	 9.08070557486394E-02 
607	 9.13864935270554E-02 
608	 9.19390781114065E-02 
609	 9.24408915387095E-02 
610	 9.29685295382899E-02 
611	 9.34768485090581E-02 
612	 0.093973103027053 
613	 9.44579984980671E-02 
614	 9.48791683056263E-02 
615	 9.52513616686647E-02 
616	 9.56032531515277E-02 
617	 0.095965390788275 
618	 0.09629294589074 
619	 9.65817462093107E-02 
620	 9.68460156333342E-02 
621	 9.71221378117842E-02 
622	 9.74130781666223E-02 
623	 9.77002642070947E-02 
624	 0.097959083861893 
625	 9.82058694048708E-02 
626	 9.84071660874997E-02 
627	 9.85876439490785E-02 
628	 9.88512881475011E-02 
629	 9.91054753949077E-02 
630	 9.93220016694589E-02 
631	 0.099503160301398 
632	 9.96880338821143E-02 
633	 9.99058588516845E-02 
634	 0.100131762725452 
635	 0.100304278099292 
636	 0.100513185152213 
637	 0.10073265951701 
638	 0.100925173335458 
639	 0.10107156194431 
640	 0.101231791545846 
641	 0.101428901484739 
642	 0.101656174574193 
643	 0.101843062203901 
644	 0.102014514217701 
645	 0.102198045393576 
646	 0.102408711751982 
647	 0.102677922456567 
648	 0.102921368903683 
649	 0.103073787297534 
650	 0.103298703893281 
651	 0.103518344396616 
652	 0.103702168226008 
653	 0.103873388874477 
654	 0.104153127863697 
655	 0.104440726018528 
656	 0.104657298276403 
657	 0.104876648438514 
658	 0.105144791710485 
659	 0.105431495926765 
660	 0.105679374067936 
661	 0.105962306604105 
662	 0.106231513432585 
663	 0.106489091461059 
664	 0.106826924874523 
665	 0.107177262371203 
666	 0.107477891159547 
667	 0.107714482470203 
668	 0.108052201258495 
669	 0.108408774311961 
670	 0.108752122480202 
671	 0.109096097829478 
672	 0.109413287936458 
673	 0.109760069503375 
674	 0.110165057717743 
675	 0.110566512964242 
676	 0.110927849466085 
677	 0.111270125820818 
678	 0.111643821752174 
679	 0.112075253697681 
680	 0.112514091422923 
681	 0.112944948209418 
682	 0.113407901647448 
683	 0.113826457290611 
684	 0.114243421416975 
685	 0.114703889319683 
686	 0.115136139587078 
687	 0.115613035126295 
688	 0.116119548682092 
689	 0.11658467283035 
690	 0.117088182212112 
691	 0.117590473685264 
692	 0.118074721346793 
693	 0.118608907421388 
694	 0.119109044800522 
695	 0.119587533751571 
696	 0.12008988360262 
697	 0.120629990694073 
698	 0.121160876877746 
699	 0.121690823792421 
700	 0.122285919386619 
701	 0.122820046083063 
702	 0.123349123522664 
703	 0.123923303638179 
704	 0.124458111293017 
705	 0.125024047747621 
706	 0.125592991732344 
707	 0.126103773580322 
708	 0.126684560637015 
709	 0.127271351822733 
710	 0.127832443834268 
711	 0.128416385624794 
712	 0.128953976863477 
713	 0.129472092691069 
714	 0.130012529066997 
715	 0.130555241037797 
716	 0.13112701524456 
717	 0.131696544809461 
718	 0.132195535402872 
719	 0.132663670915216 
720	 0.13311727752458 
721	 0.133575213089645 
722	 0.134069038218911 
723	 0.134568285907954 
724	 0.135060206296369 
725	 0.135531373895091 
726	 0.13593605142528 
727	 0.136310845769355 
728	 0.13667276947524 
729	 0.137017428553721 
730	 0.137381874622061 
731	 0.137758751953804 
732	 0.138116097171919 
733	 0.138382064527434 
734	 0.138633429933082 
735	 0.138864260613088 
736	 0.139050282595964 
737	 0.139277891228152 
738	 0.139469039232161 
739	 0.139618246638391 
740	 0.139808225638307 
741	 0.139946342358094 
742	 0.140033299918499 
743	 0.140082765694447 
744	 0.140079856381644 
745	 0.140076827300533 
746	 0.140086248202909 
747	 0.140087188065065 
748	 0.139985562172292 
749	 0.139882918375201 
750	 0.139809541112377 
751	 0.139689577265044 
752	 0.139591306328238 
753	 0.139482359554551 
754	 0.139319133649824 
755	 0.13908974003158 
756	 0.138852406723306 
757	 0.13863158755616 
758	 0.138423926486776 
759	 0.138180804892624 
760	 0.137898090208739 
761	 0.137604359516073 
762	 0.137359502448653 
763	 0.137064100231853 
764	 0.136732975810054 
765	 0.136403218054748 
766	 0.136095091800287 
767	 0.135740946278597 
768	 0.13537430193278 
769	 0.135060650558384 
770	 0.134695831760041 
771	 0.134327887398861 
772	 0.13396544273235 
773	 0.133556043680237 
774	 0.133170288988926 
775	 0.132814242698665 
776	 0.13246478733021 
777	 0.132064158183593 
778	 0.131665372367591 
779	 0.131265473639879 
780	 0.130845010271584 
781	 0.130451863632382 
782	 0.130070881954782 
783	 0.129694304520916 
784	 0.129326244938344 
785	 0.128916154157229 
786	 0.128497035281894 
787	 0.128102231769688 
788	 0.127723009896318 
789	 0.127369549710376 
790	 0.12700625066517 
791	 0.126597908807735 
792	 0.126202934867751 
793	 0.125844942964504 
794	 0.125508137990151 
795	 0.125147963371796 
796	 0.124771749076769 
797	 0.124396720724953 
798	 0.12403810678581 
799	 0.123703752260937 
800	 0.123371967338737 
801	 0.123039957978849 
802	 0.122708681123938 
803	 0.122364915729132 
804	 0.122052289087406 
805	 0.1217610982673 
806	 0.121451208046013 
807	 0.12114575718277 
808	 0.12083556530129 
809	 0.120526616214015 
810	 0.120245871638889 
811	 0.119971277165406 
812	 0.119672344985651 
813	 0.119357034576828 
814	 0.119145255786279 
815	 0.118895925181243 
816	 0.118617222582702 
817	 0.118377449693348 
818	 0.118203486141726 
819	 0.117978291723465 
820	 0.117681806380721 
821	 0.117391452456556 
822	 0.117201952103065 
823	 0.117002301485925 
824	 0.116746602217851 
825	 0.116549032707301 
826	 0.116368221463945 
827	 0.116168239789163 
828	 0.11594863009985 
829	 0.115825512005604 
830	 0.115642842109465 
831	 0.115454042317589 
832	 0.115376222523046 
833	 0.115236497709291 
834	 0.115063930835269 
835	 0.114880300808027 
836	 0.114693457487131 
837	 0.114604197036327 
838	 0.114524557759151 
839	 0.114397963651874 
840	 0.114276772141288 
841	 0.114143699896398 
842	 0.114025653983468 
843	 0.113936301372381 
844	 0.113809245845441 
845	 0.113736295057067 
846	 0.113670037468109 
847	 0.113536491484376 
848	 0.113513436216546 
849	 0.113446201045045 
850	 0.113349743946083 
851	 0.113374677152129 
852	 0.113320658607839 
853	 0.113244210073403 
854	 0.113189080614545 
855	 0.113126876102482 
856	 0.113148517412612 
857	 0.113195196429309 
858	 0.113192767227229 
859	 0.113116193591853 
860	 0.113091545713067 
861	 0.113124988843487 
862	 0.11316772233625 
863	 0.113155419753841 
864	 0.113192048321972 
865	 0.113265442302096 
866	 0.113294452420262 
867	 0.113288488100089 
868	 0.113286711027443 
869	 0.113325961321753 
870	 0.11342601385246 
871	 0.113479608360122 
872	 0.11354365011811 
873	 0.113639339519401 
874	 0.113686499859279 
875	 0.11377373863992 
876	 0.113862726346899 
877	 0.113920034593339 
878	 0.114004368211767 
879	 0.114144773146811 
880	 0.114286242743932 
881	 0.114376120374011 
882	 0.114508565863948 
883	 0.114648588248936 
884	 0.114777359664029 
885	 0.114895465829999 
886	 0.115050697684494 
887	 0.115211279859139 
888	 0.115376738181813 
889	 0.115569304460694 
890	 0.115707365455577 
891	 0.115860685940607 
892	 0.116057649716887 
893	 0.116249139987426 
894	 0.116404587531957 
895	 0.116592738968827 
896	 0.116848775510553 
897	 0.117113432285859 
898	 0.117327378617189 
899	 0.11753540001383 
900	 0.117777376283877 
901	 0.117993764267866 
902	 0.118230934418848 
903	 0.118467889646963 
904	 0.118689676737252 
905	 0.118997675013837 
906	 0.119253621025282 
907	 0.119486971781677 
908	 0.119792902704794 
909	 0.120140492805078 
910	 0.120461492165211 
911	 0.120762824225139 
912	 0.121096796729614 
913	 0.121436563766237 
914	 0.121781349105349 
915	 0.122114835684803 
916	 0.122419969271983 
917	 0.122814288007169 
918	 0.123159296351062 
919	 0.123437214997045 
920	 0.123799390260963 
921	 0.124247820340578 
922	 0.124701996138415 
923	 0.125101265903829 
924	 0.125447323427033 
925	 0.12583617662351 
926	 0.126289405834879 
927	 0.126766479872789 
928	 0.127154171811457 
929	 0.12759435654601 
930	 0.128094964928104 
931	 0.1286085833493 
932	 0.129047452031476 
933	 0.129579530265349 
934	 0.130106767535242 
935	 0.13054038029257 
936	 0.131052625094564 
937	 0.131599655575686 
938	 0.132134600351484 
939	 0.132633462664597 
940	 0.133155825759849 
941	 0.133735238701473 
942	 0.134321241098393 
943	 0.13485864965798 
944	 0.135411660244043 
945	 0.135980555349222 
946	 0.136616033526888 
947	 0.137324295637828 
948	 0.1378376647533 
949	 0.138394636186636 
950	 0.139020949979363 
951	 0.139647076126472 
952	 0.140381436253372 
953	 0.141093750886858 
954	 0.141735634971677 
955	 0.142351990438152 
956	 0.143158324736813 
957	 0.143887723788351 
958	 0.144517186040864 
959	 0.145189533822886 
960	 0.145950854948737 
961	 0.146649381116582 
962	 0.147337615831902 
963	 0.148159419882227 
964	 0.148926099446458 
965	 0.149667697794739 
966	 0.150444607605763 
967	 0.151297412457924 
968	 0.15209694879918 
969	 0.152815936759177 
970	 0.15353569821205 
971	 0.154363717830312 
972	 0.155160514586403 
973	 0.155891634465179 
974	 0.156687988246415 
975	 0.157708690674117 
976	 0.158656722457129 
977	 0.15952604581563 
978	 0.160322979981233 
979	 0.161077324454337 
980	 0.16194252569271 
981	 0.16286822145716 
982	 0.163742392668272 
983	 0.164500116674534 
984	 0.165435342832811 
985	 0.166399180399258 
986	 0.167281823219938 
987	 0.168072063259035 
988	 0.169009073473475 
989	 0.169930427717446 
990	 0.170808276005099 
991	 0.171704266041471 
992	 0.172686144756021 
993	 0.173602632475449 
994	 0.174478496054246 
995	 0.17539172844533 
996	 0.176261457497067 
997	 0.177088151135861 
998	 0.1780025422247 
999	 0.179079218577122 
1000	 0.180033833898013 
1001	 0.180201089502252 
1002	 0.181036930439669 
1003	 0.181868137835982 
1004	 0.182715273646389 
1005	 0.183555286366188 
1006	 0.184368217633526 
1007	 0.185164935851771 
1008	 0.186035054527291 
1009	 0.186829813963997 
1010	 0.187644412749563 
1011	 0.188517094997719 
1012	 0.189306948338791 
1013	 0.190059979015475 
1014	 0.190882755544564 
1015	 0.191678451539534 
1016	 0.192421643491534 
1017	 0.19319373940877 
1018	 0.193999908862324 
1019	 0.194757338116399 
1020	 0.195472701272466 
1021	 0.196207927713312 
1022	 0.196904997299331 
1023	 0.197590222944275 
1024	 0.19828402847633 
1025	 0.199013165470772 
1026	 0.199781043131498 
1027	 0.20046306913523 
1028	 0.201180316917885 
1029	 0.201968375420821 
1030	 0.202628667073267 
1031	 0.203290083904796 
1032	 0.203973242896092 
1033	 0.204624561755777 
1034	 0.205176750646788 
1035	 0.205812992777805 
1036	 0.20645363786209 
1037	 0.20709747676569 
1038	 0.207758807462835 
1039	 0.208396099224053 
1040	 0.209054040050776 
1041	 0.209707330906769 
1042	 0.210341729392937 
1043	 0.210944667242177 
1044	 0.211549032507379 
1045	 0.212138855743933 
1046	 0.212741836401991 
1047	 0.213359850085793 
1048	 0.213999768990526 
1049	 0.214635492414563 
1050	 0.21524015934301 
1051	 0.215806174343259 
1052	 0.216357151027385 
1053	 0.216905728340225 
1054	 0.217445714975545 
1055	 0.217990507394629 
1056	 0.218548607707225 
1057	 0.219131154282963 
1058	 0.219785726887834 
1059	 0.220354051115056 
1060	 0.220900517397788 
1061	 0.221427771075469 
1062	 0.221925016317014 
1063	 0.222390666197498 
1064	 0.222927337873966 
1065	 0.223522047485983 
1066	 0.224085344797909 
1067	 0.224634436997931 
1068	 0.225162076383992 
1069	 0.225694503611135 
1070	 0.226211537342538 
1071	 0.226713097059185 
1072	 0.227203518646757 
1073	 0.227657819392598 
1074	 0.228141036314777 
1075	 0.228605361056918 
1076	 0.229136705592551 
1077	 0.229668435477146 
1078	 0.230183189103519 
1079	 0.230668702102423 
1080	 0.231136482070563 
1081	 0.231629691446586 
1082	 0.232112003510938 
1083	 0.232595859310944 
1084	 0.233106324120191 
1085	 0.233581067015579 
1086	 0.23400828533908 
1087	 0.234472082108499 
1088	 0.234933267505068 
1089	 0.235402242717674 
1090	 0.235922341630412 
1091	 0.236445607177835 
1092	 0.236920709790886 
1093	 0.237382066339758 
1094	 0.237844576762674 
1095	 0.23829341427623 
1096	 0.238773176889744 
1097	 0.23929041936644 
1098	 0.239756860381413 
1099	 0.240173813269875 
1100	 0.240633225877656 
1101	 0.241085359444314 
1102	 0.241549604008896 
1103	 0.242031507883876 
1104	 0.242529346247563 
1105	 0.243021060245683 
1106	 0.243510019862492 
1107	 0.243987133367109 
1108	 0.244503424490466 
1109	 0.245006937518191 
1110	 0.245477822276262 
1111	 0.245964806139567 
1112	 0.246444324675231 
1113	 0.246933965733376 
1114	 0.247434147690264 
1115	 0.247940180615981 
1116	 0.24846268047189 
1117	 0.248967624998318 
1118	 0.249465725932049 
1119	 0.249957007761829 
1120	 0.250483785067929 
1121	 0.250979584149122 
1122	 0.251480710318376 
1123	 0.2520169054081 
1124	 0.252518059302391 
1125	 0.252989619626273 
1126	 0.25348758417905 
1127	 0.254001551247747 
1128	 0.254480439283514 
1129	 0.25494873668908 
1130	 0.255411941267992 
1131	 0.255831631370099 
1132	 0.2562972530543 
1133	 0.256790940677628 
1134	 0.257280084820805 
1135	 0.257794550916804 
1136	 0.258293011422713 
1137	 0.258789010645178 
1138	 0.259248604535523 
1139	 0.259689216961319 
1140	 0.260098567470695 
1141	 0.260530734720028 
1142	 0.260938427503306 
1143	 0.261375093355472 
1144	 0.261856450276595 
1145	 0.262287169522169 
1146	 0.262703032890757 
1147	 0.263112278158809 
1148	 0.263494180327728 
1149	 0.263880422597383 
1150	 0.264257565431673 
1151	 0.264653954607051 
1152	 0.265030128763993 
1153	 0.26539534163808 
1154	 0.26576189277231 
1155	 0.26611504551788 
1156	 0.266487121199999 
1157	 0.266870651397839 
1158	 0.267243636939527 
1159	 0.267639803905217 
1160	 0.268000605145744 
1161	 0.268329802568572 
1162	 0.268671083039693 
1163	 0.269001248395232 
1164	 0.269333104049506 
1165	 0.269673819575348 
1166	 0.270011403408533 
1167	 0.270320913013714 
1168	 0.270632995235167 
1169	 0.270939906682781 
1170	 0.271225349938564 
1171	 0.271541654926864 
1172	 0.271880504499864 
1173	 0.272194001139477 
1174	 0.272521940972038 
1175	 0.272818600277891 
1176	 0.273074914315225 
1177	 0.27335854115349 
1178	 0.273664849157504 
1179	 0.273932305540684 
1180	 0.274179724095086 
1181	 0.274436698178211 
1182	 0.274677256417563 
1183	 0.274902624628204 
1184	 0.275149510907614 
1185	 0.27542554587634 
1186	 0.275671932466586 
1187	 0.275901285947075 
1188	 0.276144113675944 
1189	 0.276396866514702 
1190	 0.276628001887785 
1191	 0.276858503807628 
1192	 0.277076003129061 
1193	 0.277264960330994 
1194	 0.27746802072027 
1195	 0.277681114000668 
1196	 0.277880581411911 
1197	 0.278081518413733 
1198	 0.278269755213974 
1199	 0.27844797350577 
1200	 0.278606400878501 
1201	 0.27878349891023 
1202	 0.278959127493863 
1203	 0.279138148770312 
1204	 0.27932511717 
1205	 0.279510101564668 
1206	 0.279696056651533 
1207	 0.279877620418715 
1208	 0.280072653331112 
1209	 0.280242176750173 
1210	 0.280401722713728 
1211	 0.280547309926384 
1212	 0.28065753788624 
1213	 0.280789851217551 
1214	 0.280923817404489 
1215	 0.281057702821512 
1216	 0.281195959880268 
1217	 0.281351091556198 
1218	 0.281486997240184 
1219	 0.281616595981811 
1220	 0.281740250617806 
1221	 0.281841193346553 
1222	 0.281979043439196 
1223	 0.282142126025216 
1224	 0.282275879675776 
1225	 0.282424429899049 
1226	 0.282554226391152 
1227	 0.282642517209954 
1228	 0.282752737742759 
1229	 0.282878140683232 
1230	 0.282996371509477 
1231	 0.283108667347708 
1232	 0.283226341318991 
1233	 0.283345765421296 
1234	 0.283472192600977 
1235	 0.283578641722367 
1236	 0.28368723458538 
1237	 0.28377838148525 
1238	 0.283835649115284 
1239	 0.283925298953796 
1240	 0.284021225330653 
1241	 0.284119298143906 
1242	 0.284238559889372 
1243	 0.284342015270668 
1244	 0.28443498373925 
1245	 0.28453231134895 
1246	 0.284638849383494 
1247	 0.284727375835979 
1248	 0.284804505714596 
1249	 0.284884430627894 
1250	 0.2849520448074 
1251	 0.285012295718425 
1252	 0.285087977661563 
1253	 0.285175900493851 
1254	 0.28525583371532 
1255	 0.285330694841099 
1256	 0.285420680435656 
1257	 0.285524996502603 
1258	 0.285609118430713 
1259	 0.285685303377505 
1260	 0.285779894431543 
1261	 0.285876250427896 
1262	 0.285963853196748 
1263	 0.286072838042405 
1264	 0.286163999117415 
1265	 0.286217469108861 
1266	 0.286292112853563 
1267	 0.286382736758926 
1268	 0.286471084616863 
1269	 0.286541851904684 
1270	 0.286607817130161 
1271	 0.286681740613118 
1272	 0.28674265466451 
1273	 0.286809871100864 
1274	 0.286889112173471 
1275	 0.286963444908047 
1276	 0.287028403498599 
1277	 0.287100521428304 
1278	 0.287182998721076 
1279	 0.287259280931751 
1280	 0.287341188852339 
1281	 0.287403935638797 
1282	 0.287462666308428 
1283	 0.287511868675384 
1284	 0.287538566979528 
1285	 0.28756238112407 
1286	 0.287605002116426 
1287	 0.287647523505127 
1288	 0.287707855011319 
1289	 0.287786079034042 
1290	 0.287862994820338 
1291	 0.287961955010366 
1292	 0.28802321695649 
1293	 0.288076634006133 
1294	 0.288120019583493 
1295	 0.288133744493453 
1296	 0.288161214368719 
1297	 0.288191620828324 
1298	 0.288215330902918 
1299	 0.28824300673439 
1300	 0.288256469942853 
1301	 0.288256248193545 
1302	 0.288261743619655 
1303	 0.288271497415131 
1304	 0.288256526555896 
1305	 0.28824681434432 
1306	 0.288228653891744 
1307	 0.288200330919651 
1308	 0.288174047017165 
1309	 0.288156631787642 
1310	 0.288153583196237 
1311	 0.288133513256013 
1312	 0.288112080153684 
1313	 0.288083729507123 
1314	 0.288041824515496 
1315	 0.288006025986401 
1316	 0.28796656846392 
1317	 0.287936871422917 
1318	 0.287911345325397 
1319	 0.287887777326834 
1320	 0.287867160786097 
1321	 0.287852502619604 
1322	 0.28784928093023 
1323	 0.287834244053076 
1324	 0.287814975994945 
1325	 0.287791698797726 
1326	 0.287764016818189 
1327	 0.287749226686221 
1328	 0.287743558478682 
1329	 0.287744626932362 
1330	 0.28774841923157 
1331	 0.287750643619847 
1332	 0.28776194182578 
1333	 0.287787143666496 
1334	 0.287806962412208 
1335	 0.287818003164232 
1336	 0.287851875446129 
1337	 0.287896405538781 
1338	 0.287938306488472 
1339	 0.287999191381459 
1340	 0.288050303915176 
1341	 0.288097723019461 
1342	 0.28814175364731 
1343	 0.28818978414969 
1344	 0.288224385359437 
1345	 0.288252435281364 
1346	 0.288277181600895 
1347	 0.288292643235319 
1348	 0.288314935357936 
1349	 0.288327345500583 
1350	 0.288323174889507 
1351	 0.288311703088259 
1352	 0.288284200255338 
1353	 0.288258594166847 
1354	 0.288227494798573 
1355	 0.288196919782842 
1356	 0.288151174016879 
1357	 0.28813452808226 
1358	 0.288120219665037 
1359	 0.288122312716861 
1360	 0.288144116539638 
1361	 0.288181907241354 
1362	 0.28823078138495 
1363	 0.288290490724454 
1364	 0.288375246611535 
1365	 0.288455649379171 
1366	 0.288534282157911 
1367	 0.288631298919512 
1368	 0.288743375260254 
1369	 0.288835784386406 
1370	 0.288909219806433 
1371	 0.288975191523253 
1372	 0.289012158319955 
1373	 0.289028773454021 
1374	 0.28901948167954 
1375	 0.289008309356246 
1376	 0.288931102165676 
1377	 0.28880414896123 
1378	 0.288664339478091 
1379	 0.2884562013036 
1380	 0.288293342998515 
1381	 0.288117826995327 
1382	 0.287972376837748 
1383	 0.287875790764657 
1384	 0.287739260987213 
1385	 0.287613406259987 
1386	 0.287455071359477 
1387	 0.287276558212247 
1388	 0.287069529027641 
1389	 0.286851044235804 
1390	 0.286600494339383 
1391	 0.286285052510326 
1392	 0.285929455783174 
1393	 0.285527897915562 
1394	 0.285086109865948 
1395	 0.284628618985849 
1396	 0.284165973752275 
1397	 0.283711575995517 
1398	 0.283254805286667 
1399	 0.282788420235861 
1400	 0.28233387295431 
1401	 0.281844217269262 
1402	 0.281311670656779 
1403	 0.280818971519641 
1404	 0.280325425434868 
1405	 0.279843201573775 
1406	 0.279394110977959 
1407	 0.278917733104202 
1408	 0.278407219083494 
1409	 0.277943355380562 
1410	 0.277459259640094 
1411	 0.27704832863155 
1412	 0.276693521735759 
1413	 0.276361155445295 
1414	 0.276066393250147 
1415	 0.275798061825263 
1416	 0.275510328245889 
1417	 0.275235241171211 
1418	 0.274995878896825 
1419	 0.274747228800186 
1420	 0.274525247848094 
1421	 0.274340844167239 
1422	 0.274144584740123 
1423	 0.273949476648911 
1424	 0.273752456589674 
1425	 0.273551507295277 
1426	 0.273364744303467 
1427	 0.273168994814495 
1428	 0.273010790169512 
1429	 0.272884690147796 
1430	 0.272751576371184 
1431	 0.272636344363171 
1432	 0.272514756529388 
1433	 0.272382155513764 
1434	 0.272270724572003 
1435	 0.272166414681019 
1436	 0.272078168847324 
1437	 0.272027640931934 
1438	 0.271946444173388 
1439	 0.271861479782733 
1440	 0.271769652837481 
1441	 0.271655590510553 
1442	 0.271552820440976 
1443	 0.271490856108843 
1444	 0.271441823453606 
1445	 0.2714207167838 
1446	 0.271412640561775 
1447	 0.271391559169011 
1448	 0.271379827272244 
1449	 0.271351018867646 
1450	 0.27132723532124 
1451	 0.271323760987103 
1452	 0.271322340948454 
1453	 0.271339544209476 
1454	 0.271392726043949 
1455	 0.271417024668451 
1456	 0.271434762850929 
1457	 0.271465216694822 
1458	 0.271479981070125 
1459	 0.271522440041619 
1460	 0.271587370741755 
1461	 0.271655708534937 
1462	 0.271746943177581 
1463	 0.271818277705773 
1464	 0.271893208364553 
1465	 0.271956518025854 
1466	 0.271987885140042 
1467	 0.272052834637103 
1468	 0.272120222884456 
1469	 0.27220706842037 
1470	 0.272318960589954 
1471	 0.272440796069598 
1472	 0.272570631961554 
1473	 0.272692838841115 
1474	 0.27277164936704 
1475	 0.272868274784105 
1476	 0.272978516443692 
1477	 0.273094498506444 
1478	 0.273277005176914 
1479	 0.273466206524577 
1480	 0.273639147522744 
1481	 0.273813422243827 
1482	 0.273967268240457 
1483	 0.274100522869558 
1484	 0.274239190675573 
1485	 0.274359967629989 
1486	 0.27450574452403 
1487	 0.27466309469743 
1488	 0.274814807604264 
1489	 0.274979321598972 
1490	 0.275133131098651 
1491	 0.275275553484978 
1492	 0.275422747127825 
1493	 0.275567319941528 
1494	 0.27572490998729 
1495	 0.275898792580644 
1496	 0.276054197169201 
1497	 0.27621781575917 
1498	 0.276360260412723 
1499	 0.276474995949374 
1500	 0.276591860448587 
1501	 0.276696917519994 
1502	 0.276810907213773 
1503	 0.276916213349832 
1504	 0.277040626207259 
1505	 0.277188112557969 
1506	 0.277315205222792 
1507	 0.277427074262977 
1508	 0.277537087221175 
1509	 0.277630965282748 
1510	 0.277734633045498 
1511	 0.277869636437472 
1512	 0.277995064767536 
1513	 0.278116872602743 
1514	 0.278243384147524 
1515	 0.27836432632954 
1516	 0.278493249692324 
1517	 0.278599831115045 
1518	 0.27869653758671 
1519	 0.27879773585536 
1520	 0.278878290970998 
1521	 0.278981299377782 
1522	 0.279101699740412 
1523	 0.279213307291242 
1524	 0.279329709830194 
1525	 0.279434270815563 
1526	 0.279532358193902 
1527	 0.279636743569849 
1528	 0.279734391488041 
1529	 0.279837435708088 
1530	 0.279955412512465 
1531	 0.280053891363738 
1532	 0.280145145129779 
1533	 0.280230393522971 
1534	 0.280298795824763 
1535	 0.280378118190843 
1536	 0.280457034664042 
1537	 0.280537250437908 
1538	 0.280624173989104 
1539	 0.280706962632506 
1540	 0.280784349154249 
1541	 0.280864426805441 
1542	 0.280940156265678 
1543	 0.281026420244219 
1544	 0.281126632061681 
1545	 0.28121797572026 
1546	 0.281313727370637 
1547	 0.281399014591226 
1548	 0.281492152242395 
1549	 0.281582848533134 
1550	 0.281665419905401 
1551	 0.281747555220353 
1552	 0.281821610715473 
1553	 0.281888007028429 
1554	 0.281954883589421 
1555	 0.282023845438041 
1556	 0.282076691060085 
1557	 0.282122385497465 
1558	 0.282186040521327 
1559	 0.282254189553962 
1560	 0.282318562256616 
1561	 0.2823919671009 
1562	 0.282447849145577 
1563	 0.282485958796745 
1564	 0.282549290641403 
1565	 0.282620255025814 
1566	 0.282683309503121 
1567	 0.282762403870766 
1568	 0.282819637888042 
1569	 0.282857035817165 
1570	 0.282900497383161 
1571	 0.28294586096698 
1572	 0.282979248707061 
1573	 0.282996065046855 
1574	 0.283032256321894 
1575	 0.283069613711917 
1576	 0.283110256560729 
1577	 0.283162771840826 
1578	 0.283213686352792 
1579	 0.283266706989502 
1580	 0.283310941954928 
1581	 0.283360690636557 
1582	 0.283401607129919 
1583	 0.283417952199637 
1584	 0.283456961622701 
1585	 0.283501485928375 
1586	 0.283555514784425 
1587	 0.283639215322069 
1588	 0.283694682982485 
1589	 0.283743976971203 
1590	 0.283785450687507 
1591	 0.283811054047695 
1592	 0.283832592994886 
1593	 0.283843755654381 
1594	 0.283864415713779 
1595	 0.283887243660663 
1596	 0.283895783901909 
1597	 0.283904910044552 
1598	 0.283908437729333 
1599	 0.28387304309348 
1600	 0.283880510434672 
1601	 0.283921416706566 
1602	 0.2839521679616 
1603	 0.284017763250694 
1604	 0.284049898933438 
1605	 0.284030406438861 
1606	 0.284054611221172 
1607	 0.284098984371273 
1608	 0.284131234147672 
1609	 0.284180473447815 
1610	 0.284223660043465 
1611	 0.284227410538126 
1612	 0.284236397595031 
1613	 0.284268843384079 
1614	 0.284307940883048 
1615	 0.284340886404443 
1616	 0.284361079140783 
1617	 0.284378233113192 
1618	 0.284373763611898 
1619	 0.284361801240361 
1620	 0.284363476633208 
1621	 0.284363652528164 
1622	 0.284356636172108 
1623	 0.284361129491917 
1624	 0.284378268681036 
1625	 0.284387736054795 
1626	 0.284391172871995 
1627	 0.2844113204445 
1628	 0.284442732868106 
1629	 0.284458348827171 
1630	 0.284485969735221 
1631	 0.284482484799699 
1632	 0.284447601941127 
1633	 0.284442695558723 
1634	 0.284433680408973 
1635	 0.284436263787867 
1636	 0.284459146486846 
1637	 0.284469173763889 
1638	 0.284472017081766 
1639	 0.284486114890001 
1640	 0.284502065115082 
1641	 0.284527700612243 
1642	 0.284572371693696 
1643	 0.284589041146468 
1644	 0.284595765327427 
1645	 0.284612582395872 
1646	 0.284621515153308 
1647	 0.284625055463276 
1648	 0.284637419440801 
1649	 0.284641173222193 
1650	 0.284623745896131 
1651	 0.284622090724526 
1652	 0.284630612794388 
1653	 0.284637945651969 
1654	 0.284644984237199 
1655	 0.284653435990997 
1656	 0.284678876076124 
1657	 0.284672552258756 
1658	 0.284642513377555 
1659	 0.284630995045408 
1660	 0.284608660346196 
1661	 0.284595391020523 
1662	 0.28459805476233 
1663	 0.284595492756154 
1664	 0.28459360569247 
1665	 0.284579656021114 
1666	 0.284566100807804 
1667	 0.284546854457648 
1668	 0.284507552314008 
1669	 0.28448329318542 
1670	 0.284464018418689 
1671	 0.284450815840167 
1672	 0.284443457501213 
1673	 0.284435391422368 
1674	 0.2844320172784 
1675	 0.284431941328521 
1676	 0.284442774354566 
1677	 0.284431378734238 
1678	 0.284414388207294 
1679	 0.284395103631075 
1680	 0.284346381652704 
1681	 0.284330610337182 
1682	 0.284329928006899 
1683	 0.28433485967774 
1684	 0.284362615806187 
1685	 0.284373370723542 
1686	 0.284391108635078 
1687	 0.284388635859786 
1688	 0.284361756754749 
1689	 0.28435386425622 
1690	 0.28435329166997 
1691	 0.284333361526226 
1692	 0.284322106845775 
1693	 0.284283988794363 
1694	 0.284196778837679 
1695	 0.284156979176123 
1696	 0.28412437351655 
1697	 0.284106652046798 
1698	 0.284123731019107 
1699	 0.284122060485096 
1700	 0.284121119029343 
1701	 0.284114932684801 
1702	 0.284105394779474 
1703	 0.284091603465798 
1704	 0.284071953947046 
1705	 0.284052620520988 
1706	 0.284026991972383 
1707	 0.284010846648285 
1708	 0.283998483571582 
1709	 0.283985446903719 
1710	 0.283983645403171 
1711	 0.283965089098041 
1712	 0.283941262628022 
1713	 0.283911284161073 
1714	 0.283860114780566 
1715	 0.283829491563138 
1716	 0.283799868578886 
1717	 0.283780915697039 
1718	 0.283786498982262 
1719	 0.283766177351993 
1720	 0.283744456852849 
1721	 0.283712360710654 
1722	 0.283651337415564 
1723	 0.283620794928252 
1724	 0.283615411594265 
1725	 0.283567237353254 
1726	 0.283511802069298 
1727	 0.283456910441498 
1728	 0.283359663960449 
1729	 0.283308459440129 
1730	 0.283288830484443 
1731	 0.283259577095218 
1732	 0.283251655603161 
1733	 0.283205939552671 
1734	 0.283146828883878 
1735	 0.283079146542127 
1736	 0.282980367095771 
1737	 0.282904505692312 
1738	 0.282840431775761 
1739	 0.282764704510077 
1740	 0.282686943007605 
1741	 0.28261108452077 
1742	 0.282523359849773 
1743	 0.282451099149861 
1744	 0.282387613047278 
1745	 0.282335412576932 
1746	 0.282296195243304 
1747	 0.282258539970342 
1748	 0.282205290886992 
1749	 0.282119691583449 
1750	 0.282038521719677 
1751	 0.281962734701545 
1752	 0.281880199849824 
1753	 0.28180466619234 
1754	 0.281759438100253 
1755	 0.281702145056249 
1756	 0.281634656935237 
1757	 0.281606869525556 
1758	 0.28156582977177 
1759	 0.281506043514133 
1760	 0.281464043244526 
1761	 0.281419938391229 
1762	 0.281361446634797 
1763	 0.281310617259286 
1764	 0.28127825797201 
1765	 0.281240070702922 
1766	 0.281198703679633 
1767	 0.281166398636499 
1768	 0.28113518701973 
1769	 0.281093841562543 
1770	 0.281043705957161 
1771	 0.281010422901892 
1772	 0.280971217379492 
1773	 0.280910050784518 
1774	 0.280859054067841 
1775	 0.280812764952945 
1776	 0.280746601313913 
1777	 0.280665691073572 
1778	 0.280617495172709 
1779	 0.280582196674146 
1780	 0.280524044354876 
1781	 0.280484134458351 
1782	 0.280452723419514 
1783	 0.28041617146434 
1784	 0.280392738183893 
1785	 0.280403026415714 
1786	 0.280392707061559 
1787	 0.280362985423185 
1788	 0.280341187097345 
1789	 0.280311495972521 
1790	 0.280305896614658 
1791	 0.28032945224872 
1792	 0.280331475423097 
1793	 0.280337999244547 
1794	 0.280338659480286 
1795	 0.280310548595442 
1796	 0.280303885251817 
1797	 0.280325197577516 
1798	 0.280312918872746 
1799	 0.280291949279185 
1800	 0.280267812261775 
1801	 0.279067881438984 
1802	 0.279254874567085 
1803	 0.27945404736149 
1804	 0.279696683644054 
1805	 0.279890777936202 
1806	 0.280043485487463 
1807	 0.280197893198564 
1808	 0.280318731108034 
1809	 0.280405888500366 
1810	 0.280483011903671 
1811	 0.280542438695665 
1812	 0.280576008353943 
1813	 0.280636778700765 
1814	 0.280678982988381 
1815	 0.280694828648954 
1816	 0.280737013820647 
1817	 0.280772647351044 
1818	 0.280772748104706 
1819	 0.280795510710272 
1820	 0.280847630943063 
1821	 0.280890165241571 
1822	 0.280878084391938 
1823	 0.280895318883557 
1824	 0.280915868297143 
1825	 0.280890902196934 
1826	 0.28089197060281 
1827	 0.280879885651528 
1828	 0.280839314330836 
1829	 0.280780305790703 
1830	 0.280719696785667 
1831	 0.280636002444128 
1832	 0.280535598852205 
1833	 0.280472076683654 
1834	 0.280400128349264 
1835	 0.280346566245333 
1836	 0.280315001218359 
1837	 0.280312796073867 
1838	 0.280304173510106 
1839	 0.280286695010381 
1840	 0.280275528295041 
1841	 0.280272719993874 
1842	 0.280208701465609 
1843	 0.280170862344417 
1844	 0.280184403511969 
1845	 0.280179302016713 
1846	 0.280201546069681 
1847	 0.280246424480156 
1848	 0.280245819377994 
1849	 0.2802091593631 
1850	 0.280186352788492 
1851	 0.280169963434393 
1852	 0.280124985182918 
1853	 0.280058220528014 
1854	 0.280024653918159 
1855	 0.27997019297671 
1856	 0.279897632453741 
1857	 0.279833759418032 
1858	 0.279737521390356 
1859	 0.279615828210298 
1860	 0.279470867659506 
1861	 0.279304486236296 
1862	 0.279108063971481 
1863	 0.278856777270235 
1864	 0.278563760088815 
1865	 0.278242659403375 
1866	 0.277829167378722 
1867	 0.27741509159079 
1868	 0.276992457718803 
1869	 0.276519500021804 
1870	 0.276074980204972 
1871	 0.275641404516857 
1872	 0.275221441142432 
1873	 0.274803202105965 
1874	 0.274381872057073 
1875	 0.273976994703302 
1876	 0.273530744954838 
1877	 0.273049589899096 
1878	 0.272506852389584 
1879	 0.271862062619302 
1880	 0.271148139301485 
1881	 0.270344871913328 
1882	 0.269472050258754 
1883	 0.268533179007379 
1884	 0.267507961638165 
1885	 0.266414054385784 
1886	 0.265282094801812 
1887	 0.264052783963543 
1888	 0.262775516162332 
1889	 0.261414199301738 
1890	 0.259956219152874 
1891	 0.258470010873828 
1892	 0.256910670432938 
1893	 0.255322547307858 
1894	 0.253682298025998 
1895	 0.252027325523236 
1896	 0.250328321190608 
1897	 0.24860308892254 
1898	 0.246873357945383 
1899	 0.245177708745176 
1900	 0.243521549313324 
1901	 0.241912168316234 
1902	 0.240376368191028 
1903	 0.238923639108821 
1904	 0.237505038235593 
1905	 0.23612885582266 
1906	 0.234829058732925 
1907	 0.233612255099336 
1908	 0.232433711823417 
1909	 0.231310059101944 
1910	 0.230249481061828 
1911	 0.229203546172468 
1912	 0.228207590540403 
1913	 0.227269331560913 
1914	 0.226377401954835 
1915	 0.225548229732715 
1916	 0.224777278913665 
1917	 0.224048275180063 
1918	 0.223409325381584 
1919	 0.222822083236914 
1920	 0.222306384821394 
1921	 0.221871647324586 
1922	 0.221443559130212 
1923	 0.221077202279485 
1924	 0.220746686532666 
1925	 0.220455163044257 
1926	 0.220196694472333 
1927	 0.219987402328779 
1928	 0.219802667609048 
1929	 0.219637994802331 
1930	 0.219500774362269 
1931	 0.219395882339153 
1932	 0.219323987707378 
1933	 0.219303725466514 
1934	 0.219307339704652 
1935	 0.219317497511189 
1936	 0.219354350100187 
1937	 0.219403498635151 
1938	 0.219438611068775 
1939	 0.219526391574891 
1940	 0.219650595670514 
1941	 0.219797419100849 
1942	 0.219977719427794 
1943	 0.220189610002849 
1944	 0.220398232394006 
1945	 0.220616372505447 
1946	 0.220847117760313 
1947	 0.221075811037244 
1948	 0.221333991422606 
1949	 0.221610165107279 
1950	 0.221905767312267 
1951	 0.222225543456892 
1952	 0.222562439566095 
1953	 0.222887835660442 
1954	 0.223252429091999 
1955	 0.223584406960333 
1956	 0.223916086226329 
1957	 0.224291048550879 
1958	 0.22469168309201 
1959	 0.225089246476682 
1960	 0.225537820740327 
1961	 0.225944356167395 
1962	 0.226325450688664 
1963	 0.22672012792677 
1964	 0.227104911127658 
1965	 0.227493304096857 
1966	 0.227902580669616 
1967	 0.22831772244391 
1968	 0.228738322894466 
1969	 0.229173830768641 
1970	 0.22959615244481 
1971	 0.230024047153779 
1972	 0.230442319240598 
1973	 0.23084060104506 
1974	 0.231257859969426 
1975	 0.231687293118922 
1976	 0.232104908552837 
1977	 0.232533702154702 
1978	 0.232952336442446 
1979	 0.233368192123424 
1980	 0.233813794689427 
1981	 0.234245287603967 
1982	 0.234676143862106 
1983	 0.235120465493503 
1984	 0.235579013024975 
1985	 0.236013946492866 
1986	 0.236462331114384 
1987	 0.236885016149575 
1988	 0.23727468083082 
1989	 0.23766542563742 
1990	 0.238060095607707 
1991	 0.238455966713426 
1992	 0.2388626492489 
1993	 0.239278379157254 
1994	 0.239692298792724 
1995	 0.240115041880753 
1996	 0.240531538512044 
1997	 0.240955350740714 
1998	 0.241368633526716 
1999	 0.241773450803847 
2000	 0.242177284499181 
2001	 0.242579054646936 
2002	 0.242965193367597 
2003	 0.243361523957313 
2004	 0.243774157653812 
2005	 0.244190943174488 
2006	 0.244625106069361 
2007	 0.245047800557278 
2008	 0.24547405211422 
2009	 0.245891942194926 
2010	 0.246301553771669 
2011	 0.246714872263915 
2012	 0.247132850438 
2013	 0.247542034543299 
2014	 0.247949190263941 
2015	 0.248354848856901 
2016	 0.248739228657562 
2017	 0.249121645946546 
2018	 0.249498184802306 
2019	 0.249860667026015 
2020	 0.250231019865435 
2021	 0.250603271891419 
2022	 0.250968016646882 
2023	 0.251322812785909 
2024	 0.251693136502802 
2025	 0.252060266715786 
2026	 0.252440247085457 
2027	 0.252849486385749 
2028	 0.2532493855442 
2029	 0.253613094996736 
2030	 0.253957863995012 
2031	 0.254307189904754 
2032	 0.254624918185798 
2033	 0.254964882941543 
2034	 0.255335896527589 
2035	 0.255668771801337 
2036	 0.255973610505642 
2037	 0.256291446264071 
2038	 0.256605310963666 
2039	 0.256909539594851 
2040	 0.257202514320576 
2041	 0.257521099225382 
2042	 0.257808140794887 
2043	 0.258087834423525 
2044	 0.258374597889269 
2045	 0.258670110608779 
2046	 0.258945109431884 
2047	 0.259204667182105 
2048	 0.259478579886905 
2049	 0.2597563142155 
2050	 0.260020027536081 
2051	 0.260288182333732 
2052	 0.260546420321952 
2053	 0.2607650862051 
2054	 0.261017355005369 
2055	 0.261284881353629 
2056	 0.261568700459534 
2057	 0.261834380181856 
2058	 0.262115463001068 
2059	 0.262372281662986 
2060	 0.262612952502689 
2061	 0.262845404240492 
2062	 0.263067212776967 
2063	 0.263285188550371 
2064	 0.263476757772756 
2065	 0.263688491970916 
2066	 0.263911952575042 
2067	 0.264131425517691 
2068	 0.264353476815004 
2069	 0.264578013827538 
2070	 0.264805354691613 
2071	 0.265037184716562 
2072	 0.265252911979671 
2073	 0.265473480794212 
2074	 0.26567673422213 
2075	 0.265847845005296 
2076	 0.266044892326821 
2077	 0.266236676117279 
2078	 0.266450052070029 
2079	 0.266694872297774 
2080	 0.266920031047841 
2081	 0.267142735139264 
2082	 0.267372746711962 
2083	 0.267612682792475 
2084	 0.267832818650219 
2085	 0.268036171353682 
2086	 0.268241788941365 
2087	 0.268429677687537 
2088	 0.268579914000214 
2089	 0.26875040619723 
2090	 0.268911747622213 
2091	 0.269103148552989 
2092	 0.269301678744911 
2093	 0.269511162642363 
2094	 0.269771078685166 
2095	 0.269991451704067 
2096	 0.270200460543564 
2097	 0.270398589168148 
2098	 0.270577624312811 
2099	 0.270741642600343 
2100	 0.270928440333416 
2101	 0.271113943562973 
2102	 0.271311448933505 
2103	 0.271526502096311 
2104	 0.271733632708747 
2105	 0.271937214518549 
2106	 0.272150731654296 
2107	 0.272375191548708 
2108	 0.272591849539444 
2109	 0.272808544089979 
2110	 0.273029087841382 
2111	 0.27324711335726 
2112	 0.273466790994357 
2113	 0.273683365828203 
2114	 0.273915916846453 
2115	 0.274148663999039 
2116	 0.274381383384563 
2117	 0.274615794201365 
2118	 0.274867394985483 
2119	 0.27509569389123 
2120	 0.275322489662089 
2121	 0.275527916252221 
2122	 0.275700866943628 
2123	 0.275899535739371 
2124	 0.276104807225364 
2125	 0.276292166284557 
2126	 0.276497558246343 
2127	 0.276675058234369 
2128	 0.276824184961024 
2129	 0.276964641941078 
2130	 0.277109519513283 
2131	 0.277210249988072 
2132	 0.277313374587319 
2133	 0.277395018491461 
2134	 0.277479973976292 
2135	 0.277563368177939 
2136	 0.277627903299884 
2137	 0.277674022425029 
2138	 0.277729782861333 
2139	 0.277785344801553 
2140	 0.277820631838661 
2141	 0.277858066381604 
2142	 0.27787716009811 
2143	 0.277869500054925 
2144	 0.277857723846222 
2145	 0.277835190091986 
2146	 0.277811082180084 
2147	 0.277776193002441 
2148	 0.277742236557353 
2149	 0.277687618924027 
2150	 0.277633184541649 
2151	 0.277549817415842 
2152	 0.277428217984076 
2153	 0.277329157839127 
2154	 0.277227885420128 
2155	 0.277120269193329 
2156	 0.277028650223583 
2157	 0.27690482189172 
2158	 0.276754173684237 
2159	 0.276605454568448 
2160	 0.276444438602054 
2161	 0.276277089143887 
2162	 0.276110974493086 
2163	 0.275929088713786 
2164	 0.275740132214497 
2165	 0.275534554764248 
2166	 0.275301371483025 
2167	 0.275043096062947 
2168	 0.274790254464772 
2169	 0.274495016446615 
2170	 0.274254008119873 
2171	 0.274023646949747 
2172	 0.273822214834793 
2173	 0.273662573039529 
2174	 0.273488841623195 
2175	 0.273339371450178 
2176	 0.273172478780478 
2177	 0.273003248926814 
2178	 0.272821790609276 
2179	 0.272629702539601 
2180	 0.272435796495228 
2181	 0.272248585951113 
2182	 0.272032171578187 
2183	 0.271780605566892 
2184	 0.271546513229329 
2185	 0.271318346508431 
2186	 0.271071459475699 
2187	 0.270842130357375 
2188	 0.270637768149915 
2189	 0.27042530362002 
2190	 0.270189185698346 
2191	 0.269996585187876 
2192	 0.26984158520098 
2193	 0.269669425621294 
2194	 0.269507787419557 
2195	 0.269348922367069 
2196	 0.269166120040293 
2197	 0.269024975663883 
2198	 0.268895109716094 
2199	 0.2688008465647 
2200	 0.268755774312821 
2201	 0.268710038039415 
2202	 0.26869573033469 
2203	 0.268678386649043 
2204	 0.268665806500152 
2205	 0.268651417789672 
2206	 0.268651053334665 
2207	 0.268672069662055 
2208	 0.268672855307476 
2209	 0.268660726566399 
2210	 0.268675299405426 
2211	 0.26868420407571 
2212	 0.268714557564934 
2213	 0.268782664520603 
2214	 0.268835643433468 
2215	 0.268894016363456 
2216	 0.268945443869733 
2217	 0.268995285333606 
2218	 0.26904048676888 
2219	 0.269072603815169 
2220	 0.269115433966605 
2221	 0.269172730707715 
2222	 0.269215064830552 
2223	 0.269253270614272 
2224	 0.269270055272722 
2225	 0.269283259512648 
2226	 0.269272630530766 
2227	 0.269272804372352 
2228	 0.269283850028872 
2229	 0.269267837524692 
2230	 0.269216766958752 
2231	 0.269211923122842 
2232	 0.269209071849186 
2233	 0.269217892869462 
2234	 0.269274755827645 
2235	 0.269294075987048 
2236	 0.269314695482746 
2237	 0.269299431442507 
2238	 0.269248089995068 
2239	 0.26920645413003 
2240	 0.269122732800446 
2241	 0.269075576031595 
2242	 0.269055660812096 
2243	 0.269032923986689 
2244	 0.269032657032614 
2245	 0.269029862574528 
2246	 0.268973497663586 
2247	 0.268873834281639 
2248	 0.268811274160565 
2249	 0.268713607534576 
2250	 0.268659194531503 
2251	 0.268657113397061 
2252	 0.268619672448415 
2253	 0.268566578941819 
2254	 0.268525914748152 
2255	 0.268486911506415 
2256	 0.268455289697941 
2257	 0.268435622194985 
2258	 0.268398937447147 
2259	 0.268354905376065 
2260	 0.268317882093739 
2261	 0.268264819115087 
2262	 0.268237958267497 
2263	 0.268222739339198 
2264	 0.26822495568075 
2265	 0.268255494073773 
2266	 0.268271978879617 
2267	 0.268292386225612 
2268	 0.268320772425977 
2269	 0.268343160098169 
2270	 0.268378873376918 
2271	 0.268415593480564 
2272	 0.268470968482159 
2273	 0.268498807719301 
2274	 0.268526015694519 
2275	 0.268539617870213 
2276	 0.268547213533452 
2277	 0.268521845803337 
2278	 0.268459417144925 
2279	 0.268436920922707 
2280	 0.268393846298087 
2281	 0.268398585274986 
2282	 0.268462342267562 
2283	 0.268491821793729 
2284	 0.268536130064243 
2285	 0.26854758042537 
2286	 0.268524516816745 
2287	 0.268520173698216 
2288	 0.268502059690451 
2289	 0.268499977898831 
2290	 0.268532751864739 
2291	 0.26853144227198 
2292	 0.268523539370435 
2293	 0.268501175987224 
2294	 0.268424045754104 
2295	 0.268396027102694 
2296	 0.268389577810304 
2297	 0.268379973322799 
2298	 0.268389552881043 
2299	 0.268383144743015 
2300	 0.268370779125828 
2301	 0.26835461313557 
2302	 0.268345671082691 
2303	 0.268362973899917 
2304	 0.268373431272797 
2305	 0.268356850339108 
2306	 0.268304575529841 
2307	 0.268213933217376 
2308	 0.268147948619441 
2309	 0.268056502557988 
2310	 0.267972669040571 
2311	 0.267922545574428 
2312	 0.267829185831851 
2313	 0.2676958093083 
2314	 0.267571362864556 
2315	 0.267435929357357 
2316	 0.267301591659644 
2317	 0.267129720313997 
2318	 0.267037291849297 
2319	 0.266999422363093 
2320	 0.266929410755484 
2321	 0.266906804562221 
2322	 0.266855185517044 
2323	 0.266757582626284 
2324	 0.266681432298674 
2325	 0.266624812061588 
2326	 0.266548731192712 
2327	 0.266458690753735 
2328	 0.26635834191608 
2329	 0.266318127694393 
2330	 0.266287266048936 
2331	 0.266226963927059 
2332	 0.266171257342069 
2333	 0.266069329194517 
2334	 0.265971237301893 
2335	 0.265881501661763 
2336	 0.265765629242788 
2337	 0.265647548573967 
2338	 0.265534242059735 
2339	 0.265444861612559 
2340	 0.265364627009088 
2341	 0.26527829933576 
2342	 0.265156336678654 
2343	 0.265018745507707 
2344	 0.264926123735159 
2345	 0.264813020747797 
2346	 0.264719660942837 
2347	 0.264583807120449 
2348	 0.264412274917704 
2349	 0.264250224540908 
2350	 0.26408925111936 
2351	 0.263879644992518 
2352	 0.263635334114011 
2353	 0.263413379510376 
2354	 0.263158435416363 
2355	 0.262940671843471 
2356	 0.26277334186838 
2357	 0.26255010055307 
2358	 0.262283870993425 
2359	 0.262059877447319 
2360	 0.261841588263508 
2361	 0.261634436034095 
2362	 0.261456072155838 
2363	 0.26126259360655 
2364	 0.261081989884035 
2365	 0.260856692122236 
2366	 0.260625459218002 
2367	 0.260374985506189 
2368	 0.260036700100186 
2369	 0.259756794137822 
2370	 0.259487039104369 
2371	 0.259275296426087 
2372	 0.259047918003755 
2373	 0.258794156735373 
2374	 0.25859523502502 
2375	 0.258254855608353 
2376	 0.257887515452438 
2377	 0.257589954836931 
2378	 0.257274459349665 
2379	 0.257044493185076 
2380	 0.256814653299602 
2381	 0.256606789395232 
2382	 0.256341843887764 
2383	 0.256002738319992 
2384	 0.255730000498635 
2385	 0.2553741742333 
2386	 0.255050252965919 
2387	 0.254813855234272 
2388	 0.25454670244439 
2389	 0.254393929895096 
2390	 0.254236873195114 
2391	 0.253962518744983 
2392	 0.253688076855129 
2393	 0.253423006343962 
2394	 0.253104626269566 
2395	 0.252815936113187 
2396	 0.252587003526151 
2397	 0.25223219078978 
2398	 0.251884187449015 
2399	 0.251586323367931 
2400	 0.251230791994181 
2401	 0.25095204957321 
2402	 0.250663480076006 
2403	 0.25024492714895 
2404	 0.2498940832172 
2405	 0.249630474864948 
2406	 0.249287593757259 
2407	 0.24903671640266 
2408	 0.248787189980002 
2409	 0.248389943204959 
2410	 0.24805734133042 
2411	 0.247687747724182 
2412	 0.247316812667331 
2413	 0.24699706501346 
2414	 0.246673612916914 
2415	 0.246430881483377 
2416	 0.246126517047053 
2417	 0.245783553589247 
2418	 0.245446709446746 
2419	 0.245061588857917 
2420	 0.24474291450857 
2421	 0.244487302035443 
2422	 0.244227848525182 
2423	 0.244000642806118 
2424	 0.243754245785986 
2425	 0.243491335254097 
2426	 0.243234647482424 
2427	 0.243020463694678 
2428	 0.24268161892961 
2429	 0.242249486176253 
2430	 0.24192823926416 
2431	 0.241611551432622 
2432	 0.241230526952798 
2433	 0.240902113066571 
2434	 0.240500615425705 
2435	 0.239923733544724 
2436	 0.239494838272299 
2437	 0.239156118571052 
2438	 0.238859214495251 
2439	 0.238630620160044 
2440	 0.238371585764483 
2441	 0.238178709081708 
2442	 0.237863281776288 
2443	 0.23741601685594 
2444	 0.23708916802441 
2445	 0.236792148020961 
2446	 0.236480265468504 
2447	 0.236262566299544 
2448	 0.235997477332264 
2449	 0.235623693777387 
2450	 0.23530442570162 
2451	 0.235057818107955 
2452	 0.234696736995584 
2453	 0.234285700759178 
2454	 0.233941697682456 
2455	 0.233590973795932 
2456	 0.233224053221417 
2457	 0.232883516743686 
2458	 0.232474194407143 
2459	 0.231924442350787 
2460	 0.231467391476601 
2461	 0.231044265481196 
2462	 0.23073407918873 
2463	 0.230590290446807 
2464	 0.230378792976766 
2465	 0.230160108437334 
2466	 0.229920531954922 
2467	 0.229638905140949 
2468	 0.229355474008795 
2469	 0.229125288258667 
2470	 0.228798802688812 
2471	 0.228431860060775 
2472	 0.228163942668001 
2473	 0.227876862039587 
2474	 0.227636096217558 
2475	 0.227492821932112 
2476	 0.227207149585843 
2477	 0.226803753209218 
2478	 0.226432768500787 
2479	 0.225981659658853 
2480	 0.225545283175078 
2481	 0.225256198763792 
2482	 0.225064840561976 
2483	 0.224885597851253 
2484	 0.224824269935731 
2485	 0.22471636452636 
2486	 0.224383500928355 
2487	 0.224108023677839 
2488	 0.22371746371633 
2489	 0.223181344638516 
2490	 0.222793990130092 
2491	 0.222514792116786 
2492	 0.222323961448256 
2493	 0.222265168174755 
2494	 0.222096335019075 
2495	 0.221912205681872 
2496	 0.221666302954251 
2497	 0.221267352148446 
2498	 0.221171489650176 
2499	 0.220967313209049 
2500	 0.220460906501501 
