Wavelength	LMW_1800008.asd
350	 4.33945302014621E-02 
351	 5.80048809895023E-02 
352	 5.99115315971223E-02 
353	 0.043440892289139 
354	 5.20885609221441E-02 
355	 5.43490182171569E-02 
356	 5.12256460888067E-02 
357	 5.12194048532784E-02 
358	 5.86692112149008E-02 
359	 6.26935173994863E-02 
360	 5.99925399170177E-02 
361	 5.33292402418657E-02 
362	 4.93173028538092E-02 
363	 0.051059582019705 
364	 5.60047398335621E-02 
365	 5.40526764047534E-02 
366	 5.30728662348038E-02 
367	 5.27277558807238E-02 
368	 5.18888534577667E-02 
369	 5.60849608326598E-02 
370	 0.054911715487252 
371	 5.10161868654011E-02 
372	 5.48952700980215E-02 
373	 5.57498289951859E-02 
374	 5.35808739381005E-02 
375	 5.17742755009544E-02 
376	 5.74833365545108E-02 
377	 5.68312647582001E-02 
378	 0.054099648321287 
379	 5.64683176078102E-02 
380	 5.87844761930163E-02 
381	 5.72594933491171E-02 
382	 5.45586206811341E-02 
383	 5.72303904297792E-02 
384	 5.59736599212279E-02 
385	 5.46081957101863E-02 
386	 5.58109015794161E-02 
387	 5.66144388276758E-02 
388	 5.69706509701092E-02 
389	 0.05777688318623 
390	 5.94638106153618E-02 
391	 5.84108667611034E-02 
392	 5.77291976204193E-02 
393	 5.89021589092356E-02 
394	 6.14811048517063E-02 
395	 6.07296760017052E-02 
396	 6.04613880133526E-02 
397	 6.27112446536275E-02 
398	 6.26914185119687E-02 
399	 6.19349456567995E-02 
400	 6.19460341690419E-02 
401	 0.063513561750545 
402	 6.31871157075737E-02 
403	 0.063379976759636 
404	 6.39971315774354E-02 
405	 6.22491631470071E-02 
406	 6.15966429166274E-02 
407	 6.25945484543906E-02 
408	 6.42240187802401E-02 
409	 6.30260135870889E-02 
410	 0.06250467343164 
411	 6.28483617291755E-02 
412	 0.062854591355525 
413	 0.063689028490743 
414	 6.39691810474602E-02 
415	 0.063458914876846 
416	 6.36015175902199E-02 
417	 6.39480887695368E-02 
418	 6.41866491091194E-02 
419	 6.42116701319232E-02 
420	 6.46326071709211E-02 
421	 6.42041977989884E-02 
422	 6.38892745963172E-02 
423	 6.56249366001549E-02 
424	 6.54783870276174E-02 
425	 6.45670798712258E-02 
426	 6.41853887521422E-02 
427	 6.48211629272798E-02 
428	 6.46902318076415E-02 
429	 6.44093181527257E-02 
430	 0.065005998596471 
431	 6.54354582576905E-02 
432	 6.50877673069441E-02 
433	 6.45084020998338E-02 
434	 6.51986835916864E-02 
435	 6.52941242800534E-02 
436	 6.52565297140722E-02 
437	 6.55410791071296E-02 
438	 6.52939424984532E-02 
439	 0.065485073373911 
440	 0.06593491893595 
441	 6.59656256565481E-02 
442	 6.59123434661997E-02 
443	 6.61088756386796E-02 
444	 6.64247715254085E-02 
445	 6.60286784687686E-02 
446	 0.065896036616661 
447	 6.60927499778017E-02 
448	 6.63602171423396E-02 
449	 6.62578231207538E-02 
450	 6.64769271137282E-02 
451	 6.70329211273591E-02 
452	 6.73450017702304E-02 
453	 6.72786309904236E-02 
454	 6.70481177813646E-02 
455	 6.69627034312609E-02 
456	 6.74751485495048E-02 
457	 6.73912172846866E-02 
458	 6.71166615155372E-02 
459	 6.75966719401717E-02 
460	 6.77952054838219E-02 
461	 6.76975557083008E-02 
462	 6.75924321596672E-02 
463	 6.80556991545644E-02 
464	 6.83528557743803E-02 
465	 6.85134791009791E-02 
466	 6.86913896951435E-02 
467	 6.86032171569811E-02 
468	 6.85744119878778E-02 
469	 6.86664824711773E-02 
470	 0.068720685140186 
471	 6.88184444824133E-02 
472	 6.89448321311285E-02 
473	 6.90340328989907E-02 
474	 6.88925813487409E-02 
475	 0.069022094587902 
476	 0.069257439097994 
477	 0.069215146260609 
478	 6.92871994362562E-02 
479	 6.94659575203721E-02 
480	 6.96694306272249E-02 
481	 6.97651479115826E-02 
482	 0.069869915587542 
483	 6.99457663518966E-02 
484	 0.069972504556105 
485	 0.070182485733699 
486	 7.03289888160632E-02 
487	 7.03384162005826E-02 
488	 7.03081641640094E-02 
489	 7.05486995906132E-02 
490	 7.06963489349885E-02 
491	 7.05539777148215E-02 
492	 7.06158363448775E-02 
493	 7.07246580473096E-02 
494	 7.08818535475856E-02 
495	 7.11140180334953E-02 
496	 7.11453420171844E-02 
497	 7.11033261622499E-02 
498	 7.11253126635397E-02 
499	 7.13049587547397E-02 
500	 7.14803368064763E-02 
501	 7.15724113923882E-02 
502	 7.15766226462159E-02 
503	 0.071683501941935 
504	 7.17292262956791E-02 
505	 7.17241925579594E-02 
506	 7.18377142983445E-02 
507	 7.19384495388905E-02 
508	 7.19858453344105E-02 
509	 7.19752544579176E-02 
510	 7.19262498414891E-02 
511	 7.19978186279694E-02 
512	 7.21414566478009E-02 
513	 7.22058924005604E-02 
514	 7.22408719974421E-02 
515	 0.072273328875294 
516	 7.23384031049393E-02 
517	 7.24975832150906E-02 
518	 7.26060901675827E-02 
519	 0.07263167313812 
520	 7.26054235093627E-02 
521	 7.26461049391532E-02 
522	 0.072714325745744 
523	 7.27918087039285E-02 
524	 0.072891620801962 
525	 7.29205816765905E-02 
526	 7.28707658596305E-02 
527	 0.072812638698956 
528	 7.30096704952727E-02 
529	 7.30943649614586E-02 
530	 0.073078709091601 
531	 7.32039805242321E-02 
532	 7.32079908624895E-02 
533	 7.32901070186502E-02 
534	 0.073501240112966 
535	 7.34421558671582E-02 
536	 7.33816905585116E-02 
537	 7.34406475376579E-02 
538	 7.36302828946694E-02 
539	 7.36238214765653E-02 
540	 7.36210361351666E-02 
541	 7.37262567366354E-02 
542	 7.38651121341159E-02 
543	 7.38665408771818E-02 
544	 7.39057466582096E-02 
545	 7.41309404889511E-02 
546	 7.41761273412216E-02 
547	 7.41753673696773E-02 
548	 7.42291295993663E-02 
549	 7.43837043178093E-02 
550	 7.44167596917517E-02 
551	 7.44245117853937E-02 
552	 7.45184268354985E-02 
553	 7.47129233664385E-02 
554	 0.074756347016003 
555	 7.47420860446281E-02 
556	 7.49134927455122E-02 
557	 7.50459664749877E-02 
558	 7.51032844293966E-02 
559	 7.51297139427996E-02 
560	 7.52764708998566E-02 
561	 7.53548872451451E-02 
562	 7.54328214199058E-02 
563	 7.56216112775869E-02 
564	 7.57594811219366E-02 
565	 7.58765864382014E-02 
566	 7.60251110815428E-02 
567	 7.62663696627379E-02 
568	 7.65255937483174E-02 
569	 7.67114734506905E-02 
570	 7.67918882904091E-02 
571	 7.69284695971409E-02 
572	 7.70808496450022E-02 
573	 7.72461764489681E-02 
574	 7.74434238592639E-02 
575	 7.76310253282835E-02 
576	 7.77821633053019E-02 
577	 7.78959801587138E-02 
578	 7.80026568169897E-02 
579	 7.82340246347332E-02 
580	 7.85598024869196E-02 
581	 7.88888910216358E-02 
582	 7.93103009283846E-02 
583	 7.96478581397582E-02 
584	 7.98171966227815E-02 
585	 7.98887117617163E-02 
586	 0.080000704383635 
587	 8.01323950339886E-02 
588	 0.08023814629389 
589	 8.04212534672579E-02 
590	 8.05365006936874E-02 
591	 0.080598025083177 
592	 8.07622015577481E-02 
593	 0.080856213487617 
594	 0.080996829752953 
595	 8.12708496333142E-02 
596	 8.15479599331973E-02 
597	 8.18031266471012E-02 
598	 8.20813584790963E-02 
599	 8.24486377350012E-02 
600	 8.27583514657265E-02 
601	 8.29548338049295E-02 
602	 8.30570185774112E-02 
603	 8.31913472111863E-02 
604	 8.33197207695046E-02 
605	 8.34391362292031E-02 
606	 8.35666000719203E-02 
607	 8.37849841675231E-02 
608	 0.08395817980955 
609	 8.40616142460124E-02 
610	 8.42108259720897E-02 
611	 8.43684588262899E-02 
612	 0.084549875029355 
613	 8.47518326466282E-02 
614	 8.48789988254372E-02 
615	 8.49843115126395E-02 
616	 8.50949775713893E-02 
617	 8.52162908216091E-02 
618	 8.53391263486156E-02 
619	 8.54120711595494E-02 
620	 8.54313109850004E-02 
621	 8.55002574086917E-02 
622	 8.56331367692092E-02 
623	 8.57499815708784E-02 
624	 0.085762809634787 
625	 8.58360373748612E-02 
626	 8.59422898025581E-02 
627	 8.60370354192949E-02 
628	 8.60744551951502E-02 
629	 8.61207842284272E-02 
630	 8.61715418656964E-02 
631	 8.62182346720967E-02 
632	 0.086323764008008 
633	 8.63841131723295E-02 
634	 0.086411290066839 
635	 8.65087363625647E-02 
636	 8.66064128013454E-02 
637	 8.66816247932448E-02 
638	 8.67326092136876E-02 
639	 8.67880471566779E-02 
640	 8.68366425909077E-02 
641	 8.68898193049694E-02 
642	 8.69632414774687E-02 
643	 8.70254764506448E-02 
644	 8.70938347706021E-02 
645	 8.71679834303564E-02 
646	 8.72158657443232E-02 
647	 8.72296447630994E-02 
648	 8.72786539664037E-02 
649	 8.74114762080062E-02 
650	 8.74973400319631E-02 
651	 8.75549308916032E-02 
652	 8.76105448585142E-02 
653	 8.76917608512752E-02 
654	 8.77882837919594E-02 
655	 8.78609442516564E-02 
656	 8.79057869837007E-02 
657	 8.80254580296641E-02 
658	 8.81054400482057E-02 
659	 8.81503872679637E-02 
660	 8.82165757783688E-02 
661	 8.82790659980018E-02 
662	 0.0883519632512 
663	 8.84364023018402E-02 
664	 8.85095137764905E-02 
665	 8.86208548679597E-02 
666	 8.87191282869493E-02 
667	 8.87593784723882E-02 
668	 8.88415142609081E-02 
669	 0.088961676702989 
670	 8.90829631598164E-02 
671	 8.91502922488231E-02 
672	 0.089246040489927 
673	 8.93613701824908E-02 
674	 8.94730982735323E-02 
675	 8.95656794522456E-02 
676	 8.96317925039516E-02 
677	 0.089695388265965 
678	 8.97931743556168E-02 
679	 8.99434179405955E-02 
680	 0.0900508301659 
681	 9.01036159723077E-02 
682	 0.090209519885568 
683	 9.03109100109831E-02 
684	 9.04110240727987E-02 
685	 9.05143210772851E-02 
686	 9.05684186605363E-02 
687	 9.06764829645102E-02 
688	 9.08202522835787E-02 
689	 9.09012767367797E-02 
690	 9.09862827690401E-02 
691	 9.10869456169032E-02 
692	 9.11997517902398E-02 
693	 9.13102036686977E-02 
694	 0.091385546468681 
695	 9.14702498332875E-02 
696	 0.091616119439004 
697	 9.17481206631836E-02 
698	 9.18413496334289E-02 
699	 9.19132714379714E-02 
700	 9.20200194385458E-02 
701	 9.21277220289194E-02 
702	 9.22148490365621E-02 
703	 9.22825382066328E-02 
704	 9.23873987120651E-02 
705	 9.24949319631832E-02 
706	 9.26005583028789E-02 
707	 9.27129206561412E-02 
708	 0.09281955957713 
709	 9.29078928962099E-02 
710	 9.29900563520478E-02 
711	 0.093114181995656 
712	 9.32202126685253E-02 
713	 9.32923032374118E-02 
714	 9.33415157010946E-02 
715	 9.34223636165883E-02 
716	 9.35162636338557E-02 
717	 9.36202435521176E-02 
718	 9.37354940363162E-02 
719	 9.37589485650722E-02 
720	 9.37924981313322E-02 
721	 9.38884319430997E-02 
722	 9.39457179823605E-02 
723	 9.40072571221123E-02 
724	 9.40821281675187E-02 
725	 0.094165081066976 
726	 9.42370232991445E-02 
727	 9.42752170572233E-02 
728	 9.42995227223032E-02 
729	 9.43658406577322E-02 
730	 9.44606821503512E-02 
731	 9.45066801567153E-02 
732	 9.44835879883974E-02 
733	 9.45307043924753E-02 
734	 9.45957047253832E-02 
735	 9.46361818055953E-02 
736	 9.46291552853579E-02 
737	 9.46606769171028E-02 
738	 9.46853580971372E-02 
739	 9.46954911174442E-02 
740	 9.47333450967398E-02 
741	 9.47669945080061E-02 
742	 9.47706232682727E-02 
743	 9.47458770754205E-02 
744	 0.094763972410008 
745	 9.47738612466808E-02 
746	 9.47759327511233E-02 
747	 9.47868980563953E-02 
748	 9.47570994068319E-02 
749	 9.47159298284552E-02 
750	 9.46937574573742E-02 
751	 9.47115608537129E-02 
752	 9.47122268498187E-02 
753	 9.47020847051453E-02 
754	 9.46933322215887E-02 
755	 9.46650554959277E-02 
756	 9.46539594474295E-02 
757	 9.46277967933988E-02 
758	 9.45417038852444E-02 
759	 9.45390120223554E-02 
760	 9.45153986499422E-02 
761	 9.44466596178799E-02 
762	 9.44357150128075E-02 
763	 9.44080265109117E-02 
764	 9.43617419545131E-02 
765	 9.43199309948822E-02 
766	 9.43317677159564E-02 
767	 0.09432386740405 
768	 9.42742098274572E-02 
769	 9.41998900807072E-02 
770	 9.41785786118595E-02 
771	 9.41436841807196E-02 
772	 9.40763796654205E-02 
773	 9.40299791680874E-02 
774	 9.39755379118385E-02 
775	 9.39227646815672E-02 
776	 9.38799411712159E-02 
777	 9.38320627329922E-02 
778	 9.37612677805123E-02 
779	 9.36921163182683E-02 
780	 9.36600155827568E-02 
781	 9.36331376496929E-02 
782	 0.093589584094085 
783	 9.35288386128314E-02 
784	 9.34727993943845E-02 
785	 9.34463840165904E-02 
786	 9.33997913347003E-02 
787	 9.33128439637076E-02 
788	 9.32703463115093E-02 
789	 9.32407082005859E-02 
790	 9.31885460224387E-02 
791	 9.30916267639925E-02 
792	 9.30041466651268E-02 
793	 9.29633798642277E-02 
794	 9.29533728686056E-02 
795	 9.29154387108968E-02 
796	 0.092853898354766 
797	 9.27975625316787E-02 
798	 9.27576530116285E-02 
799	 9.27048437035985E-02 
800	 9.26589492313803E-02 
801	 9.25938680047578E-02 
802	 9.25004054164115E-02 
803	 9.24852120018428E-02 
804	 0.092475429223693 
805	 9.24341638646995E-02 
806	 9.23593486866229E-02 
807	 9.23039429303267E-02 
808	 9.22538975912997E-02 
809	 9.22002446652133E-02 
810	 9.21508156314695E-02 
811	 9.21127381123805E-02 
812	 0.092082116049529 
813	 9.20494079188155E-02 
814	 9.19973061898304E-02 
815	 0.091947537463095 
816	 9.18996642087595E-02 
817	 9.18544486321099E-02 
818	 9.18766407889305E-02 
819	 9.18580496630321E-02 
820	 9.17707831553714E-02 
821	 9.16722717722534E-02 
822	 0.091659230894073 
823	 9.16480123047557E-02 
824	 9.15967762249215E-02 
825	 9.15803061721198E-02 
826	 9.15579144438959E-02 
827	 9.15210937926516E-02 
828	 9.14821293180277E-02 
829	 9.14962151877224E-02 
830	 0.091469824965667 
831	 9.14182600055055E-02 
832	 9.13989697609519E-02 
833	 9.13598610757988E-02 
834	 9.13233086405403E-02 
835	 9.12928624171462E-02 
836	 9.12543470377565E-02 
837	 9.12707316399557E-02 
838	 9.12798246727907E-02 
839	 9.12454516650596E-02 
840	 9.12109749794866E-02 
841	 9.11714753801011E-02 
842	 9.11373951432393E-02 
843	 9.11172470200006E-02 
844	 9.11039549007846E-02 
845	 9.11035822670364E-02 
846	 0.091100105514567 
847	 9.10759208912762E-02 
848	 9.10657589284991E-02 
849	 0.091048061815117 
850	 9.10136000262951E-02 
851	 9.09695329713263E-02 
852	 9.09378723229144E-02 
853	 9.09596928794507E-02 
854	 0.091012016527527 
855	 9.09828340508096E-02 
856	 9.09673113579553E-02 
857	 9.09872753086723E-02 
858	 0.091024630259139 
859	 9.10087471631658E-02 
860	 9.09612487022942E-02 
861	 9.09438642199434E-02 
862	 9.09923208545739E-02 
863	 9.09662613456745E-02 
864	 9.09424110438811E-02 
865	 9.09509667508877E-02 
866	 9.09797757593161E-02 
867	 9.09756669636548E-02 
868	 9.09465253137357E-02 
869	 9.09233085016018E-02 
870	 0.090947748967317 
871	 9.09824943603856E-02 
872	 9.10221133833593E-02 
873	 9.10492071269214E-02 
874	 9.10210620001992E-02 
875	 9.10314247020944E-02 
876	 9.10379997191641E-02 
877	 9.10128700571679E-02 
878	 9.10593267807933E-02 
879	 9.11157821970323E-02 
880	 9.11382780986534E-02 
881	 9.11161213977581E-02 
882	 9.11371076543043E-02 
883	 9.12087287141703E-02 
884	 9.12624946830717E-02 
885	 9.12239231645413E-02 
886	 9.12430152851421E-02 
887	 9.12967467392934E-02 
888	 9.13499511107232E-02 
889	 0.091372824539247 
890	 9.13756934002016E-02 
891	 9.14230215208092E-02 
892	 9.15012402706087E-02 
893	 9.14997005278368E-02 
894	 0.091478369262106 
895	 9.15072013546007E-02 
896	 9.16022998540891E-02 
897	 0.09168354471731 
898	 0.091688548595019 
899	 9.16928235677727E-02 
900	 0.091748797476711 
901	 9.17337388637896E-02 
902	 9.17929668630879E-02 
903	 9.18725266536145E-02 
904	 9.18938635054773E-02 
905	 9.19628411517842E-02 
906	 9.20220405517166E-02 
907	 9.20662641025827E-02 
908	 9.21111057850783E-02 
909	 0.092135600563139 
910	 9.21343048275066E-02 
911	 9.21888113608182E-02 
912	 9.23770270089973E-02 
913	 9.23699952654954E-02 
914	 9.24165460489221E-02 
915	 9.25398325153129E-02 
916	 9.25429746283222E-02 
917	 9.25638019202849E-02 
918	 9.26509260361766E-02 
919	 9.27586597623377E-02 
920	 9.27648367344309E-02 
921	 9.28350419345955E-02 
922	 0.09291314637944 
923	 9.29591970027703E-02 
924	 9.30128136304814E-02 
925	 9.30744358330902E-02 
926	 9.31434631266777E-02 
927	 9.32001146538168E-02 
928	 9.31939040997043E-02 
929	 9.32610692771609E-02 
930	 9.33932437401095E-02 
931	 9.35249979879828E-02 
932	 9.35586015666111E-02 
933	 0.093653073550184 
934	 9.37285798842561E-02 
935	 0.093713692934834 
936	 9.37661901230257E-02 
937	 9.38578236272066E-02 
938	 0.093930427612284 
939	 9.39791098156439E-02 
940	 0.094235621289424 
941	 9.43345398352404E-02 
942	 9.43597922117237E-02 
943	 9.44877473099278E-02 
944	 9.44704710413124E-02 
945	 9.44960598105779E-02 
946	 9.46083593482377E-02 
947	 9.47427280038596E-02 
948	 9.47157224943949E-02 
949	 9.47242481146797E-02 
950	 9.47989082122189E-02 
951	 9.48809528257216E-02 
952	 9.49907693691715E-02 
953	 9.50690627284906E-02 
954	 9.51393371252779E-02 
955	 9.52539762745116E-02 
956	 9.53403975997175E-02 
957	 9.54322555322799E-02 
958	 9.55137477898282E-02 
959	 9.55620495786786E-02 
960	 9.57010479516082E-02 
961	 9.58874925622021E-02 
962	 9.60125554110977E-02 
963	 9.59967340369382E-02 
964	 9.61136527110361E-02 
965	 9.62172709911102E-02 
966	 9.62409060502396E-02 
967	 9.62335211551388E-02 
968	 9.64502440924786E-02 
969	 9.65187711915473E-02 
970	 9.65107772715697E-02 
971	 0.096736934826398 
972	 9.68268019851038E-02 
973	 9.68556042567309E-02 
974	 9.68941035066101E-02 
975	 9.69861288399294E-02 
976	 0.09716654340258 
977	 9.73275880214772E-02 
978	 9.73678119405347E-02 
979	 9.72636110819367E-02 
980	 9.72808772454782E-02 
981	 0.09741485894722 
982	 9.75501635609731E-02 
983	 9.75727449293323E-02 
984	 9.76954801189707E-02 
985	 0.097716010281436 
986	 0.097687898503081 
987	 9.77922644034678E-02 
988	 9.80040189991252E-02 
989	 9.80906312263261E-02 
990	 9.81284537030959E-02 
991	 9.82947008932542E-02 
992	 0.098412302090312 
993	 9.83846557372989E-02 
994	 9.84229141754244E-02 
995	 9.86841546421455E-02 
996	 9.85312280687915E-02 
997	 9.86133250679324E-02 
998	 9.88195613192772E-02 
999	 9.88363157780321E-02 
1000	 9.88317585842427E-02 
1001	 9.82118738234235E-02 
1002	 9.82305563603213E-02 
1003	 0.098307441286229 
1004	 9.83604508165048E-02 
1005	 9.83971149194623E-02 
1006	 9.84321193907574E-02 
1007	 9.84686905739587E-02 
1008	 9.85213781917926E-02 
1009	 9.85444177082299E-02 
1010	 9.86224875597961E-02 
1011	 9.87359726383168E-02 
1012	 9.87729181033721E-02 
1013	 9.88010217175326E-02 
1014	 9.88754563563334E-02 
1015	 9.89391593827114E-02 
1016	 9.89588747756903E-02 
1017	 9.89923665277621E-02 
1018	 9.90328186275404E-02 
1019	 9.90308652001661E-02 
1020	 9.90118711391662E-02 
1021	 9.91118132913599E-02 
1022	 9.92058702857207E-02 
1023	 9.92131106498539E-02 
1024	 9.92741879072885E-02 
1025	 9.93123417307832E-02 
1026	 9.92570715186316E-02 
1027	 9.92609965911375E-02 
1028	 9.92798736769729E-02 
1029	 9.92432257442976E-02 
1030	 9.92726959706021E-02 
1031	 9.92995097270452E-02 
1032	 9.93671480520542E-02 
1033	 9.93550165988859E-02 
1034	 9.93319917844773E-02 
1035	 9.93116087908798E-02 
1036	 9.92762573186151E-02 
1037	 9.92888796601115E-02 
1038	 9.93186755606137E-02 
1039	 9.92941379638236E-02 
1040	 9.92452799363345E-02 
1041	 9.92689180362964E-02 
1042	 9.93253712674817E-02 
1043	 9.93400371574371E-02 
1044	 9.93451366758939E-02 
1045	 9.93556230368625E-02 
1046	 9.93144018562743E-02 
1047	 9.92643961869011E-02 
1048	 9.93370102582755E-02 
1049	 9.94059626478139E-02 
1050	 9.93969306971083E-02 
1051	 9.94026311860437E-02 
1052	 0.099374455455695 
1053	 9.93766033004877E-02 
1054	 9.94448771111021E-02 
1055	 9.94930432834044E-02 
1056	 9.95373022659089E-02 
1057	 9.95888503354817E-02 
1058	 9.96229700317296E-02 
1059	 9.96823020772511E-02 
1060	 0.099772492709185 
1061	 9.98422262688662E-02 
1062	 9.99170843603625E-02 
1063	 9.99462368133616E-02 
1064	 9.99509671077579E-02 
1065	 0.100030517586538 
1066	 0.100104570468766 
1067	 0.100153910142779 
1068	 0.100240875524796 
1069	 0.100299049621318 
1070	 0.100347776479357 
1071	 0.100362328028075 
1072	 0.100422505094956 
1073	 0.100507064097756 
1074	 0.100567929560824 
1075	 0.100626799861192 
1076	 0.100706126197659 
1077	 0.100761316845719 
1078	 0.100786629165913 
1079	 0.100833029348924 
1080	 0.100882089687982 
1081	 0.100940520812079 
1082	 0.101005679331936 
1083	 0.101058282399296 
1084	 0.10111060946645 
1085	 0.101161824034886 
1086	 0.101209635613644 
1087	 0.101246926247991 
1088	 0.10127635970748 
1089	 0.10131309839391 
1090	 0.101359814755409 
1091	 0.101407729894433 
1092	 0.101456123990975 
1093	 0.10150803675931 
1094	 0.101557624196027 
1095	 0.101599253217104 
1096	 0.10162940309181 
1097	 0.101632147637327 
1098	 0.101643876985825 
1099	 0.101621601150071 
1100	 0.101629701256201 
1101	 0.101673048323646 
1102	 0.101698712087028 
1103	 0.101726650827005 
1104	 0.10173629938933 
1105	 0.101747051765653 
1106	 0.101738006947389 
1107	 0.101740826893354 
1108	 0.101754368844827 
1109	 0.101754419093999 
1110	 0.101742576651852 
1111	 0.101736729859016 
1112	 0.101726699862424 
1113	 0.10170916859827 
1114	 0.101693345133243 
1115	 0.101682416616553 
1116	 0.101659968599832 
1117	 0.101639128494518 
1118	 0.101627745761867 
1119	 0.101610652115996 
1120	 0.101587293809147 
1121	 0.101562120298434 
1122	 0.101541619774693 
1123	 0.101523654513114 
1124	 0.101524587781321 
1125	 0.101547366834114 
1126	 0.101548014896175 
1127	 0.101562692628182 
1128	 0.101551050747753 
1129	 0.101502417724749 
1130	 0.101475853956892 
1131	 0.101431540633018 
1132	 0.101428724809985 
1133	 0.101471251660742 
1134	 0.101484015217253 
1135	 0.101514864655696 
1136	 0.101526568701912 
1137	 0.101502267992215 
1138	 0.101479994114813 
1139	 0.101462367901074 
1140	 0.101438313494959 
1141	 0.101427519269969 
1142	 0.101427529277582 
1143	 0.101417875397884 
1144	 0.101408044261674 
1145	 0.101405522748914 
1146	 0.101414734011043 
1147	 0.101399779071582 
1148	 0.101367941779814 
1149	 0.10135468237365 
1150	 0.101340033495888 
1151	 0.101307616103772 
1152	 0.101306552704958 
1153	 0.101339376527294 
1154	 0.101341979787844 
1155	 0.101337734278117 
1156	 0.10132999857379 
1157	 0.101311272339419 
1158	 0.101298966472403 
1159	 0.101278046540691 
1160	 0.101280551349566 
1161	 0.101296552046391 
1162	 0.101308268375552 
1163	 0.101350812121914 
1164	 0.101356295582694 
1165	 0.101327797014971 
1166	 0.101317472824248 
1167	 0.101308920673311 
1168	 0.101309572703593 
1169	 0.101311328793168 
1170	 0.101335359671656 
1171	 0.101342410841837 
1172	 0.101335568415094 
1173	 0.10134020828483 
1174	 0.101347304183952 
1175	 0.101364829700285 
1176	 0.101394717250024 
1177	 0.101408544566669 
1178	 0.101432310840396 
1179	 0.10144179477031 
1180	 0.101406567901952 
1181	 0.101414436478082 
1182	 0.101458330760995 
1183	 0.101477756304962 
1184	 0.101497539682973 
1185	 0.101539786286502 
1186	 0.101553939967955 
1187	 0.101526493169995 
1188	 0.101545087400739 
1189	 0.10158736157068 
1190	 0.101613510945212 
1191	 0.101654164845357 
1192	 0.101679059950593 
1193	 0.101682888834904 
1194	 0.10169942942693 
1195	 0.101715841628341 
1196	 0.101738632246447 
1197	 0.10177070449267 
1198	 0.101797673989761 
1199	 0.101824825200665 
1200	 0.101857757114818 
1201	 0.101878959980037 
1202	 0.101891323616987 
1203	 0.101910332765903 
1204	 0.101921522980119 
1205	 0.101947359574074 
1206	 0.101985828005101 
1207	 0.102015970775728 
1208	 0.102052989512151 
1209	 0.102081634881951 
1210	 0.102101556868699 
1211	 0.102124001133868 
1212	 0.102137391311253 
1213	 0.102163422756303 
1214	 0.102204999896671 
1215	 0.102233569293685 
1216	 0.102259872372618 
1217	 0.102294027178885 
1218	 0.102310959132159 
1219	 0.10230050570783 
1220	 0.102325247125861 
1221	 0.102364968735038 
1222	 0.102392917465434 
1223	 0.102443965972922 
1224	 0.102464259676135 
1225	 0.102447281953189 
1226	 0.102459496396238 
1227	 0.102478288735256 
1228	 0.102492492770715 
1229	 0.102513932173196 
1230	 0.102538541503685 
1231	 0.102562272005978 
1232	 0.102582239150892 
1233	 0.102603306520806 
1234	 0.102632198553542 
1235	 0.102657571972024 
1236	 0.102676288986173 
1237	 0.102698528373477 
1238	 0.102730441156824 
1239	 0.102750901395197 
1240	 0.102766200446141 
1241	 0.102775269360624 
1242	 0.102767576648283 
1243	 0.102780535249141 
1244	 0.102807015818312 
1245	 0.102817294079924 
1246	 0.102824783388973 
1247	 0.102841991074346 
1248	 0.102850304005153 
1249	 0.102862808221225 
1250	 0.102892072187069 
1251	 0.102914425332795 
1252	 0.10292690730548 
1253	 0.102923516835708 
1254	 0.102928640937542 
1255	 0.10292824902493 
1256	 0.102940111540757 
1257	 0.102964483419782 
1258	 0.102973920996504 
1259	 0.102988544045769 
1260	 0.102989879805802 
1261	 0.102965084116338 
1262	 0.102959641757059 
1263	 0.102959070702196 
1264	 0.102960282763282 
1265	 0.102971352377748 
1266	 0.102980211959861 
1267	 0.102988312877337 
1268	 0.102997081301728 
1269	 0.103003836405467 
1270	 0.103013350140595 
1271	 0.103015533972033 
1272	 0.10300776931057 
1273	 0.103012979914411 
1274	 0.103007717444657 
1275	 0.103035050337837 
1276	 0.103096404191776 
1277	 0.103129323487588 
1278	 0.103164910102272 
1279	 0.103206614803741 
1280	 0.103227978864485 
1281	 0.103268662755601 
1282	 0.10333784789105 
1283	 0.103392844410845 
1284	 0.103435747971961 
1285	 0.103493270135126 
1286	 0.103552421275855 
1287	 0.103619140133167 
1288	 0.103688019657266 
1289	 0.103768306198916 
1290	 0.103840102951721 
1291	 0.103907245813574 
1292	 0.103979981097514 
1293	 0.104049308016657 
1294	 0.104127842280694 
1295	 0.104214725145144 
1296	 0.104302908317473 
1297	 0.104396391797357 
1298	 0.104491536468977 
1299	 0.1045991780572 
1300	 0.104690559766187 
1301	 0.10477517897576 
1302	 0.104857696976433 
1303	 0.104931667272569 
1304	 0.104998470759656 
1305	 0.105071873822414 
1306	 0.105142637088448 
1307	 0.105224796829528 
1308	 0.105305552484813 
1309	 0.105366986057701 
1310	 0.105422629000068 
1311	 0.105477359435703 
1312	 0.105517249279543 
1313	 0.105553288873633 
1314	 0.1055934803837 
1315	 0.105622664816848 
1316	 0.10562799817941 
1317	 0.105653202250671 
1318	 0.105689280494999 
1319	 0.105714794822359 
1320	 0.105747805111204 
1321	 0.105765910477083 
1322	 0.105765755191002 
1323	 0.105775091798887 
1324	 0.105778103604727 
1325	 0.105786379872452 
1326	 0.10580320751329 
1327	 0.105806388214939 
1328	 0.105796441023868 
1329	 0.105773126994681 
1330	 0.105758263262584 
1331	 0.105734010231859 
1332	 0.105715650913498 
1333	 0.105709162329118 
1334	 0.105691305646371 
1335	 0.105665847955784 
1336	 0.105638797102037 
1337	 0.105608933473304 
1338	 0.105579046463467 
1339	 0.105549600369339 
1340	 0.105510850016251 
1341	 0.105460287285481 
1342	 0.105422480750084 
1343	 0.105385223408363 
1344	 0.105348686436189 
1345	 0.105315026503405 
1346	 0.105279056721133 
1347	 0.105233040195122 
1348	 0.105181165180277 
1349	 0.105119522684263 
1350	 0.105060680150047 
1351	 0.104999229205886 
1352	 0.104930136838624 
1353	 0.104857105070356 
1354	 0.104782727908913 
1355	 0.104709806163426 
1356	 0.104623164649398 
1357	 0.104554744702592 
1358	 0.104496130601528 
1359	 0.104442817180882 
1360	 0.104391208766028 
1361	 0.10435428112504 
1362	 0.104325796018056 
1363	 0.104308143075673 
1364	 0.104309581380883 
1365	 0.10430743425096 
1366	 0.104308410215043 
1367	 0.104317393372185 
1368	 0.104328073960635 
1369	 0.104346185035482 
1370	 0.104366989486317 
1371	 0.1043813447662 
1372	 0.104372261045577 
1373	 0.104356002328805 
1374	 0.104339502169264 
1375	 0.104319763421703 
1376	 0.104273191308043 
1377	 0.104224122646066 
1378	 0.10415068082847 
1379	 0.104024391930453 
1380	 0.103949311293335 
1381	 0.103875935225237 
1382	 0.103822485796987 
1383	 0.103799618111806 
1384	 0.103774415586315 
1385	 0.103764884512391 
1386	 0.103749099221623 
1387	 0.103738031129117 
1388	 0.103721373731586 
1389	 0.1037091256427 
1390	 0.103678341276579 
1391	 0.103633432789318 
1392	 0.103601254933314 
1393	 0.103547272264722 
1394	 0.103494013161904 
1395	 0.103453545905366 
1396	 0.103402563522796 
1397	 0.103367149435951 
1398	 0.103348441926035 
1399	 0.103310012101268 
1400	 0.103272018753425 
1401	 0.103228811675118 
1402	 0.103157816333383 
1403	 0.103119050311221 
1404	 0.10309690583794 
1405	 0.103073359391536 
1406	 0.10306963459128 
1407	 0.103050939930509 
1408	 0.103023780370023 
1409	 0.103003454144611 
1410	 0.102970121400341 
1411	 0.102960406034558 
1412	 0.102966621952989 
1413	 0.102973929126714 
1414	 0.102982487259162 
1415	 0.102998355322127 
1416	 0.103016009156292 
1417	 0.103019296868334 
1418	 0.103027805137603 
1419	 0.10304400773209 
1420	 0.103060734916442 
1421	 0.103079406266687 
1422	 0.103105291211331 
1423	 0.103133733029396 
1424	 0.103147446291466 
1425	 0.103143896313895 
1426	 0.103156736680898 
1427	 0.103167153965977 
1428	 0.103185095702184 
1429	 0.103210825209477 
1430	 0.10324056406055 
1431	 0.103278602122462 
1432	 0.10330800371477 
1433	 0.103339034486037 
1434	 0.103369619459366 
1435	 0.103392754712474 
1436	 0.103420584359327 
1437	 0.103453889239664 
1438	 0.103489099479555 
1439	 0.103533113517792 
1440	 0.103561507782539 
1441	 0.103575722099919 
1442	 0.103584572429166 
1443	 0.103593867377357 
1444	 0.103608710361558 
1445	 0.103649319891848 
1446	 0.103699108143619 
1447	 0.103735012990542 
1448	 0.103759937084985 
1449	 0.103767393768938 
1450	 0.103772271239103 
1451	 0.103784516708985 
1452	 0.103785333449015 
1453	 0.103810059714263 
1454	 0.103859645276634 
1455	 0.103885806557457 
1456	 0.10391601985081 
1457	 0.103938990876736 
1458	 0.103943241529972 
1459	 0.103958286827223 
1460	 0.10397510977505 
1461	 0.103995866249353 
1462	 0.104019349676896 
1463	 0.104046151687582 
1464	 0.104089108499848 
1465	 0.104111227759775 
1466	 0.104120835168198 
1467	 0.104133894311825 
1468	 0.104127515503694 
1469	 0.104139745236306 
1470	 0.104165264530146 
1471	 0.104194971210585 
1472	 0.104219862678603 
1473	 0.104237247419295 
1474	 0.104236836839549 
1475	 0.104238842945777 
1476	 0.10425833635296 
1477	 0.104283432057125 
1478	 0.104320153972237 
1479	 0.104361025725085 
1480	 0.104397013549586 
1481	 0.104421426467049 
1482	 0.104444617011837 
1483	 0.10446343391182 
1484	 0.104488618298223 
1485	 0.104502563557501 
1486	 0.104542653186072 
1487	 0.104608373965846 
1488	 0.104646291887166 
1489	 0.10468856859775 
1490	 0.104718829867713 
1491	 0.104727123030555 
1492	 0.104746503761139 
1493	 0.104766613511456 
1494	 0.104790044899504 
1495	 0.104807481680084 
1496	 0.104834087748025 
1497	 0.104877811747552 
1498	 0.10490723069073 
1499	 0.104935878292967 
1500	 0.104960023488445 
1501	 0.104969363390445 
1502	 0.104987484261387 
1503	 0.105000482181381 
1504	 0.105034317319914 
1505	 0.105069070119954 
1506	 0.105092010858055 
1507	 0.10512684791067 
1508	 0.105149088373708 
1509	 0.10515852700543 
1510	 0.105168730391878 
1511	 0.105168115037998 
1512	 0.10516614979971 
1513	 0.105170876946996 
1514	 0.105185210902186 
1515	 0.105204502625235 
1516	 0.105215323406322 
1517	 0.105228970748372 
1518	 0.105245836063337 
1519	 0.105258633250011 
1520	 0.105262761722018 
1521	 0.10528331549819 
1522	 0.105309221453159 
1523	 0.105334392674991 
1524	 0.105379165612084 
1525	 0.10539969216051 
1526	 0.105406690544637 
1527	 0.105415434411897 
1528	 0.105408639739764 
1529	 0.105414571039095 
1530	 0.105427545191372 
1531	 0.105436369432198 
1532	 0.105444385388112 
1533	 0.105458290092757 
1534	 0.105475560254778 
1535	 0.10548993177841 
1536	 0.105507958086629 
1537	 0.105525086858956 
1538	 0.10553816885202 
1539	 0.10555365593988 
1540	 0.105572885100073 
1541	 0.105589123264639 
1542	 0.105598645345224 
1543	 0.105618032575249 
1544	 0.105644808362772 
1545	 0.105667838110936 
1546	 0.105700838763517 
1547	 0.105722447276799 
1548	 0.105717901941391 
1549	 0.105735274841903 
1550	 0.105769372775714 
1551	 0.105777305565456 
1552	 0.105791645082958 
1553	 0.105820460693067 
1554	 0.105825932950162 
1555	 0.105827567316092 
1556	 0.105832932109902 
1557	 0.105829620094485 
1558	 0.105833382505592 
1559	 0.105845124447441 
1560	 0.105858816006901 
1561	 0.105886435061082 
1562	 0.105906232015997 
1563	 0.10591941601892 
1564	 0.105939235112763 
1565	 0.105963737162932 
1566	 0.10598395602669 
1567	 0.106012864670462 
1568	 0.10602224932332 
1569	 0.106020925539375 
1570	 0.106020038163855 
1571	 0.106007306023543 
1572	 0.105995978736729 
1573	 0.105981490277717 
1574	 0.105976250038598 
1575	 0.105965721058713 
1576	 0.105966400342485 
1577	 0.10598550648562 
1578	 0.105991595266397 
1579	 0.10599296023706 
1580	 0.106000365842241 
1581	 0.106006359662632 
1582	 0.106015779517811 
1583	 0.106033800923217 
1584	 0.106045278002277 
1585	 0.106053255564643 
1586	 0.106061379125125 
1587	 0.10607238677427 
1588	 0.106073776117943 
1589	 0.106064278830919 
1590	 0.106065113100294 
1591	 0.106064457316942 
1592	 0.106066059250496 
1593	 0.106081046424661 
1594	 0.106085217392774 
1595	 0.106081126286085 
1596	 0.106077576632348 
1597	 0.106077855663178 
1598	 0.106064309606159 
1599	 0.106028640128772 
1600	 0.106016504600339 
1601	 0.106012052410854 
1602	 0.106001889403285 
1603	 0.106000515980204 
1604	 0.106004255688727 
1605	 0.105995922692036 
1606	 0.106001042068752 
1607	 0.106030114764886 
1608	 0.106054327856941 
1609	 0.10606469636298 
1610	 0.106072040047029 
1611	 0.106062442545449 
1612	 0.106058410782502 
1613	 0.106062555130119 
1614	 0.106070620522051 
1615	 0.106090181382872 
1616	 0.106112772105541 
1617	 0.106116818309262 
1618	 0.106110482581573 
1619	 0.10611308802726 
1620	 0.106099136063765 
1621	 0.10609353437057 
1622	 0.106095022488054 
1623	 0.106096960965077 
1624	 0.106096215436811 
1625	 0.106093998532087 
1626	 0.106102937012015 
1627	 0.106088198807315 
1628	 0.106051134949466 
1629	 0.10603758948034 
1630	 0.106018190046617 
1631	 0.106020555074883 
1632	 0.106051240361397 
1633	 0.106053481995111 
1634	 0.106052667832518 
1635	 0.106050719202879 
1636	 0.106035462213762 
1637	 0.106028168606596 
1638	 0.106027247100605 
1639	 0.106022922473517 
1640	 0.106015256907022 
1641	 0.106008900912308 
1642	 0.106000657491919 
1643	 0.10600270014107 
1644	 0.1060134843172 
1645	 0.106008570746119 
1646	 0.106001757891835 
1647	 0.106001076721979 
1648	 0.105991525335477 
1649	 0.105986129358105 
1650	 0.105995359113114 
1651	 0.105991669150365 
1652	 0.105970699608726 
1653	 0.105966834779301 
1654	 0.105973913887289 
1655	 0.1059719446781 
1656	 0.105972141761848 
1657	 0.105968616279154 
1658	 0.105959835760272 
1659	 0.105949630268706 
1660	 0.105934865130781 
1661	 0.105929277230191 
1662	 0.105926227069707 
1663	 0.105919675430408 
1664	 0.105918314696124 
1665	 0.105915221656029 
1666	 0.105908818877 
1667	 0.105898645956528 
1668	 0.105882233273981 
1669	 0.105882775591765 
1670	 0.105887167837552 
1671	 0.105889848974099 
1672	 0.105913510002345 
1673	 0.105915097137296 
1674	 0.105894440651782 
1675	 0.105889576607178 
1676	 0.105897465405768 
1677	 0.10588014801007 
1678	 0.105850981207977 
1679	 0.10582833024334 
1680	 0.105783274448918 
1681	 0.105762186397824 
1682	 0.105764897792162 
1683	 0.105754704942937 
1684	 0.105745042429506 
1685	 0.105733696748269 
1686	 0.105718955470831 
1687	 0.10570610184325 
1688	 0.10568446311848 
1689	 0.105682193618561 
1690	 0.105698658501593 
1691	 0.105698472453656 
1692	 0.105704140295598 
1693	 0.105703790457458 
1694	 0.105693344990425 
1695	 0.105674013649346 
1696	 0.105646541894567 
1697	 0.105632772077619 
1698	 0.105611110264789 
1699	 0.105595285899466 
1700	 0.105609157067741 
1701	 0.105587040800557 
1702	 0.105527429884868 
1703	 0.105506652289638 
1704	 0.105485192977439 
1705	 0.105476890085185 
1706	 0.105501746998194 
1707	 0.10551039609586 
1708	 0.105520685112567 
1709	 0.105516685967627 
1710	 0.105501732043537 
1711	 0.105498355999617 
1712	 0.105489310121697 
1713	 0.105479193098421 
1714	 0.105479456359973 
1715	 0.10547206206538 
1716	 0.105445459083584 
1717	 0.105444976927236 
1718	 0.105467433389782 
1719	 0.105465233393984 
1720	 0.105463102705862 
1721	 0.105455477200367 
1722	 0.10543404526426 
1723	 0.10541540333655 
1724	 0.105409726899787 
1725	 0.105369462727107 
1726	 0.105295010929249 
1727	 0.105254731375942 
1728	 0.105196509827034 
1729	 0.105181426723662 
1730	 0.10522047236766 
1731	 0.105214317272885 
1732	 0.105212054831721 
1733	 0.105192551199747 
1734	 0.105132794954394 
1735	 0.105115819160694 
1736	 0.105120042277745 
1737	 0.105107776262689 
1738	 0.105113241767764 
1739	 0.105091625556414 
1740	 0.105041904584632 
1741	 0.105006464403807 
1742	 0.104967283853916 
1743	 0.104938511252692 
1744	 0.104915460182042 
1745	 0.104895363842882 
1746	 0.104884121157579 
1747	 0.104857638995095 
1748	 0.104828755109657 
1749	 0.104799583111844 
1750	 0.104772251720099 
1751	 0.104732915152564 
1752	 0.104687390803831 
1753	 0.104661711960474 
1754	 0.104641272401342 
1755	 0.104620659000902 
1756	 0.104612051313061 
1757	 0.104598333052065 
1758	 0.104587230266352 
1759	 0.104555319466242 
1760	 0.104525895766615 
1761	 0.104508828367273 
1762	 0.104446712165841 
1763	 0.1044156061476 
1764	 0.104435622393153 
1765	 0.104451733142122 
1766	 0.104475982901221 
1767	 0.104503087749956 
1768	 0.104498709566212 
1769	 0.104467952960279 
1770	 0.104452463290746 
1771	 0.10444092860787 
1772	 0.104433614567326 
1773	 0.104403833320518 
1774	 0.104369759021226 
1775	 0.104357641882372 
1776	 0.104310646912464 
1777	 0.104287043060645 
1778	 0.104265817672541 
1779	 0.104205809323552 
1780	 0.104187581594242 
1781	 0.104185473997327 
1782	 0.104184555768541 
1783	 0.104217608822502 
1784	 0.104203988512532 
1785	 0.104164209896254 
1786	 0.104124494084014 
1787	 0.10404633897687 
1788	 0.104008412044735 
1789	 0.103984271491313 
1790	 0.103970535807478 
1791	 0.103980466760143 
1792	 0.103975515403915 
1793	 0.103972830107941 
1794	 0.103979041535315 
1795	 0.103993071193646 
1796	 0.103990623361696 
1797	 0.103980336431063 
1798	 0.103980280097727 
1799	 0.103987461600558 
1800	 0.103974574527634 
1801	 0.10028647227139 
1802	 0.100392738719044 
1803	 0.100528112286449 
1804	 0.100666264951779 
1805	 0.100755196777764 
1806	 0.100845202995257 
1807	 0.100927231615309 
1808	 0.101002492030287 
1809	 0.101086495854548 
1810	 0.101151805989235 
1811	 0.101214587447576 
1812	 0.101239058683156 
1813	 0.101243562868369 
1814	 0.101238346012364 
1815	 0.101253893221596 
1816	 0.10128072819789 
1817	 0.101303796769136 
1818	 0.101350960245371 
1819	 0.101374295408007 
1820	 0.101385197882107 
1821	 0.101389954974925 
1822	 0.101383751012785 
1823	 0.101380363693537 
1824	 0.101381879801921 
1825	 0.101378765488585 
1826	 0.101406373152703 
1827	 0.101423754539643 
1828	 0.101433952326644 
1829	 0.101449424921507 
1830	 0.101452296721614 
1831	 0.101435208898256 
1832	 0.101432861721899 
1833	 0.101440069723909 
1834	 0.101412475197152 
1835	 0.101395401793538 
1836	 0.101408898865985 
1837	 0.10142493969963 
1838	 0.101455209506093 
1839	 0.101476599074611 
1840	 0.101513748276847 
1841	 0.101515558663681 
1842	 0.10151202158955 
1843	 0.101532145649773 
1844	 0.101555302250025 
1845	 0.101581399266045 
1846	 0.101634796865079 
1847	 0.101691141718267 
1848	 0.10171110592762 
1849	 0.101729991832514 
1850	 0.101757113522807 
1851	 0.101780379767337 
1852	 0.101771310836524 
1853	 0.101794475939809 
1854	 0.101847800053729 
1855	 0.101866553987744 
1856	 0.101892457558823 
1857	 0.101931889842359 
1858	 0.101928769195736 
1859	 0.101937434370341 
1860	 0.101938693611229 
1861	 0.101938571985605 
1862	 0.101897078070437 
1863	 0.1018796963517 
1864	 0.101842587069211 
1865	 0.101771978762582 
1866	 0.101693471770941 
1867	 0.101600628902423 
1868	 0.101504364696545 
1869	 0.101412380117433 
1870	 0.101339495749258 
1871	 0.101285113809131 
1872	 0.101244294661265 
1873	 0.101220983163697 
1874	 0.101227225980985 
1875	 0.101257279739015 
1876	 0.101295440301396 
1877	 0.101343378650684 
1878	 0.101346696426009 
1879	 0.101323119892584 
1880	 0.101292751277518 
1881	 0.101240075052362 
1882	 0.101163335640374 
1883	 0.101074787471672 
1884	 0.100974385000816 
1885	 0.100840980336991 
1886	 0.100691961202527 
1887	 0.100541714296993 
1888	 0.100364750484477 
1889	 0.100163002085431 
1890	 0.099957119675226 
1891	 9.97478225430532E-02 
1892	 9.95346057491051E-02 
1893	 0.099310017860766 
1894	 9.90794964933734E-02 
1895	 9.88363081116291E-02 
1896	 9.85879888755504E-02 
1897	 0.0983031016859 
1898	 9.80432452354614E-02 
1899	 9.78009789383356E-02 
1900	 9.75529683948017E-02 
1901	 9.73195863299143E-02 
1902	 9.71047953138145E-02 
1903	 9.69016041511139E-02 
1904	 9.67145809657645E-02 
1905	 9.65417872897655E-02 
1906	 9.64011632860787E-02 
1907	 0.096262115440344 
1908	 9.61178946320761E-02 
1909	 9.59826090159896E-02 
1910	 9.58334601153184E-02 
1911	 9.56822293288146E-02 
1912	 9.55399146994867E-02 
1913	 9.53994476706598E-02 
1914	 9.52530581901912E-02 
1915	 0.095123210692628 
1916	 9.49990011659501E-02 
1917	 9.48880802185059E-02 
1918	 9.47854445259013E-02 
1919	 9.47090956056419E-02 
1920	 9.46661024310919E-02 
1921	 9.46160661338054E-02 
1922	 9.45774892089938E-02 
1923	 9.45519880605149E-02 
1924	 9.45265069677155E-02 
1925	 9.45020941199426E-02 
1926	 0.094488749578529 
1927	 9.44861531164295E-02 
1928	 9.44791375652846E-02 
1929	 9.44852929246716E-02 
1930	 9.44829419056128E-02 
1931	 9.44839672781299E-02 
1932	 9.45012175142784E-02 
1933	 9.45207149450357E-02 
1934	 9.45296097794304E-02 
1935	 9.45507610842783E-02 
1936	 9.45799405736976E-02 
1937	 9.46092465734173E-02 
1938	 9.46503857083698E-02 
1939	 9.46815555394816E-02 
1940	 9.47027281247874E-02 
1941	 9.47323445989436E-02 
1942	 9.47696249626794E-02 
1943	 9.48080667276482E-02 
1944	 9.48757384010595E-02 
1945	 9.49530749119774E-02 
1946	 9.50163027122385E-02 
1947	 9.50803641887228E-02 
1948	 9.51424885500208E-02 
1949	 9.51940153016451E-02 
1950	 9.52470484451863E-02 
1951	 9.53066190100164E-02 
1952	 9.53559278786366E-02 
1953	 9.53894891494507E-02 
1954	 9.54361210514538E-02 
1955	 9.54829509966274E-02 
1956	 9.55370561249652E-02 
1957	 9.56005317845706E-02 
1958	 9.56771652023699E-02 
1959	 9.57559602205407E-02 
1960	 0.095847378041395 
1961	 0.095930062650409 
1962	 9.60098107668926E-02 
1963	 9.60986025698399E-02 
1964	 9.61902766116636E-02 
1965	 9.62765350044677E-02 
1966	 9.63751641446785E-02 
1967	 9.64889208893193E-02 
1968	 9.65767811329878E-02 
1969	 9.66469071852132E-02 
1970	 9.67285142504815E-02 
1971	 9.68039540981032E-02 
1972	 9.68788285742509E-02 
1973	 0.096956215394026 
1974	 9.70395238778781E-02 
1975	 9.71293266122503E-02 
1976	 9.71989947694238E-02 
1977	 9.72830392323141E-02 
1978	 9.73671303415188E-02 
1979	 9.74543355939492E-02 
1980	 9.75628824647792E-02 
1981	 0.097650917144212 
1982	 9.77397910770084E-02 
1983	 9.78294160168394E-02 
1984	 9.79058464643373E-02 
1985	 9.79842930738931E-02 
1986	 9.80735484775164E-02 
1987	 9.81583433188443E-02 
1988	 9.82399254359027E-02 
1989	 9.83119416709595E-02 
1990	 9.83769644024424E-02 
1991	 9.84446291370641E-02 
1992	 0.098522185043397 
1993	 9.85973073438624E-02 
1994	 9.86763338337088E-02 
1995	 9.87695972110922E-02 
1996	 9.88555833539335E-02 
1997	 9.89341228203288E-02 
1998	 0.099014395363305 
1999	 9.91080175318716E-02 
2000	 0.099188474082604 
2001	 9.92589031021398E-02 
2002	 9.93271456292067E-02 
2003	 9.93902429772533E-02 
2004	 9.94420245851496E-02 
2005	 9.95162466064525E-02 
2006	 9.95973675145627E-02 
2007	 9.96815716099502E-02 
2008	 9.97894831382048E-02 
2009	 9.98767155137066E-02 
2010	 9.99507341225941E-02 
2011	 0.100033321910935 
2012	 0.100119714548208 
2013	 0.100196677884004 
2014	 0.100270054578069 
2015	 0.100349583507649 
2016	 0.100418227411074 
2017	 0.100461601758515 
2018	 0.100524267941363 
2019	 0.100587341571163 
2020	 0.100657396871196 
2021	 0.100734442544041 
2022	 0.100813562906157 
2023	 0.100900738994744 
2024	 0.100983206476683 
2025	 0.101069240849193 
2026	 0.101151558310577 
2027	 0.101238718168135 
2028	 0.101307519054306 
2029	 0.101380229080555 
2030	 0.101445242336398 
2031	 0.101519710872862 
2032	 0.10160480865607 
2033	 0.101668820111241 
2034	 0.101727280527469 
2035	 0.101785932991489 
2036	 0.101821813967932 
2037	 0.101874946272952 
2038	 0.101946074069748 
2039	 0.102005191706849 
2040	 0.10206431056661 
2041	 0.102117565242142 
2042	 0.102162828523681 
2043	 0.102215473840151 
2044	 0.10226411553997 
2045	 0.102305336482822 
2046	 0.102361691007242 
2047	 0.102429544490117 
2048	 0.102486667835198 
2049	 0.102552108449138 
2050	 0.102607561685646 
2051	 0.102648254987478 
2052	 0.102694517577426 
2053	 0.102728665767625 
2054	 0.102782464437021 
2055	 0.102857354205502 
2056	 0.102922327601964 
2057	 0.102975288438731 
2058	 0.103035600995542 
2059	 0.103082907541182 
2060	 0.103104112684315 
2061	 0.103140509025706 
2062	 0.103186554147352 
2063	 0.103225195313382 
2064	 0.103251198825434 
2065	 0.103290700833577 
2066	 0.103336931301837 
2067	 0.103381760269581 
2068	 0.103429235796046 
2069	 0.10349247792239 
2070	 0.103528136156489 
2071	 0.103548762761699 
2072	 0.10358199165141 
2073	 0.103597841996573 
2074	 0.103640533907921 
2075	 0.103700691711595 
2076	 0.103761558332819 
2077	 0.103844125247477 
2078	 0.103906759647781 
2079	 0.103972928451773 
2080	 0.104024337203181 
2081	 0.104038998242092 
2082	 0.104084063760211 
2083	 0.104150179016217 
2084	 0.104199998375923 
2085	 0.104246139829608 
2086	 0.104311577342007 
2087	 0.104346846484539 
2088	 0.104342475854845 
2089	 0.104373349064791 
2090	 0.104416355173813 
2091	 0.104449871406448 
2092	 0.104489234603943 
2093	 0.104528202419259 
2094	 0.104561773773028 
2095	 0.104595486842789 
2096	 0.104637390092661 
2097	 0.10467310906329 
2098	 0.104707988687833 
2099	 0.104727211213857 
2100	 0.104755268212871 
2101	 0.10477929482003 
2102	 0.104815523434914 
2103	 0.104849654404307 
2104	 0.104902829323383 
2105	 0.104974198407092 
2106	 0.105040662222162 
2107	 0.105129872575647 
2108	 0.105192056845296 
2109	 0.105239186564965 
2110	 0.105290512491648 
2111	 0.105316700411799 
2112	 0.105367321751149 
2113	 0.105441428144911 
2114	 0.105503908523835 
2115	 0.105567063603695 
2116	 0.105638155232974 
2117	 0.105702530039892 
2118	 0.105768938462519 
2119	 0.105811857672031 
2120	 0.105845084147779 
2121	 0.105876804640687 
2122	 0.105876915795967 
2123	 0.10590407594583 
2124	 0.105943422973578 
2125	 0.105987602838017 
2126	 0.106067452837006 
2127	 0.106102903490569 
2128	 0.10611734565839 
2129	 0.106133164995412 
2130	 0.106134397366458 
2131	 0.106104112314838 
2132	 0.106097767373437 
2133	 0.106104295281112 
2134	 0.106105399224315 
2135	 0.106093376639811 
2136	 0.10610627717981 
2137	 0.106144236532679 
2138	 0.106159453048769 
2139	 0.106183331328777 
2140	 0.106190455916273 
2141	 0.106180806217526 
2142	 0.106165025027736 
2143	 0.1061408054939 
2144	 0.106114296323631 
2145	 0.10608017883671 
2146	 0.106038987897909 
2147	 0.105984297964398 
2148	 0.105942281318025 
2149	 0.105891860196488 
2150	 0.105827580276048 
2151	 0.105779466635401 
2152	 0.105744557444743 
2153	 0.105694788896958 
2154	 0.10565852338108 
2155	 0.105588220845406 
2156	 0.105486038393713 
2157	 0.105399858245082 
2158	 0.105295412105834 
2159	 0.105204114181428 
2160	 0.105125570298256 
2161	 0.105047495906577 
2162	 0.104976469414059 
2163	 0.104897789722109 
2164	 0.104824609138575 
2165	 0.104740260811125 
2166	 0.104658077417539 
2167	 0.10456388150422 
2168	 0.104485607087641 
2169	 0.104419629627652 
2170	 0.104339971091964 
2171	 0.104257590561916 
2172	 0.104178603863639 
2173	 0.104095100300551 
2174	 0.10401323676453 
2175	 0.103937831009807 
2176	 0.103857635018614 
2177	 0.103774006271836 
2178	 0.103685757139243 
2179	 0.103583553591702 
2180	 0.103500468912136 
2181	 0.10342266351676 
2182	 0.103348339310233 
2183	 0.103286365117176 
2184	 0.103234494067002 
2185	 0.103174619629733 
2186	 0.103112491039945 
2187	 0.103045341855621 
2188	 0.102982128559943 
2189	 0.102904840121446 
2190	 0.102807236179416 
2191	 0.102731573527274 
2192	 0.102658184356012 
2193	 0.102587643240043 
2194	 0.102526467517985 
2195	 0.102467030073877 
2196	 0.102401471949834 
2197	 0.1023485752464 
2198	 0.102307049850292 
2199	 0.102272917245837 
2200	 0.102254414372049 
2201	 0.102228521733741 
2202	 0.102207090083099 
2203	 0.102183365894842 
2204	 0.102160982260304 
2205	 0.102130467413799 
2206	 0.102115393276263 
2207	 0.102107075659077 
2208	 0.10210239293703 
2209	 0.102112879375107 
2210	 0.102104082534803 
2211	 0.102082555747117 
2212	 0.102082039853608 
2213	 0.102088319965899 
2214	 0.102083257928326 
2215	 0.102086918748185 
2216	 0.102089044374073 
2217	 0.102077638506133 
2218	 0.102067038523074 
2219	 0.102061365400041 
2220	 0.102060576332055 
2221	 0.102053414051801 
2222	 0.102050670416712 
2223	 0.102061754098308 
2224	 0.102064098926568 
2225	 0.102072757157321 
2226	 0.102077088638927 
2227	 0.102089567287256 
2228	 0.102110437769622 
2229	 0.102129601640563 
2230	 0.102149220130695 
2231	 0.102172454039237 
2232	 0.10219922660012 
2233	 0.10222644640807 
2234	 0.102263981427342 
2235	 0.102283116454268 
2236	 0.102296304583423 
2237	 0.10230823970922 
2238	 0.102303735876188 
2239	 0.102306945370504 
2240	 0.102302136020153 
2241	 0.102316400460335 
2242	 0.10234331269319 
2243	 0.102369903070544 
2244	 0.102414235802331 
2245	 0.10245896631792 
2246	 0.102483581002454 
2247	 0.102493661242695 
2248	 0.102496238194515 
2249	 0.102487955332009 
2250	 0.102468421414672 
2251	 0.102417077126669 
2252	 0.10242144646065 
2253	 0.10244663429102 
2254	 0.102451043287945 
2255	 0.102478919897527 
2256	 0.102492182235817 
2257	 0.102461431882611 
2258	 0.102480283739527 
2259	 0.102533646988091 
2260	 0.10258893827629 
2261	 0.102683915407596 
2262	 0.102734304312123 
2263	 0.102776622107031 
2264	 0.102804662440755 
2265	 0.102785741165576 
2266	 0.102791533710218 
2267	 0.102810831860479 
2268	 0.102822807899552 
2269	 0.102852171127956 
2270	 0.1028480664647 
2271	 0.102833852345265 
2272	 0.102826039228073 
2273	 0.102813996767144 
2274	 0.102828543875663 
2275	 0.102850863001909 
2276	 0.102904781553642 
2277	 0.102914312010052 
2278	 0.102909813154227 
2279	 0.102920273803712 
2280	 0.102909537002323 
2281	 0.10292121505391 
2282	 0.102959085775534 
2283	 0.1029872591658 
2284	 0.103017281350848 
2285	 0.103037218410958 
2286	 0.10305883024883 
2287	 0.103074589845194 
2288	 0.103066176218251 
2289	 0.103084899612801 
2290	 0.103123799449248 
2291	 0.10315156168668 
2292	 0.103186211482024 
2293	 0.103213305577629 
2294	 0.103234051099705 
2295	 0.103254652522966 
2296	 0.103267113732593 
2297	 0.103295382146788 
2298	 0.103326889205505 
2299	 0.10331786082791 
2300	 0.10333769781127 
2301	 0.103362994911053 
2302	 0.103349550662984 
2303	 0.103374739683843 
2304	 0.103384625964399 
2305	 0.103356600701344 
2306	 0.103348382554994 
2307	 0.103345406638195 
2308	 0.103337337291753 
2309	 0.103321022272219 
2310	 0.103317304444668 
2311	 0.10332407118929 
2312	 0.103330291785325 
2313	 0.103344895544672 
2314	 0.103349018407342 
2315	 0.103331149356497 
2316	 0.103349489830484 
2317	 0.10340101912781 
2318	 0.103414291426391 
2319	 0.103443654511649 
2320	 0.103451871053921 
2321	 0.103380311447216 
2322	 0.103381323771086 
2323	 0.103428404357138 
2324	 0.103460410529681 
2325	 0.103532848269655 
2326	 0.103580478132268 
2327	 0.103613386304948 
2328	 0.103633670552868 
2329	 0.103683416961853 
2330	 0.103712742025333 
2331	 0.103723781923237 
2332	 0.103747110581516 
2333	 0.10374683999781 
2334	 0.103769705481877 
2335	 0.103808614574584 
2336	 0.103820603641158 
2337	 0.103822089726037 
2338	 0.103817426321384 
2339	 0.103845574003558 
2340	 0.103872867046377 
2341	 0.103863678559727 
2342	 0.103888152347129 
2343	 0.103926662856054 
2344	 0.103925641037766 
2345	 0.103929687299041 
2346	 0.103956972489792 
2347	 0.103952283687104 
2348	 0.103901342081019 
2349	 0.103898776927275 
2350	 0.103921951181018 
2351	 0.103923393746315 
2352	 0.103943798665791 
2353	 0.103924197614344 
2354	 0.103868939074284 
2355	 0.103827698324561 
2356	 0.103756861724978 
2357	 0.103722777608987 
2358	 0.103711924215384 
2359	 0.103698095133922 
2360	 0.103722467080238 
2361	 0.103683877666502 
2362	 0.103589542369777 
2363	 0.103558034232888 
2364	 0.103518378991864 
2365	 0.103512447353818 
2366	 0.103575855311467 
2367	 0.103593374588469 
2368	 0.103583771136086 
2369	 0.103595194802206 
2370	 0.103618670382079 
2371	 0.103632732675464 
2372	 0.103645505713539 
2373	 0.103613367798571 
2374	 0.10349189670183 
2375	 0.103428447738392 
2376	 0.103409818674121 
2377	 0.103330126289213 
2378	 0.103280290044906 
2379	 0.103277226994945 
2380	 0.103261220016191 
2381	 0.103297234559729 
2382	 0.10330225682287 
2383	 0.103305098927509 
2384	 0.103334430378765 
2385	 0.103235614955386 
2386	 0.103239406349249 
2387	 0.103263200484227 
2388	 0.103159595327332 
2389	 0.103195834699024 
2390	 0.103203279709001 
2391	 0.103086258233732 
2392	 0.103057912501698 
2393	 0.103009875678566 
2394	 0.102913954999036 
2395	 0.102939731671333 
2396	 0.102947289091444 
2397	 0.102911687442078 
2398	 0.10288808985105 
2399	 0.102749987612917 
2400	 0.102656170035459 
2401	 0.102634778680796 
2402	 0.102559712815625 
2403	 0.102537868509792 
2404	 0.102521558056834 
2405	 0.102412829718518 
2406	 0.102358864206398 
2407	 0.102335725028365 
2408	 0.102272773367931 
2409	 0.102204234327471 
2410	 0.102100768517112 
2411	 0.102066684372634 
2412	 0.102047404803107 
2413	 0.101989803243952 
2414	 0.102015908949002 
2415	 0.101979073070493 
2416	 0.101907022403541 
2417	 0.101797993621788 
2418	 0.101745721961039 
2419	 0.101659794654653 
2420	 0.101645381471268 
2421	 0.101676804350077 
2422	 0.10168895576004 
2423	 0.101750075063563 
2424	 0.101758031685506 
2425	 0.101803494904634 
2426	 0.101731581835227 
2427	 0.101469888484642 
2428	 0.101378234092443 
2429	 0.101384594713891 
2430	 0.10127720182965 
2431	 0.101216233042016 
2432	 0.101218640089395 
2433	 0.10105433724405 
2434	 0.100989913360226 
2435	 0.101111453736783 
2436	 0.101075905219077 
2437	 0.100999143835842 
2438	 0.100940150831285 
2439	 0.100827787539086 
2440	 0.100794354035921 
2441	 0.100732337603483 
2442	 0.100717422584597 
2443	 0.100830601060365 
2444	 0.100812595261603 
2445	 0.100775273680884 
2446	 0.100749097272894 
2447	 0.100663700641028 
2448	 0.10061845858806 
2449	 0.10058899656913 
2450	 0.100513988180623 
2451	 0.100422740638342 
2452	 0.100303845009674 
2453	 0.100116308039723 
2454	 0.100024507052761 
2455	 9.99234476228336E-02 
2456	 0.099940783502627 
2457	 0.100162097258159 
2458	 0.100188263435389 
2459	 0.100205646951931 
2460	 0.100120822876325 
2461	 0.09978611175306 
2462	 9.96874263515472E-02 
2463	 9.97856701238578E-02 
2464	 9.95799548770624E-02 
2465	 9.92467103446144E-02 
2466	 9.91137609629054E-02 
2467	 9.88489540227995E-02 
2468	 0.098776314970403 
2469	 9.90441372230296E-02 
2470	 9.91841477239144E-02 
2471	 9.91104671271079E-02 
2472	 9.90294342449067E-02 
2473	 9.88807795963922E-02 
2474	 9.87116652608458E-02 
2475	 9.86258827866813E-02 
2476	 9.85985247472139E-02 
2477	 9.85963346098903E-02 
2478	 9.85911255493067E-02 
2479	 9.84746527768082E-02 
2480	 9.83265633826707E-02 
2481	 9.83722545849709E-02 
2482	 9.83776904799551E-02 
2483	 9.84269078475068E-02 
2484	 9.85560835733104E-02 
2485	 9.84489388595405E-02 
2486	 9.84153717016671E-02 
2487	 9.84173101723921E-02 
2488	 0.098335001533879 
2489	 0.098512612226697 
2490	 9.86681066655061E-02 
2491	 9.86127092351288E-02 
2492	 0.098590120031275 
2493	 9.85408037696688E-02 
2494	 9.82810089682449E-02 
2495	 9.81676343213615E-02 
2496	 9.81579400839211E-02 
2497	 9.78620082064715E-02 
2498	 9.77001676473208E-02 
2499	 9.75403869096133E-02 
2500	 0.097455673923248 
