Wavelength	LMW_2200007.asd
350	 0.074126384521233 
351	 0.067434806312943 
352	 6.52637110755518E-02 
353	 6.85187235897588E-02 
354	 5.97835264320907E-02 
355	 5.53315078973553E-02 
356	 5.71757573980124E-02 
357	 6.25021407464766E-02 
358	 6.67007281740745E-02 
359	 6.59419935247163E-02 
360	 6.34510977679228E-02 
361	 6.58015751480962E-02 
362	 6.42310534688743E-02 
363	 6.49276457781987E-02 
364	 6.90495842338078E-02 
365	 6.74897192054716E-02 
366	 6.21624581755006E-02 
367	 5.90989807924351E-02 
368	 6.21702251833136E-02 
369	 6.28125756557776E-02 
370	 6.37969334482034E-02 
371	 6.52012423496826E-02 
372	 6.53507230729112E-02 
373	 6.67164839484174E-02 
374	 6.62618164248003E-02 
375	 0.064556646549212 
376	 7.00041388807355E-02 
377	 0.069654442535976 
378	 6.55310522509391E-02 
379	 6.39847887145286E-02 
380	 6.88474214218783E-02 
381	 7.06652587666237E-02 
382	 6.97198020518678E-02 
383	 7.31750356552973E-02 
384	 7.22079285658841E-02 
385	 7.03999086420864E-02 
386	 7.04881456592396E-02 
387	 6.99240875042886E-02 
388	 7.32726767942071E-02 
389	 7.63150237586338E-02 
390	 7.39913884935016E-02 
391	 0.070684408210146 
392	 7.28110232615435E-02 
393	 7.87625567568071E-02 
394	 8.06238586794426E-02 
395	 0.081124343526384 
396	 8.05295633637997E-02 
397	 8.00014884210723E-02 
398	 8.36603969884961E-02 
399	 8.58965449332934E-02 
400	 8.71670654751634E-02 
401	 8.94509703190813E-02 
402	 8.94772244836708E-02 
403	 8.96039997522532E-02 
404	 9.08997230188797E-02 
405	 9.27662713065883E-02 
406	 9.43757412481545E-02 
407	 9.61202470302826E-02 
408	 9.78713025636701E-02 
409	 9.72857091082008E-02 
410	 0.097455994971511 
411	 0.098892184120979 
412	 0.100614428756325 
413	 0.100847995620561 
414	 0.100542044759731 
415	 0.100652144332787 
416	 0.101817652518043 
417	 0.101765291257438 
418	 0.101693042549118 
419	 0.102695547614438 
420	 0.102617177742281 
421	 0.101564420228846 
422	 0.100731045365122 
423	 0.101628776058838 
424	 0.101736645764797 
425	 0.101066697010566 
426	 0.100006721658123 
427	 9.88598025998291E-02 
428	 9.81964054474703E-02 
429	 9.77021710777776E-02 
430	 9.69009939979039E-02 
431	 9.62087509249941E-02 
432	 9.54059505564357E-02 
433	 9.47089191522509E-02 
434	 9.47234270757062E-02 
435	 9.45524165237515E-02 
436	 9.42978183219439E-02 
437	 9.42029357559729E-02 
438	 9.43025051809569E-02 
439	 9.47629321432736E-02 
440	 9.56247240488778E-02 
441	 0.096750840177228 
442	 9.72019994569808E-02 
443	 9.77754338288126E-02 
444	 9.87974174433505E-02 
445	 0.099636603958888 
446	 0.100482603903607 
447	 0.101349690477932 
448	 0.102191706868369 
449	 0.102850370076301 
450	 0.103728719930605 
451	 0.104833363470091 
452	 0.105825371852724 
453	 0.106599681106904 
454	 0.107342653342517 
455	 0.108124232455639 
456	 0.108556864490555 
457	 0.109096915899878 
458	 0.109731874499779 
459	 0.11026539297745 
460	 0.110936300649178 
461	 0.111207146530079 
462	 0.111213740107049 
463	 0.112121943390554 
464	 0.112392576175442 
465	 0.11239077210532 
466	 0.112793426117756 
467	 0.113289294807395 
468	 0.113581917251763 
469	 0.113798359235191 
470	 0.114344799400477 
471	 0.114314906020446 
472	 0.114150999894134 
473	 0.114289705103636 
474	 0.114627759124621 
475	 0.114968335689127 
476	 0.115181227338385 
477	 0.115213955469817 
478	 0.11523994138368 
479	 0.115351564877722 
480	 0.115576874160538 
481	 0.115874753200828 
482	 0.116164167966813 
483	 0.116370152801004 
484	 0.116446310403632 
485	 0.116404748609227 
486	 0.116413631467837 
487	 0.116547547107271 
488	 0.116779300866081 
489	 0.116796063145089 
490	 0.116800422366722 
491	 0.116982255861627 
492	 0.11730937564913 
493	 0.117384299344827 
494	 0.117326133844452 
495	 0.117478220757685 
496	 0.117780215561721 
497	 0.117987656196516 
498	 0.118020177846 
499	 0.118056653074144 
500	 0.118125647556925 
501	 0.118269045260931 
502	 0.118468668337709 
503	 0.118457108968344 
504	 0.118561446114096 
505	 0.118794907884053 
506	 0.118880538898343 
507	 0.118986889198681 
508	 0.119128062032594 
509	 0.119248008216473 
510	 0.119145077324402 
511	 0.119252256898876 
512	 0.11950079702056 
513	 0.119572526590695 
514	 0.119560191022733 
515	 0.119613304360936 
516	 0.119772343048745 
517	 0.119888109650774 
518	 0.119992268204228 
519	 0.120066915354015 
520	 0.120107306399851 
521	 0.120238927985516 
522	 0.120339675680482 
523	 0.120387220026957 
524	 0.120475499350673 
525	 0.120549701063476 
526	 0.120607602005287 
527	 0.120680171556644 
528	 0.120890493075189 
529	 0.120955348158923 
530	 0.120927070982115 
531	 0.121056473847862 
532	 0.121097707868144 
533	 0.121213353606085 
534	 0.121450878442647 
535	 0.121494956599319 
536	 0.121571431226521 
537	 0.121700215085832 
538	 0.121822416955663 
539	 0.121903665569816 
540	 0.122017249735667 
541	 0.12219049090727 
542	 0.122381478065673 
543	 0.122509169565826 
544	 0.122635779583569 
545	 0.122828796560219 
546	 0.123007738861067 
547	 0.123129189282601 
548	 0.123273041811913 
549	 0.123598931977493 
550	 0.123708305061382 
551	 0.123837720610606 
552	 0.124174203468702 
553	 0.124479375322261 
554	 0.124712639523866 
555	 0.124970187436043 
556	 0.125388374913747 
557	 0.125694287341426 
558	 0.126031378428781 
559	 0.1264810578353 
560	 0.126939173854743 
561	 0.127377897606768 
562	 0.127805403388707 
563	 0.128249170282285 
564	 0.128735994488125 
565	 0.129245449050283 
566	 0.129750144483814 
567	 0.130220173400994 
568	 0.130796421691883 
569	 0.131478523018935 
570	 0.132218104961812 
571	 0.132939718943263 
572	 0.133736371537897 
573	 0.134583719972626 
574	 0.135383554739902 
575	 0.136231528053663 
576	 0.137184522593487 
577	 0.138198800807736 
578	 0.139025219208518 
579	 0.139822511993004 
580	 0.140531899389963 
581	 0.141067343130132 
582	 0.141768411947403 
583	 0.14255148146171 
584	 0.143394615665046 
585	 0.144422991233636 
586	 0.145601911274733 
587	 0.146835152031618 
588	 0.148031247550794 
589	 0.149234103813385 
590	 0.150415154782935 
591	 0.151621861646943 
592	 0.15296593639138 
593	 0.154309500202634 
594	 0.155600778672216 
595	 0.156800623230324 
596	 0.157855340081587 
597	 0.158784237926338 
598	 0.159635491086525 
599	 0.160477518414936 
600	 0.161335361667628 
601	 0.162236933003283 
602	 0.163161141283238 
603	 0.164002633818329 
604	 0.164912537081707 
605	 0.165856598843799 
606	 0.166736717685565 
607	 0.167484565882684 
608	 0.168332885925079 
609	 0.16930566519148 
610	 0.170171340188555 
611	 0.170868380327585 
612	 0.171486998197647 
613	 0.172113930872927 
614	 0.172672985831578 
615	 0.173178607212486 
616	 0.173657034436846 
617	 0.174138826543871 
618	 0.174638710483196 
619	 0.175083681335235 
620	 0.175454882663369 
621	 0.175873484924351 
622	 0.176302546090337 
623	 0.176686089387154 
624	 0.176982539711206 
625	 0.177320343263294 
626	 0.177658162618366 
627	 0.177984942565584 
628	 0.178348992137564 
629	 0.178655021455505 
630	 0.178936161537724 
631	 0.179235403153986 
632	 0.17947727759863 
633	 0.179732701134356 
634	 0.180023963587175 
635	 0.180328174641672 
636	 0.180607211771048 
637	 0.180843652226883 
638	 0.181058156379903 
639	 0.18135735326651 
640	 0.181623445954894 
641	 0.18186019511851 
642	 0.182122469629543 
643	 0.182390159506732 
644	 0.182654832134743 
645	 0.182912496820953 
646	 0.183162918015804 
647	 0.18347598629152 
648	 0.183777607204106 
649	 0.183997448626529 
650	 0.184264713909615 
651	 0.184577345004747 
652	 0.184901921870457 
653	 0.185184779638556 
654	 0.18545998780174 
655	 0.185736979725189 
656	 0.186026270011102 
657	 0.186356225825556 
658	 0.186654691219919 
659	 0.186955580793847 
660	 0.187326200903012 
661	 0.187670216320036 
662	 0.187990097367649 
663	 0.188322184206697 
664	 0.188737442819167 
665	 0.189145561284157 
666	 0.189523863161467 
667	 0.189876347547853 
668	 0.19021529460742 
669	 0.190603938511347 
670	 0.191026818654447 
671	 0.191406348089138 
672	 0.191791276621314 
673	 0.192267828525144 
674	 0.19282521522847 
675	 0.193206088558634 
676	 0.193610771265025 
677	 0.194072838753277 
678	 0.19455447503893 
679	 0.195049719901509 
680	 0.195537588451874 
681	 0.195997520885139 
682	 0.196409743939955 
683	 0.196909115622189 
684	 0.197464415948795 
685	 0.198002457968628 
686	 0.198477079315309 
687	 0.198982090368677 
688	 0.199501242500171 
689	 0.199951761605736 
690	 0.200484362740366 
691	 0.201021666738348 
692	 0.201526493570231 
693	 0.20211737629496 
694	 0.202654696590368 
695	 0.203150867294833 
696	 0.203668783609272 
697	 0.204210306819242 
698	 0.204781732792089 
699	 0.205364167945344 
700	 0.205915063444617 
701	 0.206450666175665 
702	 0.206985991509166 
703	 0.20751764995448 
704	 0.207981169148026 
705	 0.208511008335972 
706	 0.209070284567706 
707	 0.209546242131502 
708	 0.210028510041197 
709	 0.210531290416797 
710	 0.211056718705485 
711	 0.211605153008993 
712	 0.212082744311443 
713	 0.212531747316793 
714	 0.213011434336044 
715	 0.213486391973635 
716	 0.213911645080662 
717	 0.214305757513289 
718	 0.21472788527656 
719	 0.215125205971154 
720	 0.21550447638604 
721	 0.215869842461974 
722	 0.216202801387768 
723	 0.216529661416925 
724	 0.216863953483685 
725	 0.21719420216571 
726	 0.217405787666392 
727	 0.217660810646275 
728	 0.217978052919578 
729	 0.218233208149624 
730	 0.218448254489097 
731	 0.218638599115139 
732	 0.218816646124432 
733	 0.218989898439803 
734	 0.219115606525363 
735	 0.219193658792681 
736	 0.219248938335462 
737	 0.219325271987504 
738	 0.219403222354879 
739	 0.219451096131236 
740	 0.219433034885506 
741	 0.219412058037738 
742	 0.219406055211716 
743	 0.219395372355724 
744	 0.219287318454497 
745	 0.219160861160514 
746	 0.219052300114554 
747	 0.218963016894979 
748	 0.218808925452524 
749	 0.21866039332963 
750	 0.218511498811546 
751	 0.218251327183755 
752	 0.217989758269534 
753	 0.217736904354956 
754	 0.217474404231085 
755	 0.217165653974266 
756	 0.216905034553822 
757	 0.216664820586409 
758	 0.216360817741422 
759	 0.216014799886246 
760	 0.215643852005118 
761	 0.215266017163258 
762	 0.214898752437689 
763	 0.21448054110994 
764	 0.214077348658231 
765	 0.213730177478707 
766	 0.213316721265755 
767	 0.212888677526915 
768	 0.212451316885632 
769	 0.211988502949192 
770	 0.211501028314227 
771	 0.211043916314634 
772	 0.210617418124658 
773	 0.210155105677129 
774	 0.209758881283662 
775	 0.209306558970483 
776	 0.208733376640232 
777	 0.208266844356711 
778	 0.207771867312915 
779	 0.207276852305349 
780	 0.206854061388998 
781	 0.206364788644717 
782	 0.205889436927936 
783	 0.205429052355726 
784	 0.204891682420295 
785	 0.204379785490077 
786	 0.203874408224898 
787	 0.203355234784228 
788	 0.20285516009952 
789	 0.202364346433592 
790	 0.201883319051452 
791	 0.201411033478948 
792	 0.200925108810007 
793	 0.200431176709015 
794	 0.199928164071012 
795	 0.199410321147 
796	 0.198896049476941 
797	 0.198396240429041 
798	 0.197932920397926 
799	 0.197556406515812 
800	 0.197107002994202 
801	 0.196612431670073 
802	 0.196143879227428 
803	 0.195691742285746 
804	 0.195215393859533 
805	 0.19473924056878 
806	 0.194317609257217 
807	 0.19387586636225 
808	 0.193427253575837 
809	 0.192980205796319 
810	 0.192524615560001 
811	 0.192137287533295 
812	 0.19174490069896 
813	 0.191300254199105 
814	 0.190923220108454 
815	 0.190546923474893 
816	 0.190150430735662 
817	 0.189741111639456 
818	 0.189366340897164 
819	 0.189020423576441 
820	 0.188672261293954 
821	 0.188280158692253 
822	 0.187898721292171 
823	 0.187552934754328 
824	 0.187230442195672 
825	 0.186867378540794 
826	 0.186585562918703 
827	 0.186277666720968 
828	 0.185855330893368 
829	 0.185482233196249 
830	 0.185196490519691 
831	 0.184951753189568 
832	 0.184666563590868 
833	 0.184351730983385 
834	 0.184077118897714 
835	 0.183836485787004 
836	 0.18355559988291 
837	 0.183311454651433 
838	 0.183066498134277 
839	 0.182780042348989 
840	 0.182433348215387 
841	 0.182230967282426 
842	 0.182090902063291 
843	 0.1818854715654 
844	 0.181611932570838 
845	 0.181449572068144 
846	 0.181311694634202 
847	 0.181039673315925 
848	 0.180849556473817 
849	 0.180673024958341 
850	 0.180480526150798 
851	 0.180294855321994 
852	 0.180177901549115 
853	 0.180070588879742 
854	 0.179910086566043 
855	 0.179660085787138 
856	 0.179489815190411 
857	 0.179435103001638 
858	 0.179430450734101 
859	 0.17924280571069 
860	 0.179143414056067 
861	 0.179070505305822 
862	 0.178900714377615 
863	 0.178794397753262 
864	 0.178710873577846 
865	 0.17862772230751 
866	 0.178541032504145 
867	 0.178468918837391 
868	 0.178441945907854 
869	 0.178435866167748 
870	 0.178376159874789 
871	 0.178281026385705 
872	 0.178203018857535 
873	 0.178190199675515 
874	 0.178270714486932 
875	 0.178255145472056 
876	 0.178201367609694 
877	 0.178181851165718 
878	 0.178121411418917 
879	 0.17811752928426 
880	 0.178178527670816 
881	 0.17826375105302 
882	 0.178291426798871 
883	 0.178304571640819 
884	 0.178317027675829 
885	 0.178332513662609 
886	 0.178406621844969 
887	 0.178486009508462 
888	 0.178552959300594 
889	 0.178627936114974 
890	 0.178722654795683 
891	 0.178760805940307 
892	 0.178749444173541 
893	 0.178805322782051 
894	 0.178863954945087 
895	 0.17900894873712 
896	 0.17924669185855 
897	 0.179405469277386 
898	 0.179552256696449 
899	 0.179687260954372 
900	 0.179811049889857 
901	 0.179965269134644 
902	 0.180092708916804 
903	 0.180202920290022 
904	 0.180333793800169 
905	 0.180529101797998 
906	 0.180758415050999 
907	 0.180957234667795 
908	 0.181087247439514 
909	 0.18130886704769 
910	 0.18150769783979 
911	 0.181703319268756 
912	 0.181979645123099 
913	 0.18216139686101 
914	 0.182342293267581 
915	 0.182567064920765 
916	 0.182810647880491 
917	 0.18303338322287 
918	 0.183282719897534 
919	 0.183579903274659 
920	 0.183895309518383 
921	 0.184125991911584 
922	 0.184369227250223 
923	 0.184668259640771 
924	 0.184939791302482 
925	 0.185273392206652 
926	 0.185598339467 
927	 0.185865917908623 
928	 0.18612847382162 
929	 0.186396097169751 
930	 0.186725211731372 
931	 0.187109882952472 
932	 0.187380974982425 
933	 0.187811347812943 
934	 0.188269961907426 
935	 0.188581877411597 
936	 0.188798989247169 
937	 0.189131716232908 
938	 0.189534569548279 
939	 0.189913134381425 
940	 0.190367203575765 
941	 0.190716634915572 
942	 0.191082599975904 
943	 0.191589081744452 
944	 0.191870444866576 
945	 0.192185983957117 
946	 0.192586248169284 
947	 0.19301279493941 
948	 0.193429204426781 
949	 0.193906830020453 
950	 0.194337637125436 
951	 0.194620228126728 
952	 0.195145104290745 
953	 0.195605009851907 
954	 0.196009975361681 
955	 0.196516484105323 
956	 0.19691969939201 
957	 0.197387650902458 
958	 0.197892682428276 
959	 0.198309414111827 
960	 0.198771661165698 
961	 0.199111818713119 
962	 0.199478253354582 
963	 0.200111204207793 
964	 0.200479932010962 
965	 0.200951428213458 
966	 0.201537009154901 
967	 0.202010978050237 
968	 0.202536856111739 
969	 0.202964272621088 
970	 0.203308657389244 
971	 0.203704408559623 
972	 0.204168922514374 
973	 0.204747881521688 
974	 0.205325147102912 
975	 0.20573982778524 
976	 0.206217551148427 
977	 0.206685424281597 
978	 0.207100943422041 
979	 0.207497841566733 
980	 0.208128064512236 
981	 0.20870203361525 
982	 0.209147718472907 
983	 0.209574710334484 
984	 0.210104336773589 
985	 0.210545284199551 
986	 0.210964363448592 
987	 0.211512343585668 
988	 0.211926396191835 
989	 0.21237525173219 
990	 0.212819481428627 
991	 0.213165670391069 
992	 0.213623116964959 
993	 0.214159913469414 
994	 0.214715346885607 
995	 0.215199196725886 
996	 0.215441299600242 
997	 0.215942665315036 
998	 0.216468859140712 
999	 0.216705151946541 
1000	 0.217184939770073 
1001	 0.216026434082315 
1002	 0.216426194915816 
1003	 0.21680349576724 
1004	 0.217149995830206 
1005	 0.217495836877984 
1006	 0.217840864960523 
1007	 0.218144720774042 
1008	 0.218409428379188 
1009	 0.218814860950563 
1010	 0.219240606674557 
1011	 0.219619636070074 
1012	 0.220060323603666 
1013	 0.220465590574927 
1014	 0.220783396701153 
1015	 0.22114696377057 
1016	 0.221527942846163 
1017	 0.221871751671022 
1018	 0.222185404493731 
1019	 0.222513495005767 
1020	 0.222840885116585 
1021	 0.223150156138537 
1022	 0.223478589978121 
1023	 0.223806278309312 
1024	 0.224115232365955 
1025	 0.224404147288259 
1026	 0.224647031275795 
1027	 0.224900361553814 
1028	 0.225203207314902 
1029	 0.225498426187463 
1030	 0.225817495020058 
1031	 0.226127690784348 
1032	 0.226455707708893 
1033	 0.226725885821978 
1034	 0.226999033601328 
1035	 0.22722527554774 
1036	 0.227402253851428 
1037	 0.227617174613875 
1038	 0.227850587362459 
1039	 0.228073059320504 
1040	 0.228304542467857 
1041	 0.228518097044274 
1042	 0.228706672563875 
1043	 0.228903120342048 
1044	 0.229105852132073 
1045	 0.229322362334286 
1046	 0.229566118369979 
1047	 0.229779764445946 
1048	 0.229947634236883 
1049	 0.2301734662607 
1050	 0.230391533479591 
1051	 0.230581274651628 
1052	 0.230819056615059 
1053	 0.2310346680247 
1054	 0.231212108527754 
1055	 0.231401332600984 
1056	 0.231597174153623 
1057	 0.231805825473628 
1058	 0.232032756206463 
1059	 0.232247669224753 
1060	 0.232453918683607 
1061	 0.232694854067416 
1062	 0.232921432666293 
1063	 0.23316293053944 
1064	 0.233432574787915 
1065	 0.233611682843616 
1066	 0.233783278588202 
1067	 0.234004259356817 
1068	 0.234210508753404 
1069	 0.234454824812254 
1070	 0.234649300227822 
1071	 0.234803009832999 
1072	 0.234982086923637 
1073	 0.235140287263258 
1074	 0.2353123244022 
1075	 0.235495899922396 
1076	 0.235728374363121 
1077	 0.235967968677431 
1078	 0.236135168936762 
1079	 0.236277569427309 
1080	 0.236450198197371 
1081	 0.236554347771555 
1082	 0.236684679197585 
1083	 0.236854721076019 
1084	 0.23707788882585 
1085	 0.237261515291112 
1086	 0.237465201233188 
1087	 0.237622066253918 
1088	 0.237736983152408 
1089	 0.237899277271063 
1090	 0.238016740938405 
1091	 0.238157679508452 
1092	 0.238354088243557 
1093	 0.238503374754937 
1094	 0.238653764779642 
1095	 0.238812394770724 
1096	 0.238953268406361 
1097	 0.239087715978243 
1098	 0.239235486176079 
1099	 0.239420764430016 
1100	 0.239554138099921 
1101	 0.239641401958579 
1102	 0.23977019092923 
1103	 0.239913753564041 
1104	 0.24000859619588 
1105	 0.240126291604185 
1106	 0.240289500677943 
1107	 0.240380710486435 
1108	 0.240496669002099 
1109	 0.240664388512115 
1110	 0.240801317512767 
1111	 0.240923643182225 
1112	 0.241026289772905 
1113	 0.241158584449395 
1114	 0.241298872432183 
1115	 0.241417265913253 
1116	 0.241552838698638 
1117	 0.241677944731791 
1118	 0.241767263645752 
1119	 0.241855752575605 
1120	 0.24202547637584 
1121	 0.242190726218178 
1122	 0.242311039589912 
1123	 0.242446453864045 
1124	 0.242563970315927 
1125	 0.242639624849372 
1126	 0.242739829061555 
1127	 0.242866776021043 
1128	 0.242961966019261 
1129	 0.243033395255417 
1130	 0.243117091991148 
1131	 0.243190158541221 
1132	 0.243274442054556 
1133	 0.243379728133353 
1134	 0.24346346524097 
1135	 0.243541048535576 
1136	 0.243606523183975 
1137	 0.243692893551444 
1138	 0.243775431477833 
1139	 0.243849252378596 
1140	 0.243938756961434 
1141	 0.244012141686764 
1142	 0.244061298523103 
1143	 0.244118036019102 
1144	 0.244184230297927 
1145	 0.244237150628461 
1146	 0.244280180135362 
1147	 0.24432165357171 
1148	 0.244342541429498 
1149	 0.244388087896292 
1150	 0.244438606060289 
1151	 0.244499341711784 
1152	 0.244575698061766 
1153	 0.244644479389941 
1154	 0.244706378637686 
1155	 0.244760264131347 
1156	 0.244810928881881 
1157	 0.244861397253605 
1158	 0.24490464088746 
1159	 0.244938706981506 
1160	 0.244976365638101 
1161	 0.245001621755723 
1162	 0.245041704867337 
1163	 0.245080259232754 
1164	 0.245135913652774 
1165	 0.245205076987541 
1166	 0.245284026184233 
1167	 0.245377008347204 
1168	 0.245456645375603 
1169	 0.245531590541629 
1170	 0.245607565095192 
1171	 0.245669439059532 
1172	 0.245710390895792 
1173	 0.24577381316017 
1174	 0.245840882864768 
1175	 0.24590247395401 
1176	 0.245974780104827 
1177	 0.246040734556452 
1178	 0.246092411869727 
1179	 0.246152139737266 
1180	 0.246211551095009 
1181	 0.246282972862883 
1182	 0.246356695197125 
1183	 0.246444702162974 
1184	 0.246525810100939 
1185	 0.246620936307297 
1186	 0.246697180621256 
1187	 0.246766435312787 
1188	 0.246827391310537 
1189	 0.246883514087776 
1190	 0.24693038651226 
1191	 0.24695638756207 
1192	 0.246998587043098 
1193	 0.247041071363852 
1194	 0.247085171906034 
1195	 0.247140266940946 
1196	 0.247189234089002 
1197	 0.247228285170881 
1198	 0.247276365398962 
1199	 0.247327885064769 
1200	 0.247386107501418 
1201	 0.247432500779602 
1202	 0.247472941225887 
1203	 0.247529021082378 
1204	 0.247589274642198 
1205	 0.247640520534789 
1206	 0.247702574706993 
1207	 0.247755878855293 
1208	 0.247792042903623 
1209	 0.247835726227089 
1210	 0.247889529720011 
1211	 0.247934820847225 
1212	 0.247970799216276 
1213	 0.248010620941973 
1214	 0.248053354724715 
1215	 0.248091609393355 
1216	 0.248128015664737 
1217	 0.24815931845473 
1218	 0.248203037313051 
1219	 0.248253633993538 
1220	 0.24829197870119 
1221	 0.248332319283972 
1222	 0.248372191977943 
1223	 0.248405553710296 
1224	 0.248434788357125 
1225	 0.248473158318419 
1226	 0.248496955167495 
1227	 0.248492856096441 
1228	 0.248509814646387 
1229	 0.248535830672811 
1230	 0.248557776023762 
1231	 0.248598442437967 
1232	 0.248620493568315 
1233	 0.248632778125939 
1234	 0.24862582445683 
1235	 0.248642628697519 
1236	 0.248656821199841 
1237	 0.24867616447593 
1238	 0.248712656585366 
1239	 0.248738814842259 
1240	 0.248757850135365 
1241	 0.248780964561884 
1242	 0.248812379088736 
1243	 0.248832899000151 
1244	 0.248841084279325 
1245	 0.248859606316107 
1246	 0.248885130468633 
1247	 0.248900137241915 
1248	 0.248913881519364 
1249	 0.248927932314098 
1250	 0.248936795411266 
1251	 0.248941193388687 
1252	 0.248949011267985 
1253	 0.248964826676585 
1254	 0.248970673079392 
1255	 0.248974278679567 
1256	 0.248968630779136 
1257	 0.248949306739067 
1258	 0.248945129717254 
1259	 0.248936392764993 
1260	 0.248934858435378 
1261	 0.2489589643476 
1262	 0.248958681067999 
1263	 0.248937209631512 
1264	 0.24893089035154 
1265	 0.24891721880223 
1266	 0.248913456326163 
1267	 0.248921732769101 
1268	 0.248939931471569 
1269	 0.248945589729963 
1270	 0.248948628842055 
1271	 0.248951528560888 
1272	 0.248947941109862 
1273	 0.248949467115424 
1274	 0.248965952318053 
1275	 0.248955404411221 
1276	 0.248917683703274 
1277	 0.248911043626311 
1278	 0.248902973799724 
1279	 0.248898005671717 
1280	 0.248913179356061 
1281	 0.248930537595308 
1282	 0.24893411379741 
1283	 0.248957173318933 
1284	 0.249014026752084 
1285	 0.249052568916933 
1286	 0.249075302045963 
1287	 0.249107132126178 
1288	 0.249140874671762 
1289	 0.249163667044862 
1290	 0.249201961783945 
1291	 0.249261242827561 
1292	 0.249299322096443 
1293	 0.249329144715585 
1294	 0.249363277682389 
1295	 0.249393622875262 
1296	 0.249425227605135 
1297	 0.249464618760289 
1298	 0.24949160387095 
1299	 0.249517941650431 
1300	 0.249528577691212 
1301	 0.249511790436593 
1302	 0.249514597814658 
1303	 0.249517425939704 
1304	 0.249522054842736 
1305	 0.249541137541594 
1306	 0.249562562707921 
1307	 0.24954864900605 
1308	 0.24952906388591 
1309	 0.249509371660798 
1310	 0.249472010041221 
1311	 0.249452094530377 
1312	 0.249446701515039 
1313	 0.249418137214546 
1314	 0.249376363650289 
1315	 0.249349073382691 
1316	 0.249326825525389 
1317	 0.249292159872493 
1318	 0.249269146638015 
1319	 0.249225552774638 
1320	 0.24914984179914 
1321	 0.249087422997926 
1322	 0.249019637726294 
1323	 0.248968898517517 
1324	 0.248913453538701 
1325	 0.248839779967193 
1326	 0.248789735779174 
1327	 0.248740107105081 
1328	 0.248681008265907 
1329	 0.248638329706559 
1330	 0.248563583507518 
1331	 0.248454652509124 
1332	 0.248372392330389 
1333	 0.248287960492881 
1334	 0.248212505444394 
1335	 0.248151235025779 
1336	 0.248086946585781 
1337	 0.248016714765265 
1338	 0.247956663080067 
1339	 0.247906237603915 
1340	 0.247857277814203 
1341	 0.247819387922639 
1342	 0.247767802209846 
1343	 0.247702668277893 
1344	 0.247657430048056 
1345	 0.247597485452288 
1346	 0.247551502283522 
1347	 0.247525759840328 
1348	 0.247479960927698 
1349	 0.247428441151157 
1350	 0.247385081000831 
1351	 0.247341327458188 
1352	 0.247290465971676 
1353	 0.247250304795998 
1354	 0.247230651420927 
1355	 0.247179166586977 
1356	 0.247116483603962 
1357	 0.247055437329066 
1358	 0.246973347895805 
1359	 0.246902100674911 
1360	 0.246838016716906 
1361	 0.246771933323023 
1362	 0.246711292275945 
1363	 0.24664035276464 
1364	 0.246571264402488 
1365	 0.246488979038938 
1366	 0.246396352654801 
1367	 0.246294349220785 
1368	 0.246180774130693 
1369	 0.246078475796339 
1370	 0.245962170032073 
1371	 0.245839993205474 
1372	 0.245718160144458 
1373	 0.245577720398468 
1374	 0.245428788269977 
1375	 0.245268713793537 
1376	 0.245098027787002 
1377	 0.244919972492786 
1378	 0.244719142848427 
1379	 0.244514065561433 
1380	 0.24427503496326 
1381	 0.244000407337318 
1382	 0.243725861283222 
1383	 0.243444486775055 
1384	 0.243126888929504 
1385	 0.242807295113318 
1386	 0.242446265786867 
1387	 0.242031889515895 
1388	 0.241618984045769 
1389	 0.241194210488484 
1390	 0.240743498833979 
1391	 0.240272003137472 
1392	 0.239777105539831 
1393	 0.239253842317367 
1394	 0.238710100679002 
1395	 0.238138415634126 
1396	 0.237546987673365 
1397	 0.236934540743555 
1398	 0.236287440163451 
1399	 0.235637767612737 
1400	 0.234969094693414 
1401	 0.234308209123788 
1402	 0.233637030598395 
1403	 0.232971336757422 
1404	 0.232302724900296 
1405	 0.23164818941875 
1406	 0.23097871132137 
1407	 0.230348088491872 
1408	 0.229732488603629 
1409	 0.229151821357577 
1410	 0.228592419012516 
1411	 0.228076192727787 
1412	 0.227602090560915 
1413	 0.227139697128674 
1414	 0.226722563675951 
1415	 0.226337073364063 
1416	 0.225967940264203 
1417	 0.225631999178684 
1418	 0.225317665070562 
1419	 0.225017292581964 
1420	 0.224736373773376 
1421	 0.224465546606571 
1422	 0.224201796424086 
1423	 0.223955657729294 
1424	 0.22372222449384 
1425	 0.22349545132015 
1426	 0.223296008637778 
1427	 0.22312496547729 
1428	 0.222949832662674 
1429	 0.222787972350778 
1430	 0.222634750243284 
1431	 0.222489874700293 
1432	 0.222339964931598 
1433	 0.222192780272949 
1434	 0.222063942100378 
1435	 0.221924146822734 
1436	 0.221819603630092 
1437	 0.221751635728 
1438	 0.221679309320068 
1439	 0.221620873119561 
1440	 0.221570536147261 
1441	 0.2215193847483 
1442	 0.221468942566296 
1443	 0.221410381695118 
1444	 0.221349449402592 
1445	 0.221288747217628 
1446	 0.221222677031027 
1447	 0.221149993131927 
1448	 0.221089152699767 
1449	 0.221036214045274 
1450	 0.220984320416722 
1451	 0.220929965624612 
1452	 0.220887456005264 
1453	 0.220831946205017 
1454	 0.220764557689693 
1455	 0.220698530887056 
1456	 0.220633683660527 
1457	 0.220566351854094 
1458	 0.220496686012868 
1459	 0.220417252815244 
1460	 0.220325498285022 
1461	 0.220252647089763 
1462	 0.220160817408851 
1463	 0.220107291303366 
1464	 0.220068746824094 
1465	 0.220065963232042 
1466	 0.220088585367687 
1467	 0.220143883893595 
1468	 0.22023816463559 
1469	 0.220353281495005 
1470	 0.220491749967389 
1471	 0.220658626951899 
1472	 0.220860455382871 
1473	 0.221067458762228 
1474	 0.221287929218506 
1475	 0.22150967143553 
1476	 0.221711260834402 
1477	 0.22192163509482 
1478	 0.222138010032764 
1479	 0.222352295474875 
1480	 0.222583279561822 
1481	 0.222798672264581 
1482	 0.222999846494193 
1483	 0.22318777206305 
1484	 0.223376663025059 
1485	 0.223554172822269 
1486	 0.223732738400719 
1487	 0.223912736736555 
1488	 0.224078452221383 
1489	 0.224225370467817 
1490	 0.224385899756814 
1491	 0.224555462173505 
1492	 0.224711010941756 
1493	 0.224863043358867 
1494	 0.225016326372207 
1495	 0.225161865826016 
1496	 0.225300132035653 
1497	 0.225435852879705 
1498	 0.225579003943742 
1499	 0.225717007701069 
1500	 0.225852124267737 
1501	 0.225999653254175 
1502	 0.226131873599065 
1503	 0.226256521974595 
1504	 0.226368024831994 
1505	 0.226460052754675 
1506	 0.226571661446307 
1507	 0.226686180284819 
1508	 0.226803231499648 
1509	 0.226920725365073 
1510	 0.227027196188918 
1511	 0.227141214307421 
1512	 0.227241227430932 
1513	 0.227324163464391 
1514	 0.227423147098179 
1515	 0.22751992709893 
1516	 0.22760282931265 
1517	 0.227701182040621 
1518	 0.227826966681263 
1519	 0.22792786928604 
1520	 0.228013352005826 
1521	 0.228111113076729 
1522	 0.228209238998208 
1523	 0.228304753660754 
1524	 0.228405910919695 
1525	 0.228498687706512 
1526	 0.22858411607236 
1527	 0.228671387791268 
1528	 0.228759058913509 
1529	 0.22884184951764 
1530	 0.228920743627317 
1531	 0.229004934364876 
1532	 0.229081853933584 
1533	 0.229166478723664 
1534	 0.2292627202373 
1535	 0.229346646515705 
1536	 0.229433597355549 
1537	 0.229515685209313 
1538	 0.229584599494989 
1539	 0.229659989765884 
1540	 0.229736172825092 
1541	 0.229809236699803 
1542	 0.229882090274204 
1543	 0.229956076496398 
1544	 0.230033254845843 
1545	 0.23010490256842 
1546	 0.23017295432287 
1547	 0.230243127079969 
1548	 0.230308503166849 
1549	 0.230364991251265 
1550	 0.230422686805955 
1551	 0.230473877466311 
1552	 0.230528293347916 
1553	 0.23059063903771 
1554	 0.230648751132674 
1555	 0.230702066015562 
1556	 0.230742941044403 
1557	 0.230770089779512 
1558	 0.230803692165329 
1559	 0.230858376055851 
1560	 0.230914971588874 
1561	 0.230994226050756 
1562	 0.231043755071675 
1563	 0.231088120365829 
1564	 0.231121062983898 
1565	 0.231136178892141 
1566	 0.231155814933181 
1567	 0.23116882510583 
1568	 0.231182477799716 
1569	 0.231193999136538 
1570	 0.231206223362331 
1571	 0.231212583947441 
1572	 0.231237199435859 
1573	 0.231270713352549 
1574	 0.231299445685021 
1575	 0.231334092967462 
1576	 0.231371550176765 
1577	 0.231412187058988 
1578	 0.231444623616492 
1579	 0.231484320647241 
1580	 0.231515824667777 
1581	 0.231532709207808 
1582	 0.2315531120076 
1583	 0.231579373950706 
1584	 0.231592740622631 
1585	 0.231601569005499 
1586	 0.231600340359134 
1587	 0.231574928917033 
1588	 0.231574642186043 
1589	 0.231572827343073 
1590	 0.231583724286894 
1591	 0.231625817208726 
1592	 0.231646970628547 
1593	 0.231663290870673 
1594	 0.231679738446233 
1595	 0.231691273800031 
1596	 0.231700863540692 
1597	 0.231709998157947 
1598	 0.231714177544327 
1599	 0.231709806488171 
1600	 0.231706265460012 
1601	 0.231697852855581 
1602	 0.231697381289402 
1603	 0.23170689509407 
1604	 0.231705180269937 
1605	 0.231713149611879 
1606	 0.231701736341611 
1607	 0.231665752724503 
1608	 0.231635433201665 
1609	 0.231599578098282 
1610	 0.231556015980732 
1611	 0.23154019581885 
1612	 0.231531408892719 
1613	 0.231523009602546 
1614	 0.231510061015434 
1615	 0.231487748693367 
1616	 0.231460888161499 
1617	 0.231434478201157 
1618	 0.231408613547409 
1619	 0.23139677141948 
1620	 0.231394930932861 
1621	 0.231387762239071 
1622	 0.231396878860517 
1623	 0.231379747304317 
1624	 0.231346721694505 
1625	 0.231317594739356 
1626	 0.231281584120397 
1627	 0.231246544327828 
1628	 0.231205142659994 
1629	 0.231177219128882 
1630	 0.231153751009463 
1631	 0.231125939142716 
1632	 0.231113640440125 
1633	 0.231075501278051 
1634	 0.231017018552701 
1635	 0.230970857767479 
1636	 0.230913038546518 
1637	 0.230876400990524 
1638	 0.23086026301784 
1639	 0.230821307098682 
1640	 0.230778455911599 
1641	 0.230741919156269 
1642	 0.230696260464571 
1643	 0.230655315089915 
1644	 0.230622711609697 
1645	 0.230592761276106 
1646	 0.230564162241331 
1647	 0.230525384461824 
1648	 0.230490609526965 
1649	 0.230451817867337 
1650	 0.230394475187085 
1651	 0.230353801031664 
1652	 0.230330645232691 
1653	 0.230291994208654 
1654	 0.230245597050867 
1655	 0.230205046527786 
1656	 0.230152978685756 
1657	 0.230125918612492 
1658	 0.230122843894005 
1659	 0.230097659649797 
1660	 0.230086677982071 
1661	 0.23004558001328 
1662	 0.229968908130346 
1663	 0.229915543088401 
1664	 0.229854129399221 
1665	 0.229809238142343 
1666	 0.229787533992338 
1667	 0.229745258400344 
1668	 0.22970338148986 
1669	 0.229652155416001 
1670	 0.229586653915503 
1671	 0.229525146399148 
1672	 0.229457584409004 
1673	 0.22939927434097 
1674	 0.229342016188259 
1675	 0.229288647921291 
1676	 0.229241864989862 
1677	 0.229196354106814 
1678	 0.229162047374852 
1679	 0.229108193795361 
1680	 0.229050508202509 
1681	 0.228986156025364 
1682	 0.22889502995364 
1683	 0.228828729089005 
1684	 0.22877819317562 
1685	 0.228716114061134 
1686	 0.228645506016175 
1687	 0.228601276368314 
1688	 0.228570627443978 
1689	 0.228527240541373 
1690	 0.228511103916244 
1691	 0.22846162216429 
1692	 0.228375994561568 
1693	 0.22830775306281 
1694	 0.228237649477226 
1695	 0.228167318210673 
1696	 0.228112866378158 
1697	 0.228026285832565 
1698	 0.227915488770434 
1699	 0.227821209066942 
1700	 0.227696175633167 
1701	 0.227615384103069 
1702	 0.227570916379208 
1703	 0.227516669946186 
1704	 0.227496562341692 
1705	 0.227430188522992 
1706	 0.227337371374435 
1707	 0.227254944422654 
1708	 0.227147288490523 
1709	 0.22705886877229 
1710	 0.226988650699087 
1711	 0.226907059614494 
1712	 0.226816386808244 
1713	 0.226742787040345 
1714	 0.226671500677409 
1715	 0.226611451290612 
1716	 0.226574092836703 
1717	 0.226515079740135 
1718	 0.226452722637697 
1719	 0.226389625499396 
1720	 0.226316985538714 
1721	 0.226244608383287 
1722	 0.226190264186642 
1723	 0.226095775010391 
1724	 0.225979038157236 
1725	 0.225853767057757 
1726	 0.225692391106565 
1727	 0.225556058967006 
1728	 0.225422374161506 
1729	 0.22529553855913 
1730	 0.225175165044253 
1731	 0.22506498417169 
1732	 0.224968537497633 
1733	 0.224850688704868 
1734	 0.224729061898743 
1735	 0.2246107099448 
1736	 0.224485514851993 
1737	 0.224360561607458 
1738	 0.224239139600796 
1739	 0.224128158211104 
1740	 0.224009764868361 
1741	 0.223901498774205 
1742	 0.223826683315876 
1743	 0.22369799193401 
1744	 0.223535861980567 
1745	 0.223395060970504 
1746	 0.22323296588759 
1747	 0.223097419347456 
1748	 0.22298806890039 
1749	 0.222867446264284 
1750	 0.222752862841438 
1751	 0.222616039077947 
1752	 0.222490811747323 
1753	 0.22237055143768 
1754	 0.222233200258895 
1755	 0.222124604167685 
1756	 0.222001870633836 
1757	 0.221847009955757 
1758	 0.22170344802187 
1759	 0.221553945991861 
1760	 0.221387534234701 
1761	 0.221241596434013 
1762	 0.221101483174243 
1763	 0.220968848496806 
1764	 0.220848575150587 
1765	 0.220707640832367 
1766	 0.220584701604813 
1767	 0.220479503774155 
1768	 0.220358750017717 
1769	 0.220253637032491 
1770	 0.220142425646179 
1771	 0.220008177011474 
1772	 0.219893553191205 
1773	 0.219779132529795 
1774	 0.21963659245942 
1775	 0.219505428410339 
1776	 0.219373119812618 
1777	 0.219233708976144 
1778	 0.219115197798049 
1779	 0.218982632939574 
1780	 0.218860917878756 
1781	 0.218753651437967 
1782	 0.218665001034848 
1783	 0.218624160783617 
1784	 0.218531246674455 
1785	 0.218411829751617 
1786	 0.218318400784428 
1787	 0.218202377117131 
1788	 0.218110490446268 
1789	 0.218061460797559 
1790	 0.217988737930308 
1791	 0.217903634660255 
1792	 0.217833400758201 
1793	 0.217766508550068 
1794	 0.217695772743423 
1795	 0.217640111979716 
1796	 0.217551739385538 
1797	 0.2174314909684 
1798	 0.217347357808432 
1799	 0.217261730545183 
1800	 0.217189027627195 
1801	 0.210331503767276 
1802	 0.210230513336268 
1803	 0.210175976702964 
1804	 0.210105515173139 
1805	 0.210081259022958 
1806	 0.210070288559402 
1807	 0.209989896279876 
1808	 0.209941559671577 
1809	 0.209907793226579 
1810	 0.209860656492732 
1811	 0.209787125111397 
1812	 0.209771962789791 
1813	 0.2097510328206 
1814	 0.209703509523151 
1815	 0.2096407001889 
1816	 0.209575036780297 
1817	 0.209525072089824 
1818	 0.209472198384163 
1819	 0.209430297186734 
1820	 0.209416677131682 
1821	 0.209370766289402 
1822	 0.209321739465751 
1823	 0.209241191851946 
1824	 0.209128965457888 
1825	 0.209067621130388 
1826	 0.209015964137744 
1827	 0.208951104261266 
1828	 0.208867649558171 
1829	 0.208801973110154 
1830	 0.20868470270164 
1831	 0.208528800780384 
1832	 0.208353301286166 
1833	 0.208178295885413 
1834	 0.207986481044151 
1835	 0.207790889270501 
1836	 0.207598658936303 
1837	 0.207418670090429 
1838	 0.20724081015228 
1839	 0.207041072345027 
1840	 0.206832329493057 
1841	 0.206628397544023 
1842	 0.206404002565817 
1843	 0.206167114439164 
1844	 0.205958422727608 
1845	 0.205743241118354 
1846	 0.205536079724978 
1847	 0.20535092113963 
1848	 0.205154114291822 
1849	 0.204965949293631 
1850	 0.2047958233563 
1851	 0.204637877408073 
1852	 0.204487245777269 
1853	 0.204342541442701 
1854	 0.20418456956726 
1855	 0.20401698905147 
1856	 0.203808302224645 
1857	 0.203573376328016 
1858	 0.20335410692212 
1859	 0.203125000897662 
1860	 0.202866166929191 
1861	 0.202590152856967 
1862	 0.202297648037453 
1863	 0.201985396771496 
1864	 0.201647917918613 
1865	 0.201293394395466 
1866	 0.200927486460641 
1867	 0.200535401992718 
1868	 0.200120619548255 
1869	 0.199676385474804 
1870	 0.199211362238648 
1871	 0.198672909629623 
1872	 0.19809054149873 
1873	 0.197437225404708 
1874	 0.196741119717805 
1875	 0.195941633497521 
1876	 0.195099728639581 
1877	 0.194226341261407 
1878	 0.193264829008838 
1879	 0.192268472868116 
1880	 0.191200014611177 
1881	 0.190057415469607 
1882	 0.188857102995912 
1883	 0.187596136420996 
1884	 0.186267728688613 
1885	 0.184860073223588 
1886	 0.183391183311045 
1887	 0.181872627883577 
1888	 0.180292021625335 
1889	 0.178662425718174 
1890	 0.177004636938676 
1891	 0.175337649282593 
1892	 0.173608872816136 
1893	 0.171899626032951 
1894	 0.170185756642803 
1895	 0.168476008852506 
1896	 0.166725409697234 
1897	 0.165045902459097 
1898	 0.163400953745811 
1899	 0.161786574424208 
1900	 0.160246237148363 
1901	 0.158749928649977 
1902	 0.157340068557166 
1903	 0.156000519760171 
1904	 0.154735232998574 
1905	 0.153556325032444 
1906	 0.152448969275632 
1907	 0.15138081173095 
1908	 0.150402550780195 
1909	 0.149506725891812 
1910	 0.148661692775639 
1911	 0.14789187174799 
1912	 0.14716202601254 
1913	 0.146462801095641 
1914	 0.145786247655908 
1915	 0.145175957780608 
1916	 0.144609736905665 
1917	 0.144091973994651 
1918	 0.14363333056855 
1919	 0.143227603005022 
1920	 0.142861148332549 
1921	 0.142537329359037 
1922	 0.142248655086888 
1923	 0.14198846431625 
1924	 0.141766107521221 
1925	 0.141583849935295 
1926	 0.141422516697702 
1927	 0.141291099044762 
1928	 0.141194172895054 
1929	 0.141119254257254 
1930	 0.141067020193621 
1931	 0.141025359618764 
1932	 0.141008926610651 
1933	 0.141029734488878 
1934	 0.141057626988032 
1935	 0.141118931439058 
1936	 0.141240426914245 
1937	 0.141339358227156 
1938	 0.141435341918735 
1939	 0.14155325559833 
1940	 0.141682306049032 
1941	 0.141809916145969 
1942	 0.141955830509989 
1943	 0.142147327924474 
1944	 0.14235769978833 
1945	 0.142562912567823 
1946	 0.142777195624674 
1947	 0.143011192804988 
1948	 0.143241762698496 
1949	 0.143471584294604 
1950	 0.143708620803596 
1951	 0.14395129824079 
1952	 0.144198374584318 
1953	 0.144456251754246 
1954	 0.144729370264175 
1955	 0.145030792114191 
1956	 0.145300333943577 
1957	 0.145578546846695 
1958	 0.145851559434967 
1959	 0.14613804126567 
1960	 0.146417080430298 
1961	 0.146728452853186 
1962	 0.147067375539929 
1963	 0.147396199030838 
1964	 0.147732570277651 
1965	 0.148076719866885 
1966	 0.148428447162974 
1967	 0.148796919944606 
1968	 0.1491548613011 
1969	 0.149524432480118 
1970	 0.149886861674332 
1971	 0.150229181072889 
1972	 0.150593753386759 
1973	 0.150976062405951 
1974	 0.151355359184755 
1975	 0.151740182654175 
1976	 0.1521277070036 
1977	 0.152518243507975 
1978	 0.152902017893135 
1979	 0.153293094162224 
1980	 0.153693046153828 
1981	 0.154082863345163 
1982	 0.154469412286015 
1983	 0.154854067501711 
1984	 0.155242082689633 
1985	 0.155614357215569 
1986	 0.155984044910537 
1987	 0.15634352048388 
1988	 0.156688678196899 
1989	 0.157022595845516 
1990	 0.157360069108141 
1991	 0.157701880574615 
1992	 0.158052019913537 
1993	 0.158404325755034 
1994	 0.158771184144301 
1995	 0.159160752411699 
1996	 0.159528078095492 
1997	 0.159902349765326 
1998	 0.160261749370011 
1999	 0.160592800113921 
2000	 0.160941800645041 
2001	 0.161290858134626 
2002	 0.161651560647695 
2003	 0.162017467092753 
2004	 0.162373616235036 
2005	 0.162722367527029 
2006	 0.163062571688722 
2007	 0.163407307342491 
2008	 0.163748671152544 
2009	 0.164083781358746 
2010	 0.16441626798113 
2011	 0.164748307106938 
2012	 0.165076439131737 
2013	 0.16540134933523 
2014	 0.165717838362144 
2015	 0.166055975247326 
2016	 0.166376597956196 
2017	 0.166671997643131 
2018	 0.166973029093367 
2019	 0.167256737480166 
2020	 0.167560798262273 
2021	 0.167875391241737 
2022	 0.168184073206414 
2023	 0.168514989060822 
2024	 0.168820055491973 
2025	 0.169100436255318 
2026	 0.169386693368394 
2027	 0.169669120064163 
2028	 0.169944645846273 
2029	 0.170216825066037 
2030	 0.170490230887625 
2031	 0.170751234943073 
2032	 0.171002699102919 
2033	 0.171250310134633 
2034	 0.171494331690002 
2035	 0.171729977517836 
2036	 0.171952648778704 
2037	 0.172176708450276 
2038	 0.17238559768777 
2039	 0.172608421818492 
2040	 0.17283798337942 
2041	 0.173079504486983 
2042	 0.173282115557734 
2043	 0.17349503758692 
2044	 0.173694695738813 
2045	 0.173857314215456 
2046	 0.174057273841409 
2047	 0.174281172672152 
2048	 0.174489114103104 
2049	 0.174700265482468 
2050	 0.174909966014888 
2051	 0.175123111191347 
2052	 0.175320805211341 
2053	 0.175512158234493 
2054	 0.175702886870909 
2055	 0.175884925928386 
2056	 0.176053779730823 
2057	 0.176231602817017 
2058	 0.176424373672325 
2059	 0.176584051460229 
2060	 0.176719113962675 
2061	 0.176876587129413 
2062	 0.17701656269966 
2063	 0.177178986077865 
2064	 0.177385142990868 
2065	 0.177550744344509 
2066	 0.177702005353144 
2067	 0.177852718813099 
2068	 0.177992145043931 
2069	 0.178114216698089 
2070	 0.178246808889452 
2071	 0.178382912957386 
2072	 0.178514058632516 
2073	 0.178628530849931 
2074	 0.178774232160285 
2075	 0.178940660286729 
2076	 0.179091538636114 
2077	 0.1792501217423 
2078	 0.179410587365098 
2079	 0.179569140061385 
2080	 0.179718565060516 
2081	 0.179879688434667 
2082	 0.18002833449734 
2083	 0.18014629153974 
2084	 0.180272187907169 
2085	 0.180428370439681 
2086	 0.180602769006591 
2087	 0.180763217276413 
2088	 0.180960831289765 
2089	 0.181102205151887 
2090	 0.181205438091354 
2091	 0.181320016009616 
2092	 0.181406472121591 
2093	 0.181512384778918 
2094	 0.181620942658032 
2095	 0.181739954766232 
2096	 0.181857433562985 
2097	 0.181995575201626 
2098	 0.182153597602015 
2099	 0.182323886177247 
2100	 0.182473972235501 
2101	 0.182634709993557 
2102	 0.182774548508472 
2103	 0.182880193305019 
2104	 0.183020335531397 
2105	 0.183178133709275 
2106	 0.183321239895809 
2107	 0.18348305002724 
2108	 0.183616436210211 
2109	 0.183719599259906 
2110	 0.183833579910146 
2111	 0.183938034806181 
2112	 0.184047131019242 
2113	 0.18414265878507 
2114	 0.184273610299392 
2115	 0.184395186591911 
2116	 0.184522009190746 
2117	 0.184641481362465 
2118	 0.184768423746439 
2119	 0.184883056408962 
2120	 0.184989929865336 
2121	 0.185090372407232 
2122	 0.185174014586208 
2123	 0.185277431880315 
2124	 0.185395842128274 
2125	 0.185490543882369 
2126	 0.185594968361102 
2127	 0.185679738235608 
2128	 0.185720489200085 
2129	 0.185782589658017 
2130	 0.185855924919218 
2131	 0.185922823500606 
2132	 0.18598328242366 
2133	 0.186048704553522 
2134	 0.186099331573506 
2135	 0.186143511245622 
2136	 0.1861686206004 
2137	 0.186189226849068 
2138	 0.186185382828033 
2139	 0.186141753352077 
2140	 0.18611973112414 
2141	 0.186107165999029 
2142	 0.186067923196671 
2143	 0.186036358947221 
2144	 0.185972827348679 
2145	 0.185848818756997 
2146	 0.185753756316088 
2147	 0.185665218145339 
2148	 0.185570618568527 
2149	 0.185466629816955 
2150	 0.185372661424344 
2151	 0.185265251581483 
2152	 0.185140618304841 
2153	 0.185010687358756 
2154	 0.184873440239212 
2155	 0.184744119762594 
2156	 0.184602166320912 
2157	 0.184468642284804 
2158	 0.184362477813462 
2159	 0.18422748715133 
2160	 0.184092777106461 
2161	 0.183925686593825 
2162	 0.183713883859903 
2163	 0.183522591508475 
2164	 0.18331962842651 
2165	 0.183110771096467 
2166	 0.182918044927627 
2167	 0.182747084001681 
2168	 0.182562530742772 
2169	 0.182367225924577 
2170	 0.182189347982054 
2171	 0.182031364321992 
2172	 0.181849191603601 
2173	 0.18167117558854 
2174	 0.181476229837582 
2175	 0.181253966424228 
2176	 0.181040598474695 
2177	 0.180820170462413 
2178	 0.180607091387146 
2179	 0.180387040773617 
2180	 0.180183725754928 
2181	 0.180010908958988 
2182	 0.179811488709797 
2183	 0.179604037418641 
2184	 0.179403544358584 
2185	 0.179184392282112 
2186	 0.178930341589517 
2187	 0.178715304819179 
2188	 0.178513603989686 
2189	 0.178306862220172 
2190	 0.178111060809146 
2191	 0.17791434001169 
2192	 0.177699510308661 
2193	 0.177520373427066 
2194	 0.177376613889933 
2195	 0.177208926010996 
2196	 0.177041050459899 
2197	 0.176885765954398 
2198	 0.176722263699047 
2199	 0.176568724362936 
2200	 0.176443807858007 
2201	 0.176305499482062 
2202	 0.176153276168513 
2203	 0.175998422624953 
2204	 0.175884745203981 
2205	 0.1757863024536 
2206	 0.175701283166099 
2207	 0.175661435755735 
2208	 0.1755864352529 
2209	 0.175490546483399 
2210	 0.175426659543058 
2211	 0.175374987550149 
2212	 0.175315864278295 
2213	 0.17526792204288 
2214	 0.175226877720192 
2215	 0.175171961534315 
2216	 0.175140200691442 
2217	 0.175148827300662 
2218	 0.17512988079657 
2219	 0.175106594814532 
2220	 0.175080434800916 
2221	 0.175043091418181 
2222	 0.175001967996716 
2223	 0.174974046561002 
2224	 0.174931905773172 
2225	 0.174900182317207 
2226	 0.174869550351394 
2227	 0.174844425734068 
2228	 0.174828569647824 
2229	 0.1747992961896 
2230	 0.174778540544989 
2231	 0.174726771876776 
2232	 0.17465181657378 
2233	 0.174582248066837 
2234	 0.174499990465413 
2235	 0.174413970155994 
2236	 0.174316530927481 
2237	 0.17423552813883 
2238	 0.174179350405082 
2239	 0.174071704626748 
2240	 0.173965225899534 
2241	 0.173827681767215 
2242	 0.173633118193806 
2243	 0.173438197805609 
2244	 0.173240505663105 
2245	 0.17301681662618 
2246	 0.172791657314406 
2247	 0.172524510188005 
2248	 0.172243776206486 
2249	 0.171942518522822 
2250	 0.171637393315745 
2251	 0.171301940964314 
2252	 0.170984754931937 
2253	 0.170659965814388 
2254	 0.170350463671081 
2255	 0.170035027807307 
2256	 0.169750093383536 
2257	 0.169469002742373 
2258	 0.169240707075413 
2259	 0.169040845967077 
2260	 0.168878471944268 
2261	 0.168769099916404 
2262	 0.168677604797768 
2263	 0.168617181722945 
2264	 0.168574331597445 
2265	 0.168546340268824 
2266	 0.168556111295816 
2267	 0.168622851839911 
2268	 0.16867399646469 
2269	 0.16873679794323 
2270	 0.168817959482378 
2271	 0.168938634604847 
2272	 0.169035812719757 
2273	 0.169139377293692 
2274	 0.169313085800778 
2275	 0.169467169371008 
2276	 0.169605772548484 
2277	 0.169778258097417 
2278	 0.169992210169772 
2279	 0.170176873090788 
2280	 0.170339217238578 
2281	 0.170542477898539 
2282	 0.170771592461459 
2283	 0.170982456474274 
2284	 0.171248782992876 
2285	 0.171427350246861 
2286	 0.171562275188396 
2287	 0.171670716559677 
2288	 0.171702449762493 
2289	 0.171763010368281 
2290	 0.171807886743507 
2291	 0.171856686969859 
2292	 0.17192866321024 
2293	 0.17197281454594 
2294	 0.172005347712101 
2295	 0.172023699185107 
2296	 0.172019077611283 
2297	 0.171990642678163 
2298	 0.172001896794374 
2299	 0.172028131560514 
2300	 0.172068177095439 
2301	 0.172118172065264 
2302	 0.172119944514025 
2303	 0.172107537011277 
2304	 0.172101309982243 
2305	 0.172068120822515 
2306	 0.172069809795202 
2307	 0.172084698831593 
2308	 0.172109843042242 
2309	 0.172178417532759 
2310	 0.172185906889614 
2311	 0.172175435526073 
2312	 0.172161329755471 
2313	 0.172106472235375 
2314	 0.17206708531034 
2315	 0.172031164121062 
2316	 0.172016969288385 
2317	 0.172036062067307 
2318	 0.171983539045804 
2319	 0.171922437374338 
2320	 0.171831759428337 
2321	 0.171621609197048 
2322	 0.17151327889002 
2323	 0.17145234521134 
2324	 0.171400819459854 
2325	 0.171421300966374 
2326	 0.17140103177268 
2327	 0.171371379803889 
2328	 0.171345880015161 
2329	 0.171272295322887 
2330	 0.171157342595646 
2331	 0.171076671231054 
2332	 0.170999587658297 
2333	 0.170945741861071 
2334	 0.170912835084099 
2335	 0.17083961199247 
2336	 0.170698496593589 
2337	 0.170562522116892 
2338	 0.170440610022883 
2339	 0.170324060243513 
2340	 0.170277741259439 
2341	 0.170228291152519 
2342	 0.170121769966378 
2343	 0.170002834058327 
2344	 0.1698001871808 
2345	 0.169611803332453 
2346	 0.169368349897346 
2347	 0.169198229978451 
2348	 0.169067205426868 
2349	 0.16890507813505 
2350	 0.168735019784153 
2351	 0.168617203309666 
2352	 0.168526912597394 
2353	 0.168400004769147 
2354	 0.168353021871628 
2355	 0.168146373319593 
2356	 0.167788363802307 
2357	 0.167514061942459 
2358	 0.167179430838974 
2359	 0.166937795129159 
2360	 0.166759332863378 
2361	 0.166569972271122 
2362	 0.166447783604907 
2363	 0.166271427687901 
2364	 0.166104253168215 
2365	 0.165908644004598 
2366	 0.165636807537674 
2367	 0.165388662928067 
2368	 0.165131446076964 
2369	 0.164882501480037 
2370	 0.164634809220325 
2371	 0.164426855699648 
2372	 0.164218975920255 
2373	 0.163996464099744 
2374	 0.163739340762847 
2375	 0.163476186626809 
2376	 0.163188884663182 
2377	 0.1629098370019 
2378	 0.162658412257733 
2379	 0.162384305264296 
2380	 0.162094243846394 
2381	 0.161767805924163 
2382	 0.161471556584845 
2383	 0.16123049376364 
2384	 0.160953620557435 
2385	 0.160670017294328 
2386	 0.160370897791093 
2387	 0.160007643360738 
2388	 0.15963676830348 
2389	 0.159350285477083 
2390	 0.159117376750019 
2391	 0.158890329735313 
2392	 0.158655919528947 
2393	 0.158349877283361 
2394	 0.158029962829728 
2395	 0.157700719330506 
2396	 0.157333280102551 
2397	 0.157074485284252 
2398	 0.156780673071125 
2399	 0.156426646030244 
2400	 0.156177692355698 
2401	 0.155811596450942 
2402	 0.155424229772429 
2403	 0.155137030250422 
2404	 0.154842176765218 
2405	 0.15463873693396 
2406	 0.154459481258703 
2407	 0.154215805831046 
2408	 0.153909148652394 
2409	 0.153625781362891 
2410	 0.153375332007442 
2411	 0.153089816833407 
2412	 0.152846888777854 
2413	 0.152581409780552 
2414	 0.152326286432559 
2415	 0.152092277396534 
2416	 0.151817534434019 
2417	 0.151498242251003 
2418	 0.151284985451882 
2419	 0.151132722881269 
2420	 0.150923502930917 
2421	 0.150780130086569 
2422	 0.150543841332653 
2423	 0.150157955425374 
2424	 0.149851406977171 
2425	 0.149615516789341 
2426	 0.149312111351492 
2427	 0.148975311979786 
2428	 0.148659252660808 
2429	 0.14828247724498 
2430	 0.147993290668233 
2431	 0.147778000960689 
2432	 0.147536969146766 
2433	 0.147334729076201 
2434	 0.147022345720432 
2435	 0.146681080237029 
2436	 0.146350646292908 
2437	 0.145948006763177 
2438	 0.145641126567312 
2439	 0.145349710865049 
2440	 0.145030511904382 
2441	 0.144776405384517 
2442	 0.144424180411554 
2443	 0.144032426352375 
2444	 0.143669029263697 
2445	 0.143236552751413 
2446	 0.142840859183376 
2447	 0.1424437309498 
2448	 0.142157590879038 
2449	 0.142024157646632 
2450	 0.141676100574877 
2451	 0.141303868956688 
2452	 0.140886770551873 
2453	 0.140160484174784 
2454	 0.139705371698767 
2455	 0.139467194682031 
2456	 0.13918305914105 
2457	 0.138951662860282 
2458	 0.138737768308778 
2459	 0.138582627943861 
2460	 0.138367940432907 
2461	 0.13821616585538 
2462	 0.13792981214086 
2463	 0.137455793324808 
2464	 0.13706509443807 
2465	 0.136590593347451 
2466	 0.136314927142443 
2467	 0.136303561885033 
2468	 0.135969024765841 
2469	 0.135565315897565 
2470	 0.135059475537635 
2471	 0.134567839387989 
2472	 0.134309019987897 
2473	 0.133968357024337 
2474	 0.13360549997771 
2475	 0.133230661995526 
2476	 0.132751273065852 
2477	 0.132355626950117 
2478	 0.1321003094011 
2479	 0.131910670960883 
2480	 0.13179671835781 
2481	 0.131638622130346 
2482	 0.131359649816911 
2483	 0.130868943286767 
2484	 0.130591994760869 
2485	 0.130497874353678 
2486	 0.130184700136843 
2487	 0.130090655993045 
2488	 0.129871956661192 
2489	 0.129332595525367 
2490	 0.12897741294411 
2491	 0.128944677140342 
2492	 0.128939020064429 
2493	 0.12896763932461 
2494	 0.129126332081225 
2495	 0.128862625840505 
2496	 0.128411438843976 
2497	 0.12815641014784 
2498	 0.127998916678946 
2499	 0.127914298824006 
2500	 0.127814807237434 
