Wavelength	LMW_1900005.asd
350	 4.72021152349009E-02 
351	 5.83669356903682E-02 
352	 0.056095244944267 
353	 3.60416288899364E-02 
354	 4.25368422720235E-02 
355	 4.96357026560107E-02 
356	 5.15576849961798E-02 
357	 5.02409051200017E-02 
358	 5.77065543301236E-02 
359	 5.03212473146959E-02 
360	 3.86346469792968E-02 
361	 5.08338018551169E-02 
362	 4.86616649342203E-02 
363	 4.73082976871677E-02 
364	 5.31637024716634E-02 
365	 0.048508293985488 
366	 4.63211370323799E-02 
367	 4.77191295464312E-02 
368	 5.01714984264365E-02 
369	 5.11043642350375E-02 
370	 5.03930315961219E-02 
371	 5.00937278952109E-02 
372	 5.28707832420819E-02 
373	 5.13575944455736E-02 
374	 4.92292842615131E-02 
375	 4.93441523129844E-02 
376	 5.06237322586443E-02 
377	 5.37961437384754E-02 
378	 5.58019224080538E-02 
379	 5.44126222174162E-02 
380	 5.52238860080903E-02 
381	 5.62688373763345E-02 
382	 5.65198263259494E-02 
383	 5.59776559231634E-02 
384	 5.57651668047067E-02 
385	 5.53155601530922E-02 
386	 5.47377649023448E-02 
387	 5.58830038373887E-02 
388	 5.77463926178948E-02 
389	 5.93502974999067E-02 
390	 5.97354573163942E-02 
391	 5.78457807814534E-02 
392	 5.79031182506527E-02 
393	 6.04741752409729E-02 
394	 6.27545256008662E-02 
395	 6.16507998438603E-02 
396	 0.060042518165999 
397	 6.06779451569578E-02 
398	 6.43862917704685E-02 
399	 6.50893635203576E-02 
400	 6.40859158329257E-02 
401	 6.48089933479912E-02 
402	 6.53392951876047E-02 
403	 6.47966280725661E-02 
404	 6.39204602420522E-02 
405	 6.48760319349621E-02 
406	 6.67446639527818E-02 
407	 6.76344851171612E-02 
408	 6.68251567259373E-02 
409	 6.68738041058853E-02 
410	 6.67849300090003E-02 
411	 0.066780901488703 
412	 6.75243721926226E-02 
413	 6.88735456213828E-02 
414	 6.94042898339843E-02 
415	 6.89916058882759E-02 
416	 6.92201506402131E-02 
417	 6.92997873441111E-02 
418	 6.97876448205446E-02 
419	 7.08504500717367E-02 
420	 7.03560156543562E-02 
421	 6.96765971259641E-02 
422	 6.97992694128433E-02 
423	 7.11457833379828E-02 
424	 0.071502375196677 
425	 7.19663139067461E-02 
426	 7.27633626211506E-02 
427	 7.15929133299772E-02 
428	 7.13671182987382E-02 
429	 7.18269969687051E-02 
430	 7.19530159282566E-02 
431	 7.25748451854819E-02 
432	 7.28102657698757E-02 
433	 7.27518372918976E-02 
434	 7.34286822195907E-02 
435	 7.39692891381466E-02 
436	 7.41155484955783E-02 
437	 7.39218048132583E-02 
438	 0.073843394457912 
439	 7.40554853148149E-02 
440	 7.44259375699631E-02 
441	 7.47022395415216E-02 
442	 7.51644549719304E-02 
443	 7.55199035205134E-02 
444	 0.075547081799791 
445	 7.51633662652606E-02 
446	 7.53806958269825E-02 
447	 7.58167166582269E-02 
448	 7.59413391895947E-02 
449	 7.65560561997306E-02 
450	 7.69548434605455E-02 
451	 0.077045641554769 
452	 7.72665305685912E-02 
453	 0.077162158036931 
454	 7.71081320510031E-02 
455	 0.077439432780615 
456	 7.81447510514413E-02 
457	 7.83784955932259E-02 
458	 7.82766225781321E-02 
459	 7.83918917404499E-02 
460	 7.85241408218631E-02 
461	 0.078648444924046 
462	 7.87158548199119E-02 
463	 7.86106509006478E-02 
464	 7.91030920562699E-02 
465	 7.97397614781542E-02 
466	 7.99088577225653E-02 
467	 7.98310281412973E-02 
468	 8.00171291401872E-02 
469	 8.03865252372398E-02 
470	 8.04113612927217E-02 
471	 8.05423916692761E-02 
472	 8.07142323242753E-02 
473	 8.08186506881862E-02 
474	 8.08238230381766E-02 
475	 8.09889241295201E-02 
476	 8.12694205909443E-02 
477	 8.14847632301417E-02 
478	 0.081610298252215 
479	 8.15962682726666E-02 
480	 8.16170222862931E-02 
481	 8.21576609136999E-02 
482	 8.25126512876559E-02 
483	 8.26620992037002E-02 
484	 8.27819921306255E-02 
485	 8.30075242792244E-02 
486	 8.29702493506946E-02 
487	 8.28405125747106E-02 
488	 0.083186592624501 
489	 8.32760240701309E-02 
490	 8.33803470247885E-02 
491	 0.083691837019467 
492	 8.37690698537409E-02 
493	 8.38449129182414E-02 
494	 8.39832000725921E-02 
495	 8.41662387947759E-02 
496	 8.43671430895112E-02 
497	 8.45124634149461E-02 
498	 8.45981659971055E-02 
499	 8.47252110547131E-02 
500	 8.48227623904442E-02 
501	 0.084916750888986 
502	 8.50197570319109E-02 
503	 8.49476121759044E-02 
504	 8.49567575124315E-02 
505	 0.085131234506707 
506	 8.53761556482822E-02 
507	 8.54938896990141E-02 
508	 8.55076466411624E-02 
509	 8.55173764491498E-02 
510	 8.57095457674213E-02 
511	 8.57582041047853E-02 
512	 8.57243772841499E-02 
513	 8.58604463513811E-02 
514	 8.61232038598141E-02 
515	 8.62703644339267E-02 
516	 8.62670472104013E-02 
517	 8.64748484700475E-02 
518	 8.65367473120727E-02 
519	 8.64852765989186E-02 
520	 8.64859701858012E-02 
521	 8.66771497431151E-02 
522	 8.68843910429403E-02 
523	 8.69951882330088E-02 
524	 0.086985745887496 
525	 0.087036023147102 
526	 8.71264918831976E-02 
527	 8.72002480430863E-02 
528	 8.72463532591317E-02 
529	 0.087269197890005 
530	 8.72948238302507E-02 
531	 8.73573043335887E-02 
532	 8.73880997680279E-02 
533	 8.75460109546785E-02 
534	 8.78063390032843E-02 
535	 8.76677211497514E-02 
536	 8.76722836281186E-02 
537	 8.78054344415803E-02 
538	 8.78727579159064E-02 
539	 8.80727904813639E-02 
540	 8.81990626247128E-02 
541	 8.82020627880776E-02 
542	 8.82748059553725E-02 
543	 8.83806419489949E-02 
544	 8.84542272935587E-02 
545	 8.84631367441669E-02 
546	 8.85562046620571E-02 
547	 8.86267053974773E-02 
548	 8.86487342092704E-02 
549	 8.86715696794108E-02 
550	 8.87066294632201E-02 
551	 8.87938195092473E-02 
552	 8.89379992102935E-02 
553	 8.90562147460825E-02 
554	 8.91135940375925E-02 
555	 8.91562573611767E-02 
556	 8.92630229427577E-02 
557	 0.089361932585083 
558	 8.94192142135999E-02 
559	 8.94797835972359E-02 
560	 8.97358585367567E-02 
561	 8.98286462453602E-02 
562	 8.98043274026698E-02 
563	 8.98427117582316E-02 
564	 0.090003352155413 
565	 9.00632978943898E-02 
566	 8.99980404187268E-02 
567	 9.00202335947615E-02 
568	 9.01694417662067E-02 
569	 0.090333615971244 
570	 9.04216936438213E-02 
571	 9.05622270572977E-02 
572	 9.06824622163018E-02 
573	 9.07778144856753E-02 
574	 9.08899293665083E-02 
575	 0.090980925120252 
576	 9.10876809109919E-02 
577	 9.11967463814096E-02 
578	 9.11448146197946E-02 
579	 0.091136308190885 
580	 9.11558257336201E-02 
581	 0.091112189448072 
582	 9.10955746816543E-02 
583	 9.10955998365493E-02 
584	 9.11216624627355E-02 
585	 9.12248322532152E-02 
586	 9.13511731745524E-02 
587	 9.14461916231096E-02 
588	 9.14914603262065E-02 
589	 9.16239763453024E-02 
590	 9.17203653097595E-02 
591	 9.17755086555003E-02 
592	 9.18966916923297E-02 
593	 9.20541248651728E-02 
594	 9.21971583818025E-02 
595	 0.092286720384338 
596	 9.23258938335836E-02 
597	 9.23332962970808E-02 
598	 9.23363995764183E-02 
599	 9.23597710222085E-02 
600	 9.23555559680751E-02 
601	 9.23614829841778E-02 
602	 9.23889495873355E-02 
603	 9.23828808676208E-02 
604	 9.23952684603415E-02 
605	 9.24505330604972E-02 
606	 9.25405554874825E-02 
607	 9.25375807031289E-02 
608	 0.092569223839241 
609	 9.26742278070687E-02 
610	 0.092772850923142 
611	 9.27839253941833E-02 
612	 9.28202856816475E-02 
613	 9.29537809526217E-02 
614	 9.29455710412907E-02 
615	 9.29375703960905E-02 
616	 9.29566728024066E-02 
617	 9.29552652119227E-02 
618	 9.30352201888098E-02 
619	 9.30931703599315E-02 
620	 9.30817811700509E-02 
621	 0.093139183715871 
622	 0.093208886983948 
623	 9.32303800513696E-02 
624	 9.31750809905313E-02 
625	 9.32574295018329E-02 
626	 9.33315559537379E-02 
627	 9.33378954332002E-02 
628	 9.33684298637991E-02 
629	 9.34040426276206E-02 
630	 9.34687256514589E-02 
631	 9.35602481909446E-02 
632	 9.35338051126622E-02 
633	 9.35432537977958E-02 
634	 9.36130151875908E-02 
635	 9.36587846976844E-02 
636	 9.37235742574396E-02 
637	 9.37522958030811E-02 
638	 0.093732095618807 
639	 9.37907572637141E-02 
640	 9.38573226590364E-02 
641	 9.39042699127591E-02 
642	 9.39286617391582E-02 
643	 9.39654329697566E-02 
644	 9.40254919090914E-02 
645	 9.40793494355952E-02 
646	 9.40402611054423E-02 
647	 9.40889832140263E-02 
648	 9.41672681527669E-02 
649	 9.41816155170509E-02 
650	 9.42095633922881E-02 
651	 9.42654230610624E-02 
652	 9.43283575173474E-02 
653	 9.43519078722419E-02 
654	 9.43727744757458E-02 
655	 9.44093070831804E-02 
656	 9.44639487201689E-02 
657	 9.45096124829227E-02 
658	 9.45548771630806E-02 
659	 9.45901070515855E-02 
660	 9.46058595961374E-02 
661	 9.46532322292801E-02 
662	 9.47249090258143E-02 
663	 9.48016065484661E-02 
664	 9.48563835049435E-02 
665	 9.49038528648123E-02 
666	 9.49307990461538E-02 
667	 9.49385723989668E-02 
668	 9.50204467602569E-02 
669	 9.50735606050493E-02 
670	 0.095088916917788 
671	 9.51358190692483E-02 
672	 9.51590934851227E-02 
673	 9.51892316150603E-02 
674	 9.52546759346704E-02 
675	 9.53595028503853E-02 
676	 0.095372171605417 
677	 9.53433123684007E-02 
678	 9.53871124494219E-02 
679	 0.095422626160373 
680	 9.54454122597606E-02 
681	 9.54739299790812E-02 
682	 0.095548115114734 
683	 9.56067993678342E-02 
684	 9.56416612362291E-02 
685	 9.56628893437366E-02 
686	 9.56858264798699E-02 
687	 9.57403711898275E-02 
688	 9.57947304409157E-02 
689	 0.095782840781817 
690	 9.57859113972296E-02 
691	 9.58207089661692E-02 
692	 9.58702478689944E-02 
693	 9.58661906819783E-02 
694	 9.59105211022945E-02 
695	 0.095954957260481 
696	 9.59274310085866E-02 
697	 9.59429581910099E-02 
698	 9.59942283332644E-02 
699	 9.60512162612923E-02 
700	 9.60707987580224E-02 
701	 9.61037290131269E-02 
702	 9.61301694870906E-02 
703	 9.61341942622421E-02 
704	 9.61518643286254E-02 
705	 9.61783925145469E-02 
706	 9.62029346849676E-02 
707	 9.62154578265234E-02 
708	 9.62465272406465E-02 
709	 9.62795219616472E-02 
710	 9.63013646447441E-02 
711	 9.63113719732315E-02 
712	 9.63236868301259E-02 
713	 9.63257901808886E-02 
714	 9.63151225060922E-02 
715	 9.63572284405484E-02 
716	 9.63981709642252E-02 
717	 9.64105089471772E-02 
718	 9.63934438995211E-02 
719	 9.63875056794535E-02 
720	 0.096404661743583 
721	 9.64337589312122E-02 
722	 9.64298934961258E-02 
723	 9.64139476616689E-02 
724	 9.64282510734728E-02 
725	 9.64902230655701E-02 
726	 9.64528456376121E-02 
727	 9.64523523487968E-02 
728	 9.64993618743146E-02 
729	 9.64817486999414E-02 
730	 9.64799716626906E-02 
731	 9.64809762168493E-02 
732	 9.64724690767377E-02 
733	 9.64872349804472E-02 
734	 9.64782703979257E-02 
735	 9.64469814755093E-02 
736	 9.64162710549548E-02 
737	 9.64001907543299E-02 
738	 9.63864821847728E-02 
739	 9.63752853082346E-02 
740	 9.63818070127078E-02 
741	 9.63864673399266E-02 
742	 9.63864915391517E-02 
743	 9.63772528408366E-02 
744	 9.63338796726202E-02 
745	 9.63064449249346E-02 
746	 9.63157410919744E-02 
747	 9.63520278166235E-02 
748	 9.63146667815197E-02 
749	 9.62848105519488E-02 
750	 9.62930426444897E-02 
751	 9.62887635392365E-02 
752	 9.62463551990913E-02 
753	 9.62092959915814E-02 
754	 9.62088056466328E-02 
755	 9.61882578843104E-02 
756	 9.61742527244003E-02 
757	 9.61613018621968E-02 
758	 9.61346840460468E-02 
759	 0.09614120410929 
760	 9.61197959666996E-02 
761	 9.60677749066867E-02 
762	 9.60654873404777E-02 
763	 9.60587484562217E-02 
764	 9.60365446480714E-02 
765	 9.60091876549939E-02 
766	 9.60207717063377E-02 
767	 9.60268307287903E-02 
768	 9.60164743948541E-02 
769	 9.59989895113002E-02 
770	 9.59903273714985E-02 
771	 9.59816216219541E-02 
772	 9.59655926358449E-02 
773	 9.59405493113856E-02 
774	 0.095936491586042 
775	 9.59230317903269E-02 
776	 9.58804741769967E-02 
777	 9.58560479984225E-02 
778	 9.58282858114446E-02 
779	 9.58124367495317E-02 
780	 9.58275222677252E-02 
781	 9.58095921007223E-02 
782	 9.58097801751688E-02 
783	 9.58113803908262E-02 
784	 9.57263231688854E-02 
785	 9.57189471656071E-02 
786	 9.57367287768385E-02 
787	 0.095715538451842 
788	 9.56635114609292E-02 
789	 9.56561878270005E-02 
790	 9.56504728777785E-02 
791	 9.55882248064982E-02 
792	 9.55982281070565E-02 
793	 9.55860249173943E-02 
794	 9.55378624497348E-02 
795	 9.55167797045341E-02 
796	 9.55013194914293E-02 
797	 9.54968774589817E-02 
798	 9.54950656604985E-02 
799	 9.54554269654296E-02 
800	 0.095435138084281 
801	 9.54248469833228E-02 
802	 9.54025112612923E-02 
803	 9.53850277841701E-02 
804	 9.53478978926477E-02 
805	 9.53150874985053E-02 
806	 9.53309677930225E-02 
807	 9.53413333688323E-02 
808	 9.53062426224815E-02 
809	 9.52418286997433E-02 
810	 9.52308707691449E-02 
811	 9.52532599136232E-02 
812	 9.52468934973503E-02 
813	 9.51934472219163E-02 
814	 0.095224836482537 
815	 9.52038646870867E-02 
816	 9.51406241930032E-02 
817	 9.51056230946937E-02 
818	 9.51323058937532E-02 
819	 0.09513267175247 
820	 0.095088568027626 
821	 9.50487696036505E-02 
822	 9.50163107550481E-02 
823	 9.50200772918226E-02 
824	 9.50518460520658E-02 
825	 9.50410956668821E-02 
826	 9.50144443754127E-02 
827	 0.09499082641888 
828	 9.49766749269726E-02 
829	 9.49385394165531E-02 
830	 9.49301895095369E-02 
831	 9.49349035099987E-02 
832	 9.49126492603836E-02 
833	 9.49179933329798E-02 
834	 9.49065063044724E-02 
835	 9.48732166111483E-02 
836	 9.48555144434476E-02 
837	 9.48504559216194E-02 
838	 9.48611865876531E-02 
839	 9.48747166049864E-02 
840	 9.48520769903371E-02 
841	 9.48078905336754E-02 
842	 9.47678176828208E-02 
843	 9.47531585194081E-02 
844	 9.47616505434133E-02 
845	 9.47692048408566E-02 
846	 9.47824893394941E-02 
847	 9.48129651893547E-02 
848	 9.48131708338708E-02 
849	 9.47899649343198E-02 
850	 9.47450976158201E-02 
851	 9.46832046006854E-02 
852	 9.47221822078331E-02 
853	 9.47369130761865E-02 
854	 9.46780232330321E-02 
855	 9.46556129012629E-02 
856	 9.46741085645696E-02 
857	 9.46685949555191E-02 
858	 9.46127993947263E-02 
859	 0.09462345178654 
860	 9.46624899383784E-02 
861	 9.46762582774149E-02 
862	 9.46297121387788E-02 
863	 9.45939056228871E-02 
864	 9.45912868604395E-02 
865	 9.46191383320621E-02 
866	 9.46505590887653E-02 
867	 9.46214731314298E-02 
868	 9.45793855912588E-02 
869	 9.45570743109239E-02 
870	 0.094558571023136 
871	 9.45852666629888E-02 
872	 0.094587098311964 
873	 9.45582395619715E-02 
874	 9.45742212607843E-02 
875	 9.45675347079215E-02 
876	 9.45535291503416E-02 
877	 9.45474060664818E-02 
878	 9.45033619930133E-02 
879	 9.45131247183303E-02 
880	 9.45329536861197E-02 
881	 9.45060237213602E-02 
882	 9.45355916771398E-02 
883	 9.45729528873446E-02 
884	 9.45587970048722E-02 
885	 9.44701133060798E-02 
886	 9.45118505286237E-02 
887	 9.45263954473984E-02 
888	 9.44980897358386E-02 
889	 9.45393444502775E-02 
890	 9.45473201812665E-02 
891	 9.45045192154533E-02 
892	 9.44584229371685E-02 
893	 9.45110003404625E-02 
894	 9.45498489749921E-02 
895	 9.45507307209249E-02 
896	 9.45316259006855E-02 
897	 9.45506396874907E-02 
898	 9.45894574710246E-02 
899	 9.45939271310472E-02 
900	 9.45472015783456E-02 
901	 9.45548017593268E-02 
902	 0.094553100399765 
903	 9.45377079529947E-02 
904	 9.45250052828561E-02 
905	 0.094530604110139 
906	 9.45371997114043E-02 
907	 9.45435022592911E-02 
908	 9.45534147400306E-02 
909	 9.45550282954203E-02 
910	 9.45337503345549E-02 
911	 9.45414046441031E-02 
912	 9.46282418836525E-02 
913	 9.45272018775224E-02 
914	 9.45101417538362E-02 
915	 9.45991223399467E-02 
916	 9.45775236145982E-02 
917	 9.45873472753658E-02 
918	 9.45822768169274E-02 
919	 9.45730013254103E-02 
920	 9.46440912399467E-02 
921	 9.46205496670253E-02 
922	 9.46204811681298E-02 
923	 9.46913510246745E-02 
924	 0.094707569428847 
925	 9.46495022653453E-02 
926	 9.46577904564598E-02 
927	 9.47449090732975E-02 
928	 9.46342080213241E-02 
929	 9.46012774565843E-02 
930	 9.46430386984244E-02 
931	 9.46778810733394E-02 
932	 9.46162739257851E-02 
933	 9.46548275424336E-02 
934	 9.47278452626243E-02 
935	 9.47420810262954E-02 
936	 9.47726727265969E-02 
937	 9.47400505200224E-02 
938	 9.46719151262263E-02 
939	 9.46473275416183E-02 
940	 0.094793168407096 
941	 9.48108432694691E-02 
942	 9.47738108717134E-02 
943	 9.48344496838593E-02 
944	 9.48026317730732E-02 
945	 9.47699298578888E-02 
946	 9.47743836497818E-02 
947	 9.48130439082107E-02 
948	 9.48433620328123E-02 
949	 9.48194548148732E-02 
950	 9.47722424328379E-02 
951	 9.47743805742887E-02 
952	 9.48921235104489E-02 
953	 9.49016938750386E-02 
954	 9.48395006328668E-02 
955	 9.48725864495698E-02 
956	 9.49580655588217E-02 
957	 9.49445101751409E-02 
958	 9.48661526359415E-02 
959	 0.094869395191361 
960	 9.50106794192876E-02 
961	 0.094972093037337 
962	 9.48513085198467E-02 
963	 9.49472047944827E-02 
964	 9.49394390190363E-02 
965	 0.094964973698912 
966	 9.49842053062254E-02 
967	 9.48873801210897E-02 
968	 9.49997515885787E-02 
969	 9.50420410077586E-02 
970	 9.49855098277927E-02 
971	 9.49789196394576E-02 
972	 9.49341374799784E-02 
973	 9.48861499705717E-02 
974	 9.49140287380544E-02 
975	 9.50623798396792E-02 
976	 9.50702422589005E-02 
977	 9.50459011183724E-02 
978	 9.50094315671756E-02 
979	 0.094949289481714 
980	 9.51205689033979E-02 
981	 9.51882298140644E-02 
982	 0.095075554151969 
983	 9.49388349026231E-02 
984	 9.50496069535556E-02 
985	 9.50823023277077E-02 
986	 9.50522093941753E-02 
987	 9.51401838868487E-02 
988	 9.51894848237435E-02 
989	 9.52377475760645E-02 
990	 9.52056503481163E-02 
991	 9.50654207044331E-02 
992	 9.53008749740983E-02 
993	 9.52259287926085E-02 
994	 9.50583266921353E-02 
995	 9.52186519057637E-02 
996	 9.50643482244537E-02 
997	 0.095007793817572 
998	 0.095029179309851 
999	 9.50210514851269E-02 
1000	 9.52520912813482E-02 
1001	 9.44267159171158E-02 
1002	 9.45060024882888E-02 
1003	 9.45411061162721E-02 
1004	 9.45670493042111E-02 
1005	 9.45854155587457E-02 
1006	 9.45593156707138E-02 
1007	 9.44635846095723E-02 
1008	 9.44542259285858E-02 
1009	 9.44716843397521E-02 
1010	 9.44604282605973E-02 
1011	 9.45084148537349E-02 
1012	 9.45210015810073E-02 
1013	 9.44864453423987E-02 
1014	 9.44817332714087E-02 
1015	 0.094460672107221 
1016	 9.44810095519301E-02 
1017	 9.44842216693198E-02 
1018	 9.44921270652481E-02 
1019	 9.44722312255796E-02 
1020	 9.44946486893641E-02 
1021	 9.44691400920267E-02 
1022	 9.44658693921585E-02 
1023	 0.094543550821455 
1024	 9.45546610819428E-02 
1025	 9.45475607243194E-02 
1026	 9.45236130801116E-02 
1027	 9.44640200901931E-02 
1028	 9.44895246944226E-02 
1029	 9.45234378462514E-02 
1030	 9.45431304602622E-02 
1031	 9.45501516351845E-02 
1032	 9.45573432753496E-02 
1033	 9.44854059217151E-02 
1034	 9.44371428552974E-02 
1035	 9.44454768872207E-02 
1036	 9.44735463055621E-02 
1037	 9.44883616752733E-02 
1038	 0.094449135905613 
1039	 0.094463276418113 
1040	 9.44751216705604E-02 
1041	 9.44155981174489E-02 
1042	 9.44363543683796E-02 
1043	 0.094439009328253 
1044	 9.44351974851651E-02 
1045	 9.43976682398101E-02 
1046	 9.44369534030983E-02 
1047	 9.44737267816954E-02 
1048	 0.094517534523192 
1049	 9.45408751931968E-02 
1050	 9.45389604283529E-02 
1051	 9.45549437476383E-02 
1052	 9.45432778644694E-02 
1053	 9.44814593252886E-02 
1054	 0.09448596704813 
1055	 0.094524702087104 
1056	 9.45045544762704E-02 
1057	 9.45248337404553E-02 
1058	 9.46203912201861E-02 
1059	 9.46580840070827E-02 
1060	 9.46544361429839E-02 
1061	 9.46931499055855E-02 
1062	 9.47538740995825E-02 
1063	 9.47499650957617E-02 
1064	 9.47452514771865E-02 
1065	 9.47793717236196E-02 
1066	 9.47112071990058E-02 
1067	 9.46560543318754E-02 
1068	 9.47103724222793E-02 
1069	 9.47309743281655E-02 
1070	 9.47512450428351E-02 
1071	 9.48361211259016E-02 
1072	 9.48654452255119E-02 
1073	 9.48273373518554E-02 
1074	 0.094828144121501 
1075	 9.48401795045425E-02 
1076	 9.48692925580141E-02 
1077	 9.48624931538289E-02 
1078	 0.094814993504292 
1079	 9.47694209541589E-02 
1080	 9.47677087724997E-02 
1081	 9.48186865035381E-02 
1082	 9.48689578445556E-02 
1083	 9.48874628658933E-02 
1084	 9.49193296991126E-02 
1085	 9.49116893606163E-02 
1086	 9.48412918176051E-02 
1087	 9.48033214727095E-02 
1088	 9.47715866470096E-02 
1089	 9.47204833877724E-02 
1090	 9.47213986474847E-02 
1091	 9.48043620549888E-02 
1092	 9.48256634634485E-02 
1093	 9.48559398511523E-02 
1094	 9.48764778919017E-02 
1095	 9.48269875015506E-02 
1096	 9.48301385367149E-02 
1097	 9.48245914661866E-02 
1098	 9.47936073553789E-02 
1099	 9.47121367890225E-02 
1100	 0.094693004049841 
1101	 9.46809922740628E-02 
1102	 9.46820947433454E-02 
1103	 9.47249560678076E-02 
1104	 9.47401299222127E-02 
1105	 9.47518855926575E-02 
1106	 9.47724094624529E-02 
1107	 9.47863681101634E-02 
1108	 9.48111039006093E-02 
1109	 9.48470640727809E-02 
1110	 0.094876309600153 
1111	 9.48876750073452E-02 
1112	 9.48877062850003E-02 
1113	 9.49006568812326E-02 
1114	 9.48998183985028E-02 
1115	 9.49118681025646E-02 
1116	 9.49484018504605E-02 
1117	 9.49592866147732E-02 
1118	 9.49454100450559E-02 
1119	 9.49498018430213E-02 
1120	 9.49889133892984E-02 
1121	 9.50381035779416E-02 
1122	 9.50694892753655E-02 
1123	 9.51044065481796E-02 
1124	 9.51266521725637E-02 
1125	 9.50975785901551E-02 
1126	 9.51323678379005E-02 
1127	 9.52066543535711E-02 
1128	 9.52566073200666E-02 
1129	 9.53274842846886E-02 
1130	 0.095369154771744 
1131	 9.53944136382063E-02 
1132	 9.54163801319712E-02 
1133	 9.54148435198595E-02 
1134	 9.54324047017758E-02 
1135	 9.54472238537178E-02 
1136	 9.54773978027501E-02 
1137	 9.55183689392043E-02 
1138	 9.55399652710363E-02 
1139	 0.095573497783619 
1140	 9.56137473198079E-02 
1141	 9.56449462483174E-02 
1142	 9.56826980449624E-02 
1143	 9.57010525237628E-02 
1144	 9.57020111920454E-02 
1145	 9.57064210365374E-02 
1146	 9.56873184373316E-02 
1147	 9.57002083771094E-02 
1148	 9.57394004657204E-02 
1149	 9.57653101444584E-02 
1150	 9.57974695160685E-02 
1151	 9.58329336680445E-02 
1152	 9.58655362016528E-02 
1153	 9.58645432511821E-02 
1154	 9.58752073121266E-02 
1155	 0.095879950731714 
1156	 0.095896732644396 
1157	 9.59221739712641E-02 
1158	 0.09593260454655 
1159	 9.59475095712423E-02 
1160	 9.59563770230206E-02 
1161	 9.59418174144022E-02 
1162	 9.59430474561097E-02 
1163	 9.59495264855564E-02 
1164	 9.59592928018633E-02 
1165	 9.59694239508469E-02 
1166	 9.59950635076944E-02 
1167	 9.60102752041078E-02 
1168	 9.60355220390507E-02 
1169	 9.60499582921144E-02 
1170	 9.60518217479053E-02 
1171	 9.60748172112787E-02 
1172	 9.61052288231912E-02 
1173	 9.61317952116659E-02 
1174	 0.096179033486024 
1175	 9.62003269727202E-02 
1176	 9.61996153240941E-02 
1177	 0.096212305853913 
1178	 9.62137421506001E-02 
1179	 9.62288892034792E-02 
1180	 9.62651966349301E-02 
1181	 9.62874451008829E-02 
1182	 9.63009577765834E-02 
1183	 9.63261884754921E-02 
1184	 9.63485121969431E-02 
1185	 9.63639642979294E-02 
1186	 0.096385339398202 
1187	 0.096410325034269 
1188	 9.64428810276805E-02 
1189	 0.096484913955174 
1190	 9.65122082919777E-02 
1191	 9.65454404478931E-02 
1192	 0.096568596060755 
1193	 9.65632185347222E-02 
1194	 9.65816769241678E-02 
1195	 9.66163881666512E-02 
1196	 9.66424807115355E-02 
1197	 9.66759598912816E-02 
1198	 9.67041865138087E-02 
1199	 9.67284714084994E-02 
1200	 9.67434443286131E-02 
1201	 9.67662351129011E-02 
1202	 9.67855871421326E-02 
1203	 9.68182049184161E-02 
1204	 9.68645634239981E-02 
1205	 9.68952217629083E-02 
1206	 9.69233510650549E-02 
1207	 9.69578559695937E-02 
1208	 9.69950896318105E-02 
1209	 9.70170774007249E-02 
1210	 0.097032509743209 
1211	 9.70574751925875E-02 
1212	 9.70767454157155E-02 
1213	 9.70908804906457E-02 
1214	 9.71075574885135E-02 
1215	 9.71321965162913E-02 
1216	 9.71568116337944E-02 
1217	 9.71706218517505E-02 
1218	 9.71922688922497E-02 
1219	 9.72266992939096E-02 
1220	 9.72569833720464E-02 
1221	 9.72859809721844E-02 
1222	 9.73062850340969E-02 
1223	 9.73285216615509E-02 
1224	 0.097348313948595 
1225	 9.73514893533195E-02 
1226	 0.097366175540839 
1227	 9.73834431521024E-02 
1228	 9.74113693206222E-02 
1229	 9.74598748203468E-02 
1230	 9.74868304736282E-02 
1231	 9.75055841513252E-02 
1232	 9.75322902037578E-02 
1233	 9.75563343877895E-02 
1234	 9.75632513557314E-02 
1235	 9.75870200128514E-02 
1236	 9.76358483844144E-02 
1237	 9.76516484361663E-02 
1238	 9.76385788063402E-02 
1239	 9.76609665035084E-02 
1240	 9.76933936359676E-02 
1241	 9.77143426824214E-02 
1242	 9.77560087188823E-02 
1243	 9.77797276770401E-02 
1244	 9.77652932867285E-02 
1245	 9.77841638966429E-02 
1246	 9.78380439325522E-02 
1247	 9.78619228443465E-02 
1248	 9.78841667624503E-02 
1249	 9.78965816334317E-02 
1250	 9.78918189638824E-02 
1251	 0.097906129523058 
1252	 9.79223130564769E-02 
1253	 9.79554243824545E-02 
1254	 9.79772226074687E-02 
1255	 9.79879743645226E-02 
1256	 9.80169126812979E-02 
1257	 9.80691389749774E-02 
1258	 9.80918638598684E-02 
1259	 9.81080310152592E-02 
1260	 9.81270992298786E-02 
1261	 9.81234440471885E-02 
1262	 9.81316315168214E-02 
1263	 9.81639624425068E-02 
1264	 9.81734505651334E-02 
1265	 9.81601902403644E-02 
1266	 9.81615140629375E-02 
1267	 0.098155112009975 
1268	 9.81578219849919E-02 
1269	 9.81759247880022E-02 
1270	 9.82128574851786E-02 
1271	 9.82393543235654E-02 
1272	 9.82743341656726E-02 
1273	 9.83024151976897E-02 
1274	 9.83209583890642E-02 
1275	 9.83543138450152E-02 
1276	 9.83985550688363E-02 
1277	 9.84319082844587E-02 
1278	 9.84682884363392E-02 
1279	 9.85010983948877E-02 
1280	 9.85169917599276E-02 
1281	 9.85506365414013E-02 
1282	 9.85904268983461E-02 
1283	 9.86380127909254E-02 
1284	 9.86932715598694E-02 
1285	 9.87575981942944E-02 
1286	 9.88364284743613E-02 
1287	 0.098906574205375 
1288	 9.89733276992362E-02 
1289	 9.90463340769244E-02 
1290	 9.91026962361373E-02 
1291	 9.91474028186669E-02 
1292	 9.91904682900735E-02 
1293	 0.099225772852091 
1294	 9.92626137207062E-02 
1295	 9.92919261684129E-02 
1296	 9.93229970695741E-02 
1297	 0.09934765363008 
1298	 9.93851653944688E-02 
1299	 0.09944496272806 
1300	 9.94790926466894E-02 
1301	 9.95154471942468E-02 
1302	 9.95335510729166E-02 
1303	 9.95214300578219E-02 
1304	 9.95075098752106E-02 
1305	 9.95041480653368E-02 
1306	 9.95080200128982E-02 
1307	 9.95233145622869E-02 
1308	 9.95278466201162E-02 
1309	 9.95376862534294E-02 
1310	 9.95562101919642E-02 
1311	 0.099557522697911 
1312	 9.95451559038826E-02 
1313	 9.95499777295975E-02 
1314	 9.95518078313019E-02 
1315	 9.95552339880031E-02 
1316	 0.099578046681048 
1317	 9.95836256394519E-02 
1318	 0.099576586383498 
1319	 9.95713757182095E-02 
1320	 9.95621536105198E-02 
1321	 9.95549676901253E-02 
1322	 9.95452344810942E-02 
1323	 9.95321378056233E-02 
1324	 9.95432426765493E-02 
1325	 9.95443661866014E-02 
1326	 9.95547233085588E-02 
1327	 9.95853476775868E-02 
1328	 9.96061835073982E-02 
1329	 9.96305048158617E-02 
1330	 9.96542193697328E-02 
1331	 9.96814252762028E-02 
1332	 9.97002871917382E-02 
1333	 9.97155333560321E-02 
1334	 9.97340958519072E-02 
1335	 9.97444402909037E-02 
1336	 9.97678238494911E-02 
1337	 9.97972818404466E-02 
1338	 9.98307106438391E-02 
1339	 9.98713089042955E-02 
1340	 9.99112836817741E-02 
1341	 9.99614835586673E-02 
1342	 0.100002405187998 
1343	 0.100039566798456 
1344	 0.100075045391608 
1345	 0.100113554933133 
1346	 0.100139909358763 
1347	 0.100155499274945 
1348	 0.100188317112762 
1349	 0.10023345447608 
1350	 0.10027681914729 
1351	 0.100320715001027 
1352	 0.100379712481187 
1353	 0.100422305901473 
1354	 0.100452312124304 
1355	 0.100489106088729 
1356	 0.100521129117477 
1357	 0.10056659258083 
1358	 0.100621985835172 
1359	 0.100667051501828 
1360	 0.100718043143794 
1361	 0.100765715024354 
1362	 0.100800796318699 
1363	 0.1008422584638 
1364	 0.100893844096718 
1365	 0.100934465022851 
1366	 0.100967486020214 
1367	 0.101009892330102 
1368	 0.10103552416261 
1369	 0.101046287382149 
1370	 0.101056487809384 
1371	 0.101069489074629 
1372	 0.101085606816981 
1373	 0.101102314557301 
1374	 0.101110658537199 
1375	 0.10111094571807 
1376	 0.101118119351405 
1377	 0.101122373095361 
1378	 0.101128084147543 
1379	 0.101150019320188 
1380	 0.101147180580594 
1381	 0.101126841754084 
1382	 0.101112082893372 
1383	 0.101084803396589 
1384	 0.101062353395637 
1385	 0.101059706321573 
1386	 0.10103190861098 
1387	 0.100973877484176 
1388	 0.100940071863997 
1389	 0.100914095855861 
1390	 0.100868388781077 
1391	 0.100847492683692 
1392	 0.100829380650793 
1393	 0.100770121714636 
1394	 0.100698189438505 
1395	 0.100618080121057 
1396	 0.10054346519137 
1397	 0.100470626451609 
1398	 0.100406637225517 
1399	 0.100325411225368 
1400	 0.100239492172392 
1401	 0.10014517821481 
1402	 0.100033677189979 
1403	 9.99346541940409E-02 
1404	 9.98302599763095E-02 
1405	 9.97406523841313E-02 
1406	 9.96668944000903E-02 
1407	 9.95828925133847E-02 
1408	 9.94897017877942E-02 
1409	 0.099417978181641 
1410	 9.93531752336165E-02 
1411	 9.92921591781049E-02 
1412	 9.92449617968273E-02 
1413	 9.92074825657231E-02 
1414	 9.91626852022914E-02 
1415	 9.91096388865661E-02 
1416	 9.90902842830034E-02 
1417	 9.90900551062743E-02 
1418	 9.90867141649697E-02 
1419	 9.90959697151594E-02 
1420	 9.90984222004318E-02 
1421	 9.90898691705057E-02 
1422	 9.90936552600755E-02 
1423	 9.90940130487371E-02 
1424	 9.90905419761209E-02 
1425	 9.90771726419728E-02 
1426	 9.90845635077765E-02 
1427	 9.90953322822931E-02 
1428	 9.91136288247429E-02 
1429	 9.91533031044874E-02 
1430	 0.099177277414695 
1431	 9.91940716339048E-02 
1432	 9.92179660288872E-02 
1433	 9.92351379545379E-02 
1434	 9.92630165211934E-02 
1435	 9.93029374997075E-02 
1436	 9.93397960172495E-02 
1437	 9.93885912525792E-02 
1438	 9.94246038568185E-02 
1439	 9.94527691696413E-02 
1440	 9.94780039318421E-02 
1441	 9.95092948200845E-02 
1442	 9.95434956058925E-02 
1443	 9.95905663815304E-02 
1444	 9.96341555194355E-02 
1445	 9.96672326345203E-02 
1446	 9.96998184183661E-02 
1447	 9.97374100153261E-02 
1448	 9.97699563270236E-02 
1449	 9.98044490424582E-02 
1450	 9.98590956735412E-02 
1451	 9.98972718189649E-02 
1452	 9.99286126652173E-02 
1453	 9.99669465815924E-02 
1454	 0.100002888263242 
1455	 0.100031306578111 
1456	 0.100064208703841 
1457	 0.10009201771671 
1458	 0.100108099828654 
1459	 0.100133022176822 
1460	 0.100155995634958 
1461	 0.100190111313675 
1462	 0.100233048919188 
1463	 0.100273536642627 
1464	 0.100325594722031 
1465	 0.100364551321968 
1466	 0.100389602816477 
1467	 0.100425124575043 
1468	 0.100465990046175 
1469	 0.100504281719684 
1470	 0.100543250772362 
1471	 0.100586152651089 
1472	 0.100626543499283 
1473	 0.100663710546373 
1474	 0.10071605080927 
1475	 0.100762381873174 
1476	 0.100807299141127 
1477	 0.100860666850782 
1478	 0.100906902644894 
1479	 0.100954541971731 
1480	 0.10099868689049 
1481	 0.101032149802727 
1482	 0.101075116844666 
1483	 0.101118626981897 
1484	 0.101162135053643 
1485	 0.101212157624121 
1486	 0.1012588684171 
1487	 0.10129616704513 
1488	 0.10134873541914 
1489	 0.101420151999156 
1490	 0.101465265209725 
1491	 0.10149699448731 
1492	 0.10154797173191 
1493	 0.101593766394661 
1494	 0.101639681280284 
1495	 0.101705832140452 
1496	 0.101757681733328 
1497	 0.10179254447004 
1498	 0.101834437036323 
1499	 0.101879569275933 
1500	 0.101923379885964 
1501	 0.10197181665625 
1502	 0.102007079273714 
1503	 0.10202634739687 
1504	 0.102066976578739 
1505	 0.102104229844386 
1506	 0.10213028686692 
1507	 0.102179018685758 
1508	 0.102235211860618 
1509	 0.102288104728885 
1510	 0.102342040940017 
1511	 0.102385777082897 
1512	 0.102411547574006 
1513	 0.102433605574487 
1514	 0.102459513185928 
1515	 0.102489637466735 
1516	 0.102529550113649 
1517	 0.1025621495998 
1518	 0.102588038096676 
1519	 0.10262646571568 
1520	 0.102676836705992 
1521	 0.102705319191006 
1522	 0.10272406790151 
1523	 0.10275509047323 
1524	 0.102782579195566 
1525	 0.102805485688945 
1526	 0.102836447637195 
1527	 0.102867512005746 
1528	 0.102884657370988 
1529	 0.102910239907504 
1530	 0.102951250203943 
1531	 0.102986130030105 
1532	 0.103013862357635 
1533	 0.103041960124453 
1534	 0.103072571324528 
1535	 0.103103466253606 
1536	 0.103131251488893 
1537	 0.103161339294898 
1538	 0.103196264510799 
1539	 0.103229402241048 
1540	 0.10326337219722 
1541	 0.10329212629307 
1542	 0.103316826844907 
1543	 0.103343511600813 
1544	 0.10336853318345 
1545	 0.103391566516441 
1546	 0.103422743364713 
1547	 0.103437003389726 
1548	 0.103441923668441 
1549	 0.103461500509128 
1550	 0.103485498512512 
1551	 0.103505837552243 
1552	 0.103540693459077 
1553	 0.103566499451276 
1554	 0.103568149103175 
1555	 0.103599296137362 
1556	 0.103629603262129 
1557	 0.103637399205952 
1558	 0.103648001962812 
1559	 0.103657934751053 
1560	 0.103679915067031 
1561	 0.103700453578046 
1562	 0.103727651583283 
1563	 0.10377605184726 
1564	 0.103802001282948 
1565	 0.103818394776569 
1566	 0.103831422386513 
1567	 0.103833097429672 
1568	 0.103847251155412 
1569	 0.103857415000951 
1570	 0.103879284974181 
1571	 0.103921375010209 
1572	 0.103941122802844 
1573	 0.103953698796676 
1574	 0.103969334742701 
1575	 0.103971860410537 
1576	 0.103985806303295 
1577	 0.104014100711368 
1578	 0.104029851402104 
1579	 0.104039590314107 
1580	 0.104053148376335 
1581	 0.104058584067528 
1582	 0.104073604482501 
1583	 0.104096697056878 
1584	 0.104119036722329 
1585	 0.104154452015896 
1586	 0.104170380275522 
1587	 0.10416625149802 
1588	 0.104184399027943 
1589	 0.104204980528162 
1590	 0.104223936209373 
1591	 0.104267725928116 
1592	 0.104288741185306 
1593	 0.104284765860401 
1594	 0.104290376306819 
1595	 0.104284473442357 
1596	 0.1042960497694 
1597	 0.104326585031036 
1598	 0.104348055445761 
1599	 0.104378816051256 
1600	 0.104401196891157 
1601	 0.104409943011242 
1602	 0.104421936920751 
1603	 0.104443043676884 
1604	 0.104450101719907 
1605	 0.104440656383124 
1606	 0.104440601160953 
1607	 0.104441074756268 
1608	 0.104430411121937 
1609	 0.104433568399438 
1610	 0.104463249889452 
1611	 0.104477408324359 
1612	 0.104493608322641 
1613	 0.104516527049547 
1614	 0.104514536534778 
1615	 0.104512088177496 
1616	 0.104529947650607 
1617	 0.104537013096812 
1618	 0.104547865887272 
1619	 0.104570873592158 
1620	 0.104573341480498 
1621	 0.104586097805468 
1622	 0.104602399932209 
1623	 0.104610206058396 
1624	 0.104615401516159 
1625	 0.104621124283486 
1626	 0.10462138820011 
1627	 0.104622891830845 
1628	 0.104621014452311 
1629	 0.104633778197995 
1630	 0.104652134517836 
1631	 0.104668296385711 
1632	 0.104698194926644 
1633	 0.104712998994764 
1634	 0.104714444546003 
1635	 0.104724975060357 
1636	 0.104736956123408 
1637	 0.104750751797409 
1638	 0.104766879707283 
1639	 0.104783491837706 
1640	 0.104801702574588 
1641	 0.104816132135778 
1642	 0.104825299396501 
1643	 0.104847122350151 
1644	 0.104877271773688 
1645	 0.104897708775801 
1646	 0.104927536851538 
1647	 0.104940234241954 
1648	 0.10493220788018 
1649	 0.104939307779325 
1650	 0.104953662965577 
1651	 0.104952473335419 
1652	 0.104944080782054 
1653	 0.104944000493224 
1654	 0.104930088757754 
1655	 0.104937305450306 
1656	 0.104966974225538 
1657	 0.1049835216736 
1658	 0.104994980412272 
1659	 0.105020409168978 
1660	 0.105054473158855 
1661	 0.105079501553377 
1662	 0.105120333306606 
1663	 0.105134513264954 
1664	 0.105125423707461 
1665	 0.105123971815847 
1666	 0.105109661734501 
1667	 0.105108754794109 
1668	 0.105117975044551 
1669	 0.105117047691811 
1670	 0.105112689599867 
1671	 0.105115977051984 
1672	 0.105113361551079 
1673	 0.105121408648992 
1674	 0.105150490772696 
1675	 0.105158199835173 
1676	 0.105156949531201 
1677	 0.105159626566604 
1678	 0.10515156227196 
1679	 0.105152661318762 
1680	 0.105163566868409 
1681	 0.105167062662606 
1682	 0.105162110081086 
1683	 0.105172767103221 
1684	 0.105192160966865 
1685	 0.105205062005798 
1686	 0.105232644778997 
1687	 0.105239599926646 
1688	 0.105224936856963 
1689	 0.105225937447642 
1690	 0.105220354898191 
1691	 0.105228383994393 
1692	 0.105255101706263 
1693	 0.105268016437669 
1694	 0.105277007539676 
1695	 0.105294331779711 
1696	 0.105318719315319 
1697	 0.105325090045289 
1698	 0.105330870289589 
1699	 0.105330159971573 
1700	 0.105304373387466 
1701	 0.105297699843575 
1702	 0.105299738225704 
1703	 0.105304509808243 
1704	 0.105314675261955 
1705	 0.105325903651956 
1706	 0.105347823463398 
1707	 0.105353409483908 
1708	 0.105352621130305 
1709	 0.105350760552505 
1710	 0.10533554431249 
1711	 0.105333146566143 
1712	 0.105332065825543 
1713	 0.105341507967671 
1714	 0.105365699871252 
1715	 0.105379764453218 
1716	 0.105401263388192 
1717	 0.105407060047117 
1718	 0.105401709958586 
1719	 0.105389430901516 
1720	 0.10535492819711 
1721	 0.105357255283602 
1722	 0.105371952782676 
1723	 0.105380589700415 
1724	 0.105418957791963 
1725	 0.105426409917824 
1726	 0.105404708322429 
1727	 0.105398426689572 
1728	 0.105389698737177 
1729	 0.105388888956688 
1730	 0.105403369344391 
1731	 0.105395213066807 
1732	 0.105374726263515 
1733	 0.105364995543825 
1734	 0.105346648730414 
1735	 0.105332681355346 
1736	 0.10533750494374 
1737	 0.105324118501015 
1738	 0.105291898018081 
1739	 0.105270563180069 
1740	 0.105245440135826 
1741	 0.105228383412272 
1742	 0.105218124860489 
1743	 0.105216803480634 
1744	 0.105227452633861 
1745	 0.105223941551061 
1746	 0.105224198076668 
1747	 0.10517747104617 
1748	 0.105157350379898 
1749	 0.105158731922017 
1750	 0.105139847959009 
1751	 0.105149238237487 
1752	 0.105173722955701 
1753	 0.10514915414343 
1754	 0.105122590888205 
1755	 0.105099909442702 
1756	 0.105059872166209 
1757	 0.105038634740733 
1758	 0.105055835732635 
1759	 0.105071153397773 
1760	 0.105050775662369 
1761	 0.105028537490441 
1762	 0.105004978300647 
1763	 0.104974494425852 
1764	 0.10495658145431 
1765	 0.104945566733477 
1766	 0.104942191907145 
1767	 0.104952130027943 
1768	 0.104961752184089 
1769	 0.104973077515805 
1770	 0.104972192454844 
1771	 0.104936582064475 
1772	 0.10491924919299 
1773	 0.104926867889791 
1774	 0.104923876264348 
1775	 0.104934727275012 
1776	 0.104936556356903 
1777	 0.104908657090279 
1778	 0.104873541105436 
1779	 0.104857002014737 
1780	 0.104872805934179 
1781	 0.104897016122247 
1782	 0.104926292575948 
1783	 0.104928637526264 
1784	 0.10492090881931 
1785	 0.10488842801292 
1786	 0.10487876872825 
1787	 0.104883069108327 
1788	 0.104867088006227 
1789	 0.104846588737366 
1790	 0.104837606693251 
1791	 0.104818145889518 
1792	 0.104814419538968 
1793	 0.104838515993451 
1794	 0.104850193485396 
1795	 0.104844473240262 
1796	 0.104848755228896 
1797	 0.104857426970574 
1798	 0.104874348667755 
1799	 0.104913522422915 
1800	 0.104932791836611 
1801	 0.101882755061881 
1802	 0.101911781639137 
1803	 0.101910009034259 
1804	 0.101858170706498 
1805	 0.10183463019628 
1806	 0.101826949715147 
1807	 0.101852305001348 
1808	 0.10187694691815 
1809	 0.101956358204022 
1810	 0.101975774461462 
1811	 0.101957073375399 
1812	 0.101954849497946 
1813	 0.101970696421252 
1814	 0.101992798109932 
1815	 0.102027567355969 
1816	 0.102072584859633 
1817	 0.102109777792024 
1818	 0.102146399153311 
1819	 0.102178635793059 
1820	 0.102219447310798 
1821	 0.102230820754586 
1822	 0.102242228560412 
1823	 0.102251827591099 
1824	 0.102249775486351 
1825	 0.102257624373784 
1826	 0.102265398409936 
1827	 0.102259437436153 
1828	 0.102254551506685 
1829	 0.102236477570664 
1830	 0.102248953331703 
1831	 0.102276704204875 
1832	 0.102289986161013 
1833	 0.10232753472561 
1834	 0.102370026012183 
1835	 0.102386526322741 
1836	 0.102400359155744 
1837	 0.102402535392463 
1838	 0.102381103873124 
1839	 0.102378587471096 
1840	 0.102373339291196 
1841	 0.102382380217187 
1842	 0.102391904767436 
1843	 0.10240959634408 
1844	 0.102420390587348 
1845	 0.102414364511843 
1846	 0.102396280196465 
1847	 0.102392642393866 
1848	 0.102394549463113 
1849	 0.102392681601129 
1850	 0.102394244919872 
1851	 0.102414544738221 
1852	 0.102420428271618 
1853	 0.102393744889439 
1854	 0.102371283570538 
1855	 0.102349164730009 
1856	 0.102309158208238 
1857	 0.102309407603468 
1858	 0.102311931008189 
1859	 0.102284351990447 
1860	 0.102252081890165 
1861	 0.102220059712926 
1862	 0.102158547864891 
1863	 0.102101225175659 
1864	 0.102056045371397 
1865	 0.102004145258463 
1866	 0.101933406990644 
1867	 0.101854276023975 
1868	 0.10178651905398 
1869	 0.10172079825605 
1870	 0.101663347785985 
1871	 0.101585525298612 
1872	 0.101496642293894 
1873	 0.10139564558523 
1874	 0.101296373738303 
1875	 0.101172162746345 
1876	 0.101032586264732 
1877	 0.100873843499254 
1878	 0.100684245254462 
1879	 0.100483398085671 
1880	 0.100281098324856 
1881	 0.100076041000065 
1882	 9.98584744855589E-02 
1883	 9.96353857750647E-02 
1884	 9.93945927344853E-02 
1885	 9.91364057608437E-02 
1886	 9.88555103239017E-02 
1887	 9.85517661932471E-02 
1888	 9.82602130435107E-02 
1889	 9.79592808909285E-02 
1890	 9.76333364821318E-02 
1891	 9.72965879531126E-02 
1892	 9.69361783123016E-02 
1893	 9.65719299657664E-02 
1894	 0.096192001412787 
1895	 9.58165957400793E-02 
1896	 9.54231424642063E-02 
1897	 9.50382685881033E-02 
1898	 0.094647464952439 
1899	 9.42636972891395E-02 
1900	 0.093898726375735 
1901	 9.35274038271402E-02 
1902	 9.31863235694909E-02 
1903	 9.28677431869647E-02 
1904	 0.092559122286612 
1905	 9.22708275690458E-02 
1906	 9.20007963272798E-02 
1907	 9.17222188854725E-02 
1908	 9.14546436373935E-02 
1909	 9.12199925523977E-02 
1910	 9.09794563172877E-02 
1911	 9.07625688629702E-02 
1912	 9.05903318933706E-02 
1913	 9.04087161511613E-02 
1914	 9.02321876911165E-02 
1915	 9.00727688314182E-02 
1916	 8.99323567426986E-02 
1917	 0.089770616252378 
1918	 8.96458349873415E-02 
1919	 8.95286842565643E-02 
1920	 8.94317455444166E-02 
1921	 8.93610403545596E-02 
1922	 8.92713018813167E-02 
1923	 8.92002942604728E-02 
1924	 8.91473448225285E-02 
1925	 8.91076209592361E-02 
1926	 0.089069586030806 
1927	 8.90392325153192E-02 
1928	 8.90388522551652E-02 
1929	 8.90497096781006E-02 
1930	 8.90478000539871E-02 
1931	 8.90628066751943E-02 
1932	 8.90780030106032E-02 
1933	 8.90823457796905E-02 
1934	 8.91054100504436E-02 
1935	 8.91328794775714E-02 
1936	 8.91756034145061E-02 
1937	 0.089220698587301 
1938	 8.92727866010887E-02 
1939	 8.93174466295507E-02 
1940	 8.93630743435123E-02 
1941	 8.94202545967169E-02 
1942	 0.089453146136349 
1943	 8.95083880654475E-02 
1944	 8.95863786384091E-02 
1945	 0.089653420408303 
1946	 8.97313869605345E-02 
1947	 8.98263824547044E-02 
1948	 8.99073957372564E-02 
1949	 8.99934793820285E-02 
1950	 9.00718570058551E-02 
1951	 9.01394806480311E-02 
1952	 9.02086556354945E-02 
1953	 9.02891483748795E-02 
1954	 0.090355659340881 
1955	 9.04345468953496E-02 
1956	 9.05264825441008E-02 
1957	 9.06192336175285E-02 
1958	 9.07128361166161E-02 
1959	 0.090818472545201 
1960	 9.09376048035097E-02 
1961	 9.10506682128379E-02 
1962	 9.11705603750642E-02 
1963	 9.12880497744694E-02 
1964	 9.13982277434395E-02 
1965	 9.15159585904735E-02 
1966	 9.16491110806761E-02 
1967	 9.17742078085347E-02 
1968	 9.18914646563657E-02 
1969	 9.20049934466733E-02 
1970	 9.21199589977076E-02 
1971	 9.22232258561964E-02 
1972	 9.23385647000043E-02 
1973	 9.24694714392156E-02 
1974	 9.25849281447708E-02 
1975	 9.26910575452281E-02 
1976	 9.28022272675482E-02 
1977	 9.29174371395764E-02 
1978	 9.30418425973961E-02 
1979	 9.31654625325888E-02 
1980	 9.32677092317077E-02 
1981	 9.33903576797328E-02 
1982	 9.35126375267733E-02 
1983	 9.36302409812726E-02 
1984	 9.37699504119329E-02 
1985	 9.38904846256806E-02 
1986	 9.39847700784975E-02 
1987	 9.40887883629189E-02 
1988	 0.094189763675187 
1989	 9.42956646080651E-02 
1990	 9.44067441851588E-02 
1991	 9.45324956670007E-02 
1992	 9.46601532528906E-02 
1993	 9.48011524339274E-02 
1994	 9.49377910967322E-02 
1995	 9.50890194194286E-02 
1996	 0.095212325659282 
1997	 9.53234017981709E-02 
1998	 9.54361148657673E-02 
1999	 9.55260053765909E-02 
2000	 9.56271891651187E-02 
2001	 9.57309957000424E-02 
2002	 9.58487323039378E-02 
2003	 9.59580709074895E-02 
2004	 0.09605935504368 
2005	 9.61775985277379E-02 
2006	 9.63175005265872E-02 
2007	 9.64274286226798E-02 
2008	 9.65308514929878E-02 
2009	 9.66378322067663E-02 
2010	 9.67197656677688E-02 
2011	 0.096819058428421 
2012	 9.69330448831586E-02 
2013	 9.70467470197547E-02 
2014	 0.097163781571948 
2015	 9.72909532483856E-02 
2016	 0.097389901922978 
2017	 9.74801834118789E-02 
2018	 9.75829952158344E-02 
2019	 9.76740374653776E-02 
2020	 9.77735284258915E-02 
2021	 9.78907312974888E-02 
2022	 9.79975778202145E-02 
2023	 9.80933086784586E-02 
2024	 0.098192261430569 
2025	 9.82963871788663E-02 
2026	 9.84031988220928E-02 
2027	 9.85063184892688E-02 
2028	 9.86125069418988E-02 
2029	 9.87219020942454E-02 
2030	 9.88372809055511E-02 
2031	 9.89463258152197E-02 
2032	 9.90571705266317E-02 
2033	 9.91603980130178E-02 
2034	 9.92645518698454E-02 
2035	 9.93555336939886E-02 
2036	 9.94299455726256E-02 
2037	 9.95163487069224E-02 
2038	 9.95961387740296E-02 
2039	 0.099681582834634 
2040	 9.97862652471721E-02 
2041	 9.98784720854582E-02 
2042	 9.99378921659403E-02 
2043	 9.99976840655984E-02 
2044	 0.100055241458347 
2045	 0.100085199924974 
2046	 0.100144336286997 
2047	 0.10021665112172 
2048	 0.100293883536067 
2049	 0.100385559813703 
2050	 0.100470318538375 
2051	 0.10057311153053 
2052	 0.100650909114117 
2053	 0.100709026111164 
2054	 0.100770674159093 
2055	 0.100813168714609 
2056	 0.100867966110178 
2057	 0.100927928318078 
2058	 0.100999826247654 
2059	 0.101060289541177 
2060	 0.101121031220433 
2061	 0.101179174361327 
2062	 0.101228059497623 
2063	 0.101286514790861 
2064	 0.101351948873223 
2065	 0.101411696224813 
2066	 0.101460613408004 
2067	 0.101529493578773 
2068	 0.1016045578715 
2069	 0.101686810679791 
2070	 0.101770058332237 
2071	 0.101883494282033 
2072	 0.101942318580236 
2073	 0.101967894726352 
2074	 0.10201821863801 
2075	 0.102047707872887 
2076	 0.102098129963819 
2077	 0.102177389719544 
2078	 0.102238314415196 
2079	 0.102277586453749 
2080	 0.10234350509772 
2081	 0.10243780115265 
2082	 0.102506400917756 
2083	 0.102571567944562 
2084	 0.102642491559589 
2085	 0.102705669192764 
2086	 0.10274485792539 
2087	 0.10280038882239 
2088	 0.102870037045405 
2089	 0.102930834877455 
2090	 0.10298710425529 
2091	 0.103040057697108 
2092	 0.103100322190024 
2093	 0.10314513335726 
2094	 0.103163143973241 
2095	 0.103204081002781 
2096	 0.103242648938225 
2097	 0.103293239714318 
2098	 0.103352688561092 
2099	 0.103436411768208 
2100	 0.103506314381503 
2101	 0.103580632776667 
2102	 0.103648041419386 
2103	 0.10371549782425 
2104	 0.103774987976448 
2105	 0.103825542733684 
2106	 0.103882830968276 
2107	 0.103936724401278 
2108	 0.103993356860898 
2109	 0.104050058128893 
2110	 0.10411374770563 
2111	 0.104173611556577 
2112	 0.104246252799859 
2113	 0.104334064716072 
2114	 0.104429109789941 
2115	 0.104499904867771 
2116	 0.104569731976334 
2117	 0.104629981224354 
2118	 0.104657892055647 
2119	 0.10472292534884 
2120	 0.104810923976306 
2121	 0.10487985352369 
2122	 0.104960824032381 
2123	 0.105023556605744 
2124	 0.105066182171469 
2125	 0.105112266921167 
2126	 0.105157547113184 
2127	 0.105196844354919 
2128	 0.105225579219883 
2129	 0.105257416610945 
2130	 0.10528515542973 
2131	 0.105316897173804 
2132	 0.10534482211047 
2133	 0.105384391466322 
2134	 0.105394825641803 
2135	 0.10538573128924 
2136	 0.105384439137827 
2137	 0.105362625515223 
2138	 0.105358401288117 
2139	 0.105373002818431 
2140	 0.105373499557569 
2141	 0.105375809391682 
2142	 0.105367315654947 
2143	 0.105350653610258 
2144	 0.105328227449301 
2145	 0.10529317891668 
2146	 0.105260624705044 
2147	 0.105221855957821 
2148	 0.105184822596274 
2149	 0.105152301768619 
2150	 0.105130190893545 
2151	 0.105087685077922 
2152	 0.105038375683861 
2153	 0.104991585698571 
2154	 0.104925113791225 
2155	 0.104879232098209 
2156	 0.104851869834359 
2157	 0.104811905876571 
2158	 0.104787674337447 
2159	 0.104734285033814 
2160	 0.104659067329488 
2161	 0.1045857012785 
2162	 0.104496597464819 
2163	 0.104405216073091 
2164	 0.104313067669771 
2165	 0.10421737491009 
2166	 0.104119977775277 
2167	 0.104006004006215 
2168	 0.103920335461018 
2169	 0.103845383116067 
2170	 0.103772894267578 
2171	 0.103715949285097 
2172	 0.103654669917556 
2173	 0.103607657259077 
2174	 0.103533883291458 
2175	 0.103449450717388 
2176	 0.103364664037047 
2177	 0.103251168480825 
2178	 0.103157538768171 
2179	 0.103067744527335 
2180	 0.10298981377653 
2181	 0.102931075701081 
2182	 0.102865429266591 
2183	 0.102802606384193 
2184	 0.102754402246502 
2185	 0.10268452491885 
2186	 0.102599084464968 
2187	 0.102520483809904 
2188	 0.102423684234657 
2189	 0.102366458925012 
2190	 0.10233802297267 
2191	 0.102284695648745 
2192	 0.102242040921824 
2193	 0.102195021768683 
2194	 0.102120152699141 
2195	 0.102069961366833 
2196	 0.102036717243051 
2197	 0.102010065767968 
2198	 0.102006434087637 
2199	 0.101980506469513 
2200	 0.101940548990064 
2201	 0.101919525986894 
2202	 0.101885311927304 
2203	 0.101867884979267 
2204	 0.101863759005751 
2205	 0.101896156247094 
2206	 0.101894914742135 
2207	 0.101892552585701 
2208	 0.101873231172619 
2209	 0.101825630800643 
2210	 0.101809712296889 
2211	 0.101779240579618 
2212	 0.10178834945173 
2213	 0.101856171637449 
2214	 0.101875944892695 
2215	 0.101892586849211 
2216	 0.101908571128195 
2217	 0.101912814972425 
2218	 0.101898585678162 
2219	 0.101861163526014 
2220	 0.101850530622394 
2221	 0.101833008366139 
2222	 0.101817148704039 
2223	 0.101815532458283 
2224	 0.101849460112301 
2225	 0.101856009365976 
2226	 0.101834701230304 
2227	 0.101853854829184 
2228	 0.101887250652529 
2229	 0.101930794747353 
2230	 0.102010945933802 
2231	 0.102051070679668 
2232	 0.102088467159596 
2233	 0.10211075073032 
2234	 0.102085093805761 
2235	 0.102108797539448 
2236	 0.102172144288697 
2237	 0.102194359979371 
2238	 0.102217896430216 
2239	 0.102235521620772 
2240	 0.102202804063276 
2241	 0.102207277222212 
2242	 0.102249360411205 
2243	 0.102274429710083 
2244	 0.102290633437846 
2245	 0.102333212810629 
2246	 0.102362218105236 
2247	 0.102354197262293 
2248	 0.102353498422253 
2249	 0.102348256686662 
2250	 0.10232051245167 
2251	 0.102264431240181 
2252	 0.102258171048936 
2253	 0.102254983614034 
2254	 0.102260051603627 
2255	 0.102309639522147 
2256	 0.102320002375783 
2257	 0.102294970057938 
2258	 0.102303187956571 
2259	 0.102314957023231 
2260	 0.102340320640756 
2261	 0.102394251425728 
2262	 0.102436011253926 
2263	 0.102480090026091 
2264	 0.102521750874635 
2265	 0.10256153511408 
2266	 0.102595118356673 
2267	 0.102624770266657 
2268	 0.102659187504313 
2269	 0.102695748641881 
2270	 0.102723488157509 
2271	 0.102751523109973 
2272	 0.102771139853348 
2273	 0.1027761296255 
2274	 0.102755255464743 
2275	 0.102748625654227 
2276	 0.102725014778855 
2277	 0.102739614809365 
2278	 0.102781930483836 
2279	 0.102808391294679 
2280	 0.102849672489615 
2281	 0.102889582765519 
2282	 0.10291650854314 
2283	 0.102944790752855 
2284	 0.102987254242453 
2285	 0.103016217398131 
2286	 0.103026680051479 
2287	 0.103052603261004 
2288	 0.103087089404952 
2289	 0.1031191588436 
2290	 0.103167040697885 
2291	 0.103190535859547 
2292	 0.103206139236753 
2293	 0.103208010826095 
2294	 0.103161571292436 
2295	 0.10315820158394 
2296	 0.103169014754115 
2297	 0.103190118166693 
2298	 0.103215304415729 
2299	 0.103263535737686 
2300	 0.103275145051413 
2301	 0.10327485579063 
2302	 0.103321572207727 
2303	 0.103318939857058 
2304	 0.103322612094532 
2305	 0.103334248818589 
2306	 0.103325884400626 
2307	 0.103296812123406 
2308	 0.103272418107953 
2309	 0.103223175753199 
2310	 0.103224082425336 
2311	 0.103258664710105 
2312	 0.103262911103358 
2313	 0.103287968642 
2314	 0.103297936695257 
2315	 0.103243165720987 
2316	 0.103254804713637 
2317	 0.103325921592517 
2318	 0.10336169832439 
2319	 0.103446280071626 
2320	 0.103454620651897 
2321	 0.103379001274313 
2322	 0.103364357108748 
2323	 0.103314935227752 
2324	 0.103305345915633 
2325	 0.103359216071349 
2326	 0.103399003143232 
2327	 0.103443523611171 
2328	 0.103500089138184 
2329	 0.103541816783657 
2330	 0.103505343204539 
2331	 0.103468984549908 
2332	 0.103480993507391 
2333	 0.10351062509459 
2334	 0.10358561282639 
2335	 0.103650538078544 
2336	 0.103643849253819 
2337	 0.103580723861648 
2338	 0.103507825115203 
2339	 0.103449493410949 
2340	 0.10342198724379 
2341	 0.103449341358566 
2342	 0.103491653534141 
2343	 0.103468058016177 
2344	 0.10342780613383 
2345	 0.103429268726652 
2346	 0.103441098811926 
2347	 0.103433105809619 
2348	 0.103453369363204 
2349	 0.103453760755943 
2350	 0.103411515896497 
2351	 0.103393138960759 
2352	 0.10339656351083 
2353	 0.103377982972842 
2354	 0.103343025903617 
2355	 0.103322825040281 
2356	 0.1033235279721 
2357	 0.103305616603763 
2358	 0.103278557533819 
2359	 0.103233641193524 
2360	 0.103143706594434 
2361	 0.103109931501756 
2362	 0.103098499491114 
2363	 0.103084698734268 
2364	 0.103151110937293 
2365	 0.103124814222576 
2366	 0.10299108040328 
2367	 0.102940362929439 
2368	 0.102878281128082 
2369	 0.102846363867197 
2370	 0.102873703731656 
2371	 0.102927389061561 
2372	 0.102901726135969 
2373	 0.102839896881369 
2374	 0.102840934112028 
2375	 0.10282889999831 
2376	 0.10280835338113 
2377	 0.102813762379872 
2378	 0.102725059327448 
2379	 0.102650376204111 
2380	 0.102655235997746 
2381	 0.102630976840703 
2382	 0.102540957216227 
2383	 0.102465098144201 
2384	 0.102452270284578 
2385	 0.102389199846758 
2386	 0.102355357958884 
2387	 0.102383497795584 
2388	 0.10232335224281 
2389	 0.102193630367093 
2390	 0.102147461854115 
2391	 0.102137666662936 
2392	 0.102055336057423 
2393	 0.102055555785287 
2394	 0.102054408769595 
2395	 0.10196546261757 
2396	 0.101916951995547 
2397	 0.101883686775155 
2398	 0.101902921606081 
2399	 0.101941527538163 
2400	 0.101978581966682 
2401	 0.101950253095385 
2402	 0.101797423539649 
2403	 0.101653680753632 
2404	 0.101521939167014 
2405	 0.101506141546926 
2406	 0.101479447252171 
2407	 0.101360779065936 
2408	 0.101284563094755 
2409	 0.101120641130752 
2410	 0.101053311710105 
2411	 0.101124362467447 
2412	 0.101090976259511 
2413	 0.101052549596127 
2414	 0.101022084795712 
2415	 0.10090433562957 
2416	 0.100815305578263 
2417	 0.100779953635615 
2418	 0.100664004251025 
2419	 0.100460855477205 
2420	 0.100344557616209 
2421	 0.100231627189981 
2422	 0.100145769769254 
2423	 0.100109968874753 
2424	 0.100108567423799 
2425	 0.100115459394561 
2426	 0.100072724320513 
2427	 0.100113424892959 
2428	 0.100039444330937 
2429	 9.98728313023815E-02 
2430	 9.97788317444522E-02 
2431	 9.96179164093514E-02 
2432	 9.95166091604818E-02 
2433	 9.94617585498363E-02 
2434	 0.099364741957042 
2435	 9.92931504873541E-02 
2436	 9.92274695558934E-02 
2437	 9.91759014495484E-02 
2438	 9.90540141702204E-02 
2439	 9.88750353423785E-02 
2440	 9.88098755270498E-02 
2441	 9.87050262052837E-02 
2442	 9.87121694152053E-02 
2443	 9.88876858771594E-02 
2444	 9.89410662434439E-02 
2445	 9.90110552002733E-02 
2446	 9.89976521633685E-02 
2447	 9.89603645522037E-02 
2448	 9.88828420977361E-02 
2449	 9.87067192220438E-02 
2450	 0.098465630418754 
2451	 9.81080478035029E-02 
2452	 9.78799969197317E-02 
2453	 9.76612189558016E-02 
2454	 9.75106165190167E-02 
2455	 9.74576152422544E-02 
2456	 9.74020048644023E-02 
2457	 9.73678371187139E-02 
2458	 9.73520671534087E-02 
2459	 9.74164565989197E-02 
2460	 9.73920802719159E-02 
2461	 9.72920432144215E-02 
2462	 9.71564824729422E-02 
2463	 9.69822385695693E-02 
2464	 9.68684572576041E-02 
2465	 9.68104570753201E-02 
2466	 9.67249306800044E-02 
2467	 9.66095324354355E-02 
2468	 9.65270588012092E-02 
2469	 9.63898640966482E-02 
2470	 9.63417106421571E-02 
2471	 9.62703344653573E-02 
2472	 9.61336744016497E-02 
2473	 9.60586635579208E-02 
2474	 9.59438869056563E-02 
2475	 9.58799470052682E-02 
2476	 9.60727952526146E-02 
2477	 9.63373414449495E-02 
2478	 9.64951665707752E-02 
2479	 9.64977391650745E-02 
2480	 0.096377444668185 
2481	 9.62099746532195E-02 
2482	 9.59757807818544E-02 
2483	 9.58811624403626E-02 
2484	 9.57805674477166E-02 
2485	 9.55057688906873E-02 
2486	 9.53753204728475E-02 
2487	 9.54012897738968E-02 
2488	 9.54618391342557E-02 
2489	 9.56328379473241E-02 
2490	 0.095866120523677 
2491	 9.59120921283119E-02 
2492	 9.56845722793291E-02 
2493	 9.54707018344213E-02 
2494	 9.53698777107006E-02 
2495	 9.52625019111607E-02 
2496	 9.53263939844636E-02 
2497	 0.09526896602496 
2498	 0.094997030554677 
2499	 9.49441062950347E-02 
2500	 9.48508097685354E-02 
