Wavelength	LMW_2200009.asd
350	 6.97161455623987E-02 
351	 7.19749444823423E-02 
352	 0.06338587808943 
353	 5.12023262575769E-02 
354	 5.39204309210621E-02 
355	 6.10110294502189E-02 
356	 6.58813562637881E-02 
357	 6.58124588541599E-02 
358	 0.06831511388147 
359	 6.71321883067954E-02 
360	 6.40262896383791E-02 
361	 0.065288390154467 
362	 6.43301951596535E-02 
363	 6.63528365967025E-02 
364	 7.05545696099526E-02 
365	 6.43142502801384E-02 
366	 6.40881951203563E-02 
367	 6.45607901719611E-02 
368	 5.93600941469869E-02 
369	 6.23851104596309E-02 
370	 6.66563162581091E-02 
371	 6.82627821634989E-02 
372	 6.64891408455549E-02 
373	 6.57170790386214E-02 
374	 6.63766698237658E-02 
375	 6.76313263430664E-02 
376	 6.77184153354048E-02 
377	 6.50935156820733E-02 
378	 6.47681164009276E-02 
379	 7.02685322723913E-02 
380	 0.071305894488827 
381	 6.87630521348095E-02 
382	 6.73637503154575E-02 
383	 7.29914203659909E-02 
384	 7.17340801534386E-02 
385	 6.88301641777792E-02 
386	 6.95614541084952E-02 
387	 7.43527349654912E-02 
388	 0.075209173867248 
389	 7.49137580267613E-02 
390	 0.077565253804174 
391	 7.49967313133094E-02 
392	 7.36732724869839E-02 
393	 7.61402894874437E-02 
394	 8.07016827916564E-02 
395	 8.18247749101291E-02 
396	 8.20076260189968E-02 
397	 8.34664781463003E-02 
398	 8.47473927926432E-02 
399	 8.59983286825472E-02 
400	 0.087421248726762 
401	 8.90359044735071E-02 
402	 8.95470909259354E-02 
403	 9.03401933672855E-02 
404	 9.18514617734392E-02 
405	 9.34058895911513E-02 
406	 9.48419729837257E-02 
407	 9.62928326065135E-02 
408	 0.097561155039305 
409	 9.72721531014258E-02 
410	 9.74424622064706E-02 
411	 9.85570747349782E-02 
412	 0.100165774575679 
413	 0.10114205159404 
414	 0.101477458293468 
415	 0.101603027287777 
416	 0.102344339493075 
417	 0.101876263482596 
418	 0.101338419473462 
419	 0.101856363273615 
420	 0.102050666651703 
421	 0.101878260467753 
422	 0.101512253707433 
423	 0.101244421436912 
424	 0.101228092008613 
425	 0.100637350565462 
426	 9.94275426843801E-02 
427	 9.91707666024357E-02 
428	 9.86745000036482E-02 
429	 9.78822233634463E-02 
430	 9.70781098608867E-02 
431	 9.63643224388634E-02 
432	 9.55138242356418E-02 
433	 9.46749324799856E-02 
434	 9.43454362182374E-02 
435	 9.46336367625803E-02 
436	 9.46951066974297E-02 
437	 9.41769460715455E-02 
438	 9.44256554454447E-02 
439	 9.50632596788825E-02 
440	 9.59482776725843E-02 
441	 9.69711527913293E-02 
442	 9.73884018083434E-02 
443	 9.81896805320835E-02 
444	 9.94736854888838E-02 
445	 9.97416822829012E-02 
446	 0.100447029812191 
447	 0.101553226091905 
448	 0.102582839054163 
449	 0.103101156986556 
450	 0.104004594860617 
451	 0.105324479310768 
452	 0.106332681652604 
453	 0.106837455390743 
454	 0.107199270783605 
455	 0.107806780174593 
456	 0.10893512759419 
457	 0.109564833001257 
458	 0.109824232504291 
459	 0.110331608129084 
460	 0.110954857721743 
461	 0.111382356737798 
462	 0.11162215280863 
463	 0.112147136603987 
464	 0.112574109802668 
465	 0.112851859977164 
466	 0.113073215640163 
467	 0.113521656606108 
468	 0.113986951421246 
469	 0.114210341331884 
470	 0.113983983457082 
471	 0.114346069479214 
472	 0.114723168016091 
473	 0.114731803671952 
474	 0.115136540067802 
475	 0.11523748926338 
476	 0.115232221693814 
477	 0.115594491926499 
478	 0.115755034489292 
479	 0.115792316398584 
480	 0.115839941285876 
481	 0.116024319061662 
482	 0.116243490943125 
483	 0.116451422875071 
484	 0.11660452132241 
485	 0.116602834101766 
486	 0.116586796151428 
487	 0.116645408443221 
488	 0.116809544169472 
489	 0.116997414818955 
490	 0.117178093831881 
491	 0.117331575206767 
492	 0.117451671412136 
493	 0.11735949439575 
494	 0.117351992296164 
495	 0.117823761207543 
496	 0.118084158405692 
497	 0.118074148354122 
498	 0.118009056413149 
499	 0.118419433011661 
500	 0.118547566779053 
501	 0.118520732913677 
502	 0.118630992348835 
503	 0.118632392359619 
504	 0.118773372896327 
505	 0.119023177174718 
506	 0.119101045913295 
507	 0.119241816175763 
508	 0.119408517581974 
509	 0.119494253884102 
510	 0.119302484562314 
511	 0.119320207066806 
512	 0.119532649710819 
513	 0.119663732709796 
514	 0.119774715433699 
515	 0.119912091119831 
516	 0.120068569409561 
517	 0.120144949141973 
518	 0.120200556960038 
519	 0.120248638427128 
520	 0.120299264461838 
521	 0.120412251072024 
522	 0.120574637525622 
523	 0.120730917755335 
524	 0.120789553612816 
525	 0.120790799093073 
526	 0.12083983162861 
527	 0.120984567172844 
528	 0.121060647609624 
529	 0.121075664701172 
530	 0.12110712175454 
531	 0.121260012039395 
532	 0.121379018515129 
533	 0.121491056065935 
534	 0.121611253527928 
535	 0.12166807805796 
536	 0.121725045198071 
537	 0.121831004087538 
538	 0.122013450473913 
539	 0.122217073165128 
540	 0.122322398737146 
541	 0.122362606134754 
542	 0.122576250460881 
543	 0.122684014406571 
544	 0.122757430730954 
545	 0.122933125159957 
546	 0.123224509615177 
547	 0.123379801993948 
548	 0.123463080487227 
549	 0.123785695336632 
550	 0.123947670505088 
551	 0.124090964137564 
552	 0.124361187471483 
553	 0.12466546111859 
554	 0.124882027588788 
555	 0.125082711170205 
556	 0.125426802077249 
557	 0.12581845218634 
558	 0.126205973615182 
559	 0.126590879426187 
560	 0.127064009457706 
561	 0.12748552016935 
562	 0.127896494238512 
563	 0.128379183067014 
564	 0.128871518043512 
565	 0.129355780361017 
566	 0.129801762573463 
567	 0.130166233238103 
568	 0.130763150274967 
569	 0.131525450550011 
570	 0.132316724679876 
571	 0.133136830756741 
572	 0.133891648213478 
573	 0.134631768112274 
574	 0.135498901966566 
575	 0.136368840705742 
576	 0.137289621869313 
577	 0.138250948227051 
578	 0.139058492222006 
579	 0.139813221902528 
580	 0.140481641280916 
581	 0.141021051553127 
582	 0.141669008100341 
583	 0.142451880749439 
584	 0.143365720573619 
585	 0.144401863026591 
586	 0.145512845026192 
587	 0.146698447303257 
588	 0.147951367535197 
589	 0.149189155764736 
590	 0.150388109990469 
591	 0.151584818128204 
592	 0.152868409074974 
593	 0.154211994456853 
594	 0.155547195711025 
595	 0.156780331302602 
596	 0.157772853040458 
597	 0.158647545853128 
598	 0.159471367448878 
599	 0.160289158877313 
600	 0.161176120114886 
601	 0.162088608842593 
602	 0.162983743962175 
603	 0.16384931250058 
604	 0.164756275335294 
605	 0.165695134266333 
606	 0.166617478816897 
607	 0.167443767618127 
608	 0.168271698774011 
609	 0.169146383871314 
610	 0.170037795643477 
611	 0.170780987603129 
612	 0.171393843514862 
613	 0.171946988888674 
614	 0.172510652010559 
615	 0.173039099773969 
616	 0.17354428558735 
617	 0.174069585370789 
618	 0.174568400536375 
619	 0.174968604501008 
620	 0.175290090259585 
621	 0.175764779253729 
622	 0.176174648716568 
623	 0.176512202006549 
624	 0.176854845573293 
625	 0.177236026711042 
626	 0.177636572651886 
627	 0.178011845161918 
628	 0.178291313539974 
629	 0.178572026528707 
630	 0.178883210708849 
631	 0.179210006849831 
632	 0.179444960534108 
633	 0.179681580609378 
634	 0.179951659694006 
635	 0.180231360196212 
636	 0.180505811438086 
637	 0.1807658171739 
638	 0.1810166853829 
639	 0.181301296724906 
640	 0.181532301328475 
641	 0.181753202722098 
642	 0.182053630355609 
643	 0.182376428365867 
644	 0.182604835418338 
645	 0.182763719378943 
646	 0.183090072559085 
647	 0.183369260267362 
648	 0.183620579201384 
649	 0.183909496035361 
650	 0.18419482958923 
651	 0.184491676898302 
652	 0.184797751132651 
653	 0.185095709751777 
654	 0.185397109838965 
655	 0.185681763335879 
656	 0.185950552003603 
657	 0.186267070153243 
658	 0.186613277522165 
659	 0.186959330220883 
660	 0.187273667041425 
661	 0.187574527350807 
662	 0.187899416068613 
663	 0.188267488389203 
664	 0.188670005671944 
665	 0.189079679491463 
666	 0.18945283442902 
667	 0.189771258793108 
668	 0.190119221633059 
669	 0.190510272349453 
670	 0.190926682463507 
671	 0.191328883920155 
672	 0.191761128670897 
673	 0.192231233588634 
674	 0.192713818546475 
675	 0.19311900425126 
676	 0.19352561107439 
677	 0.193959114997336 
678	 0.194422203783638 
679	 0.194924321327134 
680	 0.19543703838047 
681	 0.195926280969155 
682	 0.196355303870822 
683	 0.196829860291665 
684	 0.19733159478637 
685	 0.197830258598064 
686	 0.198388901481386 
687	 0.198941097020635 
688	 0.199450251241365 
689	 0.199910070973142 
690	 0.20038418725134 
691	 0.200891525482131 
692	 0.201435466078387 
693	 0.202011834187422 
694	 0.202565044580231 
695	 0.203083046625218 
696	 0.203581813589756 
697	 0.204113976613388 
698	 0.204675789402795 
699	 0.205238248541051 
700	 0.20575385119679 
701	 0.206287983496132 
702	 0.206833301053027 
703	 0.207366940294118 
704	 0.207867674404322 
705	 0.208377542239094 
706	 0.208891481633461 
707	 0.209384047679658 
708	 0.209897383486235 
709	 0.210408097382675 
710	 0.210909881449818 
711	 0.211434636473439 
712	 0.211880073950317 
713	 0.212329669104926 
714	 0.212860654802655 
715	 0.213317027556736 
716	 0.213769021465379 
717	 0.214216269893505 
718	 0.214606696185658 
719	 0.214941617813494 
720	 0.215300019485893 
721	 0.215705154610232 
722	 0.21605766658533 
723	 0.216357630649997 
724	 0.216637480624109 
725	 0.216928962048978 
726	 0.217173457099916 
727	 0.217453278100467 
728	 0.217765424238812 
729	 0.218023509744747 
730	 0.218236086022167 
731	 0.218434143010245 
732	 0.218630841184403 
733	 0.21878531129622 
734	 0.218909645610508 
735	 0.219006651635906 
736	 0.219083313320589 
737	 0.219187579410265 
738	 0.21927182384592 
739	 0.219294880999167 
740	 0.21923577378031 
741	 0.219233853769475 
742	 0.219231905107912 
743	 0.219167981457601 
744	 0.219091179047944 
745	 0.218987854513095 
746	 0.218875983421136 
747	 0.218775225164481 
748	 0.218607224237435 
749	 0.21846305975482 
750	 0.218330130046582 
751	 0.218058293410095 
752	 0.217817986420209 
753	 0.217583419054199 
754	 0.217306312334794 
755	 0.217008385711131 
756	 0.216721339560928 
757	 0.216454524664888 
758	 0.21619086809465 
759	 0.215834643770389 
760	 0.215445327371517 
761	 0.215070908725974 
762	 0.214723300432681 
763	 0.214308292182892 
764	 0.213906558144457 
765	 0.213571385727557 
766	 0.21314739424175 
767	 0.212718850143491 
768	 0.212299503187946 
769	 0.211862072329734 
770	 0.211354426407686 
771	 0.210902535933576 
772	 0.21051557241374 
773	 0.210050551135849 
774	 0.209632856367224 
775	 0.209183846060589 
776	 0.208645618802824 
777	 0.208135003158498 
778	 0.207623200390221 
779	 0.207123780100859 
780	 0.206656955736681 
781	 0.206172751085585 
782	 0.205730086732435 
783	 0.205287269941319 
784	 0.204704440836275 
785	 0.204225408142863 
786	 0.203763023030819 
787	 0.203235053461828 
788	 0.20272785840921 
789	 0.202231098686925 
790	 0.20174763088765 
791	 0.201279449139486 
792	 0.200816699311475 
793	 0.200337778769696 
794	 0.199834157779356 
795	 0.199311862913966 
796	 0.198789189761255 
797	 0.198283348941609 
798	 0.197810061481784 
799	 0.197385768823091 
800	 0.196950050999598 
801	 0.196498145991489 
802	 0.196036253480918 
803	 0.19553308588886 
804	 0.195062685148911 
805	 0.194626467004634 
806	 0.194180944087751 
807	 0.19373889761793 
808	 0.19332797891237 
809	 0.192923351664867 
810	 0.19243519415267 
811	 0.192059039116097 
812	 0.191666621448583 
813	 0.191174021013042 
814	 0.190825148542968 
815	 0.190457923715141 
816	 0.190048402093225 
817	 0.189635523531715 
818	 0.18926160795605 
819	 0.188927860732364 
820	 0.188596690103667 
821	 0.188208649603058 
822	 0.187810495868287 
823	 0.18745124943736 
824	 0.187142868048663 
825	 0.186839533888238 
826	 0.186522390174313 
827	 0.186170981247443 
828	 0.185788974877396 
829	 0.185433471945325 
830	 0.185176138006727 
831	 0.184944363425918 
832	 0.18461944408853 
833	 0.18428594066342 
834	 0.183984348823149 
835	 0.183720045231915 
836	 0.183468872839438 
837	 0.183261004724805 
838	 0.183009060538221 
839	 0.182679969086409 
840	 0.182357991741092 
841	 0.182155337310494 
842	 0.181995626225886 
843	 0.181783675370957 
844	 0.181550247105639 
845	 0.181379179920013 
846	 0.181224490412674 
847	 0.181003520684878 
848	 0.180814469692633 
849	 0.180595167738067 
850	 0.180369373897098 
851	 0.180230919238956 
852	 0.180140177822222 
853	 0.180008028210068 
854	 0.179797799123509 
855	 0.179560081220951 
856	 0.179406868244479 
857	 0.179345736855598 
858	 0.179316863878502 
859	 0.179165283416383 
860	 0.179064637701646 
861	 0.178983339688445 
862	 0.178845419313895 
863	 0.178719231638698 
864	 0.178632138537295 
865	 0.178564151109403 
866	 0.178477219426176 
867	 0.17843029924404 
868	 0.178412088014184 
869	 0.178386561396135 
870	 0.178306817796487 
871	 0.178215559368329 
872	 0.17815508031539 
873	 0.178145130460293 
874	 0.17817031011465 
875	 0.17813848226404 
876	 0.178108945219478 
877	 0.1781199529043 
878	 0.178035042362253 
879	 0.178065197895956 
880	 0.178151161180905 
881	 0.178174162211737 
882	 0.178207925389637 
883	 0.178237374502103 
884	 0.178253516078509 
885	 0.178265722147503 
886	 0.178370323867942 
887	 0.178431140700833 
888	 0.178441632612654 
889	 0.17851112209574 
890	 0.178596446544698 
891	 0.178647508152687 
892	 0.178677569443348 
893	 0.178772931819146 
894	 0.178856829541753 
895	 0.178937573502872 
896	 0.17905265723647 
897	 0.17926038923049 
898	 0.179428423337012 
899	 0.179568042729292 
900	 0.179719675595589 
901	 0.17989378560679 
902	 0.180005343560556 
903	 0.180109319973623 
904	 0.180285148331337 
905	 0.180511685595171 
906	 0.180675008237341 
907	 0.180798460721882 
908	 0.18096639917042 
909	 0.181177047749243 
910	 0.181402062613136 
911	 0.181641833004392 
912	 0.181904334511948 
913	 0.182106095252795 
914	 0.182290958877492 
915	 0.182493699694482 
916	 0.182723855491235 
917	 0.182938106249375 
918	 0.183210727777781 
919	 0.18352318025932 
920	 0.183751421760894 
921	 0.184076046007235 
922	 0.184347127557072 
923	 0.184542540017351 
924	 0.184892099611303 
925	 0.185179373714846 
926	 0.185475101653342 
927	 0.185816832515117 
928	 0.18607297186729 
929	 0.186322989164664 
930	 0.186617659045754 
931	 0.186968289520356 
932	 0.187312621670663 
933	 0.187755118264213 
934	 0.188173208937606 
935	 0.188455076573215 
936	 0.188708461851989 
937	 0.189024469253615 
938	 0.189361691287177 
939	 0.189676192997026 
940	 0.190098220765214 
941	 0.190533728865775 
942	 0.19096510665912 
943	 0.191390705098218 
944	 0.191746438808868 
945	 0.192039052978153 
946	 0.192357038634666 
947	 0.192780419377853 
948	 0.1931954441072 
949	 0.1936308249111 
950	 0.194089662954433 
951	 0.19455259430267 
952	 0.194966385292412 
953	 0.195396120286154 
954	 0.195852460015779 
955	 0.196306771778472 
956	 0.196730659124285 
957	 0.197132346855828 
958	 0.197550937732818 
959	 0.198031532273558 
960	 0.19857674951639 
961	 0.198983390970614 
962	 0.199316209921467 
963	 0.199776636883771 
964	 0.200198588604404 
965	 0.200718662419027 
966	 0.201324058487939 
967	 0.201890274054954 
968	 0.202368993832139 
969	 0.202755664838296 
970	 0.203121995990122 
971	 0.203568676119932 
972	 0.204074147479669 
973	 0.204647089583976 
974	 0.20513985358327 
975	 0.205414665016928 
976	 0.205983865384373 
977	 0.206482914256892 
978	 0.206854595766455 
979	 0.207294838935467 
980	 0.2079608487612 
981	 0.208397427035614 
982	 0.208772678165395 
983	 0.209495228400013 
984	 0.209926256567186 
985	 0.210351529852658 
986	 0.210821105443012 
987	 0.211244391318011 
988	 0.211712161900277 
989	 0.212067761561785 
990	 0.212422793571767 
991	 0.212965042343911 
992	 0.213558219681064 
993	 0.213998550531272 
994	 0.214352618448796 
995	 0.214797225378472 
996	 0.215376800285344 
997	 0.215856694950956 
998	 0.21614996938264 
999	 0.216344882480472 
1000	 0.216819223143736 
1001	 0.215494110257031 
1002	 0.215914692664023 
1003	 0.216252354805771 
1004	 0.216679122596315 
1005	 0.217291546822906 
1006	 0.217670214398336 
1007	 0.217908901180047 
1008	 0.218278497507916 
1009	 0.218614931128381 
1010	 0.218905029775801 
1011	 0.219293898154696 
1012	 0.219663795989851 
1013	 0.219985657682602 
1014	 0.220343059367725 
1015	 0.220717553057931 
1016	 0.221101607910219 
1017	 0.221482302741484 
1018	 0.221876854180476 
1019	 0.222255090271012 
1020	 0.222594010030787 
1021	 0.222902902703026 
1022	 0.223177268986463 
1023	 0.223416938471359 
1024	 0.223699777815288 
1025	 0.223987196758277 
1026	 0.224253580811932 
1027	 0.224524473015898 
1028	 0.224776167071651 
1029	 0.225041275716369 
1030	 0.225311639221223 
1031	 0.225588475037241 
1032	 0.225884925823962 
1033	 0.226171007646806 
1034	 0.226427345090905 
1035	 0.226718101615231 
1036	 0.227001181724081 
1037	 0.227252685068684 
1038	 0.227490083261337 
1039	 0.227700896927515 
1040	 0.227902159746605 
1041	 0.228128518627879 
1042	 0.22837974665602 
1043	 0.228585818445669 
1044	 0.228800320374857 
1045	 0.229020932492411 
1046	 0.229222328564053 
1047	 0.229367511148958 
1048	 0.229553381769023 
1049	 0.229718615840071 
1050	 0.229899856150644 
1051	 0.230171993764244 
1052	 0.230399902898098 
1053	 0.230597794897252 
1054	 0.230852818700416 
1055	 0.231059491725229 
1056	 0.231263838942944 
1057	 0.231493456078776 
1058	 0.231771172389495 
1059	 0.231984879210694 
1060	 0.232173290263348 
1061	 0.232377270653372 
1062	 0.23252414331897 
1063	 0.232692201799742 
1064	 0.232914999927561 
1065	 0.233124740032105 
1066	 0.233334626045247 
1067	 0.233557063199998 
1068	 0.233764335055916 
1069	 0.233963571034232 
1070	 0.234182430098613 
1071	 0.234480095954404 
1072	 0.234684199538639 
1073	 0.234816274655905 
1074	 0.234984166739534 
1075	 0.235148328702242 
1076	 0.235262122015918 
1077	 0.235411034950983 
1078	 0.235662995527236 
1079	 0.235862486542889 
1080	 0.236018403885674 
1081	 0.236199691190448 
1082	 0.236371189906486 
1083	 0.236533815915944 
1084	 0.236697692959537 
1085	 0.23684853703406 
1086	 0.236981782044109 
1087	 0.23711785189678 
1088	 0.237242078019945 
1089	 0.237378964777653 
1090	 0.237511488026009 
1091	 0.237639080876948 
1092	 0.237768038706064 
1093	 0.237943446149414 
1094	 0.238150108809699 
1095	 0.238317619929855 
1096	 0.238473587206313 
1097	 0.238618242109905 
1098	 0.238768698235385 
1099	 0.238916991064419 
1100	 0.239061129272838 
1101	 0.239200336058336 
1102	 0.239348563421146 
1103	 0.239501699726112 
1104	 0.239638097062205 
1105	 0.239767466136791 
1106	 0.239893968083808 
1107	 0.240008888362364 
1108	 0.240124037808604 
1109	 0.240264065941829 
1110	 0.240399790097942 
1111	 0.240518165993994 
1112	 0.240614894540377 
1113	 0.240737171419749 
1114	 0.240860869080571 
1115	 0.240977681945138 
1116	 0.241105308805051 
1117	 0.241235931991622 
1118	 0.241347683843756 
1119	 0.241483271904255 
1120	 0.241660466603889 
1121	 0.241783368887115 
1122	 0.241892611442299 
1123	 0.242034620165747 
1124	 0.242148928034138 
1125	 0.242239576148716 
1126	 0.242356275238355 
1127	 0.242486077886334 
1128	 0.242585778542011 
1129	 0.242681250262856 
1130	 0.24277520143702 
1131	 0.242851792058405 
1132	 0.242932693573354 
1133	 0.243018618308504 
1134	 0.243099577793485 
1135	 0.243172865243812 
1136	 0.243241148240446 
1137	 0.24331955097156 
1138	 0.243395275287572 
1139	 0.243470815365655 
1140	 0.243549035607432 
1141	 0.243619747399836 
1142	 0.2436920820993 
1143	 0.243757691757361 
1144	 0.243815386930681 
1145	 0.243870938703628 
1146	 0.243917346997317 
1147	 0.243966421146391 
1148	 0.244014241411872 
1149	 0.244064445116987 
1150	 0.244106509363184 
1151	 0.244171206773749 
1152	 0.244235460671701 
1153	 0.244285354071106 
1154	 0.244331457501822 
1155	 0.244367858285455 
1156	 0.244415728504008 
1157	 0.244457046219023 
1158	 0.244509728790726 
1159	 0.244580849107364 
1160	 0.244640264587842 
1161	 0.244694696210774 
1162	 0.244751908663992 
1163	 0.244803215643901 
1164	 0.244863360649686 
1165	 0.244921633877373 
1166	 0.244997209564864 
1167	 0.245089902816382 
1168	 0.245160170746475 
1169	 0.245216161869326 
1170	 0.245256263189837 
1171	 0.245313216209396 
1172	 0.245356340955329 
1173	 0.245412214275124 
1174	 0.245486779533564 
1175	 0.245555364688743 
1176	 0.245605530475672 
1177	 0.245685223116935 
1178	 0.245806331386021 
1179	 0.245889272089015 
1180	 0.245965096176568 
1181	 0.246041271437183 
1182	 0.246097932070045 
1183	 0.246147129829037 
1184	 0.246212458846577 
1185	 0.246298255527825 
1186	 0.246359971669024 
1187	 0.246410815603114 
1188	 0.246468879225692 
1189	 0.246526046541588 
1190	 0.24657588154215 
1191	 0.246621196259684 
1192	 0.246674120213495 
1193	 0.246721864747427 
1194	 0.246772221860985 
1195	 0.246835328812274 
1196	 0.246891102736057 
1197	 0.246931347752396 
1198	 0.246985835263968 
1199	 0.247046003820883 
1200	 0.247114108277782 
1201	 0.247174705516845 
1202	 0.247243419159482 
1203	 0.24730026676478 
1204	 0.247345752932108 
1205	 0.2473983537402 
1206	 0.247453188810352 
1207	 0.247502811824902 
1208	 0.247551509597941 
1209	 0.247598331104906 
1210	 0.247643629146149 
1211	 0.2476839851908 
1212	 0.247714594370894 
1213	 0.247755462944969 
1214	 0.24779348719238 
1215	 0.24783792736483 
1216	 0.247888504924479 
1217	 0.247957245008042 
1218	 0.248001003722271 
1219	 0.248044453920767 
1220	 0.248070357219262 
1221	 0.24807174983997 
1222	 0.248090203740189 
1223	 0.248103460006936 
1224	 0.248123079111661 
1225	 0.248152525977589 
1226	 0.248177736201905 
1227	 0.24820413695589 
1228	 0.248226604926604 
1229	 0.248254829220897 
1230	 0.248271098048336 
1231	 0.248264152503753 
1232	 0.248276343439451 
1233	 0.248293608300771 
1234	 0.248309635338565 
1235	 0.248333280838193 
1236	 0.248375827139753 
1237	 0.248403553899636 
1238	 0.248425033072803 
1239	 0.248448222223789 
1240	 0.248476087781603 
1241	 0.24849196966742 
1242	 0.248490106029583 
1243	 0.248509432503882 
1244	 0.24853240316666 
1245	 0.248556019202992 
1246	 0.248604462907908 
1247	 0.248632386284353 
1248	 0.248644893015136 
1249	 0.24866062822797 
1250	 0.248656294418442 
1251	 0.248657204815773 
1252	 0.248669004328339 
1253	 0.248683172397282 
1254	 0.248697244673373 
1255	 0.248731402132101 
1256	 0.248739912857518 
1257	 0.248733875961389 
1258	 0.248729563767322 
1259	 0.248719009961374 
1260	 0.248702308294261 
1261	 0.248672262303566 
1262	 0.248656187784447 
1263	 0.248641625807839 
1264	 0.248625270320716 
1265	 0.248605993630227 
1266	 0.248604473873886 
1267	 0.248608878417571 
1268	 0.248619460658557 
1269	 0.248627958985226 
1270	 0.248655667854931 
1271	 0.248661401629281 
1272	 0.248651157199058 
1273	 0.248649397042988 
1274	 0.248650898872235 
1275	 0.248648909321687 
1276	 0.248639193545903 
1277	 0.248637086310938 
1278	 0.248634950266349 
1279	 0.248635144514029 
1280	 0.248639991404098 
1281	 0.248648143984251 
1282	 0.24866127314155 
1283	 0.248672699223395 
1284	 0.248680788329301 
1285	 0.248696024295203 
1286	 0.248730482199123 
1287	 0.24876492779809 
1288	 0.248796808050343 
1289	 0.248840734753322 
1290	 0.248877906604092 
1291	 0.248908988736674 
1292	 0.248935160479894 
1293	 0.24896048278538 
1294	 0.248995964318405 
1295	 0.249025158108532 
1296	 0.249058889740848 
1297	 0.249117433085774 
1298	 0.249146614215163 
1299	 0.249150374794109 
1300	 0.249168452339882 
1301	 0.249194424929303 
1302	 0.249203088011541 
1303	 0.249212324876877 
1304	 0.24921038932228 
1305	 0.249180829019174 
1306	 0.249156281859217 
1307	 0.249142267590162 
1308	 0.249118053475195 
1309	 0.249102169414012 
1310	 0.249088241039441 
1311	 0.249077183375581 
1312	 0.24908877799936 
1313	 0.249056248548356 
1314	 0.248996464699166 
1315	 0.248957221988784 
1316	 0.24889152635584 
1317	 0.248849420771543 
1318	 0.248854844383889 
1319	 0.248816646271247 
1320	 0.248759634651856 
1321	 0.248699990072157 
1322	 0.248616634938953 
1323	 0.248538991519039 
1324	 0.248484207680359 
1325	 0.248417613544797 
1326	 0.248364597647644 
1327	 0.248316849196917 
1328	 0.248251720938927 
1329	 0.248187306363736 
1330	 0.248130420145651 
1331	 0.248081621218439 
1332	 0.248011465704659 
1333	 0.247941678047597 
1334	 0.247867380448461 
1335	 0.247766774596864 
1336	 0.24768926195644 
1337	 0.247616061498662 
1338	 0.24755368947299 
1339	 0.24750835969483 
1340	 0.247456343398491 
1341	 0.24741744795096 
1342	 0.247364716961149 
1343	 0.247300775354351 
1344	 0.24723427142038 
1345	 0.247169156448853 
1346	 0.247129579186552 
1347	 0.247088115968431 
1348	 0.247042394328388 
1349	 0.24699784666347 
1350	 0.246955042769273 
1351	 0.246916196267096 
1352	 0.24688164857339 
1353	 0.246843952498793 
1354	 0.246819214501542 
1355	 0.246770176569869 
1356	 0.246710078517327 
1357	 0.246646999090623 
1358	 0.246559510793179 
1359	 0.246486362139248 
1360	 0.246425140044854 
1361	 0.246358871390548 
1362	 0.24629626044279 
1363	 0.246225957285273 
1364	 0.246154068079789 
1365	 0.246066569441676 
1366	 0.245974940951241 
1367	 0.245870688741643 
1368	 0.245741503038844 
1369	 0.245626121134602 
1370	 0.24550808172807 
1371	 0.245385084448753 
1372	 0.245264991764665 
1373	 0.245130074557216 
1374	 0.244975818763875 
1375	 0.24479927560103 
1376	 0.244620791924798 
1377	 0.244436100618858 
1378	 0.244225591382361 
1379	 0.244000868147007 
1380	 0.243765181407997 
1381	 0.243521574361476 
1382	 0.243235368784125 
1383	 0.242934213827753 
1384	 0.242604185871439 
1385	 0.242229034954042 
1386	 0.241849651806962 
1387	 0.241461382423651 
1388	 0.241049214914877 
1389	 0.24062370324577 
1390	 0.240165120576189 
1391	 0.239685341053104 
1392	 0.239174438624462 
1393	 0.238633064495868 
1394	 0.238084678179844 
1395	 0.237488233436306 
1396	 0.236860549622385 
1397	 0.236228027540291 
1398	 0.235564662798624 
1399	 0.234894378530018 
1400	 0.234215625657672 
1401	 0.233533645730935 
1402	 0.232827781786514 
1403	 0.232135577436638 
1404	 0.231435995847756 
1405	 0.230764686067198 
1406	 0.230087894901334 
1407	 0.229449765533741 
1408	 0.228841880408526 
1409	 0.228253630095631 
1410	 0.227674205967619 
1411	 0.227146550593659 
1412	 0.22664890592188 
1413	 0.226190680172883 
1414	 0.225783122552919 
1415	 0.225383535122458 
1416	 0.22500461521413 
1417	 0.22465608827999 
1418	 0.224323331382965 
1419	 0.224000175012235 
1420	 0.2236866553955 
1421	 0.223396446341959 
1422	 0.223128292474275 
1423	 0.222885581304191 
1424	 0.222648517655883 
1425	 0.222427676168028 
1426	 0.22222267931622 
1427	 0.222024718308488 
1428	 0.221850011730063 
1429	 0.221707504220309 
1430	 0.221561931689045 
1431	 0.221430211597985 
1432	 0.221294433686674 
1433	 0.221158432317872 
1434	 0.221034169050381 
1435	 0.220906891453047 
1436	 0.220800683106707 
1437	 0.220709636906377 
1438	 0.220630188046811 
1439	 0.220568266257482 
1440	 0.220510558884366 
1441	 0.220463188814317 
1442	 0.220404934071503 
1443	 0.220354046232528 
1444	 0.220301908891262 
1445	 0.220237712730534 
1446	 0.220193474025549 
1447	 0.220132248823565 
1448	 0.220056829760074 
1449	 0.22000717776388 
1450	 0.219948005777971 
1451	 0.219892473952789 
1452	 0.219853117677596 
1453	 0.219792817922589 
1454	 0.219719361251585 
1455	 0.219650699657321 
1456	 0.219575923610832 
1457	 0.219504725095811 
1458	 0.219431455140809 
1459	 0.219356454288096 
1460	 0.219270589795471 
1461	 0.219210792537884 
1462	 0.219158561998355 
1463	 0.219123810041193 
1464	 0.219096396431909 
1465	 0.219097908544615 
1466	 0.219105256880024 
1467	 0.219153121549466 
1468	 0.219229713754025 
1469	 0.219348140578594 
1470	 0.219507689950626 
1471	 0.219693543401601 
1472	 0.21990624469904 
1473	 0.220141709027946 
1474	 0.220375228467928 
1475	 0.220603542176467 
1476	 0.220841417221284 
1477	 0.221076209676124 
1478	 0.221298512327951 
1479	 0.221524867054936 
1480	 0.221734456615703 
1481	 0.221931435563546 
1482	 0.222130022445067 
1483	 0.222320130591563 
1484	 0.222512348597423 
1485	 0.222703784368803 
1486	 0.222896219777405 
1487	 0.223091066441374 
1488	 0.223273455896311 
1489	 0.223460423422197 
1490	 0.223631017044987 
1491	 0.223783102305447 
1492	 0.223936037842227 
1493	 0.224070173308985 
1494	 0.224220666694005 
1495	 0.224382697989177 
1496	 0.224532687547909 
1497	 0.224689301781545 
1498	 0.224839425516254 
1499	 0.224974866682568 
1500	 0.225115166472941 
1501	 0.225260758574936 
1502	 0.225397538279682 
1503	 0.225530278783882 
1504	 0.225656211013656 
1505	 0.225774256643273 
1506	 0.225891567537675 
1507	 0.226020975593801 
1508	 0.226136373131814 
1509	 0.226240254798613 
1510	 0.226356666564571 
1511	 0.226456103576765 
1512	 0.22655571498978 
1513	 0.226666964390656 
1514	 0.226782841746624 
1515	 0.226893135009748 
1516	 0.22699715073152 
1517	 0.227106117541777 
1518	 0.227215370184824 
1519	 0.227322235348515 
1520	 0.227429715951332 
1521	 0.227539601550715 
1522	 0.227652679454111 
1523	 0.227756508876466 
1524	 0.227854984076572 
1525	 0.227963007648892 
1526	 0.22807772209963 
1527	 0.228169264381171 
1528	 0.228260012653648 
1529	 0.228340562841448 
1530	 0.228391065500874 
1531	 0.228463031506417 
1532	 0.228542852539453 
1533	 0.228622985961753 
1534	 0.228705068219543 
1535	 0.228787068668935 
1536	 0.228880574240251 
1537	 0.228959905231946 
1538	 0.22902888015715 
1539	 0.229103170912319 
1540	 0.229168667222577 
1541	 0.229242708995229 
1542	 0.229319830197266 
1543	 0.229405560195839 
1544	 0.229508340647516 
1545	 0.229593987949028 
1546	 0.229679609777435 
1547	 0.229762538072148 
1548	 0.229821895429902 
1549	 0.229873940878378 
1550	 0.229936787707549 
1551	 0.229990503695743 
1552	 0.230053003366556 
1553	 0.230123527215863 
1554	 0.230180244705142 
1555	 0.230232174936505 
1556	 0.230272317649605 
1557	 0.23031343894712 
1558	 0.230360237269013 
1559	 0.230407061353404 
1560	 0.230456886321385 
1561	 0.230514949952908 
1562	 0.230554359896239 
1563	 0.230587363348067 
1564	 0.230625154606978 
1565	 0.230655496061419 
1566	 0.230683723181368 
1567	 0.230718347731839 
1568	 0.230741900023261 
1569	 0.230751371343518 
1570	 0.230767268769817 
1571	 0.230781340470251 
1572	 0.230799871764849 
1573	 0.23081335068403 
1574	 0.23084364097613 
1575	 0.230891500154392 
1576	 0.230925078203869 
1577	 0.23096161129058 
1578	 0.230992906822753 
1579	 0.231016496361113 
1580	 0.231038894717062 
1581	 0.23106738952492 
1582	 0.2310837578494 
1583	 0.231083607017993 
1584	 0.231092391435329 
1585	 0.231092546180036 
1586	 0.231106853070248 
1587	 0.231133869466561 
1588	 0.231158653833131 
1589	 0.231197929468983 
1590	 0.23122104201155 
1591	 0.231227789722789 
1592	 0.231245834754425 
1593	 0.231264742241445 
1594	 0.231281126441848 
1595	 0.23130971782261 
1596	 0.231325047617745 
1597	 0.2313301690638 
1598	 0.231332498930241 
1599	 0.231323176383434 
1600	 0.23132210613216 
1601	 0.231325818025424 
1602	 0.231318967091607 
1603	 0.231324141042954 
1604	 0.231305503640543 
1605	 0.231249551250397 
1606	 0.231215960620392 
1607	 0.231174543458209 
1608	 0.231143557366623 
1609	 0.231151850373149 
1610	 0.231151655769549 
1611	 0.231139828836795 
1612	 0.231131486843019 
1613	 0.231103373895438 
1614	 0.231079483133452 
1615	 0.231070677328972 
1616	 0.231062533804789 
1617	 0.231051569723828 
1618	 0.231046671091992 
1619	 0.231036285005241 
1620	 0.231023613974648 
1621	 0.231006398993737 
1622	 0.23098872976581 
1623	 0.230959701461357 
1624	 0.230919507180869 
1625	 0.230886620127087 
1626	 0.230853093763034 
1627	 0.230817058698973 
1628	 0.230778985405359 
1629	 0.230747860565858 
1630	 0.230713600862789 
1631	 0.230684597117036 
1632	 0.23066969689669 
1633	 0.230639111018955 
1634	 0.230599504491565 
1635	 0.23056544045232 
1636	 0.230522691753684 
1637	 0.230499269486163 
1638	 0.230489188463385 
1639	 0.230468828647619 
1640	 0.230457470710875 
1641	 0.230435968660513 
1642	 0.230408912209883 
1643	 0.230371520392764 
1644	 0.230328027656808 
1645	 0.230282960550851 
1646	 0.230218782450987 
1647	 0.230176676475386 
1648	 0.230148480534706 
1649	 0.230110725836301 
1650	 0.230078124865021 
1651	 0.230039110192354 
1652	 0.229997046863496 
1653	 0.229946809540398 
1654	 0.229886457246675 
1655	 0.229838539935663 
1656	 0.229781696107611 
1657	 0.229743717723912 
1658	 0.229724579728265 
1659	 0.22970120759055 
1660	 0.229689271901579 
1661	 0.229662678699023 
1662	 0.229643636458732 
1663	 0.229594868172627 
1664	 0.229509590131401 
1665	 0.229458826581551 
1666	 0.229398838271901 
1667	 0.229361777312479 
1668	 0.229378348013192 
1669	 0.22933410547377 
1670	 0.229262387348229 
1671	 0.22920018671991 
1672	 0.229113755252589 
1673	 0.229035288676335 
1674	 0.228955141425606 
1675	 0.228898928004661 
1676	 0.228842984766014 
1677	 0.228799051701488 
1678	 0.228795841591804 
1679	 0.228761595182666 
1680	 0.228713056790807 
1681	 0.228665142896488 
1682	 0.228609778427717 
1683	 0.228556204992604 
1684	 0.228497156117558 
1685	 0.228444268137244 
1686	 0.228393946327835 
1687	 0.228345433306281 
1688	 0.228308439197296 
1689	 0.228251304337749 
1690	 0.228175440766473 
1691	 0.228121093356108 
1692	 0.228075454353666 
1693	 0.228012862513428 
1694	 0.227963454340137 
1695	 0.227891286765536 
1696	 0.227789073148061 
1697	 0.227691163058556 
1698	 0.227588774323867 
1699	 0.227491410827051 
1700	 0.227365298126466 
1701	 0.227293737354109 
1702	 0.22726801940266 
1703	 0.227210570860235 
1704	 0.227182007309963 
1705	 0.227115812508115 
1706	 0.227003204019063 
1707	 0.226918538170684 
1708	 0.226841613809198 
1709	 0.226754419283127 
1710	 0.226659202490042 
1711	 0.226582374204711 
1712	 0.226503642106662 
1713	 0.226436738355667 
1714	 0.226397975644537 
1715	 0.226337395320774 
1716	 0.226260852492039 
1717	 0.226202937750788 
1718	 0.2261603828888 
1719	 0.22609281092984 
1720	 0.226028963182526 
1721	 0.225948584798393 
1722	 0.225844245188603 
1723	 0.225736577318766 
1724	 0.225627111063915 
1725	 0.225503072018065 
1726	 0.225349178539689 
1727	 0.22521825477427 
1728	 0.225092575728828 
1729	 0.224970246721183 
1730	 0.224855589104203 
1731	 0.224749540418009 
1732	 0.22465851115666 
1733	 0.224536119712221 
1734	 0.224407807244647 
1735	 0.224273384897461 
1736	 0.224100430395307 
1737	 0.223980532990404 
1738	 0.223893339057699 
1739	 0.2237865412297 
1740	 0.223702910902223 
1741	 0.223575704701921 
1742	 0.223419383277932 
1743	 0.223280112225002 
1744	 0.223133469816967 
1745	 0.222977485957449 
1746	 0.222811922424398 
1747	 0.222648642294542 
1748	 0.222504594640081 
1749	 0.222374836200193 
1750	 0.222262071089632 
1751	 0.222157686473025 
1752	 0.222067362474653 
1753	 0.221969214523264 
1754	 0.221862892269043 
1755	 0.221731123290022 
1756	 0.221574923320493 
1757	 0.221425867539833 
1758	 0.221287474039977 
1759	 0.221135918390955 
1760	 0.220984201552723 
1761	 0.220859367277089 
1762	 0.220717188168702 
1763	 0.22060005566384 
1764	 0.220494455351573 
1765	 0.220331722591803 
1766	 0.22021115562546 
1767	 0.220099096586129 
1768	 0.219959243789116 
1769	 0.219858296719817 
1770	 0.219723992936673 
1771	 0.219581430596086 
1772	 0.219466009842921 
1773	 0.219333050836438 
1774	 0.219209383052874 
1775	 0.219099119989702 
1776	 0.218973657913591 
1777	 0.218847756231864 
1778	 0.218748426402409 
1779	 0.218648864584563 
1780	 0.218553175324942 
1781	 0.218467918759124 
1782	 0.218381125526306 
1783	 0.218252377954361 
1784	 0.218143940689526 
1785	 0.218048887799463 
1786	 0.217945717811794 
1787	 0.217845231197927 
1788	 0.217754612979937 
1789	 0.217655855320711 
1790	 0.217570312987251 
1791	 0.217509398182556 
1792	 0.217436104671977 
1793	 0.217373179247619 
1794	 0.217275872168631 
1795	 0.217138908854019 
1796	 0.217038983869063 
1797	 0.216921133048347 
1798	 0.216860804539273 
1799	 0.216873530643278 
1800	 0.216815150830186 
1801	 0.209885356020347 
1802	 0.209823000109568 
1803	 0.209736243053528 
1804	 0.209692690852245 
1805	 0.209658348357297 
1806	 0.209625169084491 
1807	 0.209576062454137 
1808	 0.209532586875185 
1809	 0.209494504399453 
1810	 0.209449651223357 
1811	 0.209385434999522 
1812	 0.209364243021374 
1813	 0.209325493109723 
1814	 0.209257177541972 
1815	 0.20920502039426 
1816	 0.209161765343251 
1817	 0.209109842096319 
1818	 0.209049902454039 
1819	 0.208997700296577 
1820	 0.208956688676875 
1821	 0.208891936227406 
1822	 0.208814601188883 
1823	 0.208776552392327 
1824	 0.208716859723874 
1825	 0.208627120141507 
1826	 0.208556855934131 
1827	 0.208472285996957 
1828	 0.208363898200231 
1829	 0.208238518962732 
1830	 0.208115235982015 
1831	 0.207983839478112 
1832	 0.207818389227883 
1833	 0.207661562416548 
1834	 0.207483166031671 
1835	 0.207277407578986 
1836	 0.207091084929872 
1837	 0.206896666628983 
1838	 0.206707439474385 
1839	 0.206516423765911 
1840	 0.206326948199006 
1841	 0.206122046429638 
1842	 0.205936222611719 
1843	 0.205734061577292 
1844	 0.205511688557446 
1845	 0.205290685467521 
1846	 0.205070835449026 
1847	 0.204866347155212 
1848	 0.204678306639321 
1849	 0.204497159843224 
1850	 0.20430418205456 
1851	 0.204101200304709 
1852	 0.203903358332882 
1853	 0.203725111479773 
1854	 0.203538092877384 
1855	 0.203372110793989 
1856	 0.203189328169522 
1857	 0.202959263352009 
1858	 0.202714845011573 
1859	 0.202462306324965 
1860	 0.202196188208626 
1861	 0.201911562198776 
1862	 0.201619017318014 
1863	 0.201331321564961 
1864	 0.201000002047519 
1865	 0.200642924017732 
1866	 0.200283319870919 
1867	 0.199874603536581 
1868	 0.199450457493204 
1869	 0.198981482470598 
1870	 0.198448407569897 
1871	 0.197866439365514 
1872	 0.197240026260834 
1873	 0.196555409376129 
1874	 0.195810050051529 
1875	 0.195002907413535 
1876	 0.194150830601482 
1877	 0.193218737812569 
1878	 0.192228784987469 
1879	 0.191175230709463 
1880	 0.190048558145259 
1881	 0.188832263237048 
1882	 0.187584807498329 
1883	 0.186283081192646 
1884	 0.184903978964554 
1885	 0.183476361044679 
1886	 0.181965572004273 
1887	 0.18039310601396 
1888	 0.178794392720905 
1889	 0.177128231176936 
1890	 0.175418258968143 
1891	 0.173695359857175 
1892	 0.171898264641223 
1893	 0.170116111985576 
1894	 0.168309963068701 
1895	 0.16653817446636 
1896	 0.164731460909757 
1897	 0.163003800061005 
1898	 0.161338435814938 
1899	 0.159676923551008 
1900	 0.158103052668599 
1901	 0.156598105123777 
1902	 0.155163144968525 
1903	 0.153813632869998 
1904	 0.152516308049009 
1905	 0.151272239377034 
1906	 0.150123253198664 
1907	 0.149045078902073 
1908	 0.148035859938292 
1909	 0.147138907210191 
1910	 0.146292084448083 
1911	 0.145489290709015 
1912	 0.144762816229057 
1913	 0.144063319484098 
1914	 0.14339666378094 
1915	 0.14278613823393 
1916	 0.142223606287828 
1917	 0.141699642863821 
1918	 0.141231283713264 
1919	 0.140819479746742 
1920	 0.140463238987237 
1921	 0.140160169727793 
1922	 0.139895722923665 
1923	 0.139680169295268 
1924	 0.139476411759408 
1925	 0.139297604719607 
1926	 0.139139537410632 
1927	 0.139005977114183 
1928	 0.13888847109975 
1929	 0.138800625057192 
1930	 0.138743066555408 
1931	 0.138715344827527 
1932	 0.138718819302394 
1933	 0.138729297721912 
1934	 0.138781382966231 
1935	 0.13884649767459 
1936	 0.138925847297379 
1937	 0.139028246268152 
1938	 0.139161048448929 
1939	 0.139298397522601 
1940	 0.139446633451046 
1941	 0.139619611896214 
1942	 0.139808323537464 
1943	 0.140008291701809 
1944	 0.140217529902017 
1945	 0.140443072457827 
1946	 0.140662017419687 
1947	 0.140872663480037 
1948	 0.141108254211117 
1949	 0.141355274046508 
1950	 0.141603707423658 
1951	 0.141858929155214 
1952	 0.142137484756044 
1953	 0.142416888140641 
1954	 0.14269826785313 
1955	 0.142995595989257 
1956	 0.143288864944961 
1957	 0.143578995715243 
1958	 0.143849905607003 
1959	 0.144156281765573 
1960	 0.14447969994254 
1961	 0.14480358899229 
1962	 0.145141437223936 
1963	 0.145488243634248 
1964	 0.145832598901365 
1965	 0.146188181290882 
1966	 0.14658820281675 
1967	 0.147002291308256 
1968	 0.147396190120093 
1969	 0.147808297941763 
1970	 0.148191423275181 
1971	 0.148541969119464 
1972	 0.148911656921752 
1973	 0.14926990165538 
1974	 0.149646561326903 
1975	 0.150037735320139 
1976	 0.15043318204699 
1977	 0.150808451751772 
1978	 0.151198210886668 
1979	 0.151600895603864 
1980	 0.151992593107983 
1981	 0.152385746815538 
1982	 0.15279839453254 
1983	 0.153195452603052 
1984	 0.153572768170467 
1985	 0.153960387253756 
1986	 0.154365237541021 
1987	 0.154744442415029 
1988	 0.155109272797112 
1989	 0.155467278971735 
1990	 0.155827116853859 
1991	 0.156201320728216 
1992	 0.15658353657339 
1993	 0.15699724948881 
1994	 0.157380610070747 
1995	 0.157756001588159 
1996	 0.158127308586753 
1997	 0.158480499344 
1998	 0.15884550928525 
1999	 0.159222248458615 
2000	 0.159583072077279 
2001	 0.159936918576729 
2002	 0.160289079284343 
2003	 0.160648258160306 
2004	 0.161012409073867 
2005	 0.161364378205874 
2006	 0.161726032999528 
2007	 0.162075010529179 
2008	 0.162397898237837 
2009	 0.162740738145233 
2010	 0.163103873879164 
2011	 0.163443700375666 
2012	 0.163779523258787 
2013	 0.164106935266664 
2014	 0.164414969283026 
2015	 0.164728986383598 
2016	 0.165036713596384 
2017	 0.165338429563974 
2018	 0.165656104293101 
2019	 0.16597891704068 
2020	 0.166300154046719 
2021	 0.166638600079299 
2022	 0.166961335981148 
2023	 0.167277076991757 
2024	 0.167587730203245 
2025	 0.167901538562664 
2026	 0.168198517742929 
2027	 0.168480199842207 
2028	 0.1687572340399 
2029	 0.169031456281434 
2030	 0.169291690446231 
2031	 0.169558163183714 
2032	 0.169823737743484 
2033	 0.170094547319237 
2034	 0.170374879432968 
2035	 0.170638809447753 
2036	 0.170907390089338 
2037	 0.171153989196918 
2038	 0.171373192088335 
2039	 0.171600175935164 
2040	 0.171811032429088 
2041	 0.172042193810733 
2042	 0.172269391942142 
2043	 0.172472881304751 
2044	 0.172682108485255 
2045	 0.17287891849238 
2046	 0.17308786598123 
2047	 0.173302110926639 
2048	 0.173514669870596 
2049	 0.173733303485542 
2050	 0.173944636657728 
2051	 0.174157408267794 
2052	 0.174358618651385 
2053	 0.17455004734825 
2054	 0.17474223057684 
2055	 0.174925777644646 
2056	 0.17510998699558 
2057	 0.175291692692536 
2058	 0.175477661329692 
2059	 0.175647512397126 
2060	 0.17579652219323 
2061	 0.175973080650935 
2062	 0.176167391488853 
2063	 0.176334472260715 
2064	 0.17650864546375 
2065	 0.176667735789688 
2066	 0.176775627253901 
2067	 0.176924755844875 
2068	 0.177112537150206 
2069	 0.177278701697205 
2070	 0.177420685287846 
2071	 0.177565522585812 
2072	 0.177687150443653 
2073	 0.177746077370538 
2074	 0.177876895017449 
2075	 0.178041146431569 
2076	 0.178189904582556 
2077	 0.17836799297958 
2078	 0.178525268328305 
2079	 0.178657793220325 
2080	 0.178806089293274 
2081	 0.178964576322556 
2082	 0.179117385858466 
2083	 0.179278995581746 
2084	 0.179425568450583 
2085	 0.179570885189734 
2086	 0.179709480087198 
2087	 0.179848529511797 
2088	 0.179982114803321 
2089	 0.18011974617817 
2090	 0.180262489108984 
2091	 0.180392937198972 
2092	 0.18050662238676 
2093	 0.180642842506278 
2094	 0.180795128169454 
2095	 0.180927630495956 
2096	 0.181062366550999 
2097	 0.181196661455128 
2098	 0.181304004175837 
2099	 0.181420532888074 
2100	 0.181570121475633 
2101	 0.181753589600602 
2102	 0.181912042591246 
2103	 0.182083609038536 
2104	 0.182241652509697 
2105	 0.182389946399277 
2106	 0.182534036015806 
2107	 0.182680540266998 
2108	 0.182815460793208 
2109	 0.182931516600707 
2110	 0.183050413701748 
2111	 0.183152363044301 
2112	 0.18327781861292 
2113	 0.183418840728647 
2114	 0.183559996188467 
2115	 0.183682938881263 
2116	 0.183808152460946 
2117	 0.183936167820891 
2118	 0.184054474250755 
2119	 0.184162774956877 
2120	 0.18428035392287 
2121	 0.184384724193103 
2122	 0.184460115018324 
2123	 0.184547652183731 
2124	 0.184637232356615 
2125	 0.184736715091962 
2126	 0.184841602305171 
2127	 0.184937966197425 
2128	 0.185048934671077 
2129	 0.185146233291058 
2130	 0.185233399487122 
2131	 0.185311208513205 
2132	 0.185371422483753 
2133	 0.185423937987486 
2134	 0.185462216707896 
2135	 0.185481034475078 
2136	 0.185489339568392 
2137	 0.185480370291005 
2138	 0.185476456331032 
2139	 0.185462574384502 
2140	 0.185444854643998 
2141	 0.185437431764165 
2142	 0.185408647528407 
2143	 0.185360709233408 
2144	 0.185306246926839 
2145	 0.185248185344571 
2146	 0.185172640964008 
2147	 0.185077581748132 
2148	 0.184976074327984 
2149	 0.184878784365763 
2150	 0.184771467213003 
2151	 0.184664550403924 
2152	 0.184566222908321 
2153	 0.184450691339466 
2154	 0.184325252619736 
2155	 0.184191476507919 
2156	 0.184044464887335 
2157	 0.183902343332957 
2158	 0.183751793109938 
2159	 0.183601848552008 
2160	 0.183466926726138 
2161	 0.183308307302201 
2162	 0.183136777892145 
2163	 0.182957827676386 
2164	 0.18276643675802 
2165	 0.18255651811119 
2166	 0.182360997839327 
2167	 0.182160118494877 
2168	 0.181976750630083 
2169	 0.18180978967172 
2170	 0.181627764120071 
2171	 0.181453069692333 
2172	 0.181262053672418 
2173	 0.181053076262741 
2174	 0.18084838173542 
2175	 0.180631678942973 
2176	 0.180433623958125 
2177	 0.180252397268777 
2178	 0.180053269133675 
2179	 0.179858269918946 
2180	 0.179656983267558 
2181	 0.179441185615958 
2182	 0.179222355734877 
2183	 0.179016078719482 
2184	 0.178777176802725 
2185	 0.178553332054132 
2186	 0.178315000485282 
2187	 0.17809859625684 
2188	 0.177899062428356 
2189	 0.177688262464734 
2190	 0.177485950197219 
2191	 0.177267858099218 
2192	 0.177013443463966 
2193	 0.176813654557654 
2194	 0.17661922475593 
2195	 0.176455927041369 
2196	 0.176365608594353 
2197	 0.176231052961181 
2198	 0.176077773190991 
2199	 0.175945518826097 
2200	 0.175801830902634 
2201	 0.175674593744512 
2202	 0.175577402468026 
2203	 0.175488096771216 
2204	 0.175365627296012 
2205	 0.17521859225981 
2206	 0.175107830934153 
2207	 0.174985293833343 
2208	 0.174894551629982 
2209	 0.174840554563995 
2210	 0.174787756170402 
2211	 0.174744733819004 
2212	 0.17470149649569 
2213	 0.174684735310523 
2214	 0.174645451023316 
2215	 0.174567611511221 
2216	 0.174545013776718 
2217	 0.174557862598071 
2218	 0.174547028387513 
2219	 0.174585083264242 
2220	 0.174570894284676 
2221	 0.174496881430065 
2222	 0.174447644725374 
2223	 0.174374930208844 
2224	 0.17428212149329 
2225	 0.174229938935211 
2226	 0.17418172714295 
2227	 0.17416118452823 
2228	 0.174190861931489 
2229	 0.174170712824511 
2230	 0.174147360203723 
2231	 0.174117624461045 
2232	 0.174060959285624 
2233	 0.174014633274358 
2234	 0.173995616429038 
2235	 0.173924800147791 
2236	 0.173821906740239 
2237	 0.173720169073093 
2238	 0.173598757413338 
2239	 0.173464072212934 
2240	 0.173327389564075 
2241	 0.173170769133587 
2242	 0.172980565024142 
2243	 0.172789844061794 
2244	 0.172591282746842 
2245	 0.17239113715909 
2246	 0.172163285327663 
2247	 0.17193553114442 
2248	 0.171672269306688 
2249	 0.171382209084307 
2250	 0.171082083425642 
2251	 0.170753553426293 
2252	 0.170431388617637 
2253	 0.170091959936334 
2254	 0.16976384387372 
2255	 0.169405934716245 
2256	 0.169115059232986 
2257	 0.168850512490371 
2258	 0.168611491022162 
2259	 0.168416036509843 
2260	 0.16824781784414 
2261	 0.168083170136879 
2262	 0.167978984760207 
2263	 0.167938498574781 
2264	 0.167907348991865 
2265	 0.167913086950332 
2266	 0.167941385761607 
2267	 0.168014989943823 
2268	 0.168073231872435 
2269	 0.168135157304275 
2270	 0.168230985631435 
2271	 0.168293421118527 
2272	 0.168366849707037 
2273	 0.168484355232996 
2274	 0.168616622763347 
2275	 0.168758002868237 
2276	 0.168925762770908 
2277	 0.169089391170265 
2278	 0.169243807713405 
2279	 0.169434037552183 
2280	 0.169663838136546 
2281	 0.169869248019276 
2282	 0.170099219566138 
2283	 0.170294334063515 
2284	 0.170467041234826 
2285	 0.17062710004944 
2286	 0.170785671775679 
2287	 0.170904916686979 
2288	 0.170997046436674 
2289	 0.171062614983247 
2290	 0.171076453605033 
2291	 0.171107690921109 
2292	 0.171131344225153 
2293	 0.171142457666977 
2294	 0.171147798265118 
2295	 0.171150253571686 
2296	 0.171130411098633 
2297	 0.171105548488481 
2298	 0.171149172110234 
2299	 0.171206211769208 
2300	 0.171267866929379 
2301	 0.171376763527379 
2302	 0.171434576145123 
2303	 0.17144543816587 
2304	 0.171454535111655 
2305	 0.171452775920903 
2306	 0.171434438130764 
2307	 0.17138976944263 
2308	 0.171362761659724 
2309	 0.171325846886497 
2310	 0.171295028461378 
2311	 0.171259877381554 
2312	 0.171254804624553 
2313	 0.171275482391447 
2314	 0.171271210520472 
2315	 0.17130101625473 
2316	 0.171286936363449 
2317	 0.171224391795043 
2318	 0.171163285657189 
2319	 0.171096106987487 
2320	 0.17100844075706 
2321	 0.170877654412188 
2322	 0.1707924808114 
2323	 0.170703101898075 
2324	 0.170640462067628 
2325	 0.170639296120709 
2326	 0.170604891891134 
2327	 0.170580988138792 
2328	 0.170517614479462 
2329	 0.170448877409172 
2330	 0.1703471812569 
2331	 0.170277070864272 
2332	 0.170194766454329 
2333	 0.170044818533799 
2334	 0.169901618327688 
2335	 0.169708330265735 
2336	 0.169533879893352 
2337	 0.169487353765537 
2338	 0.169434346570846 
2339	 0.16936807351379 
2340	 0.16931552456154 
2341	 0.16919038147339 
2342	 0.169062494642065 
2343	 0.16894329998674 
2344	 0.168777374384484 
2345	 0.168612741292487 
2346	 0.168422118207828 
2347	 0.168242708387773 
2348	 0.168056457114873 
2349	 0.167881787232609 
2350	 0.167697542303563 
2351	 0.167534025732038 
2352	 0.167396749763277 
2353	 0.167248217762807 
2354	 0.167126938962981 
2355	 0.166950420861637 
2356	 0.166732345473007 
2357	 0.166528209541503 
2358	 0.166301254439972 
2359	 0.166079315586519 
2360	 0.165867271382599 
2361	 0.165655883092302 
2362	 0.165433691077654 
2363	 0.165221270295269 
2364	 0.165006847430569 
2365	 0.164809227140599 
2366	 0.164639536227058 
2367	 0.164428274993474 
2368	 0.16422520571598 
2369	 0.164000827754909 
2370	 0.163739588695084 
2371	 0.163471522854404 
2372	 0.163182183348263 
2373	 0.162863753709735 
2374	 0.162622921243822 
2375	 0.162376246444598 
2376	 0.16211632212251 
2377	 0.161876305127579 
2378	 0.161517319088601 
2379	 0.161202465919595 
2380	 0.160959292974689 
2381	 0.160642850255495 
2382	 0.16037212341808 
2383	 0.160100290745145 
2384	 0.159811386933038 
2385	 0.15957698295328 
2386	 0.159312455598547 
2387	 0.159028268578175 
2388	 0.158687367833462 
2389	 0.158317019538425 
2390	 0.158073394832313 
2391	 0.157785447427336 
2392	 0.15748384435397 
2393	 0.157277319926069 
2394	 0.156917888334412 
2395	 0.156559249157218 
2396	 0.156275831318624 
2397	 0.155880379207133 
2398	 0.155500868525837 
2399	 0.155196102172046 
2400	 0.154861556150392 
2401	 0.154574275843535 
2402	 0.154396210782856 
2403	 0.154135555749619 
2404	 0.153817855133877 
2405	 0.153573899341255 
2406	 0.153282349787598 
2407	 0.152965084890154 
2408	 0.152728965248579 
2409	 0.152410942701326 
2410	 0.152080515129897 
2411	 0.151866864649894 
2412	 0.151613333427626 
2413	 0.151423375786107 
2414	 0.151242398957678 
2415	 0.150983964893101 
2416	 0.150729004436819 
2417	 0.15041697809051 
2418	 0.15012508390295 
2419	 0.1498379352338 
2420	 0.149574710517225 
2421	 0.149333433444959 
2422	 0.149107925680871 
2423	 0.148915062579394 
2424	 0.148684357302371 
2425	 0.148436896082688 
2426	 0.148145523334466 
2427	 0.147823016305942 
2428	 0.147528458064359 
2429	 0.14723117098336 
2430	 0.146931205194924 
2431	 0.146687790032919 
2432	 0.146332088026766 
2433	 0.145815479476724 
2434	 0.145457282565229 
2435	 0.145105198496733 
2436	 0.144736717973329 
2437	 0.144491121925699 
2438	 0.144251886512655 
2439	 0.144010391780122 
2440	 0.143784337543288 
2441	 0.143629075502217 
2442	 0.143365770665127 
2443	 0.143008364214984 
2444	 0.142601420542582 
2445	 0.142071669551822 
2446	 0.141747578966499 
2447	 0.141535887532589 
2448	 0.141247607479883 
2449	 0.14112732109855 
2450	 0.140765502524243 
2451	 0.140108483101397 
2452	 0.139659421965649 
2453	 0.13925789313205 
2454	 0.138801554416519 
2455	 0.138424271269678 
2456	 0.137929286765056 
2457	 0.137204816463643 
2458	 0.136827013088296 
2459	 0.136655785961385 
2460	 0.136411240818461 
2461	 0.136313980437271 
2462	 0.136049733972754 
2463	 0.135592996153386 
2464	 0.135296850189608 
2465	 0.135146179099519 
2466	 0.134930375790465 
2467	 0.134756656998055 
2468	 0.134439927526353 
2469	 0.133956147141868 
2470	 0.133636325797232 
2471	 0.133282539199898 
2472	 0.133092773575288 
2473	 0.132811856148806 
2474	 0.1324641377994 
2475	 0.132140369794732 
2476	 0.131765909653852 
2477	 0.131624600158072 
2478	 0.131480658370329 
2479	 0.131182385958956 
2480	 0.131044478555961 
2481	 0.130745376190277 
2482	 0.130256292062059 
2483	 0.130079642780138 
2484	 0.129902462233283 
2485	 0.12970958146008 
2486	 0.129500811053505 
2487	 0.128965349385779 
2488	 0.128458489707641 
2489	 0.128073158178462 
2490	 0.127841425192208 
2491	 0.127950117831534 
2492	 0.127889260928032 
2493	 0.127418343500176 
2494	 0.127152613823342 
2495	 0.126884913920116 
2496	 0.126444123593491 
2497	 0.126406368527443 
2498	 0.126303618614414 
2499	 0.125921401494778 
2500	 0.125840154757798 
