Wavelength	LMW_2200005.asd
350	 7.07402227796965E-02 
351	 7.74984701791595E-02 
352	 7.30475208025085E-02 
353	 5.74551465294562E-02 
354	 0.069296892635458 
355	 7.32015950910537E-02 
356	 6.92007701802811E-02 
357	 6.64154397071634E-02 
358	 7.22336245207986E-02 
359	 6.84252878809994E-02 
360	 6.01915571253606E-02 
361	 6.54674305399433E-02 
362	 6.18021515655934E-02 
363	 6.15239713389661E-02 
364	 6.86355977098479E-02 
365	 6.80738316686027E-02 
366	 6.44312911519768E-02 
367	 6.23817183894955E-02 
368	 6.46488264991745E-02 
369	 6.66038639136318E-02 
370	 6.48067626185546E-02 
371	 6.28843514255066E-02 
372	 6.79147037175786E-02 
373	 6.92763100380411E-02 
374	 6.94747450349368E-02 
375	 7.01575762197839E-02 
376	 6.82091738450776E-02 
377	 6.73562685616229E-02 
378	 6.78413844801227E-02 
379	 6.87880525322417E-02 
380	 7.00029005121984E-02 
381	 6.87582742370415E-02 
382	 6.75077533501138E-02 
383	 0.071761467270255 
384	 7.40403093916164E-02 
385	 7.22089201970474E-02 
386	 6.88543287528762E-02 
387	 7.42012447713451E-02 
388	 7.58097501590598E-02 
389	 7.42281447772746E-02 
390	 0.073913766636338 
391	 0.076391313501314 
392	 7.72586573848167E-02 
393	 0.07770233118673 
394	 8.30674446315393E-02 
395	 8.31526692848116E-02 
396	 8.21701636665289E-02 
397	 8.37397777967598E-02 
398	 8.50257860041815E-02 
399	 8.70145633381803E-02 
400	 8.88187091899591E-02 
401	 8.92334578910276E-02 
402	 8.88012330877111E-02 
403	 8.93400121671359E-02 
404	 9.08930109555888E-02 
405	 9.17560379654111E-02 
406	 9.37523154279719E-02 
407	 9.58549596126533E-02 
408	 9.69654910891941E-02 
409	 9.70340801126285E-02 
410	 9.78141815787351E-02 
411	 9.93442757104653E-02 
412	 0.100684523563852 
413	 0.1005303561985 
414	 9.98672651446672E-02 
415	 9.99312456616774E-02 
416	 0.102037430971756 
417	 0.102395469923336 
418	 0.102132547334829 
419	 0.102697370501291 
420	 0.102161596518762 
421	 0.101703244957965 
422	 0.101464246818911 
423	 0.100940951610944 
424	 0.100732304274704 
425	 0.100388886284997 
426	 9.96231608114063E-02 
427	 9.86102282120803E-02 
428	 9.77959465354743E-02 
429	 9.70649120379527E-02 
430	 9.62119581292263E-02 
431	 9.57104096657067E-02 
432	 9.48497624412789E-02 
433	 0.093878846351018 
434	 9.39292665642576E-02 
435	 9.37328140397439E-02 
436	 9.35397616736327E-02 
437	 9.37039294020331E-02 
438	 9.40485099074459E-02 
439	 9.46600116534354E-02 
440	 9.53762367433144E-02 
441	 9.59686010741153E-02 
442	 9.67255386913753E-02 
443	 9.76099426816577E-02 
444	 9.84526835551656E-02 
445	 9.89131559280539E-02 
446	 9.98161527930297E-02 
447	 0.100836203318925 
448	 0.101510523966009 
449	 0.102298244098663 
450	 0.103339626887623 
451	 0.104479941227895 
452	 0.105336153534187 
453	 0.105784483268726 
454	 0.106375227747957 
455	 0.107362545332488 
456	 0.108017994992412 
457	 0.108472939566197 
458	 0.108948465086921 
459	 0.109656863550036 
460	 0.11032513902935 
461	 0.110610038006526 
462	 0.110669010303391 
463	 0.111350907304941 
464	 0.111770424505868 
465	 0.112100023045983 
466	 0.112642703980774 
467	 0.1130376355815 
468	 0.113210926921186 
469	 0.113236098733493 
470	 0.113308194851617 
471	 0.113646144135482 
472	 0.113897326507199 
473	 0.113907037845424 
474	 0.114213500485849 
475	 0.114612385909196 
476	 0.114778267485808 
477	 0.114499645789462 
478	 0.114823420751994 
479	 0.115172473141787 
480	 0.11523608656239 
481	 0.115266967997975 
482	 0.115354234401516 
483	 0.115634112358409 
484	 0.116096256827679 
485	 0.116186526402437 
486	 0.116140971886553 
487	 0.116077870276691 
488	 0.116010418892922 
489	 0.116174004716203 
490	 0.116454293707944 
491	 0.116706652205202 
492	 0.116899906380057 
493	 0.116857959292974 
494	 0.116825658450521 
495	 0.117145073329723 
496	 0.117209559704439 
497	 0.117287365707429 
498	 0.117529297884109 
499	 0.117804305837774 
500	 0.117739212044568 
501	 0.117683672206993 
502	 0.117999520128722 
503	 0.118092509387764 
504	 0.11805374914502 
505	 0.118036069723831 
506	 0.118211563682298 
507	 0.118434397606808 
508	 0.118635668462316 
509	 0.118783443681016 
510	 0.118907204962687 
511	 0.118924972698258 
512	 0.118897976531494 
513	 0.118957049872025 
514	 0.119112474652893 
515	 0.119200079662036 
516	 0.119184193320345 
517	 0.119275338307805 
518	 0.119390101487447 
519	 0.119503879741924 
520	 0.119608892358497 
521	 0.1196987840766 
522	 0.119832999008989 
523	 0.11998943203057 
524	 0.120060203443372 
525	 0.120050120457188 
526	 0.120067714817065 
527	 0.120200255596783 
528	 0.120418592652955 
529	 0.120503230068697 
530	 0.120520648707742 
531	 0.120698296787786 
532	 0.120739615367667 
533	 0.120797096387005 
534	 0.120959259639538 
535	 0.121050096692059 
536	 0.121161786865618 
537	 0.12126328988015 
538	 0.12130569297474 
539	 0.12143990477062 
540	 0.121560905915141 
541	 0.121662195196634 
542	 0.121896364891864 
543	 0.122051699345015 
544	 0.122128058231485 
545	 0.122212638742823 
546	 0.122489046917344 
547	 0.122736856455172 
548	 0.12290923772846 
549	 0.123114006696537 
550	 0.123301333370138 
551	 0.123499661732447 
552	 0.123743869799242 
553	 0.124061867985839 
554	 0.124353561847247 
555	 0.124622428238533 
556	 0.124923468839864 
557	 0.125211733262584 
558	 0.125615182701858 
559	 0.126135724308826 
560	 0.126525081856924 
561	 0.126922232216246 
562	 0.12736405963247 
563	 0.127854371714787 
564	 0.128407380908163 
565	 0.128904398466146 
566	 0.129320046106068 
567	 0.129741231108295 
568	 0.130418413472702 
569	 0.131207639783303 
570	 0.131927586215752 
571	 0.132629199354224 
572	 0.133386134471757 
573	 0.13418887152941 
574	 0.134979380891732 
575	 0.135911100865355 
576	 0.136880162824148 
577	 0.137797445446079 
578	 0.138703043184189 
579	 0.139556919816732 
580	 0.140277799174593 
581	 0.140827353158083 
582	 0.141547102270505 
583	 0.142346417593548 
584	 0.143198969702366 
585	 0.14423223762591 
586	 0.145370373935556 
587	 0.14656406563156 
588	 0.147768406859519 
589	 0.148942365989268 
590	 0.150158498140916 
591	 0.15142925885811 
592	 0.152712406099823 
593	 0.154000914731382 
594	 0.155296037107524 
595	 0.156554851625428 
596	 0.157614054597308 
597	 0.158565455688582 
598	 0.15943402221519 
599	 0.16023581033061 
600	 0.16118092171608 
601	 0.162120584155028 
602	 0.162965056426374 
603	 0.163805337394028 
604	 0.164723867039649 
605	 0.16566208429406 
606	 0.166521129435683 
607	 0.167304866702357 
608	 0.168145972379026 
609	 0.169051353111075 
610	 0.169877245939282 
611	 0.170600530025237 
612	 0.171258816482713 
613	 0.171882055489056 
614	 0.172406367373998 
615	 0.172908488529681 
616	 0.173413556171587 
617	 0.173904065457347 
618	 0.174366804813719 
619	 0.174774386825377 
620	 0.175143276840497 
621	 0.175591525068922 
622	 0.175999428733655 
623	 0.176355332283729 
624	 0.176692302249785 
625	 0.177024425973677 
626	 0.177353977451236 
627	 0.17768834080156 
628	 0.178045206682173 
629	 0.178301568136679 
630	 0.178549434706456 
631	 0.178880491134713 
632	 0.17913234276488 
633	 0.179393400527999 
634	 0.179674478947331 
635	 0.179922034062215 
636	 0.180159167418722 
637	 0.180410498175836 
638	 0.180685008213328 
639	 0.180955057530248 
640	 0.181228625664869 
641	 0.181493764448087 
642	 0.181738415195472 
643	 0.18201915509474 
644	 0.182293388333846 
645	 0.182549165124536 
646	 0.18283297781005 
647	 0.183119166637343 
648	 0.183384377828172 
649	 0.183620636735759 
650	 0.183878775645604 
651	 0.184141294876353 
652	 0.184410122401647 
653	 0.184703323319921 
654	 0.18498685036446 
655	 0.185280567478616 
656	 0.185596255078329 
657	 0.185898388204291 
658	 0.186204657239791 
659	 0.186547661438167 
660	 0.186948467806513 
661	 0.187296900687848 
662	 0.187588748669598 
663	 0.187888976757818 
664	 0.188347165158277 
665	 0.188744342536488 
666	 0.189080669576393 
667	 0.189417695483113 
668	 0.189770253619607 
669	 0.190173896466583 
670	 0.19061161334473 
671	 0.191025201649296 
672	 0.191452783676314 
673	 0.191895570469946 
674	 0.19234432999014 
675	 0.192780127593137 
676	 0.193223755770571 
677	 0.193655224845227 
678	 0.194060199605085 
679	 0.194585090997576 
680	 0.195107973637874 
681	 0.195567046093192 
682	 0.196008506142189 
683	 0.196535093448668 
684	 0.197057573918191 
685	 0.197507645652826 
686	 0.198097632264331 
687	 0.198670657700504 
688	 0.199160392296278 
689	 0.199584632901425 
690	 0.200103575232006 
691	 0.200628085423523 
692	 0.201114890438812 
693	 0.20169299905943 
694	 0.202285099631196 
695	 0.202817134096127 
696	 0.203262362153792 
697	 0.203844319457383 
698	 0.204432177147067 
699	 0.204971512956443 
700	 0.205511104403479 
701	 0.206045353927663 
702	 0.206583732147633 
703	 0.207127080111805 
704	 0.207650492403251 
705	 0.208146280862215 
706	 0.208630970683564 
707	 0.20913134649937 
708	 0.209643843671531 
709	 0.210184850633297 
710	 0.210725976729696 
711	 0.211173885504206 
712	 0.211639422132174 
713	 0.212114737593816 
714	 0.212575249797258 
715	 0.213075472195468 
716	 0.21350402605071 
717	 0.213887601910301 
718	 0.214342079173891 
719	 0.214740116392625 
720	 0.215119700194702 
721	 0.215507050928749 
722	 0.215861561376158 
723	 0.216181238431745 
724	 0.216467598863826 
725	 0.216730296342029 
726	 0.216989898796561 
727	 0.217307394776455 
728	 0.217646861199615 
729	 0.21788877005127 
730	 0.218128788002186 
731	 0.218330015749902 
732	 0.218469906597004 
733	 0.218614477609834 
734	 0.218743324525803 
735	 0.218829212356195 
736	 0.218865032865761 
737	 0.218991952324135 
738	 0.21907221028024 
739	 0.219069250912455 
740	 0.219077766883904 
741	 0.219069713363027 
742	 0.219038742690581 
743	 0.218985388800158 
744	 0.21892306667115 
745	 0.218813018153288 
746	 0.218686588799069 
747	 0.218591401061465 
748	 0.218431365341538 
749	 0.218259909731373 
750	 0.218083417320951 
751	 0.217837696584523 
752	 0.217596239837974 
753	 0.217361721911384 
754	 0.217118034465039 
755	 0.216846763721371 
756	 0.216561094409331 
757	 0.216264767281383 
758	 0.215956115968837 
759	 0.215636289519115 
760	 0.21527798236683 
761	 0.214888418454848 
762	 0.214519280117081 
763	 0.214121993219624 
764	 0.213714656557411 
765	 0.213322848596042 
766	 0.212952429487463 
767	 0.21253176482423 
768	 0.212077032575839 
769	 0.211639552413834 
770	 0.211162667648642 
771	 0.210692058495275 
772	 0.210245404499051 
773	 0.209797912523544 
774	 0.209377869893612 
775	 0.208909952588392 
776	 0.208361500618963 
777	 0.207872075821551 
778	 0.207394201620852 
779	 0.206921205917172 
780	 0.206458630846968 
781	 0.205984332969958 
782	 0.205524046099682 
783	 0.205040468777951 
784	 0.204440377797849 
785	 0.203942720405594 
786	 0.203480725488983 
787	 0.202975664926247 
788	 0.202457473393954 
789	 0.201960908677407 
790	 0.201476165639951 
791	 0.200981582617543 
792	 0.200502194914452 
793	 0.200012596594946 
794	 0.199509814649327 
795	 0.199012127322965 
796	 0.198514371829226 
797	 0.198018830557669 
798	 0.197535415374021 
799	 0.19708520384981 
800	 0.196658373907252 
801	 0.196221199209249 
802	 0.195747666709236 
803	 0.195272725180518 
804	 0.194786193534539 
805	 0.194308459760195 
806	 0.193868213920925 
807	 0.1933851239037 
808	 0.192942735362814 
809	 0.192551311007167 
810	 0.192106280325555 
811	 0.191718122245188 
812	 0.191324642824884 
813	 0.190879680826725 
814	 0.190486034452225 
815	 0.190096304333225 
816	 0.189698684266903 
817	 0.189301702809282 
818	 0.188940094738676 
819	 0.188606877278083 
820	 0.188261300805783 
821	 0.187848584700623 
822	 0.187458941219044 
823	 0.187103118478933 
824	 0.186771161251413 
825	 0.186441784602443 
826	 0.186158517233113 
827	 0.185849988377784 
828	 0.18545951787671 
829	 0.18505909885008 
830	 0.184782865050053 
831	 0.184568007359477 
832	 0.184271859081713 
833	 0.183946118434887 
834	 0.183643597077131 
835	 0.183383786643531 
836	 0.183147873569673 
837	 0.182868353926723 
838	 0.182597915089755 
839	 0.182342033989666 
840	 0.181987111443698 
841	 0.1817837370329 
842	 0.181643655779425 
843	 0.181435397163157 
844	 0.181209672429314 
845	 0.181032740371981 
846	 0.180868690414457 
847	 0.180652575136963 
848	 0.180464492375165 
849	 0.180242279596893 
850	 0.180003674995625 
851	 0.179834843319111 
852	 0.179729132348109 
853	 0.179608460046396 
854	 0.179428477460144 
855	 0.179211897140416 
856	 0.179081385658229 
857	 0.179021071747713 
858	 0.178960734678865 
859	 0.178782456144134 
860	 0.178677605410251 
861	 0.178585379262844 
862	 0.178406515246969 
863	 0.178294061068229 
864	 0.178216230228564 
865	 0.178155012813423 
866	 0.178099411585555 
867	 0.178007164140444 
868	 0.177971967969731 
869	 0.177974014226017 
870	 0.17788155872222 
871	 0.177821456496917 
872	 0.177811138843993 
873	 0.177828452533632 
874	 0.177820684418059 
875	 0.177769583849184 
876	 0.177750543013162 
877	 0.177789699664907 
878	 0.177716313992401 
879	 0.17768062913526 
880	 0.177727249642785 
881	 0.177828079174453 
882	 0.177838019466792 
883	 0.177860713032453 
884	 0.177894501252167 
885	 0.177895244161384 
886	 0.177963338047751 
887	 0.178037869815852 
888	 0.178100804808002 
889	 0.178178733510378 
890	 0.178260421140588 
891	 0.178297531333372 
892	 0.178307459295246 
893	 0.178387850796628 
894	 0.17849538411473 
895	 0.178654239905995 
896	 0.178862170430628 
897	 0.179054694013609 
898	 0.179151670087668 
899	 0.179244416820439 
900	 0.179416690752473 
901	 0.179606914882566 
902	 0.179743806077674 
903	 0.17985701048445 
904	 0.180007120038519 
905	 0.180216763204203 
906	 0.180381480024346 
907	 0.180509372912843 
908	 0.180661207520806 
909	 0.180834474369908 
910	 0.181062569894105 
911	 0.181312425990874 
912	 0.181516318445383 
913	 0.181691650715604 
914	 0.181899075787127 
915	 0.182151956852797 
916	 0.182413762445227 
917	 0.182640514177643 
918	 0.182890361886581 
919	 0.183185358803987 
920	 0.183488214976694 
921	 0.183785050380654 
922	 0.18405146444852 
923	 0.184302298023318 
924	 0.184605638910687 
925	 0.184927317320443 
926	 0.185268151040794 
927	 0.185598206771469 
928	 0.185824403138629 
929	 0.186020158643592 
930	 0.186323212610187 
931	 0.18675212491664 
932	 0.187023850334081 
933	 0.187467472089062 
934	 0.187967474908484 
935	 0.188327330627365 
936	 0.188510876941621 
937	 0.188759531533596 
938	 0.189101844133149 
939	 0.18949581187326 
940	 0.189966177797438 
941	 0.190386725018372 
942	 0.1908307760899 
943	 0.191346587872258 
944	 0.19154205289749 
945	 0.191866013774216 
946	 0.192312922457848 
947	 0.192694479921704 
948	 0.193090819193382 
949	 0.193456137633163 
950	 0.193851704177194 
951	 0.194356046634026 
952	 0.194856951272867 
953	 0.195309517830366 
954	 0.195728450893503 
955	 0.196163130584332 
956	 0.196647355629199 
957	 0.197065160652365 
958	 0.197443929651447 
959	 0.197897167343032 
960	 0.19847152646898 
961	 0.198845720414625 
962	 0.199159407220455 
963	 0.199754249972991 
964	 0.200194623742657 
965	 0.200654052776856 
966	 0.201179003236443 
967	 0.201703055606255 
968	 0.202204605706691 
969	 0.202709081381772 
970	 0.20319252927677 
971	 0.203606065063103 
972	 0.203964192285027 
973	 0.204447199043806 
974	 0.204979465685063 
975	 0.205374656860312 
976	 0.20592498729253 
977	 0.206462847485041 
978	 0.206910990124571 
979	 0.20730598620298 
980	 0.207806703586157 
981	 0.208320058600798 
982	 0.208823023792488 
983	 0.209354840874188 
984	 0.209990809518444 
985	 0.210375432796789 
986	 0.210651978109589 
987	 0.211157003086366 
988	 0.211589705347596 
989	 0.21199603950302 
990	 0.212472415613348 
991	 0.213062033789706 
992	 0.213511842283192 
993	 0.213904339467974 
994	 0.214391426104454 
995	 0.215028919751062 
996	 0.215439514361994 
997	 0.215710892654315 
998	 0.215999965006356 
999	 0.216462273075966 
1000	 0.217181735344939 
1001	 0.2158009940386 
1002	 0.21621283328451 
1003	 0.216605124771524 
1004	 0.217010989879342 
1005	 0.217421527386401 
1006	 0.217797322791323 
1007	 0.218174147878627 
1008	 0.218506426411316 
1009	 0.218857892211798 
1010	 0.219232917314602 
1011	 0.219632341594877 
1012	 0.220087859349614 
1013	 0.220502131524298 
1014	 0.220836100777298 
1015	 0.221168304326029 
1016	 0.221499413947236 
1017	 0.221820460430563 
1018	 0.2221177816339 
1019	 0.222432731291907 
1020	 0.222786389114747 
1021	 0.223143801026681 
1022	 0.223484889766545 
1023	 0.223801329010756 
1024	 0.224064090640338 
1025	 0.224279399967854 
1026	 0.224522200144778 
1027	 0.224810358186163 
1028	 0.225057894238237 
1029	 0.225314671174416 
1030	 0.225654076423671 
1031	 0.22595376789185 
1032	 0.226242937612125 
1033	 0.226522425549387 
1034	 0.226847999488987 
1035	 0.22708323611308 
1036	 0.227249894907488 
1037	 0.22750092351943 
1038	 0.227750570566582 
1039	 0.227939921457806 
1040	 0.228164339663808 
1041	 0.228397446506031 
1042	 0.228575581524117 
1043	 0.228735220597262 
1044	 0.228925236084627 
1045	 0.229131327015702 
1046	 0.22934401322854 
1047	 0.229531379276313 
1048	 0.229740739112712 
1049	 0.229943655872264 
1050	 0.23010111610197 
1051	 0.230283804096986 
1052	 0.230518345071296 
1053	 0.230758034190908 
1054	 0.230986815081228 
1055	 0.231249810234481 
1056	 0.231502627166437 
1057	 0.231723360351982 
1058	 0.231905800386962 
1059	 0.232115904968795 
1060	 0.232323802091969 
1061	 0.232513202624975 
1062	 0.232708262365511 
1063	 0.232969399395485 
1064	 0.233198188933906 
1065	 0.23341434663449 
1066	 0.233667611375792 
1067	 0.233871796707732 
1068	 0.234041000224888 
1069	 0.234235809228343 
1070	 0.234444207302925 
1071	 0.234662247316721 
1072	 0.234858396086641 
1073	 0.235051562396334 
1074	 0.23524961940156 
1075	 0.235413504160897 
1076	 0.235637832765972 
1077	 0.235856591888275 
1078	 0.236050797866332 
1079	 0.236219156452909 
1080	 0.236322996234353 
1081	 0.236448020139596 
1082	 0.236619438764208 
1083	 0.236784612466507 
1084	 0.236969155992971 
1085	 0.237142331728029 
1086	 0.237316219797923 
1087	 0.237488182343102 
1088	 0.237666726155015 
1089	 0.237820640796965 
1090	 0.237995128111845 
1091	 0.238150941546715 
1092	 0.238265258077621 
1093	 0.238428736871412 
1094	 0.238610001442569 
1095	 0.238757172973771 
1096	 0.238903548558307 
1097	 0.239068001345296 
1098	 0.23922304462919 
1099	 0.239355078134282 
1100	 0.239492440688258 
1101	 0.239652872044195 
1102	 0.239787167978358 
1103	 0.239891759414498 
1104	 0.240005723246031 
1105	 0.240155831161839 
1106	 0.240301637441585 
1107	 0.240432399583139 
1108	 0.240587079882307 
1109	 0.240742763919418 
1110	 0.240836705578912 
1111	 0.240952346819447 
1112	 0.241090095180866 
1113	 0.241200385528856 
1114	 0.241283997827992 
1115	 0.241386184622829 
1116	 0.241462673950084 
1117	 0.241566833452518 
1118	 0.241687333290606 
1119	 0.241823156223255 
1120	 0.241954077053558 
1121	 0.242107418254056 
1122	 0.242204372770952 
1123	 0.242297965096689 
1124	 0.242396120854702 
1125	 0.242464813740415 
1126	 0.242574845442627 
1127	 0.242731585297285 
1128	 0.24283037443526 
1129	 0.242918322489878 
1130	 0.243009314341137 
1131	 0.243063495234689 
1132	 0.243138356935726 
1133	 0.24324274063558 
1134	 0.243321438088854 
1135	 0.24338061656545 
1136	 0.243441546865634 
1137	 0.243528904579837 
1138	 0.243612818253139 
1139	 0.243671306775727 
1140	 0.243722270212504 
1141	 0.243789220003483 
1142	 0.243837763534515 
1143	 0.243892383847737 
1144	 0.243995041172374 
1145	 0.244039931134776 
1146	 0.244022657230368 
1147	 0.244049729536339 
1148	 0.244066910939936 
1149	 0.24410305337879 
1150	 0.244158429225388 
1151	 0.244237800164704 
1152	 0.24430479015733 
1153	 0.244365172456027 
1154	 0.244419010713408 
1155	 0.244464915715814 
1156	 0.244511122454353 
1157	 0.244553523918999 
1158	 0.244594542501433 
1159	 0.244627751672426 
1160	 0.244676098540051 
1161	 0.244729215271785 
1162	 0.244780174709718 
1163	 0.244838022212883 
1164	 0.244898548742244 
1165	 0.244957316372767 
1166	 0.24501672408402 
1167	 0.245088088410703 
1168	 0.245149984575185 
1169	 0.245221374096335 
1170	 0.245295373055197 
1171	 0.24536732699801 
1172	 0.245455161063266 
1173	 0.245515555414664 
1174	 0.2455536656296 
1175	 0.24560525725977 
1176	 0.24564109914317 
1177	 0.245697411049148 
1178	 0.245774641090569 
1179	 0.245842835030946 
1180	 0.24591977078748 
1181	 0.245986473694007 
1182	 0.246038551220858 
1183	 0.24609861256409 
1184	 0.246170589053057 
1185	 0.246247814397066 
1186	 0.246322503305975 
1187	 0.246412287974904 
1188	 0.24648826891599 
1189	 0.246562716334416 
1190	 0.24661938704569 
1191	 0.246658123519882 
1192	 0.246711096306232 
1193	 0.24675504616682 
1194	 0.246803063101072 
1195	 0.246870355273893 
1196	 0.246923748370615 
1197	 0.246952989788656 
1198	 0.247001708113438 
1199	 0.247057080427512 
1200	 0.247120846503022 
1201	 0.247174860517767 
1202	 0.247240395596513 
1203	 0.247288444433054 
1204	 0.24732140029996 
1205	 0.247358548075369 
1206	 0.247381209421635 
1207	 0.247428503274041 
1208	 0.247496753912829 
1209	 0.24754285532712 
1210	 0.247585927452958 
1211	 0.247638555292192 
1212	 0.247686789001542 
1213	 0.24772763896693 
1214	 0.247783097230784 
1215	 0.247828379789682 
1216	 0.247864221031562 
1217	 0.247873641334198 
1218	 0.247908239132953 
1219	 0.247956644129531 
1220	 0.247988660974379 
1221	 0.248019914948191 
1222	 0.2480475355734 
1223	 0.248057725927793 
1224	 0.2480859411286 
1225	 0.248126729530614 
1226	 0.248159624889028 
1227	 0.248207639600864 
1228	 0.248233512864741 
1229	 0.248236736773779 
1230	 0.248250091125613 
1231	 0.248249127859102 
1232	 0.248260815750097 
1233	 0.248280177857359 
1234	 0.248315729660712 
1235	 0.248336545220065 
1236	 0.248354850966672 
1237	 0.248378421617764 
1238	 0.248395860223336 
1239	 0.248424163059564 
1240	 0.248466597887591 
1241	 0.248499707209284 
1242	 0.248544339096492 
1243	 0.248563907521662 
1244	 0.248561879121953 
1245	 0.248571752118286 
1246	 0.248563808126856 
1247	 0.24857001795968 
1248	 0.248597905834309 
1249	 0.248613473313931 
1250	 0.248623467667558 
1251	 0.248654821727595 
1252	 0.248663786029185 
1253	 0.248662300657381 
1254	 0.248669705806311 
1255	 0.248679096964659 
1256	 0.248673889713956 
1257	 0.24865544812441 
1258	 0.248658915030724 
1259	 0.248662893646896 
1260	 0.248664738117883 
1261	 0.248694058802071 
1262	 0.248700490007764 
1263	 0.248675312194767 
1264	 0.248668198672572 
1265	 0.248669657337918 
1266	 0.248667513177566 
1267	 0.248675699276254 
1268	 0.248667503678156 
1269	 0.248667534480724 
1270	 0.248661374491645 
1271	 0.248663056990568 
1272	 0.248685019514076 
1273	 0.248669999826703 
1274	 0.248630873274045 
1275	 0.248616473701283 
1276	 0.248576545039861 
1277	 0.248573465376377 
1278	 0.248617890437471 
1279	 0.248632760431038 
1280	 0.248641345431776 
1281	 0.24865762568044 
1282	 0.248662446847304 
1283	 0.248682429111674 
1284	 0.248714965077295 
1285	 0.24875815468672 
1286	 0.248789154294614 
1287	 0.248818126186921 
1288	 0.248848830429688 
1289	 0.248867966250679 
1290	 0.24891127333494 
1291	 0.248970839117565 
1292	 0.249019492725756 
1293	 0.249072487797902 
1294	 0.24912515961029 
1295	 0.249187537366123 
1296	 0.249226413748557 
1297	 0.249257104421815 
1298	 0.249286675229658 
1299	 0.249283735127464 
1300	 0.249303423508388 
1301	 0.24935756527394 
1302	 0.249380545497132 
1303	 0.249388454666445 
1304	 0.249402437283242 
1305	 0.249409395015456 
1306	 0.249379376965311 
1307	 0.249378245407339 
1308	 0.249391364573025 
1309	 0.24938356940132 
1310	 0.249365847421513 
1311	 0.249362129943671 
1312	 0.249363539916767 
1313	 0.249342079959683 
1314	 0.249315530546683 
1315	 0.249288702119102 
1316	 0.249250442714704 
1317	 0.24920642202178 
1318	 0.249163163876108 
1319	 0.24912303938792 
1320	 0.24906681508795 
1321	 0.249012287429229 
1322	 0.248964959859101 
1323	 0.24892485768504 
1324	 0.248860628616489 
1325	 0.24879568710348 
1326	 0.248734683751683 
1327	 0.248662001257399 
1328	 0.248589805747542 
1329	 0.248526561690949 
1330	 0.248466208491844 
1331	 0.248417028026761 
1332	 0.248347694163699 
1333	 0.248273575974655 
1334	 0.248202598192872 
1335	 0.248113181363006 
1336	 0.248041095073607 
1337	 0.247986040631261 
1338	 0.247920149417172 
1339	 0.247843015334932 
1340	 0.247787774056698 
1341	 0.247748462558991 
1342	 0.247696876531187 
1343	 0.247652320107781 
1344	 0.247605371700664 
1345	 0.247542578104878 
1346	 0.247494661701743 
1347	 0.247442351215119 
1348	 0.247376171097177 
1349	 0.247321148337835 
1350	 0.247256792295148 
1351	 0.247200502748189 
1352	 0.24715666121864 
1353	 0.247102891845371 
1354	 0.247047309204167 
1355	 0.24698723473353 
1356	 0.246925821590445 
1357	 0.246855902928631 
1358	 0.246768483205975 
1359	 0.246699233832574 
1360	 0.246645888176368 
1361	 0.246574578550644 
1362	 0.246511256840555 
1363	 0.246427829943134 
1364	 0.246309379066729 
1365	 0.246206066669186 
1366	 0.246101882567777 
1367	 0.246007434314448 
1368	 0.245912519749086 
1369	 0.245821871999295 
1370	 0.245713447366418 
1371	 0.245603041158869 
1372	 0.245483131434952 
1373	 0.245338791900614 
1374	 0.24519115255646 
1375	 0.245036179887467 
1376	 0.244864829209629 
1377	 0.24468854040795 
1378	 0.24448276338844 
1379	 0.244255412534213 
1380	 0.244015404047587 
1381	 0.243753816765735 
1382	 0.243476502415599 
1383	 0.243184318975164 
1384	 0.242875711254552 
1385	 0.242560394921815 
1386	 0.24221700437214 
1387	 0.241856972397558 
1388	 0.241480139672924 
1389	 0.2410868248877 
1390	 0.240656998337222 
1391	 0.240208749889574 
1392	 0.239728597866953 
1393	 0.239219173885887 
1394	 0.238676039186937 
1395	 0.238106972480765 
1396	 0.237545268935877 
1397	 0.236953713066578 
1398	 0.236341046163658 
1399	 0.235705034767147 
1400	 0.235024100613042 
1401	 0.234380090359926 
1402	 0.233736713219339 
1403	 0.23309665127474 
1404	 0.232472829155635 
1405	 0.231854385817131 
1406	 0.231206122600007 
1407	 0.230605910417286 
1408	 0.23003870859602 
1409	 0.229483113508213 
1410	 0.228942633217596 
1411	 0.228434127883224 
1412	 0.227933032996391 
1413	 0.227482706843402 
1414	 0.227082685391026 
1415	 0.226696918791589 
1416	 0.226345788818507 
1417	 0.226022348042312 
1418	 0.225714120587187 
1419	 0.225416047994274 
1420	 0.225138209970073 
1421	 0.224868969044006 
1422	 0.224598294248789 
1423	 0.22435435031149 
1424	 0.224123406705436 
1425	 0.223909307607708 
1426	 0.223699912455323 
1427	 0.223502442678759 
1428	 0.223320840187342 
1429	 0.223148710197725 
1430	 0.222988920892709 
1431	 0.222849809377402 
1432	 0.222712114611315 
1433	 0.222573439078154 
1434	 0.222453712454251 
1435	 0.222349518940966 
1436	 0.222254341664103 
1437	 0.222176736664775 
1438	 0.222101968975375 
1439	 0.222046415460184 
1440	 0.221969209090298 
1441	 0.22188850998693 
1442	 0.22182152729856 
1443	 0.221759926659628 
1444	 0.221706192659423 
1445	 0.22167151842003 
1446	 0.221632066525148 
1447	 0.22157203516911 
1448	 0.221510065458483 
1449	 0.221438840245712 
1450	 0.221362135813795 
1451	 0.221298537043945 
1452	 0.221245759463438 
1453	 0.221183026014341 
1454	 0.221123515125172 
1455	 0.221055382508703 
1456	 0.220979610576708 
1457	 0.220898786711477 
1458	 0.220814139477184 
1459	 0.22073073594295 
1460	 0.220631081087019 
1461	 0.220552654763695 
1462	 0.220473098550806 
1463	 0.220419358963547 
1464	 0.220373612636573 
1465	 0.220360676362638 
1466	 0.220365053521621 
1467	 0.220404742302082 
1468	 0.220475684214981 
1469	 0.220575836171219 
1470	 0.220709100308444 
1471	 0.220869582041119 
1472	 0.221051994354279 
1473	 0.221258233483474 
1474	 0.22148063565646 
1475	 0.221715529661507 
1476	 0.221963706828093 
1477	 0.222202759406495 
1478	 0.222422261907268 
1479	 0.222638194578131 
1480	 0.222839322177282 
1481	 0.223013306281629 
1482	 0.223192968882661 
1483	 0.22336808029698 
1484	 0.22354043942068 
1485	 0.223703706391527 
1486	 0.223875887724257 
1487	 0.224051812547769 
1488	 0.224215793096815 
1489	 0.224383382548166 
1490	 0.224535420765328 
1491	 0.224670810065273 
1492	 0.224813366019301 
1493	 0.224950917667575 
1494	 0.225089078444351 
1495	 0.225229584700961 
1496	 0.225363949801414 
1497	 0.225492645044498 
1498	 0.225623831954057 
1499	 0.225755141290926 
1500	 0.225883430488188 
1501	 0.22601679155972 
1502	 0.226135723989783 
1503	 0.226241719020789 
1504	 0.226353158337216 
1505	 0.226456247550956 
1506	 0.226560719547425 
1507	 0.226692516313809 
1508	 0.226812136872477 
1509	 0.226898524282705 
1510	 0.226984966030806 
1511	 0.227069866695876 
1512	 0.227149104142429 
1513	 0.22723886897656 
1514	 0.227338934060774 
1515	 0.227430923911388 
1516	 0.227516881387058 
1517	 0.227611204655317 
1518	 0.227723764397083 
1519	 0.227814696772012 
1520	 0.227890154382564 
1521	 0.227978239592181 
1522	 0.228060919610618 
1523	 0.228153001411251 
1524	 0.228266246376484 
1525	 0.228357961005547 
1526	 0.228433958185291 
1527	 0.22852237990917 
1528	 0.228615395877629 
1529	 0.228691257432185 
1530	 0.228776180173234 
1531	 0.228843495519839 
1532	 0.228870790149461 
1533	 0.228928000552632 
1534	 0.228991170043521 
1535	 0.229058141975508 
1536	 0.229142620530872 
1537	 0.229223985312009 
1538	 0.229300294021649 
1539	 0.229388177881557 
1540	 0.229499092848512 
1541	 0.229580943692694 
1542	 0.229644543439333 
1543	 0.229722244940541 
1544	 0.229789249875845 
1545	 0.229859299522456 
1546	 0.229943831766751 
1547	 0.230030193381496 
1548	 0.230089064964448 
1549	 0.230152262174236 
1550	 0.230208208096455 
1551	 0.230249808954839 
1552	 0.230294734202043 
1553	 0.230326306731723 
1554	 0.230367623027587 
1555	 0.230415810450542 
1556	 0.230463624525909 
1557	 0.230521404897932 
1558	 0.230539049189131 
1559	 0.230551833539131 
1560	 0.230596047951011 
1561	 0.230641750811436 
1562	 0.230688091877289 
1563	 0.230772203402805 
1564	 0.230815304364919 
1565	 0.23082626126499 
1566	 0.230854266530859 
1567	 0.230884245458032 
1568	 0.230910653225074 
1569	 0.230933933932398 
1570	 0.230953635093628 
1571	 0.230973708137458 
1572	 0.230984804743084 
1573	 0.23098689816382 
1574	 0.230997385889567 
1575	 0.231000540326976 
1576	 0.231016234075264 
1577	 0.231039915821121 
1578	 0.231066867553822 
1579	 0.231110513748926 
1580	 0.231131497656314 
1581	 0.231144796405287 
1582	 0.231162909659159 
1583	 0.231165987503572 
1584	 0.231178365420237 
1585	 0.231216550645186 
1586	 0.231216886433498 
1587	 0.231179473817706 
1588	 0.231178700358741 
1589	 0.231171685188429 
1590	 0.231181270835856 
1591	 0.231235280760381 
1592	 0.231260307076661 
1593	 0.231270568064043 
1594	 0.231283583120781 
1595	 0.23129604389905 
1596	 0.231299447514198 
1597	 0.231291689288867 
1598	 0.231290839084407 
1599	 0.231288007807683 
1600	 0.231282885565113 
1601	 0.231281892860454 
1602	 0.231281211644626 
1603	 0.23127761176528 
1604	 0.231270926217368 
1605	 0.231280233079833 
1606	 0.231262578008172 
1607	 0.231223696961401 
1608	 0.231174242302056 
1609	 0.231137981094792 
1610	 0.231115728604785 
1611	 0.231116610977212 
1612	 0.231137235821117 
1613	 0.231132603485234 
1614	 0.231116213221371 
1615	 0.23109464932961 
1616	 0.231051339689035 
1617	 0.231009080344292 
1618	 0.230974063936089 
1619	 0.230956796486583 
1620	 0.23095254206134 
1621	 0.23094562572379 
1622	 0.230954328946056 
1623	 0.230954611447843 
1624	 0.230957158209718 
1625	 0.230934135063942 
1626	 0.23090626162531 
1627	 0.230863854833801 
1628	 0.230786310342227 
1629	 0.230744764616205 
1630	 0.230716740619115 
1631	 0.230680913790363 
1632	 0.230654280753779 
1633	 0.23061808070527 
1634	 0.230564924970274 
1635	 0.23053861028308 
1636	 0.23053516521526 
1637	 0.230500760910126 
1638	 0.230467984540299 
1639	 0.230423707329143 
1640	 0.230343455697785 
1641	 0.230299746841489 
1642	 0.230277034699641 
1643	 0.230241707606175 
1644	 0.23021326380248 
1645	 0.230178357491882 
1646	 0.230133421692707 
1647	 0.230097494637437 
1648	 0.230072536653009 
1649	 0.230029974024299 
1650	 0.229984190855839 
1651	 0.229929853554225 
1652	 0.229857168906843 
1653	 0.229797332216235 
1654	 0.229727109643546 
1655	 0.229687450234036 
1656	 0.229667367092202 
1657	 0.229643389299594 
1658	 0.229648678536798 
1659	 0.229620254975564 
1660	 0.229574426207827 
1661	 0.229528894318305 
1662	 0.229471458730654 
1663	 0.22941351825892 
1664	 0.229336477910861 
1665	 0.229296646861703 
1666	 0.229273560638285 
1667	 0.229244061929334 
1668	 0.229249639083588 
1669	 0.229217077422622 
1670	 0.229155478407177 
1671	 0.229103384038697 
1672	 0.229053092296279 
1673	 0.228982520218856 
1674	 0.228888507962192 
1675	 0.228820855813223 
1676	 0.228746832612523 
1677	 0.228685101431071 
1678	 0.228656049150962 
1679	 0.228602051202766 
1680	 0.228537388860626 
1681	 0.22846982215587 
1682	 0.228384066313332 
1683	 0.228324724548899 
1684	 0.228277783156379 
1685	 0.228221649515646 
1686	 0.228178513720361 
1687	 0.228129305378188 
1688	 0.228070270973839 
1689	 0.228009071678715 
1690	 0.227947566527175 
1691	 0.227892394647588 
1692	 0.227829559115025 
1693	 0.227776275649025 
1694	 0.22775310824063 
1695	 0.227688525847262 
1696	 0.227615295231733 
1697	 0.227514439954749 
1698	 0.227354444151877 
1699	 0.227254039063638 
1700	 0.227160876373826 
1701	 0.227077519353866 
1702	 0.227031426232276 
1703	 0.22697424804739 
1704	 0.226913481276854 
1705	 0.226851540833112 
1706	 0.226804605775789 
1707	 0.226738987715214 
1708	 0.226656006622691 
1709	 0.226577248765528 
1710	 0.226498276872317 
1711	 0.226412952235064 
1712	 0.226314279822843 
1713	 0.226233363028638 
1714	 0.226151989734581 
1715	 0.226081240792898 
1716	 0.22603194541549 
1717	 0.225968629041956 
1718	 0.225906855859114 
1719	 0.225836844324879 
1720	 0.225754622532709 
1721	 0.225682160485763 
1722	 0.22562066522278 
1723	 0.225536588133145 
1724	 0.225465992960036 
1725	 0.225334146489955 
1726	 0.225140190650234 
1727	 0.224988182667933 
1728	 0.224805281583987 
1729	 0.224674299710488 
1730	 0.224589579069869 
1731	 0.224498798274197 
1732	 0.224437877036793 
1733	 0.2243333676796 
1734	 0.224211053274834 
1735	 0.224101879022725 
1736	 0.223979482459947 
1737	 0.223848134407183 
1738	 0.223727654272769 
1739	 0.223594484656261 
1740	 0.223433063202644 
1741	 0.223287877944179 
1742	 0.223162279764547 
1743	 0.223024222384711 
1744	 0.22286287851544 
1745	 0.222725626565949 
1746	 0.222608067100009 
1747	 0.222457553883584 
1748	 0.222315370393378 
1749	 0.222182419445498 
1750	 0.222052548814961 
1751	 0.221947430888217 
1752	 0.221878394610161 
1753	 0.221786898021896 
1754	 0.221677808647036 
1755	 0.221569975631673 
1756	 0.221422986576262 
1757	 0.221291022205781 
1758	 0.221151154316641 
1759	 0.220985416103302 
1760	 0.22085175843197 
1761	 0.220670185674354 
1762	 0.220499480861687 
1763	 0.220395046761355 
1764	 0.220272286716567 
1765	 0.220160830543769 
1766	 0.220063180126892 
1767	 0.21993785435213 
1768	 0.219783692360694 
1769	 0.219654765164245 
1770	 0.219544822685494 
1771	 0.219391497781879 
1772	 0.219249884676982 
1773	 0.219133083923816 
1774	 0.218980884094271 
1775	 0.218848072036441 
1776	 0.218752516369741 
1777	 0.218634406514557 
1778	 0.218528070398724 
1779	 0.218437597986016 
1780	 0.218308017192766 
1781	 0.218175725395518 
1782	 0.218071302091846 
1783	 0.21795487839808 
1784	 0.217868391641222 
1785	 0.217813873543136 
1786	 0.217737694564753 
1787	 0.217669970880106 
1788	 0.217588680431898 
1789	 0.217496034313877 
1790	 0.217414032611982 
1791	 0.217324749811449 
1792	 0.217255147213791 
1793	 0.217208084007813 
1794	 0.217124329489634 
1795	 0.217032397079032 
1796	 0.216946461746437 
1797	 0.216835736538077 
1798	 0.216750520747574 
1799	 0.216676202861688 
1800	 0.216605228896573 
1801	 0.210150352448455 
1802	 0.210085769280373 
1803	 0.21000677541371 
1804	 0.209982029845478 
1805	 0.209951813221027 
1806	 0.209882617814064 
1807	 0.209838849095892 
1808	 0.209786513730474 
1809	 0.209709204992826 
1810	 0.209648941200836 
1811	 0.209599055464966 
1812	 0.209553822729932 
1813	 0.20951547311895 
1814	 0.209479100819224 
1815	 0.209446477744902 
1816	 0.209404894211619 
1817	 0.209360209269257 
1818	 0.209296163130933 
1819	 0.209258076736556 
1820	 0.209234043235931 
1821	 0.209212718531784 
1822	 0.209153794723004 
1823	 0.209060712420089 
1824	 0.208977514397627 
1825	 0.208902734041214 
1826	 0.208814134398163 
1827	 0.20873556169764 
1828	 0.208639450548294 
1829	 0.208504383447287 
1830	 0.208383018766379 
1831	 0.208276550540852 
1832	 0.208150694148831 
1833	 0.208000860560093 
1834	 0.207827441133125 
1835	 0.207615046095457 
1836	 0.207393867912477 
1837	 0.207190695456038 
1838	 0.206975630838112 
1839	 0.206769672431136 
1840	 0.206565451457993 
1841	 0.206393329617018 
1842	 0.206197082005584 
1843	 0.205999880127481 
1844	 0.205809850463462 
1845	 0.205574292793602 
1846	 0.205350922943921 
1847	 0.205180693633463 
1848	 0.205011834259798 
1849	 0.20485781757043 
1850	 0.204704761430967 
1851	 0.204584247564307 
1852	 0.204404513228719 
1853	 0.204196955232387 
1854	 0.204013533550098 
1855	 0.203819857736322 
1856	 0.203626245324641 
1857	 0.203452042560378 
1858	 0.203264191201431 
1859	 0.203074092822571 
1860	 0.202848828898978 
1861	 0.202607055397752 
1862	 0.202313407622626 
1863	 0.202016305639836 
1864	 0.201695545483173 
1865	 0.201341516014211 
1866	 0.201006813343468 
1867	 0.200663062069959 
1868	 0.200242004540333 
1869	 0.199778483029866 
1870	 0.199308110813718 
1871	 0.198762730731739 
1872	 0.198144284676979 
1873	 0.197504109889664 
1874	 0.196860901608214 
1875	 0.196112687296777 
1876	 0.195322640523977 
1877	 0.194517154740984 
1878	 0.193620140383685 
1879	 0.192634387904454 
1880	 0.19160273135711 
1881	 0.190500787291093 
1882	 0.189361498832672 
1883	 0.188165694739873 
1884	 0.186918800718102 
1885	 0.185635657582575 
1886	 0.184260257371766 
1887	 0.182779500408389 
1888	 0.181269382170607 
1889	 0.179708045316084 
1890	 0.178103830843652 
1891	 0.17649912465013 
1892	 0.174863687363242 
1893	 0.173223870815322 
1894	 0.171562258500691 
1895	 0.169902016149964 
1896	 0.168233843725084 
1897	 0.166613190248605 
1898	 0.164993661928715 
1899	 0.163414938309015 
1900	 0.161923430743902 
1901	 0.160478237932822 
1902	 0.159107289000136 
1903	 0.157837306516853 
1904	 0.156602577201484 
1905	 0.155404114262369 
1906	 0.154303582060812 
1907	 0.153274018662805 
1908	 0.152306852604344 
1909	 0.15143573666749 
1910	 0.150592884802027 
1911	 0.149792313518935 
1912	 0.14905388535075 
1913	 0.148358996798684 
1914	 0.147706319929221 
1915	 0.147112880486193 
1916	 0.146579010438644 
1917	 0.146074887704578 
1918	 0.145625116369524 
1919	 0.145209193821714 
1920	 0.144850276586555 
1921	 0.144543991503467 
1922	 0.144263627176079 
1923	 0.143999074926129 
1924	 0.143769731066088 
1925	 0.143558931842689 
1926	 0.143384750656241 
1927	 0.143246281465664 
1928	 0.143150632218243 
1929	 0.143049150721858 
1930	 0.142961130137857 
1931	 0.142907389939746 
1932	 0.142861788926252 
1933	 0.142854505442335 
1934	 0.142895718194479 
1935	 0.142944910620903 
1936	 0.143023413210373 
1937	 0.143109589517295 
1938	 0.143214385404312 
1939	 0.143322252037502 
1940	 0.143441401175617 
1941	 0.1435704035593 
1942	 0.143694626830916 
1943	 0.143860371535257 
1944	 0.14404453621574 
1945	 0.144233088115383 
1946	 0.144438841646412 
1947	 0.144682209971235 
1948	 0.144899637623119 
1949	 0.145115022869675 
1950	 0.145336188742831 
1951	 0.14556039609572 
1952	 0.145761376752294 
1953	 0.145996720770102 
1954	 0.146235249722026 
1955	 0.146459749961522 
1956	 0.146721168743679 
1957	 0.146982847841227 
1958	 0.147247341077597 
1959	 0.147525222446742 
1960	 0.14781705618437 
1961	 0.148115995400896 
1962	 0.148417843337932 
1963	 0.148736387171023 
1964	 0.149068082775771 
1965	 0.14941674370709 
1966	 0.149777379900065 
1967	 0.150156422329123 
1968	 0.150517535836741 
1969	 0.15088654985683 
1970	 0.151237847990421 
1971	 0.151566921348198 
1972	 0.151910647349565 
1973	 0.152243605232013 
1974	 0.152597579202259 
1975	 0.152967602957389 
1976	 0.153343613890973 
1977	 0.153705550389067 
1978	 0.154064857024381 
1979	 0.154427747647985 
1980	 0.154779372096301 
1981	 0.155147328105392 
1982	 0.15554940184737 
1983	 0.155913475881519 
1984	 0.156259346337716 
1985	 0.156610419785598 
1986	 0.156934500216454 
1987	 0.157281326069603 
1988	 0.157638249475413 
1989	 0.158014384986119 
1990	 0.158374767683194 
1991	 0.158716324732633 
1992	 0.159061379224686 
1993	 0.159382976726089 
1994	 0.159733081383215 
1995	 0.160106701573219 
1996	 0.160459456139861 
1997	 0.160822452817219 
1998	 0.161167354666274 
1999	 0.161480222127069 
2000	 0.161814408806366 
2001	 0.162160224818011 
2002	 0.162487537462394 
2003	 0.162835152272842 
2004	 0.163188657123494 
2005	 0.163531271063082 
2006	 0.16387933170422 
2007	 0.164209432336049 
2008	 0.164523254468632 
2009	 0.164838893802811 
2010	 0.165135373186053 
2011	 0.165447625685699 
2012	 0.165770910952815 
2013	 0.166092091188039 
2014	 0.166431420109179 
2015	 0.166749729457526 
2016	 0.16703807367259 
2017	 0.167325918295333 
2018	 0.167618171904269 
2019	 0.16788280586095 
2020	 0.168181763073878 
2021	 0.168522886630748 
2022	 0.168824247442632 
2023	 0.16911934886092 
2024	 0.169410105756739 
2025	 0.169683759940056 
2026	 0.169951148742042 
2027	 0.170198165994429 
2028	 0.170475472968833 
2029	 0.170743648307467 
2030	 0.171009276684325 
2031	 0.171261254878956 
2032	 0.171522529273862 
2033	 0.171760254946447 
2034	 0.171965664409479 
2035	 0.172187001333006 
2036	 0.172399971019329 
2037	 0.17262850546429 
2038	 0.172881569391757 
2039	 0.173105614164603 
2040	 0.173331151730124 
2041	 0.17353903446236 
2042	 0.173726091388396 
2043	 0.173918596566699 
2044	 0.174108115998074 
2045	 0.174296823063426 
2046	 0.174489568608554 
2047	 0.174680561482809 
2048	 0.174870690977482 
2049	 0.175066117866352 
2050	 0.175262739967132 
2051	 0.175456500786961 
2052	 0.175647185168352 
2053	 0.175848146415112 
2054	 0.176036435122817 
2055	 0.176209620965974 
2056	 0.176387019330939 
2057	 0.176563064207944 
2058	 0.176739649841214 
2059	 0.176905241762428 
2060	 0.177063096045767 
2061	 0.177226940581123 
2062	 0.177390475508613 
2063	 0.177544508428065 
2064	 0.177695136565463 
2065	 0.177848691105168 
2066	 0.177991929946156 
2067	 0.178138391551115 
2068	 0.178292374431555 
2069	 0.178449270122948 
2070	 0.178592150954546 
2071	 0.178728061645246 
2072	 0.178858063659112 
2073	 0.1789796675339 
2074	 0.179100727166539 
2075	 0.179209074386891 
2076	 0.179330945902821 
2077	 0.179447441157068 
2078	 0.17958263090461 
2079	 0.179725067182181 
2080	 0.179883247850209 
2081	 0.180071244876342 
2082	 0.180244603716096 
2083	 0.180428681122594 
2084	 0.180612809972441 
2085	 0.180760457640576 
2086	 0.180887497762501 
2087	 0.181002636467212 
2088	 0.181073639350811 
2089	 0.181191200127283 
2090	 0.181321826019838 
2091	 0.18144308395246 
2092	 0.181584247321187 
2093	 0.181711369160988 
2094	 0.181818910847659 
2095	 0.181935188592746 
2096	 0.182058957079886 
2097	 0.182180505437023 
2098	 0.182302869403464 
2099	 0.182411231121212 
2100	 0.18254019358494 
2101	 0.182675917985707 
2102	 0.182814538510181 
2103	 0.182973555440823 
2104	 0.183107538974817 
2105	 0.183235342949898 
2106	 0.183358218617976 
2107	 0.18347270769021 
2108	 0.183574576061259 
2109	 0.183667576905097 
2110	 0.183760489935086 
2111	 0.183812584278737 
2112	 0.183910189463925 
2113	 0.184052760741769 
2114	 0.184163414136798 
2115	 0.184289334546157 
2116	 0.184448293739182 
2117	 0.184565832786842 
2118	 0.184650833962273 
2119	 0.184763906675546 
2120	 0.184886260349463 
2121	 0.18498693264317 
2122	 0.185082337616775 
2123	 0.185185914559681 
2124	 0.185275936095793 
2125	 0.185371266521447 
2126	 0.185497813322129 
2127	 0.185591609231232 
2128	 0.185670803952844 
2129	 0.185732095314602 
2130	 0.185766804891167 
2131	 0.185794725083196 
2132	 0.185833322775006 
2133	 0.185864325381422 
2134	 0.185894431253244 
2135	 0.18594012568787 
2136	 0.185961328131034 
2137	 0.185965633362157 
2138	 0.185965341727491 
2139	 0.185953852177039 
2140	 0.185941149139271 
2141	 0.185924684865385 
2142	 0.1858967397898 
2143	 0.18587502372812 
2144	 0.185826302408663 
2145	 0.185745510738909 
2146	 0.185670911251755 
2147	 0.185587109060998 
2148	 0.185494217057404 
2149	 0.185395925026539 
2150	 0.185297177716021 
2151	 0.185193723140573 
2152	 0.185074348658098 
2153	 0.184963254202396 
2154	 0.184867411357574 
2155	 0.184743886564789 
2156	 0.184613089810421 
2157	 0.184469160533517 
2158	 0.184290140889654 
2159	 0.184134197701078 
2160	 0.183989044228712 
2161	 0.183828011765022 
2162	 0.183685914638417 
2163	 0.183513669782042 
2164	 0.183320937939721 
2165	 0.1830990891296 
2166	 0.182893838075733 
2167	 0.182668593236988 
2168	 0.182474452712813 
2169	 0.18229817773261 
2170	 0.18211470168857 
2171	 0.181948537752771 
2172	 0.181761086077757 
2173	 0.181561404280542 
2174	 0.181364408930858 
2175	 0.181162215969838 
2176	 0.180956069103151 
2177	 0.180733219796336 
2178	 0.180536083621436 
2179	 0.180364149251132 
2180	 0.180164041980156 
2181	 0.179968549687683 
2182	 0.17976642689595 
2183	 0.179535288820434 
2184	 0.179302342165009 
2185	 0.179089062786651 
2186	 0.17889952609621 
2187	 0.178676630184738 
2188	 0.178443572119741 
2189	 0.178216557421169 
2190	 0.177970481008721 
2191	 0.177743440066608 
2192	 0.177512245408484 
2193	 0.177319728733929 
2194	 0.177143232169371 
2195	 0.176981646137915 
2196	 0.176865391230878 
2197	 0.176736048896486 
2198	 0.176624240415114 
2199	 0.176487865675525 
2200	 0.176327006549898 
2201	 0.176189373178877 
2202	 0.176045159554304 
2203	 0.175912605566798 
2204	 0.175777551214648 
2205	 0.175655100348603 
2206	 0.175544637636968 
2207	 0.175418028989674 
2208	 0.175336703289478 
2209	 0.175309087635814 
2210	 0.175249564887913 
2211	 0.175186006177335 
2212	 0.175139246313161 
2213	 0.175093187375411 
2214	 0.175053606225005 
2215	 0.175042694670653 
2216	 0.17501277803008 
2217	 0.174963003146026 
2218	 0.174927761011533 
2219	 0.174891048402244 
2220	 0.174866507723879 
2221	 0.174860742461124 
2222	 0.17485212310135 
2223	 0.174821751201525 
2224	 0.174802034732739 
2225	 0.174785799382902 
2226	 0.174765589658411 
2227	 0.17473907423203 
2228	 0.174717783941821 
2229	 0.174697259011728 
2230	 0.174672733158879 
2231	 0.174635415755159 
2232	 0.174610594092804 
2233	 0.174560107955469 
2234	 0.174475693290894 
2235	 0.174400556406053 
2236	 0.174332963836231 
2237	 0.174241261085677 
2238	 0.174135701240257 
2239	 0.174022597714731 
2240	 0.173886546923809 
2241	 0.173754516514274 
2242	 0.173657993332362 
2243	 0.173491868705813 
2244	 0.173288988362504 
2245	 0.173067916750877 
2246	 0.17279037846842 
2247	 0.172488808102081 
2248	 0.17220794115457 
2249	 0.171934612005976 
2250	 0.171625656297551 
2251	 0.171302360335002 
2252	 0.170978605759441 
2253	 0.170614671648427 
2254	 0.170299411535268 
2255	 0.169998773607941 
2256	 0.169713848343318 
2257	 0.169438176440365 
2258	 0.169196010750694 
2259	 0.16895251482763 
2260	 0.168786392959057 
2261	 0.168677037943088 
2262	 0.168593469775094 
2263	 0.168578417225957 
2264	 0.168565668464677 
2265	 0.16858974866333 
2266	 0.168607242369456 
2267	 0.168633609453733 
2268	 0.168677777738168 
2269	 0.168740697262064 
2270	 0.168771230371814 
2271	 0.168865296024002 
2272	 0.168997806789478 
2273	 0.169125465801873 
2274	 0.16927196332129 
2275	 0.169417661783586 
2276	 0.169555340384554 
2277	 0.169735139823943 
2278	 0.169940126451332 
2279	 0.170149620507417 
2280	 0.17040067456098 
2281	 0.170613600239084 
2282	 0.170829201407347 
2283	 0.171020125495501 
2284	 0.171201908995904 
2285	 0.171351546800165 
2286	 0.171451245826941 
2287	 0.171572940839769 
2288	 0.171706615497208 
2289	 0.171790348349738 
2290	 0.171856653828833 
2291	 0.171925006028272 
2292	 0.171937726961432 
2293	 0.17197105497698 
2294	 0.172052230618895 
2295	 0.172077692866792 
2296	 0.172046696894437 
2297	 0.172047141585916 
2298	 0.172051461749415 
2299	 0.172058031375331 
2300	 0.172095615573492 
2301	 0.172167998013966 
2302	 0.172220118934909 
2303	 0.172236836702214 
2304	 0.172283426658401 
2305	 0.172319613780047 
2306	 0.172345609208978 
2307	 0.17237715378002 
2308	 0.172389037455928 
2309	 0.172376111414764 
2310	 0.172368100426793 
2311	 0.172352961754622 
2312	 0.17233333389159 
2313	 0.172315739254926 
2314	 0.172287190897064 
2315	 0.172244808652758 
2316	 0.172193854182369 
2317	 0.17214421336351 
2318	 0.172070238887605 
2319	 0.171967014006302 
2320	 0.171884914741281 
2321	 0.171791401166731 
2322	 0.171700468098007 
2323	 0.17160296134665 
2324	 0.171544005335424 
2325	 0.171495654315923 
2326	 0.171466748672015 
2327	 0.171485728221904 
2328	 0.171503304521905 
2329	 0.17147422413663 
2330	 0.171386936948235 
2331	 0.171320100097707 
2332	 0.171197499075222 
2333	 0.171050783432436 
2334	 0.170997768607432 
2335	 0.170872428743227 
2336	 0.170709415346775 
2337	 0.170617701226168 
2338	 0.170471721279242 
2339	 0.170363610641081 
2340	 0.170371121335202 
2341	 0.170259366545349 
2342	 0.170110037318787 
2343	 0.170026536927995 
2344	 0.169830610845499 
2345	 0.169680101584773 
2346	 0.169586258339039 
2347	 0.169463639613195 
2348	 0.169307371608846 
2349	 0.169165607606529 
2350	 0.169055516187418 
2351	 0.168905837086713 
2352	 0.168717975388918 
2353	 0.168525489236327 
2354	 0.168322886584096 
2355	 0.168114581237672 
2356	 0.167868858681255 
2357	 0.167671025615758 
2358	 0.167519691525961 
2359	 0.167324370682867 
2360	 0.167119671118372 
2361	 0.1669165927493 
2362	 0.166699713261253 
2363	 0.166458059152878 
2364	 0.166196559748786 
2365	 0.165998306217539 
2366	 0.165792786637616 
2367	 0.16558293933545 
2368	 0.165425741706729 
2369	 0.165236493855486 
2370	 0.165006388145638 
2371	 0.164817647956339 
2372	 0.164646096228893 
2373	 0.164475206541035 
2374	 0.164217300911141 
2375	 0.163913252518729 
2376	 0.163569606061539 
2377	 0.16319844373889 
2378	 0.162927309946271 
2379	 0.162734010736915 
2380	 0.162485281660794 
2381	 0.162267432904888 
2382	 0.162020638455696 
2383	 0.161675288120626 
2384	 0.161418738961252 
2385	 0.161182669568548 
2386	 0.160882076179016 
2387	 0.160645056306702 
2388	 0.160359994422587 
2389	 0.160019306938494 
2390	 0.159748265361104 
2391	 0.159386926259752 
2392	 0.159001966334655 
2393	 0.158734916982868 
2394	 0.158437705151767 
2395	 0.158138156631044 
2396	 0.157854935414901 
2397	 0.157500838212184 
2398	 0.157088007332299 
2399	 0.156647258520952 
2400	 0.156303485648048 
2401	 0.15594287186924 
2402	 0.155584321499162 
2403	 0.155382848189873 
2404	 0.155220295061457 
2405	 0.155044288365668 
2406	 0.154789135105439 
2407	 0.15454167603821 
2408	 0.154293287345888 
2409	 0.153952600989904 
2410	 0.153744519190117 
2411	 0.15355957130424 
2412	 0.153166721785013 
2413	 0.152853441575071 
2414	 0.152629643819073 
2415	 0.152276775043011 
2416	 0.151999408602277 
2417	 0.151854051109265 
2418	 0.151621757471162 
2419	 0.151320160846128 
2420	 0.151048234164398 
2421	 0.150757679384489 
2422	 0.150526373954549 
2423	 0.150346847164605 
2424	 0.150138840550229 
2425	 0.149961553269858 
2426	 0.149734594577697 
2427	 0.149440888117084 
2428	 0.149173373438104 
2429	 0.14898431877353 
2430	 0.148702736000779 
2431	 0.148329528831064 
2432	 0.148043464426579 
2433	 0.147727169376834 
2434	 0.147411481852743 
2435	 0.147200844912843 
2436	 0.146818404527007 
2437	 0.146298617223972 
2438	 0.145934869942883 
2439	 0.145484327536142 
2440	 0.145213066047406 
2441	 0.145213465031836 
2442	 0.144923101173369 
2443	 0.144560498249949 
2444	 0.144271123458315 
2445	 0.143874545538238 
2446	 0.143545226157673 
2447	 0.143349359459705 
2448	 0.143034427935701 
2449	 0.142568525362116 
2450	 0.142198186395887 
2451	 0.141938045237536 
2452	 0.141456128480881 
2453	 0.140820642448504 
2454	 0.140496816517018 
2455	 0.140195352527765 
2456	 0.139851664176589 
2457	 0.139726089206377 
2458	 0.139459758888442 
2459	 0.138952718591166 
2460	 0.138670076023536 
2461	 0.138629760832001 
2462	 0.138379940914763 
2463	 0.138024073306795 
2464	 0.137738714057897 
2465	 0.137408236310846 
2466	 0.137073957598133 
2467	 0.1367956707791 
2468	 0.136540099406969 
2469	 0.136275951642024 
2470	 0.136063359534154 
2471	 0.135740157368925 
2472	 0.135367695071392 
2473	 0.135075479750669 
2474	 0.134827040487802 
2475	 0.134621894650925 
2476	 0.134454502997186 
2477	 0.13429975126161 
2478	 0.133915495090844 
2479	 0.133495394172629 
2480	 0.133220884794697 
2481	 0.132866318712428 
2482	 0.132613562939559 
2483	 0.132430534896499 
2484	 0.132166338989566 
2485	 0.131844535016878 
2486	 0.131548840544083 
2487	 0.131384831973473 
2488	 0.13125470186853 
2489	 0.13095798057938 
2490	 0.130663152928969 
2491	 0.130445167603173 
2492	 0.130054797132679 
2493	 0.129933896196747 
2494	 0.129961701805886 
2495	 0.129509903545499 
2496	 0.129090363766531 
2497	 0.128960925504224 
2498	 0.128565592194428 
2499	 0.128396317213899 
2500	 0.128465297436747 
