Wavelength	LMW_1400007.asd
350	 7.62153744564036E-02 
351	 8.29241610987022E-02 
352	 8.18767027843906E-02 
353	 7.73587879079875E-02 
354	 6.60280867717352E-02 
355	 7.04513187010056E-02 
356	 7.74239497391475E-02 
357	 0.072453916625991 
358	 7.38890006333839E-02 
359	 6.98294188544493E-02 
360	 0.063749874366676 
361	 6.80877268609958E-02 
362	 7.50917861365367E-02 
363	 7.52026096628893E-02 
364	 6.78609821946179E-02 
365	 6.57602973919247E-02 
366	 6.92004490548076E-02 
367	 7.15442183403036E-02 
368	 6.79887491850502E-02 
369	 6.95426111315497E-02 
370	 6.84380674101874E-02 
371	 6.66791221282238E-02 
372	 7.18000385011248E-02 
373	 7.01881668135129E-02 
374	 6.76286787860254E-02 
375	 6.85779902026871E-02 
376	 7.09938841069525E-02 
377	 0.071538392177154 
378	 7.16790846558462E-02 
379	 7.33604861833689E-02 
380	 0.074121523049277 
381	 7.05223499602249E-02 
382	 6.68258714300068E-02 
383	 7.16747692047504E-02 
384	 7.23922495104817E-02 
385	 7.10844424881823E-02 
386	 7.03409772185958E-02 
387	 6.91861221157664E-02 
388	 7.09601222913011E-02 
389	 7.18005271163927E-02 
390	 6.81926593102454E-02 
391	 6.98164825749298E-02 
392	 7.02413740025263E-02 
393	 6.88071879812938E-02 
394	 7.00369103399507E-02 
395	 7.16374712235515E-02 
396	 7.16950212393358E-02 
397	 7.04937808385112E-02 
398	 7.31545072981091E-02 
399	 7.32809744918171E-02 
400	 7.25606251249291E-02 
401	 7.42807633303431E-02 
402	 7.27450230219231E-02 
403	 7.15265833214689E-02 
404	 7.15657014347232E-02 
405	 7.06809960507058E-02 
406	 0.071736143635684 
407	 7.32552848236253E-02 
408	 7.34535427944797E-02 
409	 7.15565950324664E-02 
410	 7.16299201951662E-02 
411	 0.072561541436615 
412	 7.14973335764763E-02 
413	 7.25063010787366E-02 
414	 7.28288000724568E-02 
415	 7.19414933323552E-02 
416	 7.28830809374786E-02 
417	 7.32873484273585E-02 
418	 7.33157472613015E-02 
419	 7.34578629559655E-02 
420	 7.31849298808534E-02 
421	 7.23884442268208E-02 
422	 7.20590513246067E-02 
423	 7.35169431776004E-02 
424	 7.38090293843548E-02 
425	 7.33495951099462E-02 
426	 7.29355228143936E-02 
427	 7.32089742479068E-02 
428	 7.33847970974664E-02 
429	 7.34210923100876E-02 
430	 7.34851821207343E-02 
431	 7.35022103023247E-02 
432	 7.34735179353221E-02 
433	 7.35089754908578E-02 
434	 7.38018127529327E-02 
435	 7.41306761395248E-02 
436	 7.44319976677033E-02 
437	 0.074621114867491 
438	 7.43967691580345E-02 
439	 7.44754596963967E-02 
440	 7.49049265379595E-02 
441	 7.53448757400338E-02 
442	 7.53619572890452E-02 
443	 7.54934302965584E-02 
444	 7.58565745381558E-02 
445	 7.57878471590383E-02 
446	 0.075912302251943 
447	 7.60755146238349E-02 
448	 7.60304154343813E-02 
449	 7.60982136276355E-02 
450	 7.63401415169205E-02 
451	 7.66852866733906E-02 
452	 7.69625992288307E-02 
453	 7.71537747737751E-02 
454	 7.72573837854739E-02 
455	 0.077337831356528 
456	 7.76179934053216E-02 
457	 7.78076910686512E-02 
458	 7.78692255528153E-02 
459	 0.077913015393505 
460	 7.81827537165564E-02 
461	 0.07842751453359 
462	 7.86100909547644E-02 
463	 7.90601529962357E-02 
464	 7.92693191295902E-02 
465	 7.94918593148714E-02 
466	 7.99872234938192E-02 
467	 8.01647007015688E-02 
468	 8.01856696189126E-02 
469	 0.080258851403163 
470	 8.05801826465236E-02 
471	 8.07317680232666E-02 
472	 8.09314509310123E-02 
473	 0.081267953504565 
474	 8.12195710313473E-02 
475	 8.14821449695759E-02 
476	 8.19834515454741E-02 
477	 8.23301229552694E-02 
478	 8.25335341561479E-02 
479	 8.26844627501423E-02 
480	 8.28126192693701E-02 
481	 8.28362113121751E-02 
482	 8.32980031926984E-02 
483	 8.37359923882121E-02 
484	 0.083696698276069 
485	 8.39552909046196E-02 
486	 8.42561538715527E-02 
487	 8.44881032898224E-02 
488	 8.46853384723176E-02 
489	 8.49125214106938E-02 
490	 8.50268212946259E-02 
491	 8.50313697394719E-02 
492	 0.085388018791522 
493	 8.56901356250359E-02 
494	 8.59202889796157E-02 
495	 0.08622041061851 
496	 8.65064055338317E-02 
497	 0.086496258035783 
498	 8.63226029673107E-02 
499	 8.67604475965338E-02 
500	 8.69596308349504E-02 
501	 8.70082637179247E-02 
502	 8.71844644621967E-02 
503	 8.73074584266679E-02 
504	 8.74220396010249E-02 
505	 8.75238877473532E-02 
506	 0.087568691261896 
507	 0.087814342129976 
508	 8.80197540030373E-02 
509	 0.088039817009236 
510	 0.088262634093555 
511	 8.83867122274507E-02 
512	 8.83996261247951E-02 
513	 8.84558921682018E-02 
514	 8.87257867928817E-02 
515	 8.89493539713985E-02 
516	 8.90063551171271E-02 
517	 8.90891653590088E-02 
518	 8.91799789919555E-02 
519	 0.089255984480951 
520	 8.93193843173627E-02 
521	 8.95470645644198E-02 
522	 8.97394104902622E-02 
523	 8.98038749522216E-02 
524	 8.97838753543487E-02 
525	 8.97968405777667E-02 
526	 8.99158661086364E-02 
527	 9.01139520203333E-02 
528	 9.01029635802381E-02 
529	 9.01097107437114E-02 
530	 0.090194411057 
531	 9.03037453691023E-02 
532	 9.04551036478272E-02 
533	 9.05906569053715E-02 
534	 9.06853602574722E-02 
535	 9.08031961104541E-02 
536	 0.090877415060324 
537	 9.09417583226095E-02 
538	 9.10497415876884E-02 
539	 9.11047764727997E-02 
540	 9.11325850885005E-02 
541	 0.091189634657166 
542	 9.13614515582128E-02 
543	 9.14739138322572E-02 
544	 9.15569499240033E-02 
545	 9.16655363271622E-02 
546	 9.17055388980282E-02 
547	 0.091753767626492 
548	 9.18348773403737E-02 
549	 9.19245098742177E-02 
550	 9.20077973456589E-02 
551	 9.21046867476611E-02 
552	 9.22276657589191E-02 
553	 0.09236499085313 
554	 9.24020465324325E-02 
555	 9.24166536151704E-02 
556	 9.25637362304678E-02 
557	 9.26777522326278E-02 
558	 9.27490327740107E-02 
559	 9.28081333245193E-02 
560	 9.29283226891842E-02 
561	 9.29855967691828E-02 
562	 0.093020152701734 
563	 0.093115832580331 
564	 9.32626446798003E-02 
565	 9.33518943927164E-02 
566	 9.33810470893958E-02 
567	 9.34696819821814E-02 
568	 9.35140757114564E-02 
569	 9.35588323771258E-02 
570	 9.36435670623581E-02 
571	 9.36671640386721E-02 
572	 9.37336187293626E-02 
573	 9.38247615911779E-02 
574	 9.38431348573785E-02 
575	 9.38739358069689E-02 
576	 9.39053067270416E-02 
577	 9.39434968679236E-02 
578	 9.40793342629385E-02 
579	 9.41732705201093E-02 
580	 9.42363618792956E-02 
581	 9.43301482021294E-02 
582	 9.43778469668224E-02 
583	 9.43680359504386E-02 
584	 9.43168442569198E-02 
585	 9.42659458919144E-02 
586	 9.43043669156919E-02 
587	 9.43775954757487E-02 
588	 9.44200342532806E-02 
589	 9.45444188232766E-02 
590	 9.45983174657798E-02 
591	 9.45633548621467E-02 
592	 9.45479368224754E-02 
593	 9.45111427783803E-02 
594	 9.44434604428294E-02 
595	 9.43750977487167E-02 
596	 9.44335439383596E-02 
597	 9.45078185373767E-02 
598	 9.45514078099289E-02 
599	 9.45653283129155E-02 
600	 9.46425483665231E-02 
601	 9.47317892998158E-02 
602	 9.47798500972913E-02 
603	 9.47535518688638E-02 
604	 9.47855197454019E-02 
605	 9.48649629254404E-02 
606	 9.49391579167295E-02 
607	 9.50480458568047E-02 
608	 9.51549879749056E-02 
609	 9.52397929363413E-02 
610	 9.53057125140137E-02 
611	 9.52691491070566E-02 
612	 9.52605199165457E-02 
613	 9.53686939858122E-02 
614	 9.53663663955109E-02 
615	 9.53314662179745E-02 
616	 9.53304198907237E-02 
617	 9.54074722110798E-02 
618	 9.54486914198049E-02 
619	 9.54300982872168E-02 
620	 9.53828161083684E-02 
621	 9.54228353343879E-02 
622	 9.54919215337075E-02 
623	 9.55507894959339E-02 
624	 9.55739368796027E-02 
625	 9.55976366895504E-02 
626	 9.56208318494303E-02 
627	 0.095650328603946 
628	 9.57070151513845E-02 
629	 9.57766974525733E-02 
630	 9.58286859084647E-02 
631	 9.58447577303118E-02 
632	 9.58660485614023E-02 
633	 9.59133490507811E-02 
634	 9.59732696068911E-02 
635	 9.60081643899309E-02 
636	 9.60570251642461E-02 
637	 0.096146991254386 
638	 9.62454122745217E-02 
639	 9.61611121862224E-02 
640	 9.61787351541039E-02 
641	 9.62955606056539E-02 
642	 9.63811658240013E-02 
643	 9.64716320759262E-02 
644	 9.65333935879609E-02 
645	 9.65508216869611E-02 
646	 9.65384823741142E-02 
647	 9.65640878289381E-02 
648	 9.66248211211945E-02 
649	 9.67021423035113E-02 
650	 9.68309580955164E-02 
651	 9.68883916743797E-02 
652	 9.68899417925462E-02 
653	 9.69696352711994E-02 
654	 9.70924801091807E-02 
655	 9.71705800919211E-02 
656	 9.71770490686371E-02 
657	 9.72677369985168E-02 
658	 9.73051796738253E-02 
659	 9.73332099175042E-02 
660	 9.74529274550141E-02 
661	 0.097498766707884 
662	 9.75646703862982E-02 
663	 9.76631332081094E-02 
664	 9.76503857238773E-02 
665	 9.77330603557482E-02 
666	 9.78221655938493E-02 
667	 9.78118051915563E-02 
668	 9.79028863656898E-02 
669	 9.79564768781902E-02 
670	 9.79741197182471E-02 
671	 9.80714143166826E-02 
672	 9.81292382027037E-02 
673	 9.81838156265045E-02 
674	 9.82706352115029E-02 
675	 9.83688991322915E-02 
676	 9.84009139335166E-02 
677	 9.83953573458487E-02 
678	 0.09842932134519 
679	 9.85340041083722E-02 
680	 0.098623672425305 
681	 9.86703087912646E-02 
682	 9.87349386031393E-02 
683	 9.87405698976612E-02 
684	 0.098765307059411 
685	 9.88726640280197E-02 
686	 9.89298948438405E-02 
687	 9.89672387933489E-02 
688	 9.90071965112741E-02 
689	 9.90625992169807E-02 
690	 0.099109559503875 
691	 9.91472887797277E-02 
692	 9.91816588701814E-02 
693	 9.92301235425753E-02 
694	 9.92121797581692E-02 
695	 9.91917472699497E-02 
696	 9.92575590151544E-02 
697	 9.93162955114982E-02 
698	 9.93636187472356E-02 
699	 0.099411154374423 
700	 9.94795304054318E-02 
701	 9.94939858423567E-02 
702	 9.94889018029314E-02 
703	 9.95043141330838E-02 
704	 9.95256017436704E-02 
705	 9.95524623271937E-02 
706	 9.95851062480412E-02 
707	 9.96199564574588E-02 
708	 9.96198834955048E-02 
709	 9.96248372245991E-02 
710	 9.96541784022004E-02 
711	 9.96870290810015E-02 
712	 9.96840878074039E-02 
713	 9.96761031166996E-02 
714	 9.96968456378011E-02 
715	 9.97113935575762E-02 
716	 9.96926436057906E-02 
717	 9.96725684567161E-02 
718	 9.97142199270291E-02 
719	 9.97042695100976E-02 
720	 9.96954430663898E-02 
721	 9.97106504698274E-02 
722	 0.099663135810555 
723	 9.96610572182267E-02 
724	 9.96757128866256E-02 
725	 9.96476753869411E-02 
726	 9.96177052039807E-02 
727	 0.099599270669168 
728	 0.099584220074999 
729	 9.95476203266012E-02 
730	 0.099515302579944 
731	 0.099508101649656 
732	 9.95184408037452E-02 
733	 9.94724773733646E-02 
734	 9.94403188221765E-02 
735	 9.94060838441579E-02 
736	 9.93371288269569E-02 
737	 9.93285717825606E-02 
738	 9.93050149937448E-02 
739	 9.92489870713884E-02 
740	 9.92182040558764E-02 
741	 9.91792677561362E-02 
742	 9.91387777842521E-02 
743	 0.099097299728794 
744	 9.90125723155173E-02 
745	 9.89439547919558E-02 
746	 9.89188923843677E-02 
747	 9.89296480427646E-02 
748	 9.88600460749803E-02 
749	 9.87615808437752E-02 
750	 9.86807207686298E-02 
751	 9.86369491277528E-02 
752	 9.86496673763724E-02 
753	 9.86280005813009E-02 
754	 9.85270773376107E-02 
755	 9.85126916944762E-02 
756	 9.84816623394307E-02 
757	 9.84106468847149E-02 
758	 9.83272283232521E-02 
759	 9.83072165547037E-02 
760	 0.09825896811957 
761	 9.81709790820466E-02 
762	 0.098149287724657 
763	 9.81191242692832E-02 
764	 9.80739939448805E-02 
765	 9.80261565945898E-02 
766	 9.79992343084419E-02 
767	 9.79389025089808E-02 
768	 9.78513234620786E-02 
769	 9.77744832900765E-02 
770	 9.77214896055758E-02 
771	 0.097686701244911 
772	 0.097645166543922 
773	 9.75551940011869E-02 
774	 9.75052420169795E-02 
775	 9.74772934760921E-02 
776	 9.74367752112756E-02 
777	 9.73737127904012E-02 
778	 9.73129785309727E-02 
779	 9.72679328957695E-02 
780	 9.72370735371104E-02 
781	 9.71651809199945E-02 
782	 9.71244194626146E-02 
783	 0.097109940794847 
784	 9.70301394373716E-02 
785	 9.69418687106586E-02 
786	 9.68595725934717E-02 
787	 9.67900047942169E-02 
788	 9.67404938787787E-02 
789	 9.67158114296286E-02 
790	 9.66701497719728E-02 
791	 9.65669395017107E-02 
792	 9.65184593579736E-02 
793	 9.64797747239402E-02 
794	 9.64248600898743E-02 
795	 9.63537362290372E-02 
796	 0.096284859972925 
797	 9.62171252289309E-02 
798	 9.61542225653198E-02 
799	 9.61168020851466E-02 
800	 9.60475724161465E-02 
801	 9.59627202055898E-02 
802	 9.58973518677116E-02 
803	 9.58656583911455E-02 
804	 9.58008643573936E-02 
805	 9.57125424272369E-02 
806	 9.56562123552675E-02 
807	 9.56179480256503E-02 
808	 9.55600120866127E-02 
809	 9.54823813044238E-02 
810	 9.54359448231984E-02 
811	 9.54129405248741E-02 
812	 9.53491790423715E-02 
813	 9.52271493469958E-02 
814	 9.51899367535349E-02 
815	 0.095132585470959 
816	 9.50462381394512E-02 
817	 9.49716355957502E-02 
818	 9.49913157523101E-02 
819	 0.094945256897443 
820	 0.094836018445292 
821	 9.48043775419934E-02 
822	 9.47486681732694E-02 
823	 9.46740088643715E-02 
824	 9.46021812292445E-02 
825	 9.45566432422916E-02 
826	 9.44908439643647E-02 
827	 9.44220133315583E-02 
828	 9.43757999119629E-02 
829	 9.43490816502835E-02 
830	 9.42887236525305E-02 
831	 9.42196258371598E-02 
832	 9.41940281457007E-02 
833	 0.094175486514993 
834	 9.41061540554786E-02 
835	 9.39912435165437E-02 
836	 9.39000607307398E-02 
837	 9.39130755941224E-02 
838	 9.39278581888032E-02 
839	 9.38687197898578E-02 
840	 9.37600348935882E-02 
841	 9.36855403788986E-02 
842	 9.36326198829875E-02 
843	 9.35759520261077E-02 
844	 9.35520683834791E-02 
845	 9.35200234859256E-02 
846	 9.34747601788676E-02 
847	 9.34295740186822E-02 
848	 9.33920527259795E-02 
849	 9.33475357757336E-02 
850	 9.32965074733925E-02 
851	 9.32484934018687E-02 
852	 9.31436440932902E-02 
853	 9.30748262127618E-02 
854	 9.30625137737483E-02 
855	 9.29950270998753E-02 
856	 9.29859695722833E-02 
857	 9.30057890287216E-02 
858	 9.29968664225632E-02 
859	 9.29142724735928E-02 
860	 9.28576730724131E-02 
861	 9.28276090213326E-02 
862	 9.27882268600896E-02 
863	 9.27193807719472E-02 
864	 0.092695180662118 
865	 9.26945161702908E-02 
866	 9.26434887629361E-02 
867	 9.25611514367942E-02 
868	 9.24924121352518E-02 
869	 9.24544494222859E-02 
870	 9.24303644213796E-02 
871	 9.23864032225777E-02 
872	 9.23774163377812E-02 
873	 9.24017017475155E-02 
874	 9.23473313930583E-02 
875	 9.22850288281067E-02 
876	 9.22204111031541E-02 
877	 9.21567119256394E-02 
878	 0.092128810722152 
879	 9.21495481826255E-02 
880	 9.21356382623309E-02 
881	 9.20273260578732E-02 
882	 9.19983866699771E-02 
883	 9.19994387337186E-02 
884	 9.19806334897638E-02 
885	 9.19166219736142E-02 
886	 9.19137184968779E-02 
887	 9.19004452294707E-02 
888	 9.18626276645717E-02 
889	 9.18432407006829E-02 
890	 9.18301460152588E-02 
891	 0.091797128526197 
892	 9.17466454698527E-02 
893	 9.17174430863119E-02 
894	 9.16984639075974E-02 
895	 9.17140364793445E-02 
896	 0.091745974386753 
897	 9.16937236573047E-02 
898	 9.16497413409436E-02 
899	 9.16283732771621E-02 
900	 9.16187947514638E-02 
901	 9.16056455199205E-02 
902	 9.15511307124784E-02 
903	 9.15369043108298E-02 
904	 9.16116041085711E-02 
905	 9.15450793835591E-02 
906	 9.14840498979086E-02 
907	 9.14445775558415E-02 
908	 9.13987754154684E-02 
909	 9.14637811373053E-02 
910	 9.14311731227968E-02 
911	 9.13466975074868E-02 
912	 0.091395464921576 
913	 9.14037938768917E-02 
914	 0.091406648252514 
915	 9.14104677955631E-02 
916	 9.13885584531081E-02 
917	 9.13944867102913E-02 
918	 0.091359672363826 
919	 9.12901639849211E-02 
920	 9.12837318545256E-02 
921	 9.12408863573727E-02 
922	 9.12319169034263E-02 
923	 9.12617814438364E-02 
924	 9.12087127813037E-02 
925	 9.11950079637253E-02 
926	 9.11987095881229E-02 
927	 9.11885917959374E-02 
928	 0.09117507222062 
929	 0.091119508460071 
930	 9.11193117243254E-02 
931	 9.12041655448362E-02 
932	 9.11759612556264E-02 
933	 9.11541436134361E-02 
934	 0.091120433281209 
935	 9.10593334484625E-02 
936	 9.10794374060301E-02 
937	 9.10446016221382E-02 
938	 0.091019385721836 
939	 9.10856535950134E-02 
940	 9.11551512927971E-02 
941	 9.10859362795369E-02 
942	 9.10274211298966E-02 
943	 9.11259029730303E-02 
944	 9.10232530694486E-02 
945	 9.09540991779525E-02 
946	 0.090939876099612 
947	 9.09151669883961E-02 
948	 9.09308602134985E-02 
949	 9.09088752773304E-02 
950	 9.08673969208247E-02 
951	 9.08727543423366E-02 
952	 9.09536791328813E-02 
953	 9.09583748576001E-02 
954	 0.09091946946473 
955	 9.09553040577047E-02 
956	 9.10055161733477E-02 
957	 9.09865566424983E-02 
958	 9.09196130215462E-02 
959	 9.08871523747849E-02 
960	 9.08956897804309E-02 
961	 9.09547646034257E-02 
962	 9.09980455263689E-02 
963	 9.09454156370857E-02 
964	 0.090916504357372 
965	 0.090907055021385 
966	 0.090885434028077 
967	 9.08392998713959E-02 
968	 9.09636056067737E-02 
969	 9.09336304997557E-02 
970	 9.08038216240484E-02 
971	 0.090846531714587 
972	 9.08229108641567E-02 
973	 9.07722282345984E-02 
974	 9.07440934400001E-02 
975	 9.07717076787538E-02 
976	 9.08247412048728E-02 
977	 9.09354033822233E-02 
978	 9.09973137444629E-02 
979	 0.090881036528403 
980	 9.08425909812286E-02 
981	 9.07722525254689E-02 
982	 9.06978764387839E-02 
983	 9.07170839082777E-02 
984	 0.090756955021034 
985	 0.090767765584194 
986	 9.07378203670026E-02 
987	 9.06839583392906E-02 
988	 9.06213794561962E-02 
989	 9.05977665887218E-02 
990	 9.06290007158324E-02 
991	 9.06900825386105E-02 
992	 9.06906157929998E-02 
993	 0.090592255431705 
994	 9.05997620443266E-02 
995	 9.08371703921289E-02 
996	 0.090696320069945 
997	 9.05559038954562E-02 
998	 9.05705439365411E-02 
999	 9.06926457908692E-02 
1000	 9.05751473640836E-02 
1001	 8.73829639190986E-02 
1002	 8.73775675774683E-02 
1003	 8.73651408933161E-02 
1004	 8.73612000546918E-02 
1005	 8.73892179345752E-02 
1006	 8.73484672594209E-02 
1007	 8.72540936727888E-02 
1008	 8.72089362777928E-02 
1009	 8.72022368111819E-02 
1010	 8.72016465730473E-02 
1011	 8.71907383985333E-02 
1012	 8.71975481396983E-02 
1013	 0.087186855353774 
1014	 8.71389146582123E-02 
1015	 8.71382734644437E-02 
1016	 8.71669771955973E-02 
1017	 8.71623921536014E-02 
1018	 8.71438742345932E-02 
1019	 8.70960811743742E-02 
1020	 8.70280205364929E-02 
1021	 0.086982761993037 
1022	 8.69443049883014E-02 
1023	 8.68994649892601E-02 
1024	 0.08692395603494 
1025	 0.086953690692724 
1026	 0.086901228903475 
1027	 8.68747449038289E-02 
1028	 0.086850658835604 
1029	 8.67768732646411E-02 
1030	 8.67254766344833E-02 
1031	 8.66945667175203E-02 
1032	 8.66805223569081E-02 
1033	 8.66832905031786E-02 
1034	 8.66568236849761E-02 
1035	 8.66401680948083E-02 
1036	 8.66727639707092E-02 
1037	 8.66232807304133E-02 
1038	 0.086567949473156 
1039	 8.65888746426918E-02 
1040	 8.65904770438456E-02 
1041	 8.65786500668324E-02 
1042	 8.65887139499195E-02 
1043	 8.65778305834423E-02 
1044	 0.086552511080621 
1045	 8.64824218166163E-02 
1046	 8.64424673529776E-02 
1047	 8.64512515314029E-02 
1048	 8.64506743460935E-02 
1049	 8.64504765342268E-02 
1050	 8.64780313561213E-02 
1051	 8.64765080131363E-02 
1052	 0.086457319865999 
1053	 8.64556704509367E-02 
1054	 8.64266719914535E-02 
1055	 8.63898939592088E-02 
1056	 8.63322655381236E-02 
1057	 8.63172855500394E-02 
1058	 0.086341745968604 
1059	 8.63497289235031E-02 
1060	 8.63582373523494E-02 
1061	 8.64025037218373E-02 
1062	 0.086438638208384 
1063	 8.64254766257948E-02 
1064	 8.64449638788655E-02 
1065	 8.64583210627971E-02 
1066	 8.64585902224637E-02 
1067	 8.64812866532338E-02 
1068	 8.65086225778641E-02 
1069	 8.65370292568236E-02 
1070	 8.65468807451125E-02 
1071	 8.65390621173356E-02 
1072	 8.65302451747434E-02 
1073	 8.65094738584306E-02 
1074	 8.64931069543926E-02 
1075	 8.64651085300665E-02 
1076	 8.64676907833857E-02 
1077	 8.64811192629388E-02 
1078	 0.086509967297659 
1079	 8.65672110234916E-02 
1080	 0.086595759056666 
1081	 8.65906127601855E-02 
1082	 8.65696942567409E-02 
1083	 8.65421615364668E-02 
1084	 8.64726055285056E-02 
1085	 8.64601641736243E-02 
1086	 8.64682812804504E-02 
1087	 8.64674738561173E-02 
1088	 8.64870932430388E-02 
1089	 8.65115626849684E-02 
1090	 8.65016690681029E-02 
1091	 8.64847730218211E-02 
1092	 8.64659490858914E-02 
1093	 8.64342374672868E-02 
1094	 8.64095085204902E-02 
1095	 8.64310754745713E-02 
1096	 8.64366381845509E-02 
1097	 8.64263472546676E-02 
1098	 8.64277159819172E-02 
1099	 8.64162242624958E-02 
1100	 8.64119964856241E-02 
1101	 8.64337606731586E-02 
1102	 8.64340407377773E-02 
1103	 8.64252809361528E-02 
1104	 8.64135194436022E-02 
1105	 8.63897252273935E-02 
1106	 8.63789267975228E-02 
1107	 8.63379265320742E-02 
1108	 8.62999434651028E-02 
1109	 8.63114913586687E-02 
1110	 8.62885579790863E-02 
1111	 8.62737612275738E-02 
1112	 0.086295786100168 
1113	 8.62743981696323E-02 
1114	 8.61931523351243E-02 
1115	 0.086180706971895 
1116	 8.61914798842508E-02 
1117	 8.61935130698951E-02 
1118	 8.62254871437418E-02 
1119	 8.62558167490981E-02 
1120	 8.62244112583867E-02 
1121	 8.62054427021886E-02 
1122	 8.61986951037699E-02 
1123	 8.61584884070643E-02 
1124	 0.08614276406374 
1125	 8.61486728516537E-02 
1126	 0.086134249212078 
1127	 8.61027308977449E-02 
1128	 8.60955211404209E-02 
1129	 8.60966014630748E-02 
1130	 8.60901743702372E-02 
1131	 8.60963192795676E-02 
1132	 8.60990386332386E-02 
1133	 8.60922471306513E-02 
1134	 8.60849650011623E-02 
1135	 8.60884068772107E-02 
1136	 8.60796248545697E-02 
1137	 8.60437298368451E-02 
1138	 8.60350532192179E-02 
1139	 8.60237272357159E-02 
1140	 8.60027756352274E-02 
1141	 8.60061964862777E-02 
1142	 8.60347059383508E-02 
1143	 8.60422399637364E-02 
1144	 8.60460625722805E-02 
1145	 0.086059594346984 
1146	 8.60856851280897E-02 
1147	 8.60835499072005E-02 
1148	 8.60777724338443E-02 
1149	 8.60709711516556E-02 
1150	 8.60423912404858E-02 
1151	 8.60001720926602E-02 
1152	 8.60078303788731E-02 
1153	 8.60231895866397E-02 
1154	 8.60290399330168E-02 
1155	 8.60428132425058E-02 
1156	 8.60581990401689E-02 
1157	 8.60761471883228E-02 
1158	 8.60773428503166E-02 
1159	 8.60782571144018E-02 
1160	 8.60749442002909E-02 
1161	 8.60460449029286E-02 
1162	 8.60360928053382E-02 
1163	 0.086035051612183 
1164	 8.60408070497673E-02 
1165	 8.60462852202035E-02 
1166	 8.60630438979149E-02 
1167	 8.61194824549452E-02 
1168	 8.61586194420537E-02 
1169	 8.61764166391781E-02 
1170	 8.61890922204347E-02 
1171	 8.62050566633241E-02 
1172	 8.61965291981221E-02 
1173	 0.086203132401898 
1174	 8.62262096644053E-02 
1175	 0.086242436099385 
1176	 8.62544818833976E-02 
1177	 8.62609305296171E-02 
1178	 8.62633409107953E-02 
1179	 8.62758438876275E-02 
1180	 8.62830103294879E-02 
1181	 8.62942123071836E-02 
1182	 8.63141778282294E-02 
1183	 8.63431054655991E-02 
1184	 8.63654667377164E-02 
1185	 8.63841821747042E-02 
1186	 8.64015894747096E-02 
1187	 8.64200246553129E-02 
1188	 8.64397337138518E-02 
1189	 8.64522928468347E-02 
1190	 8.64751867127288E-02 
1191	 8.65069698942723E-02 
1192	 8.65343810958377E-02 
1193	 8.65652206861816E-02 
1194	 8.65931759911055E-02 
1195	 8.66158435653756E-02 
1196	 8.66449267739545E-02 
1197	 8.66823485041868E-02 
1198	 8.67107983285064E-02 
1199	 8.67366792039307E-02 
1200	 8.67602983536413E-02 
1201	 8.67890171686277E-02 
1202	 8.68129731637868E-02 
1203	 8.68413315394261E-02 
1204	 8.68792020389412E-02 
1205	 8.69103531975091E-02 
1206	 8.69370753453697E-02 
1207	 8.69648540836311E-02 
1208	 8.69891540334251E-02 
1209	 8.70209367517125E-02 
1210	 8.70546177186702E-02 
1211	 8.70895894771976E-02 
1212	 8.71408314464893E-02 
1213	 0.087175066267411 
1214	 8.71920823231466E-02 
1215	 8.72199926573817E-02 
1216	 8.72485056530176E-02 
1217	 8.72722826401838E-02 
1218	 8.72981104062334E-02 
1219	 8.73299751412392E-02 
1220	 8.73622531222882E-02 
1221	 8.73924666463489E-02 
1222	 8.74212258796759E-02 
1223	 8.74596331794305E-02 
1224	 8.74856917289998E-02 
1225	 8.74921135400241E-02 
1226	 8.75169769780175E-02 
1227	 8.75441385800066E-02 
1228	 8.75775928922884E-02 
1229	 8.76284979379872E-02 
1230	 8.76703789364104E-02 
1231	 8.77126970589328E-02 
1232	 8.77523544149096E-02 
1233	 8.77892869652046E-02 
1234	 8.78226987538803E-02 
1235	 8.78533845807014E-02 
1236	 8.78811772131016E-02 
1237	 8.79078632252043E-02 
1238	 0.087929465794916 
1239	 8.79552473550052E-02 
1240	 8.79811309206055E-02 
1241	 8.80088763050463E-02 
1242	 8.80317289427261E-02 
1243	 8.80675456751942E-02 
1244	 8.81150836142424E-02 
1245	 8.81567786811116E-02 
1246	 8.82107755639867E-02 
1247	 8.82532992878348E-02 
1248	 8.82894340333718E-02 
1249	 8.83163939463806E-02 
1250	 8.83376362415927E-02 
1251	 8.83743824756863E-02 
1252	 8.84101373931385E-02 
1253	 8.84494348827253E-02 
1254	 8.84861775240828E-02 
1255	 8.85275626459168E-02 
1256	 8.85631310918519E-02 
1257	 8.85995323050969E-02 
1258	 8.86285878433363E-02 
1259	 8.86428912119709E-02 
1260	 8.86757547923716E-02 
1261	 8.87194644058148E-02 
1262	 8.87479606924136E-02 
1263	 8.87758333175438E-02 
1264	 8.88114971568656E-02 
1265	 8.88426201552592E-02 
1266	 8.88702525433815E-02 
1267	 8.89105768149012E-02 
1268	 8.89419291245136E-02 
1269	 8.89683592708646E-02 
1270	 8.89762409926124E-02 
1271	 8.89999781567867E-02 
1272	 0.089025635361451 
1273	 8.90633620189138E-02 
1274	 8.91127542127343E-02 
1275	 8.91536384504649E-02 
1276	 8.91998238468382E-02 
1277	 8.92442120803473E-02 
1278	 8.92746902243413E-02 
1279	 8.93223086903391E-02 
1280	 8.93780447574575E-02 
1281	 8.94429653810263E-02 
1282	 8.95361336984946E-02 
1283	 8.96020619446759E-02 
1284	 8.96522594606304E-02 
1285	 8.97123870969576E-02 
1286	 8.97859629989207E-02 
1287	 8.98514906464573E-02 
1288	 8.99181928609979E-02 
1289	 9.00052749048539E-02 
1290	 9.00827587411726E-02 
1291	 9.01372077181879E-02 
1292	 9.02150783498843E-02 
1293	 9.03169621121531E-02 
1294	 9.04019118883485E-02 
1295	 9.04884761490337E-02 
1296	 0.0905655511353 
1297	 9.06346180034762E-02 
1298	 9.07058181590183E-02 
1299	 9.07653728786343E-02 
1300	 9.08311120552411E-02 
1301	 9.09105539380282E-02 
1302	 9.09752729337755E-02 
1303	 0.091027745237938 
1304	 9.10883184493005E-02 
1305	 9.11475438820059E-02 
1306	 9.12034873663217E-02 
1307	 9.12604237458717E-02 
1308	 9.13064858605135E-02 
1309	 9.13589826625195E-02 
1310	 9.14100548438365E-02 
1311	 9.14513406610635E-02 
1312	 9.14955821508046E-02 
1313	 9.15286040906719E-02 
1314	 9.15378913474472E-02 
1315	 9.15633912368649E-02 
1316	 0.091590064820847 
1317	 9.16289315174073E-02 
1318	 9.16847312389295E-02 
1319	 0.091721960185576 
1320	 9.17666548937939E-02 
1321	 9.17945251847293E-02 
1322	 9.17906351514616E-02 
1323	 9.18079853196643E-02 
1324	 9.18515955581935E-02 
1325	 9.18794777695449E-02 
1326	 0.091911668457289 
1327	 9.19473725157647E-02 
1328	 9.19532859537433E-02 
1329	 9.19554743352927E-02 
1330	 9.19680893003745E-02 
1331	 9.19781748665135E-02 
1332	 9.20049756029604E-02 
1333	 9.20475494713984E-02 
1334	 9.20783477548937E-02 
1335	 9.21218732198635E-02 
1336	 9.21512488193466E-02 
1337	 9.21623521951195E-02 
1338	 9.21817629437794E-02 
1339	 9.22065902412951E-02 
1340	 9.22220807627693E-02 
1341	 9.22374320223787E-02 
1342	 9.22486880329747E-02 
1343	 9.22525726150576E-02 
1344	 9.22503789244287E-02 
1345	 9.22639700375101E-02 
1346	 9.22709686248878E-02 
1347	 9.22812101942675E-02 
1348	 9.22906736477921E-02 
1349	 9.22924271498206E-02 
1350	 9.22859401657871E-02 
1351	 9.22759024899601E-02 
1352	 9.22607117523279E-02 
1353	 9.22485752748118E-02 
1354	 9.22274844466877E-02 
1355	 9.22164159237578E-02 
1356	 9.22158830745516E-02 
1357	 9.22060446505348E-02 
1358	 9.21956284021402E-02 
1359	 0.092184375616334 
1360	 9.21470076703091E-02 
1361	 9.21503192129603E-02 
1362	 9.21732859072951E-02 
1363	 9.22012868315314E-02 
1364	 9.22584702194612E-02 
1365	 9.23144086086773E-02 
1366	 9.23742072704295E-02 
1367	 9.24334475537273E-02 
1368	 9.25027886828189E-02 
1369	 9.25524713236626E-02 
1370	 9.25757590648296E-02 
1371	 0.092595112609917 
1372	 9.26249804327316E-02 
1373	 9.26686411755593E-02 
1374	 9.27078656298872E-02 
1375	 9.27791138121545E-02 
1376	 9.27934047535934E-02 
1377	 9.27736482524865E-02 
1378	 9.27641349418225E-02 
1379	 9.27235490874378E-02 
1380	 9.27096926446782E-02 
1381	 9.26959198437539E-02 
1382	 0.09270974812911 
1383	 9.27483955394254E-02 
1384	 9.27774920857155E-02 
1385	 9.28319995625053E-02 
1386	 9.28716615343081E-02 
1387	 9.28898974794301E-02 
1388	 9.29212405186755E-02 
1389	 9.29662443175029E-02 
1390	 0.093000726981836 
1391	 9.30182219818522E-02 
1392	 9.30389233844517E-02 
1393	 0.093040194249196 
1394	 0.093032637693425 
1395	 9.30421023042682E-02 
1396	 9.30422993858103E-02 
1397	 9.30548492213528E-02 
1398	 9.30793206223359E-02 
1399	 9.30957549298503E-02 
1400	 9.31153148466546E-02 
1401	 9.31251177888713E-02 
1402	 9.31180461217453E-02 
1403	 0.093138283394046 
1404	 9.31711557043704E-02 
1405	 9.31997233102629E-02 
1406	 9.32447897977408E-02 
1407	 9.32720821932635E-02 
1408	 0.093280354597879 
1409	 9.33029586414811E-02 
1410	 9.33259121137354E-02 
1411	 9.33569883440364E-02 
1412	 9.33926044616682E-02 
1413	 9.34372160938067E-02 
1414	 9.34866265915916E-02 
1415	 9.35431921473352E-02 
1416	 9.35907008149726E-02 
1417	 9.36227991317532E-02 
1418	 9.36519311260629E-02 
1419	 9.36836473993339E-02 
1420	 9.37257159407042E-02 
1421	 9.37753969892618E-02 
1422	 9.38265310952932E-02 
1423	 9.38677756203373E-02 
1424	 9.39053577351265E-02 
1425	 0.093937846438873 
1426	 9.39711874998855E-02 
1427	 9.39915989068483E-02 
1428	 9.40338825162602E-02 
1429	 9.40870508306314E-02 
1430	 9.41331640779366E-02 
1431	 9.41874632519656E-02 
1432	 9.42416430973752E-02 
1433	 9.42993549042455E-02 
1434	 9.43440688739775E-02 
1435	 9.43859996319156E-02 
1436	 9.44256239170569E-02 
1437	 0.094454275752985 
1438	 9.44829336341327E-02 
1439	 9.45087965668932E-02 
1440	 9.45435873235271E-02 
1441	 9.45723688420514E-02 
1442	 9.45928404902422E-02 
1443	 9.46339820096542E-02 
1444	 9.46781325853235E-02 
1445	 9.47227412940721E-02 
1446	 0.094768072643922 
1447	 0.094800699813505 
1448	 9.48291738902657E-02 
1449	 9.48468976374593E-02 
1450	 9.48575913239615E-02 
1451	 9.48837358605857E-02 
1452	 9.49107695980391E-02 
1453	 9.49503050516677E-02 
1454	 9.50126192554896E-02 
1455	 9.50520448002676E-02 
1456	 9.50838841911617E-02 
1457	 9.51186157969506E-02 
1458	 9.51427957948516E-02 
1459	 9.51786289319868E-02 
1460	 0.095224726067938 
1461	 9.52653101926809E-02 
1462	 9.53119897646979E-02 
1463	 9.53460705799027E-02 
1464	 9.53777094348885E-02 
1465	 9.54026092089927E-02 
1466	 9.54083745858531E-02 
1467	 9.54265376628557E-02 
1468	 9.54411146503163E-02 
1469	 9.54645325204568E-02 
1470	 0.095504198018899 
1471	 9.55312256020688E-02 
1472	 9.55610829764238E-02 
1473	 9.56041121731566E-02 
1474	 9.56280587699113E-02 
1475	 9.56567896041939E-02 
1476	 9.56746504905146E-02 
1477	 9.56836611981122E-02 
1478	 9.57224479848479E-02 
1479	 9.57759296636067E-02 
1480	 9.58187269602712E-02 
1481	 9.58612194622252E-02 
1482	 9.58889724219868E-02 
1483	 9.58822885937949E-02 
1484	 9.59054430355972E-02 
1485	 9.59420509731232E-02 
1486	 9.59712860458647E-02 
1487	 9.60062687210811E-02 
1488	 0.096036632521015 
1489	 9.60630059574181E-02 
1490	 9.60904376789135E-02 
1491	 9.61232999948267E-02 
1492	 9.61460372485656E-02 
1493	 9.61582932718197E-02 
1494	 9.61765061234668E-02 
1495	 9.61867320113165E-02 
1496	 0.096206951058823 
1497	 9.62387910626466E-02 
1498	 9.62655469223437E-02 
1499	 9.62950300460768E-02 
1500	 9.63220395254021E-02 
1501	 9.63479426804372E-02 
1502	 9.63710127002699E-02 
1503	 9.63882619000473E-02 
1504	 9.64152096676329E-02 
1505	 9.64308277584481E-02 
1506	 9.64471122036721E-02 
1507	 9.64637040341303E-02 
1508	 9.64631941046711E-02 
1509	 9.64671910512097E-02 
1510	 9.64710467100197E-02 
1511	 9.64846734601149E-02 
1512	 9.65020452824182E-02 
1513	 9.65223000998792E-02 
1514	 9.65464734242432E-02 
1515	 9.65566005614824E-02 
1516	 9.65723688214973E-02 
1517	 9.65941513098403E-02 
1518	 9.66233156703914E-02 
1519	 9.66393521013139E-02 
1520	 9.66525986595178E-02 
1521	 9.66712067115522E-02 
1522	 9.66830598357369E-02 
1523	 0.096696347395964 
1524	 9.67183293040369E-02 
1525	 9.67377058143989E-02 
1526	 9.67493965762586E-02 
1527	 9.67659178582741E-02 
1528	 9.67932400143678E-02 
1529	 9.68082576592873E-02 
1530	 0.09681416489668 
1531	 9.68233464222525E-02 
1532	 9.68313126460557E-02 
1533	 9.68387883776314E-02 
1534	 9.68422179408744E-02 
1535	 9.68507995412756E-02 
1536	 9.68601426156291E-02 
1537	 9.68719403595868E-02 
1538	 9.68850631962394E-02 
1539	 9.69064401928365E-02 
1540	 9.69420524597518E-02 
1541	 9.69607335052509E-02 
1542	 9.69818266595831E-02 
1543	 9.69933415906439E-02 
1544	 0.096976188200445 
1545	 9.69781342848905E-02 
1546	 9.69888075402332E-02 
1547	 9.69975368534264E-02 
1548	 9.70128085201925E-02 
1549	 9.70398986936957E-02 
1550	 9.70542256834824E-02 
1551	 9.70709861430253E-02 
1552	 9.70915104527027E-02 
1553	 9.70968359890219E-02 
1554	 9.71008292563957E-02 
1555	 9.71181732754036E-02 
1556	 9.71281080387875E-02 
1557	 9.71293776472493E-02 
1558	 9.71339788483011E-02 
1559	 9.71318397986796E-02 
1560	 9.71422323892384E-02 
1561	 9.71638163929761E-02 
1562	 9.71702804473629E-02 
1563	 9.71713345862577E-02 
1564	 9.71840788740708E-02 
1565	 9.71973093873044E-02 
1566	 9.72007470590092E-02 
1567	 9.72124298826488E-02 
1568	 9.72204297017972E-02 
1569	 0.097211220498248 
1570	 9.72057505447001E-02 
1571	 9.72086513108037E-02 
1572	 9.72103565146209E-02 
1573	 9.71995873302129E-02 
1574	 9.72043534334951E-02 
1575	 9.72308638724186E-02 
1576	 9.72368734181735E-02 
1577	 9.72286767928707E-02 
1578	 9.72363481415598E-02 
1579	 9.72490182948337E-02 
1580	 9.72511720300706E-02 
1581	 9.72559480078139E-02 
1582	 0.097264283099497 
1583	 0.097263568377235 
1584	 9.72664234232087E-02 
1585	 9.72815731277714E-02 
1586	 9.72878482033617E-02 
1587	 9.72828323749985E-02 
1588	 9.72870422449998E-02 
1589	 9.73043881101117E-02 
1590	 9.73043640514459E-02 
1591	 9.72918954099846E-02 
1592	 9.72867910446786E-02 
1593	 9.72676058218204E-02 
1594	 9.72653269606875E-02 
1595	 9.72878376888664E-02 
1596	 0.097293831614252 
1597	 9.72967981984815E-02 
1598	 0.097298346431058 
1599	 9.72870388348731E-02 
1600	 9.72829410987932E-02 
1601	 9.72808799329223E-02 
1602	 0.097286106259371 
1603	 9.73012608902317E-02 
1604	 0.097310427436835 
1605	 9.73205338923309E-02 
1606	 9.73310595092763E-02 
1607	 9.73342346979642E-02 
1608	 9.73474959595543E-02 
1609	 9.73594250416158E-02 
1610	 9.73641749800723E-02 
1611	 9.73511247918676E-02 
1612	 9.73366553298782E-02 
1613	 9.73334153154833E-02 
1614	 9.73353312034178E-02 
1615	 9.73433669420559E-02 
1616	 9.73523462153608E-02 
1617	 9.73644733392984E-02 
1618	 9.73719583712381E-02 
1619	 0.097365619127387 
1620	 9.73669439030988E-02 
1621	 9.73708997260453E-02 
1622	 9.73674613080934E-02 
1623	 9.73623095050954E-02 
1624	 9.73657442527937E-02 
1625	 9.73675051099132E-02 
1626	 9.73568787049134E-02 
1627	 9.73598868386089E-02 
1628	 0.097378574591083 
1629	 9.73851352787782E-02 
1630	 9.73843984068746E-02 
1631	 9.73896988587214E-02 
1632	 9.73975998290959E-02 
1633	 0.097405697294446 
1634	 9.74201507675401E-02 
1635	 0.097417586595004 
1636	 9.74054194871096E-02 
1637	 9.74025994040436E-02 
1638	 9.73902615670844E-02 
1639	 9.73901475261659E-02 
1640	 0.097402244727602 
1641	 9.74112588834809E-02 
1642	 9.74239432196098E-02 
1643	 9.74282184531205E-02 
1644	 9.74368216324106E-02 
1645	 0.097432547990165 
1646	 9.74119040852572E-02 
1647	 9.74010974687502E-02 
1648	 9.73816871553756E-02 
1649	 9.73836623901966E-02 
1650	 9.74046755955215E-02 
1651	 9.74083207619018E-02 
1652	 9.74173671157679E-02 
1653	 0.097420269325512 
1654	 9.74026053703452E-02 
1655	 0.097407227135504 
1656	 9.74363840661404E-02 
1657	 9.74343391972904E-02 
1658	 9.74215783843232E-02 
1659	 9.74145476348601E-02 
1660	 9.73858454740793E-02 
1661	 9.73803100650847E-02 
1662	 0.097391124700135 
1663	 9.74026437591972E-02 
1664	 9.74267193478407E-02 
1665	 9.74356077337389E-02 
1666	 9.74539181668321E-02 
1667	 9.74459528082358E-02 
1668	 9.74094876508456E-02 
1669	 9.73887896550206E-02 
1670	 9.73518157551795E-02 
1671	 9.73412889938188E-02 
1672	 0.097347499572051 
1673	 9.73554604352456E-02 
1674	 9.73807828291236E-02 
1675	 9.73959467561362E-02 
1676	 9.74192602605429E-02 
1677	 9.74230748840363E-02 
1678	 9.74103258457968E-02 
1679	 9.74068985647926E-02 
1680	 9.73920769722497E-02 
1681	 9.73901785374479E-02 
1682	 9.73976256121385E-02 
1683	 0.097408838504524 
1684	 9.74323992989064E-02 
1685	 9.74384654228858E-02 
1686	 9.74424914750298E-02 
1687	 9.74448749469447E-02 
1688	 9.74287663098036E-02 
1689	 0.097430072394455 
1690	 9.74452763350809E-02 
1691	 9.74515059170241E-02 
1692	 9.74671015805719E-02 
1693	 9.74619986616796E-02 
1694	 9.74392813837916E-02 
1695	 9.74254518741046E-02 
1696	 9.73929852848039E-02 
1697	 0.097388029307094 
1698	 9.74082713768677E-02 
1699	 0.09741422876845 
1700	 9.74228431205598E-02 
1701	 9.74352202660634E-02 
1702	 9.74466313006411E-02 
1703	 9.74517118803549E-02 
1704	 9.74671067673222E-02 
1705	 9.74650543487539E-02 
1706	 9.74368352220196E-02 
1707	 9.74340765616302E-02 
1708	 0.097443407870512 
1709	 0.09743778375639 
1710	 9.74301473868052E-02 
1711	 9.74320077391891E-02 
1712	 9.74213354873277E-02 
1713	 0.097431871602297 
1714	 9.74749919613407E-02 
1715	 9.74916178765095E-02 
1716	 9.75014511445165E-02 
1717	 9.75088004036443E-02 
1718	 9.75056638565052E-02 
1719	 0.097505254267278 
1720	 9.75049929268217E-02 
1721	 9.75027398842886E-02 
1722	 9.74992734627103E-02 
1723	 9.74941247740124E-02 
1724	 9.74886556158442E-02 
1725	 9.74742836565357E-02 
1726	 0.097450863973516 
1727	 9.74369948699273E-02 
1728	 0.097421777390206 
1729	 9.74117297258407E-02 
1730	 9.74070738829905E-02 
1731	 9.74035036820304E-02 
1732	 9.74051095697251E-02 
1733	 9.73969385503041E-02 
1734	 9.73883065192216E-02 
1735	 9.73809605209632E-02 
1736	 9.73654807524788E-02 
1737	 9.73515512011486E-02 
1738	 9.73489121171635E-02 
1739	 9.73260745061143E-02 
1740	 9.72811862096979E-02 
1741	 9.72683220923674E-02 
1742	 0.097261072847252 
1743	 9.72518792299221E-02 
1744	 0.09726276043555 
1745	 9.72508912128601E-02 
1746	 9.72234878128872E-02 
1747	 9.72136681230664E-02 
1748	 9.72001180530051E-02 
1749	 9.72160049500563E-02 
1750	 9.72087663180654E-02 
1751	 9.72180817287478E-02 
1752	 9.72350477702459E-02 
1753	 9.72049193184249E-02 
1754	 9.71939526331396E-02 
1755	 0.097191415505826 
1756	 9.71888582492301E-02 
1757	 0.097199738300898 
1758	 9.71879879359185E-02 
1759	 9.71675431063119E-02 
1760	 9.71593287359424E-02 
1761	 9.71408234722121E-02 
1762	 9.71409419724526E-02 
1763	 9.71776723976193E-02 
1764	 9.71804565746729E-02 
1765	 9.72090130887509E-02 
1766	 9.72560279139599E-02 
1767	 9.72345101009621E-02 
1768	 9.72135442448788E-02 
1769	 9.71983072135491E-02 
1770	 9.71680280949632E-02 
1771	 9.71470169279604E-02 
1772	 9.71368340999536E-02 
1773	 9.71367238822769E-02 
1774	 9.71445109949804E-02 
1775	 9.71499086275779E-02 
1776	 9.71536621598227E-02 
1777	 9.71550033745193E-02 
1778	 9.71312301398792E-02 
1779	 9.71199647419888E-02 
1780	 9.71152233879632E-02 
1781	 9.70757829120306E-02 
1782	 9.70531719847977E-02 
1783	 9.70614831597797E-02 
1784	 9.70750550715316E-02 
1785	 9.71274819949189E-02 
1786	 9.71482608516863E-02 
1787	 9.71539481168526E-02 
1788	 0.097148785183485 
1789	 9.71300161681989E-02 
1790	 9.71095979639679E-02 
1791	 9.70655307375603E-02 
1792	 9.70537268746683E-02 
1793	 9.70519158044782E-02 
1794	 9.70562651112278E-02 
1795	 9.71020762904462E-02 
1796	 9.71041283178204E-02 
1797	 9.70750636961656E-02 
1798	 9.70628708818412E-02 
1799	 9.70324348665566E-02 
1800	 9.70229149794269E-02 
1801	 9.42456803055514E-02 
1802	 9.43670692959646E-02 
1803	 9.44957331933251E-02 
1804	 0.0946063889439 
1805	 9.47130210089143E-02 
1806	 9.47970324185539E-02 
1807	 9.48846008015746E-02 
1808	 9.49515687392699E-02 
1809	 9.49976433373255E-02 
1810	 9.50411522450896E-02 
1811	 9.50804194137448E-02 
1812	 9.50974150211895E-02 
1813	 9.51155104638054E-02 
1814	 0.095142322167346 
1815	 9.51411684962461E-02 
1816	 9.51531766945216E-02 
1817	 9.51691327714295E-02 
1818	 9.51817856202955E-02 
1819	 9.51896790810806E-02 
1820	 9.52008261305664E-02 
1821	 9.52202434070177E-02 
1822	 0.095229374659109 
1823	 0.09524102435284 
1824	 9.52797897970225E-02 
1825	 0.095289769117725 
1826	 9.52756627702652E-02 
1827	 9.52813090038922E-02 
1828	 9.52782942677245E-02 
1829	 9.52673774120469E-02 
1830	 9.52574174187021E-02 
1831	 9.52477725418534E-02 
1832	 9.52333026459432E-02 
1833	 9.52292209935997E-02 
1834	 9.52100944258787E-02 
1835	 9.51988429924123E-02 
1836	 9.51874496699079E-02 
1837	 9.51844580735015E-02 
1838	 9.51970069761448E-02 
1839	 9.52111450979377E-02 
1840	 9.52409245043149E-02 
1841	 9.52704496725827E-02 
1842	 9.52951079172289E-02 
1843	 9.53133810036362E-02 
1844	 9.53163093149041E-02 
1845	 9.53562773782723E-02 
1846	 9.53962335857757E-02 
1847	 9.54251499520497E-02 
1848	 9.54977728674097E-02 
1849	 9.55636057792919E-02 
1850	 9.56153313839533E-02 
1851	 9.56605681620331E-02 
1852	 9.57074888889783E-02 
1853	 9.57384927302894E-02 
1854	 9.57678858615474E-02 
1855	 9.57788764567644E-02 
1856	 9.57929278945353E-02 
1857	 9.58111866353237E-02 
1858	 9.58316409959201E-02 
1859	 9.58724804879167E-02 
1860	 9.58860116344736E-02 
1861	 0.095896129693829 
1862	 9.58988281291204E-02 
1863	 9.58766941742613E-02 
1864	 9.58227574572875E-02 
1865	 9.57840813967195E-02 
1866	 9.57275320457371E-02 
1867	 9.56652026803186E-02 
1868	 9.56049715471409E-02 
1869	 9.55483387843322E-02 
1870	 9.55297692090907E-02 
1871	 9.55218347215002E-02 
1872	 9.55310098746251E-02 
1873	 9.55451382324302E-02 
1874	 0.095599647336185 
1875	 9.56546846995693E-02 
1876	 0.095701935750381 
1877	 9.58000457013095E-02 
1878	 9.58575750267033E-02 
1879	 9.58909025472739E-02 
1880	 9.59224153450886E-02 
1881	 9.59360471224452E-02 
1882	 9.59312149239858E-02 
1883	 9.59161272013764E-02 
1884	 9.59007798719786E-02 
1885	 9.58582361232356E-02 
1886	 9.58493354469004E-02 
1887	 0.095838616405678 
1888	 9.58123362370083E-02 
1889	 9.58000318901457E-02 
1890	 9.57718256678846E-02 
1891	 9.57258388759728E-02 
1892	 9.56588764615898E-02 
1893	 9.56026444060961E-02 
1894	 9.55394789344777E-02 
1895	 0.09546685801441 
1896	 9.53978405508693E-02 
1897	 9.53250542251283E-02 
1898	 9.52241154400402E-02 
1899	 9.51038910302745E-02 
1900	 9.49915342482775E-02 
1901	 9.48917027016409E-02 
1902	 9.48194976112851E-02 
1903	 9.47796487305086E-02 
1904	 9.47400213200935E-02 
1905	 9.47220364668649E-02 
1906	 9.47034961730923E-02 
1907	 0.094681828649106 
1908	 9.46621723617511E-02 
1909	 9.46324626891837E-02 
1910	 9.45928224524238E-02 
1911	 9.45479866371944E-02 
1912	 9.44990214191828E-02 
1913	 9.44523976800659E-02 
1914	 9.43956858192086E-02 
1915	 9.43593586851859E-02 
1916	 0.094338161375511 
1917	 0.094310551789508 
1918	 9.42749691256252E-02 
1919	 9.42491890169555E-02 
1920	 9.42163922003018E-02 
1921	 9.41960390318792E-02 
1922	 9.42053694633108E-02 
1923	 9.42102970138472E-02 
1924	 9.42160430487131E-02 
1925	 9.42268632032951E-02 
1926	 9.42410918433502E-02 
1927	 9.42471152715565E-02 
1928	 9.42749986973047E-02 
1929	 9.43209529389588E-02 
1930	 0.094321055825 
1931	 9.43185207900157E-02 
1932	 9.43208346404378E-02 
1933	 0.094303369164485 
1934	 9.42942122449706E-02 
1935	 9.42893546538139E-02 
1936	 9.42800846743296E-02 
1937	 9.42859772992411E-02 
1938	 9.43120876289356E-02 
1939	 9.43236688192538E-02 
1940	 9.43412681841227E-02 
1941	 9.43494028872961E-02 
1942	 9.43475660937576E-02 
1943	 9.43500252223329E-02 
1944	 9.43533044423489E-02 
1945	 9.43835836653188E-02 
1946	 0.094398936340671 
1947	 9.44147642546327E-02 
1948	 9.44245481224811E-02 
1949	 0.094419197288618 
1950	 9.44251152279545E-02 
1951	 9.44215063037385E-02 
1952	 9.44545609680361E-02 
1953	 9.44814075471529E-02 
1954	 9.45161531216694E-02 
1955	 9.45577595983452E-02 
1956	 9.45612140081388E-02 
1957	 9.45882227278541E-02 
1958	 9.46104899774015E-02 
1959	 9.46541636070677E-02 
1960	 9.47317028508078E-02 
1961	 9.47832501755152E-02 
1962	 9.48206819220003E-02 
1963	 9.48741718202124E-02 
1964	 9.49401708441387E-02 
1965	 9.49723611006018E-02 
1966	 9.50121222721103E-02 
1967	 9.50688138090942E-02 
1968	 9.51102131059804E-02 
1969	 9.51271262320498E-02 
1970	 9.51601556624421E-02 
1971	 9.52043887709801E-02 
1972	 9.52451861752967E-02 
1973	 0.095272687275722 
1974	 9.53176168734487E-02 
1975	 9.53840808478465E-02 
1976	 9.54313495464529E-02 
1977	 9.54867959504411E-02 
1978	 0.09555348787546 
1979	 0.095581104040819 
1980	 9.56124026058902E-02 
1981	 9.56466083400656E-02 
1982	 0.095661987937743 
1983	 9.56983510892233E-02 
1984	 9.57557917455228E-02 
1985	 0.095803136997226 
1986	 9.58614480399912E-02 
1987	 9.59047779444694E-02 
1988	 9.59387753306887E-02 
1989	 9.59733826616104E-02 
1990	 9.59926681142726E-02 
1991	 9.60005876060655E-02 
1992	 9.60307939445669E-02 
1993	 9.60660464079973E-02 
1994	 9.61006073360466E-02 
1995	 9.61512656430146E-02 
1996	 9.61905352832056E-02 
1997	 9.62278261707571E-02 
1998	 9.62633081516558E-02 
1999	 9.62923128140421E-02 
2000	 9.63272081633945E-02 
2001	 9.63678017137529E-02 
2002	 9.63896725456113E-02 
2003	 0.096425559108017 
2004	 9.64669103643265E-02 
2005	 9.65243658301003E-02 
2006	 9.66002280115672E-02 
2007	 9.66629624897398E-02 
2008	 9.67431486235679E-02 
2009	 9.68021675218578E-02 
2010	 0.096837856491815 
2011	 9.68837540049845E-02 
2012	 9.69286385118237E-02 
2013	 9.69740658467724E-02 
2014	 9.70120807580304E-02 
2015	 9.70688368460449E-02 
2016	 9.71281736037676E-02 
2017	 9.71696816700939E-02 
2018	 9.72212404022345E-02 
2019	 9.72766531235317E-02 
2020	 0.09733063122231 
2021	 9.73872186082164E-02 
2022	 9.74388859732579E-02 
2023	 9.74943317963843E-02 
2024	 0.097540964309902 
2025	 9.75727863100787E-02 
2026	 9.76155829183098E-02 
2027	 9.76534957460018E-02 
2028	 9.77006407868826E-02 
2029	 9.77560821723655E-02 
2030	 0.097826557637578 
2031	 0.097879861996803 
2032	 0.097934036266747 
2033	 9.79853335490212E-02 
2034	 0.098035114288949 
2035	 9.80699390701806E-02 
2036	 9.80955574069913E-02 
2037	 9.81251734781079E-02 
2038	 0.098137702237591 
2039	 9.81611569998822E-02 
2040	 9.81943642325944E-02 
2041	 0.098225102005243 
2042	 9.82623893222896E-02 
2043	 9.83119553372112E-02 
2044	 9.83572468898192E-02 
2045	 9.84174620666465E-02 
2046	 0.098460176527234 
2047	 9.84950608798768E-02 
2048	 9.85257862418991E-02 
2049	 0.098544704629167 
2050	 9.85736913013651E-02 
2051	 9.85908346521942E-02 
2052	 9.86273458631384E-02 
2053	 9.86885341910063E-02 
2054	 9.87371836193409E-02 
2055	 9.87975575531348E-02 
2056	 9.88524220153557E-02 
2057	 9.88765093527004E-02 
2058	 9.88704395640477E-02 
2059	 9.88848248747221E-02 
2060	 9.88829265957773E-02 
2061	 9.88955256197682E-02 
2062	 0.098921302371935 
2063	 9.89462627832883E-02 
2064	 9.89715668807267E-02 
2065	 9.89963994426923E-02 
2066	 9.90244398059893E-02 
2067	 9.90593347312921E-02 
2068	 9.91013489641194E-02 
2069	 9.91343395120748E-02 
2070	 0.099164388660977 
2071	 9.91989274611853E-02 
2072	 9.92266614478418E-02 
2073	 9.92372305435442E-02 
2074	 9.92674956955587E-02 
2075	 9.93169416721251E-02 
2076	 0.099345035613464 
2077	 9.93642006618684E-02 
2078	 9.93900063572966E-02 
2079	 9.94031136649892E-02 
2080	 9.94293774712597E-02 
2081	 9.94781007548123E-02 
2082	 9.95107295750287E-02 
2083	 9.95390923641559E-02 
2084	 9.95575966287904E-02 
2085	 9.95919310086408E-02 
2086	 9.96281632039977E-02 
2087	 9.96589935998327E-02 
2088	 9.97029816679631E-02 
2089	 9.97298406560667E-02 
2090	 9.97324188590664E-02 
2091	 9.97561404633972E-02 
2092	 9.97853364592627E-02 
2093	 9.98163643111794E-02 
2094	 9.98595412639106E-02 
2095	 9.98952319709303E-02 
2096	 9.99286363107866E-02 
2097	 9.99620007650985E-02 
2098	 9.99944697546294E-02 
2099	 0.100028363297751 
2100	 0.100049102860884 
2101	 0.10005539146856 
2102	 0.100085780593446 
2103	 0.100109654278436 
2104	 0.100153756924856 
2105	 0.100227341625952 
2106	 0.100288249738557 
2107	 0.100353969445628 
2108	 0.100413548363638 
2109	 0.100467976039628 
2110	 0.100528830569447 
2111	 0.100592091106532 
2112	 0.10065169795231 
2113	 0.10072281191354 
2114	 0.100783306585408 
2115	 0.100822858696089 
2116	 0.100841696285465 
2117	 0.100874690861899 
2118	 0.100890702007124 
2119	 0.100927189216631 
2120	 0.10098095936932 
2121	 0.101027400191459 
2122	 0.101092906878489 
2123	 0.101122111429067 
2124	 0.101120676546275 
2125	 0.101143199532432 
2126	 0.101156412289005 
2127	 0.101171009170651 
2128	 0.101201525893229 
2129	 0.101231341277025 
2130	 0.101258249021771 
2131	 0.101275013415044 
2132	 0.101293869056525 
2133	 0.101322898424365 
2134	 0.101341329672798 
2135	 0.101341962718373 
2136	 0.10135831420913 
2137	 0.101397818392476 
2138	 0.101402763104672 
2139	 0.10139258106764 
2140	 0.101384171747243 
2141	 0.101355918773612 
2142	 0.101331316010404 
2143	 0.101313345624468 
2144	 0.101289146675677 
2145	 0.101249149456805 
2146	 0.101218467238746 
2147	 0.101205431746086 
2148	 0.101173387903501 
2149	 0.101130647540495 
2150	 0.101087233936643 
2151	 0.101028366280983 
2152	 0.100930094023247 
2153	 0.100877558940917 
2154	 0.100845602057844 
2155	 0.100796714425886 
2156	 0.100778856759841 
2157	 0.10071866724194 
2158	 0.100616464059641 
2159	 0.1005335958351 
2160	 0.100434595932575 
2161	 0.100350519864322 
2162	 0.100290170180204 
2163	 0.100211924056491 
2164	 0.100121026208421 
2165	 0.10004045945762 
2166	 0.099962443650942 
2167	 9.98777196473582E-02 
2168	 9.98015825075135E-02 
2169	 9.97400605594152E-02 
2170	 9.96680391529687E-02 
2171	 9.95935072070807E-02 
2172	 9.95147727632678E-02 
2173	 0.099434849678861 
2174	 9.93526245867706E-02 
2175	 9.92536911903316E-02 
2176	 9.91748566831039E-02 
2177	 9.91021512594776E-02 
2178	 9.90369622921225E-02 
2179	 0.098989891794709 
2180	 9.89371623359951E-02 
2181	 9.88936749884194E-02 
2182	 9.88396539062076E-02 
2183	 9.87721465195892E-02 
2184	 9.87217664842261E-02 
2185	 9.86504566777607E-02 
2186	 9.85618516766018E-02 
2187	 9.84896552918131E-02 
2188	 9.84011752280948E-02 
2189	 9.83482406534878E-02 
2190	 9.83260799739664E-02 
2191	 0.098289885116886 
2192	 9.82784146200928E-02 
2193	 9.82399933722868E-02 
2194	 9.81772646361824E-02 
2195	 9.81255676010997E-02 
2196	 9.80582619452354E-02 
2197	 9.80147007415907E-02 
2198	 9.79807472377289E-02 
2199	 9.79571601032953E-02 
2200	 9.79730037662532E-02 
2201	 0.097958457356112 
2202	 9.79252113645291E-02 
2203	 9.79032803242135E-02 
2204	 9.78864263564963E-02 
2205	 9.78528867759034E-02 
2206	 9.78375171332312E-02 
2207	 9.78488264356811E-02 
2208	 9.78423235268176E-02 
2209	 9.78297985347898E-02 
2210	 9.78163042635911E-02 
2211	 0.097801675496956 
2212	 9.77876259157019E-02 
2213	 9.77639650759592E-02 
2214	 0.097748723045385 
2215	 9.77420686649467E-02 
2216	 9.77349268809357E-02 
2217	 9.77326124935891E-02 
2218	 9.77254898079423E-02 
2219	 9.76992347627309E-02 
2220	 9.77003300829843E-02 
2221	 9.77078054284752E-02 
2222	 9.77331284431775E-02 
2223	 9.77718947959029E-02 
2224	 9.78195874160391E-02 
2225	 9.78533154439658E-02 
2226	 0.097884198399515 
2227	 9.79055155536314E-02 
2228	 9.79264481744113E-02 
2229	 0.097926359728547 
2230	 9.79062658927952E-02 
2231	 0.097892294583343 
2232	 9.78457565715279E-02 
2233	 0.097851588546026 
2234	 9.78887405844006E-02 
2235	 9.79117709769489E-02 
2236	 9.79684908468647E-02 
2237	 9.79979029881923E-02 
2238	 9.79964784114905E-02 
2239	 9.80151810902851E-02 
2240	 9.80518693490187E-02 
2241	 9.80666367764955E-02 
2242	 9.80637038775539E-02 
2243	 9.80758532056367E-02 
2244	 9.80943905422942E-02 
2245	 9.80895940324318E-02 
2246	 9.80938514062968E-02 
2247	 9.81173315345411E-02 
2248	 9.81156200430225E-02 
2249	 9.80844212930651E-02 
2250	 9.80903101262011E-02 
2251	 0.098100361854837 
2252	 9.81269081909531E-02 
2253	 9.81845295793239E-02 
2254	 9.82155909976592E-02 
2255	 0.098240099675865 
2256	 9.82756547088085E-02 
2257	 9.83210655822327E-02 
2258	 9.83353087702159E-02 
2259	 9.83378294016349E-02 
2260	 9.83507368381554E-02 
2261	 9.83376784413179E-02 
2262	 9.83389064836709E-02 
2263	 9.83476656097541E-02 
2264	 9.83823734141788E-02 
2265	 9.84425926895293E-02 
2266	 0.098477483870682 
2267	 9.85357198701146E-02 
2268	 9.85693023360017E-02 
2269	 9.85555730915732E-02 
2270	 9.85644954094625E-02 
2271	 9.85721524129635E-02 
2272	 9.85798675415786E-02 
2273	 9.85900518923786E-02 
2274	 9.85920878319034E-02 
2275	 9.85955981638055E-02 
2276	 9.85982130558078E-02 
2277	 9.86036293677499E-02 
2278	 0.098599257520505 
2279	 9.86189126386523E-02 
2280	 9.86496708728908E-02 
2281	 9.86879989071447E-02 
2282	 9.87479421570444E-02 
2283	 9.87974130983641E-02 
2284	 9.88803221574407E-02 
2285	 0.098887048326632 
2286	 9.88369820586145E-02 
2287	 9.88268131040507E-02 
2288	 9.87580184352275E-02 
2289	 9.87536868913443E-02 
2290	 9.88360126916196E-02 
2291	 9.88684912320991E-02 
2292	 9.88877626614433E-02 
2293	 9.89188017638947E-02 
2294	 9.89421931299904E-02 
2295	 9.89664724604059E-02 
2296	 9.90072957767405E-02 
2297	 9.90321993948774E-02 
2298	 9.90463100424848E-02 
2299	 9.90427467059472E-02 
2300	 9.90568461347353E-02 
2301	 9.91094092784236E-02 
2302	 9.91612581087592E-02 
2303	 0.099207362536175 
2304	 9.92472566775969E-02 
2305	 9.92733187013305E-02 
2306	 9.92808969684713E-02 
2307	 9.92755727286011E-02 
2308	 0.099263110614313 
2309	 9.92109555592583E-02 
2310	 9.92151508277768E-02 
2311	 9.92397435540325E-02 
2312	 9.92631136720541E-02 
2313	 9.93285646071529E-02 
2314	 9.93518955033431E-02 
2315	 9.93409696737678E-02 
2316	 9.93716433185301E-02 
2317	 9.94020481221635E-02 
2318	 0.099440085235796 
2319	 9.95077392900493E-02 
2320	 9.95618695340531E-02 
2321	 9.96107276586418E-02 
2322	 9.96726883501834E-02 
2323	 9.97511703665009E-02 
2324	 9.98053975094723E-02 
2325	 9.98633056819218E-02 
2326	 9.98964315265604E-02 
2327	 0.09987686946055 
2328	 9.99089623844357E-02 
2329	 9.99581690705242E-02 
2330	 9.99883533975761E-02 
2331	 0.100016408808224 
2332	 0.100045606941377 
2333	 0.100066680741534 
2334	 0.100076351278374 
2335	 0.100113532175413 
2336	 0.10015954123044 
2337	 0.100187153136261 
2338	 0.100208500562355 
2339	 0.100190191274145 
2340	 0.100191483106135 
2341	 0.100231712583921 
2342	 0.100277163321069 
2343	 0.100387965500701 
2344	 0.100460943379337 
2345	 0.100504695340993 
2346	 0.100527419275353 
2347	 0.100546010779785 
2348	 0.100524433252097 
2349	 0.100525606998365 
2350	 0.100517518963099 
2351	 0.100522777108006 
2352	 0.100544120631209 
2353	 0.100555761578757 
2354	 0.100559570646643 
2355	 0.100587040730971 
2356	 0.100644511420039 
2357	 0.100661411001305 
2358	 0.100692624092292 
2359	 0.100684751685198 
2360	 0.100579785256404 
2361	 0.100542244741493 
2362	 0.100554437697261 
2363	 0.100550440829072 
2364	 0.100547769430187 
2365	 0.100572170376059 
2366	 0.100600635346577 
2367	 0.100607013046241 
2368	 0.10064379535828 
2369	 0.100652325658996 
2370	 0.100604809075343 
2371	 0.100612065620833 
2372	 0.100654094280739 
2373	 0.100739017948872 
2374	 0.100845462236873 
2375	 0.100886144371584 
2376	 0.100838233855668 
2377	 0.10080232641663 
2378	 0.100837740626374 
2379	 0.100842098950781 
2380	 0.100826262876205 
2381	 0.100786370506049 
2382	 0.100693538050587 
2383	 0.100649876127193 
2384	 0.100673811576439 
2385	 0.100732034421326 
2386	 0.100775068437738 
2387	 0.100755847541016 
2388	 0.100765103910156 
2389	 0.100814245073479 
2390	 0.10077626931555 
2391	 0.10065753589684 
2392	 0.100504450517488 
2393	 0.100346247333442 
2394	 0.100282276534236 
2395	 0.100322116598864 
2396	 0.100393886650489 
2397	 0.100462523786466 
2398	 0.100518729652848 
2399	 0.100517877064507 
2400	 0.100521160905872 
2401	 0.100519278070055 
2402	 0.100508799431345 
2403	 0.100549078416886 
2404	 0.100544205195803 
2405	 0.100553118818047 
2406	 0.100551701514218 
2407	 0.100487969338294 
2408	 0.100486837810472 
2409	 0.100478147414919 
2410	 0.100463726416399 
2411	 0.10047851599296 
2412	 0.100377332268263 
2413	 0.100228317445844 
2414	 0.100151024992711 
2415	 0.100144508664182 
2416	 0.100179445533945 
2417	 0.100412140921789 
2418	 0.100458638867096 
2419	 0.100370250614708 
2420	 0.100372145765441 
2421	 0.100370419250104 
2422	 0.100372615947355 
2423	 0.100451649550532 
2424	 0.100531164922729 
2425	 0.100572738884349 
2426	 0.100542822523096 
2427	 0.1005392557664 
2428	 0.100441723270192 
2429	 0.100202359200092 
2430	 0.100109687340703 
2431	 0.100024206855435 
2432	 0.100030331291675 
2433	 0.100162969264186 
2434	 0.100176420098068 
2435	 0.100177869206211 
2436	 0.100182996938856 
2437	 0.100155413208728 
2438	 0.100132019796311 
2439	 0.100137524605304 
2440	 0.100109027311524 
2441	 9.99352460701881E-02 
2442	 9.99730069902598E-02 
2443	 0.100228217738398 
2444	 0.100275795027886 
2445	 0.100324434702097 
2446	 0.100325722004651 
2447	 0.10017239100225 
2448	 0.100090729763006 
2449	 0.100099750542783 
2450	 0.100014885792613 
2451	 0.099787681367479 
2452	 9.96790134031327E-02 
2453	 9.95774207185571E-02 
2454	 9.95652817664029E-02 
2455	 9.96941198757996E-02 
2456	 9.97054328266137E-02 
2457	 9.97448590398535E-02 
2458	 9.97709146465386E-02 
2459	 9.96867367084768E-02 
2460	 9.96640805968615E-02 
2461	 9.97071666295057E-02 
2462	 9.96944014517223E-02 
2463	 9.96838763114905E-02 
2464	 9.96461278543528E-02 
2465	 9.94741350925438E-02 
2466	 9.94549981156163E-02 
2467	 9.95705786869875E-02 
2468	 9.95965593411797E-02 
2469	 9.96920523377827E-02 
2470	 9.96597187838748E-02 
2471	 9.95146999882848E-02 
2472	 9.95654750814837E-02 
2473	 9.97643047308465E-02 
2474	 9.97360393456006E-02 
2475	 9.96738386796102E-02 
2476	 9.95199713007863E-02 
2477	 9.92445119786106E-02 
2478	 9.92557786596631E-02 
2479	 9.93424933454155E-02 
2480	 9.92876783057261E-02 
2481	 9.92439524484353E-02 
2482	 9.90379227512742E-02 
2483	 9.88764670046072E-02 
2484	 9.89807433929311E-02 
2485	 9.90515793028978E-02 
2486	 9.92592481492756E-02 
2487	 9.93399447414238E-02 
2488	 0.09909793650193 
2489	 9.90071792545162E-02 
2490	 9.88263352402176E-02 
2491	 0.09853691812892 
2492	 9.85079416470423E-02 
2493	 9.86459203491596E-02 
2494	 9.87155698260022E-02 
2495	 9.89381612122115E-02 
2496	 9.91611394459348E-02 
2497	 9.90224196776381E-02 
2498	 9.89430714889372E-02 
2499	 9.89249118783767E-02 
2500	 9.90277660572352E-02 
