Wavelength	LMW_1300008.asd
350	 5.30948048998132E-02 
351	 5.54514026440893E-02 
352	 5.48586524183636E-02 
353	 4.91899813029775E-02 
354	 5.44408380517173E-02 
355	 5.48974132297185E-02 
356	 5.21979995838364E-02 
357	 5.16355865968336E-02 
358	 5.48474985179501E-02 
359	 5.36631108208902E-02 
360	 0.048555372346096 
361	 4.56110021154595E-02 
362	 4.43552474103186E-02 
363	 4.61083974857558E-02 
364	 4.93894978378752E-02 
365	 4.83470072325726E-02 
366	 4.64448052908026E-02 
367	 4.50863645781616E-02 
368	 4.50648563307259E-02 
369	 4.76497447661034E-02 
370	 4.63573411122234E-02 
371	 0.043040403909399 
372	 0.044613109227952 
373	 4.44177377940601E-02 
374	 4.56129779273478E-02 
375	 4.91151880996883E-02 
376	 5.00968915260023E-02 
377	 4.71201243110121E-02 
378	 4.52202011038694E-02 
379	 4.83817672689259E-02 
380	 4.71859878876379E-02 
381	 4.69206578447817E-02 
382	 4.82859962673618E-02 
383	 4.84103059195806E-02 
384	 0.050343565611861 
385	 5.02104863894231E-02 
386	 4.73352161900371E-02 
387	 4.88205384920172E-02 
388	 0.050637701739366 
389	 5.18049819561968E-02 
390	 5.23378687174274E-02 
391	 0.052393043352255 
392	 5.28497216875219E-02 
393	 5.37305350743157E-02 
394	 0.05431991067379 
395	 5.41839471040682E-02 
396	 5.43136072259604E-02 
397	 5.49907630658609E-02 
398	 5.43885039724552E-02 
399	 5.40488917285633E-02 
400	 0.055629337106641 
401	 5.92568945843547E-02 
402	 5.68733080914924E-02 
403	 5.50854130248784E-02 
404	 5.57554023572647E-02 
405	 5.51760626503398E-02 
406	 5.66685855845193E-02 
407	 0.058271261343373 
408	 5.82720195259246E-02 
409	 5.80949371719035E-02 
410	 5.75712100939123E-02 
411	 5.69490473342288E-02 
412	 5.67293860021552E-02 
413	 5.81109024633742E-02 
414	 5.83700412426477E-02 
415	 5.72027677743198E-02 
416	 5.77456966204259E-02 
417	 5.74047002378296E-02 
418	 5.74028463751972E-02 
419	 5.87187189581522E-02 
420	 5.85095772286652E-02 
421	 5.76819161180289E-02 
422	 5.72848573925388E-02 
423	 5.81039035669767E-02 
424	 5.74116696661787E-02 
425	 5.68719279591997E-02 
426	 5.72566578238841E-02 
427	 5.67069613392088E-02 
428	 5.61102597684341E-02 
429	 5.59252126063044E-02 
430	 5.62745107134367E-02 
431	 5.63140889271669E-02 
432	 5.62108719296521E-02 
433	 5.61113638182907E-02 
434	 5.60841174479461E-02 
435	 5.61906661248493E-02 
436	 5.62592325319123E-02 
437	 5.62058078906796E-02 
438	 5.62726382022813E-02 
439	 0.056489816636985 
440	 5.68624695459001E-02 
441	 5.73293824556444E-02 
442	 5.74522186565594E-02 
443	 5.77570468029986E-02 
444	 5.82584221285402E-02 
445	 5.80608589631339E-02 
446	 5.78977618467826E-02 
447	 5.79981792670814E-02 
448	 5.83330838337739E-02 
449	 5.84285422083711E-02 
450	 5.87846861137437E-02 
451	 5.93753803554847E-02 
452	 5.97176457935222E-02 
453	 5.98181484244088E-02 
454	 5.97742854017588E-02 
455	 5.97669384195556E-02 
456	 6.01554025001951E-02 
457	 6.03949560083962E-02 
458	 6.04094784987746E-02 
459	 0.060373898254361 
460	 6.05382888762999E-02 
461	 6.06410552175404E-02 
462	 6.06187577779695E-02 
463	 6.07548114913423E-02 
464	 6.06457426446599E-02 
465	 6.05906200544746E-02 
466	 0.060929927118467 
467	 6.14205314586851E-02 
468	 6.16006181610457E-02 
469	 6.14584611973392E-02 
470	 6.13644340580089E-02 
471	 6.16046535852133E-02 
472	 6.17816897690091E-02 
473	 0.061668154965759 
474	 6.17181048048909E-02 
475	 6.17790608676522E-02 
476	 6.17930676204394E-02 
477	 6.17595004970483E-02 
478	 6.18359991504897E-02 
479	 6.19346051243756E-02 
480	 6.20166966013013E-02 
481	 6.21448896759733E-02 
482	 6.22107446046235E-02 
483	 6.22180287813875E-02 
484	 6.22494055242633E-02 
485	 6.26098853253571E-02 
486	 6.26240332099507E-02 
487	 6.23184198944609E-02 
488	 6.23003367766985E-02 
489	 6.23799053779174E-02 
490	 6.25910714566314E-02 
491	 6.28623372253663E-02 
492	 6.27753226579526E-02 
493	 6.27463758288308E-02 
494	 6.27871190754998E-02 
495	 6.27491058698015E-02 
496	 6.28323285067922E-02 
497	 0.062824463722906 
498	 6.27151878248171E-02 
499	 6.28469506743629E-02 
500	 6.30134724655141E-02 
501	 6.29907230402118E-02 
502	 0.062727305704747 
503	 6.29466537426798E-02 
504	 0.06303432578361 
505	 6.28923846117204E-02 
506	 6.29222520450514E-02 
507	 6.30295232583472E-02 
508	 6.30318042418636E-02 
509	 6.28923082924616E-02 
510	 6.30283608233081E-02 
511	 0.063077939716186 
512	 6.30147633506647E-02 
513	 0.062993120131091 
514	 6.30554285634041E-02 
515	 6.30931632897872E-02 
516	 0.063074566981954 
517	 6.31324966650148E-02 
518	 6.31285378195216E-02 
519	 6.31271814849233E-02 
520	 6.32183326393913E-02 
521	 6.32808848022966E-02 
522	 0.063217307731465 
523	 6.31091677889311E-02 
524	 6.32121509363686E-02 
525	 6.31713497489237E-02 
526	 6.31498905583432E-02 
527	 0.063285345666196 
528	 6.32543126042243E-02 
529	 0.063268140807047 
530	 6.33364735372042E-02 
531	 0.063340405130024 
532	 6.33070826942769E-02 
533	 6.33761760689329E-02 
534	 6.35566107423666E-02 
535	 6.35464649881648E-02 
536	 6.35943844638256E-02 
537	 6.36875354898934E-02 
538	 6.37250274408595E-02 
539	 6.37359758468788E-02 
540	 6.37628644910609E-02 
541	 6.38206819017944E-02 
542	 6.38876189324575E-02 
543	 6.39309190279548E-02 
544	 6.40333164079864E-02 
545	 6.42293600484128E-02 
546	 6.42379824392982E-02 
547	 6.41979255338176E-02 
548	 6.42315867597397E-02 
549	 6.44217211228116E-02 
550	 6.45706354778195E-02 
551	 0.064682769678761 
552	 6.47983274712567E-02 
553	 6.49476906453794E-02 
554	 6.50457730903505E-02 
555	 6.51556152295766E-02 
556	 6.53921810251444E-02 
557	 6.55770135541384E-02 
558	 6.57211943274361E-02 
559	 6.58768282126505E-02 
560	 6.61339053805316E-02 
561	 6.63449928391409E-02 
562	 6.65313051724708E-02 
563	 6.67697067232585E-02 
564	 6.70941759188593E-02 
565	 6.73857040857752E-02 
566	 6.76375320820157E-02 
567	 6.79764128996145E-02 
568	 6.84629977516567E-02 
569	 6.89150057095179E-02 
570	 6.91976848779489E-02 
571	 6.95275708955181E-02 
572	 6.99413594505113E-02 
573	 7.04156248522713E-02 
574	 7.08775887020169E-02 
575	 7.12476217911065E-02 
576	 7.16499774616387E-02 
577	 7.21452036834097E-02 
578	 7.25704151064174E-02 
579	 7.30880124722236E-02 
580	 7.37202182492488E-02 
581	 7.44157389509731E-02 
582	 7.50755610367759E-02 
583	 7.57334782017758E-02 
584	 7.63810542084369E-02 
585	 7.69313373403468E-02 
586	 0.077534994858641 
587	 7.81769688576313E-02 
588	 7.88063424230327E-02 
589	 7.94600739919588E-02 
590	 8.01078567295301E-02 
591	 8.07283849494872E-02 
592	 8.13168350740709E-02 
593	 8.19160241019248E-02 
594	 8.25756728359531E-02 
595	 0.0833149960037 
596	 8.40868715635905E-02 
597	 8.48432265909469E-02 
598	 8.55830366029251E-02 
599	 8.63365127049183E-02 
600	 8.71224764825033E-02 
601	 8.78214537880343E-02 
602	 8.83974437853247E-02 
603	 8.89974233767203E-02 
604	 0.089504426885198 
605	 9.00242863776977E-02 
606	 9.06755264842255E-02 
607	 9.12034799977934E-02 
608	 9.17098356551972E-02 
609	 9.22413991858614E-02 
610	 9.27599049023429E-02 
611	 9.32486311829958E-02 
612	 9.37458589017373E-02 
613	 9.42566995573483E-02 
614	 0.094626198336564 
615	 9.50211480496927E-02 
616	 9.54448313237473E-02 
617	 9.57874034871165E-02 
618	 9.61026753551964E-02 
619	 9.63664320313253E-02 
620	 0.096596261343734 
621	 0.096927883952323 
622	 9.72416384351894E-02 
623	 9.75093176358583E-02 
624	 9.77471087319241E-02 
625	 9.80087198462723E-02 
626	 9.82512580069765E-02 
627	 9.84673168226894E-02 
628	 9.87056703164186E-02 
629	 9.89345025365649E-02 
630	 9.91321460116838E-02 
631	 9.93007647759417E-02 
632	 9.95178678528413E-02 
633	 0.099756609694586 
634	 9.99724865765026E-02 
635	 0.100118722024082 
636	 0.100312729521612 
637	 0.100527051628135 
638	 0.100718778794013 
639	 0.100870344474316 
640	 0.101034441792426 
641	 0.101238428838038 
642	 0.101483165666523 
643	 0.101686686383864 
644	 0.101865447681625 
645	 0.10204624690122 
646	 0.102254844982972 
647	 0.102479194198487 
648	 0.102685551099075 
649	 0.102854913368425 
650	 0.103052498053603 
651	 0.103274115579355 
652	 0.103515406895284 
653	 0.103773445098756 
654	 0.104052504916085 
655	 0.104282393913266 
656	 0.104444165891873 
657	 0.104670235648067 
658	 0.104934541203195 
659	 0.10523186301994 
660	 0.105550747116103 
661	 0.105797791550114 
662	 0.106035556898774 
663	 0.106306507378934 
664	 0.106600540289089 
665	 0.106915471123102 
666	 0.107236383934148 
667	 0.10755390675085 
668	 0.107896367616397 
669	 0.108240526392112 
670	 0.10857149675243 
671	 0.108884445752062 
672	 0.109198578124428 
673	 0.109586800214209 
674	 0.110047223619362 
675	 0.110378929478283 
676	 0.110745669315736 
677	 0.111148134595892 
678	 0.11152723869669 
679	 0.111923941858054 
680	 0.112329127894856 
681	 0.112741357599863 
682	 0.113174585229746 
683	 0.113617366946744 
684	 0.11406768223513 
685	 0.114525211744601 
686	 0.114986518725381 
687	 0.115451149968436 
688	 0.115922140672786 
689	 0.116404060140391 
690	 0.116895195719464 
691	 0.117392723361051 
692	 0.117889869157941 
693	 0.118372155747832 
694	 0.118850252376683 
695	 0.119354562020829 
696	 0.119907932129005 
697	 0.120457056385331 
698	 0.120967709525118 
699	 0.121481846122261 
700	 0.122111130925487 
701	 0.12263910374372 
702	 0.123149543260982 
703	 0.123725345006553 
704	 0.124253460700811 
705	 0.124810475345764 
706	 0.125381509342115 
707	 0.12591589418373 
708	 0.126499209762911 
709	 0.127071158500171 
710	 0.127613536419298 
711	 0.128194067816533 
712	 0.12873715532054 
713	 0.129269751386789 
714	 0.129831353949567 
715	 0.130395056589354 
716	 0.130920130349518 
717	 0.131415285482016 
718	 0.131923060799224 
719	 0.132431889688065 
720	 0.132931672340983 
721	 0.133415039275489 
722	 0.133879585753043 
723	 0.134342541872328 
724	 0.134799644527493 
725	 0.135244570641563 
726	 0.135707894713983 
727	 0.136113493205587 
728	 0.136461882481186 
729	 0.136825188011134 
730	 0.137163148121519 
731	 0.137503219241899 
732	 0.137854248687074 
733	 0.138154257633388 
734	 0.138440830912317 
735	 0.138691260755434 
736	 0.138877339052266 
737	 0.139089915451221 
738	 0.139272389022043 
739	 0.139423891254417 
740	 0.139611608434078 
741	 0.139709380799162 
742	 0.139774945943547 
743	 0.139858238435347 
744	 0.139875818018658 
745	 0.139861220090832 
746	 0.139857023414845 
747	 0.139885987440573 
748	 0.139803308158258 
749	 0.139689929553421 
750	 0.13958863177379 
751	 0.139470933075129 
752	 0.139372215327132 
753	 0.139259016651114 
754	 0.139097005617802 
755	 0.138895012098157 
756	 0.13867498039716 
757	 0.138455176833812 
758	 0.138245851359626 
759	 0.138027111455622 
760	 0.137767182515242 
761	 0.137455952539983 
762	 0.137111134352487 
763	 0.136770442483204 
764	 0.136456351915121 
765	 0.136169907389911 
766	 0.135874702025632 
767	 0.135532474979247 
768	 0.13517679717557 
769	 0.134859778589693 
770	 0.134476608937077 
771	 0.134085148377685 
772	 0.133723759394843 
773	 0.133387223311659 
774	 0.132982829797533 
775	 0.132576706057586 
776	 0.132217775244814 
777	 0.131802094680038 
778	 0.131412733192462 
779	 0.131044237020058 
780	 0.130656607206424 
781	 0.130273259153603 
782	 0.129879862843069 
783	 0.12947565861492 
784	 0.129076323075654 
785	 0.128659629556907 
786	 0.128235493558401 
787	 0.127826084132247 
788	 0.127466387536439 
789	 0.127141385283037 
790	 0.126802926054812 
791	 0.126406029775992 
792	 0.125988692426737 
793	 0.125630167222275 
794	 0.125307919619557 
795	 0.124920678170856 
796	 0.124553232742087 
797	 0.124188528696891 
798	 0.123818467427745 
799	 0.123479121420982 
800	 0.123160087966729 
801	 0.122832625305864 
802	 0.122477097346525 
803	 0.122127126311496 
804	 0.121820379381967 
805	 0.121540461277089 
806	 0.121238868700737 
807	 0.120922949457782 
808	 0.120589035128551 
809	 0.120266141245748 
810	 0.12002044793239 
811	 0.119777227087356 
812	 0.119484016848736 
813	 0.11914890280773 
814	 0.118925127650367 
815	 0.118683350814659 
816	 0.118405819050519 
817	 0.118132471819686 
818	 0.117942591443409 
819	 0.117720358078453 
820	 0.117438313322812 
821	 0.117159607223154 
822	 0.116943783861563 
823	 0.116752618487208 
824	 0.116551281626762 
825	 0.116339202595307 
826	 0.116148350640854 
827	 0.115962295710105 
828	 0.115768026146129 
829	 0.115610779654219 
830	 0.115434322660733 
831	 0.115255897526833 
832	 0.115121867734634 
833	 0.115025307667616 
834	 0.114859555369236 
835	 0.114636050252364 
836	 0.114480056835721 
837	 0.1144061855325 
838	 0.114314723049722 
839	 0.11415801648212 
840	 0.114010041731687 
841	 0.113904775150874 
842	 0.113800009816584 
843	 0.113670492607516 
844	 0.113626531835425 
845	 0.113553464141413 
846	 0.113455014517161 
847	 0.11338105888233 
848	 0.113288461536366 
849	 0.113214677767489 
850	 0.113166512108508 
851	 0.113120743372939 
852	 0.113078543555902 
853	 0.113017921178359 
854	 0.112947913059131 
855	 0.112923670940191 
856	 0.112951099998513 
857	 0.112972270522841 
858	 0.112950028896823 
859	 0.112941784804415 
860	 0.112912859352261 
861	 0.112897159878137 
862	 0.11293295224112 
863	 0.112972892903302 
864	 0.113006731752831 
865	 0.113032289575711 
866	 0.11305424683043 
867	 0.113081266796434 
868	 0.113110511228947 
869	 0.113152526024638 
870	 0.113227268920033 
871	 0.113277565519063 
872	 0.11335534102878 
873	 0.113464372708299 
874	 0.11350519564613 
875	 0.113564275014462 
876	 0.113647034123211 
877	 0.113735601488159 
878	 0.113799025311895 
879	 0.113952519567748 
880	 0.114089109891854 
881	 0.114104762061204 
882	 0.114244522144167 
883	 0.114417275799241 
884	 0.11456538546888 
885	 0.114671990191376 
886	 0.11481293286791 
887	 0.114989478704655 
888	 0.115173525434607 
889	 0.115327476208252 
890	 0.115527823132361 
891	 0.115691884473146 
892	 0.11582035486499 
893	 0.116031671935053 
894	 0.116193505619101 
895	 0.116364497522316 
896	 0.116588753691578 
897	 0.11681838573454 
898	 0.11702987938546 
899	 0.117268481496243 
900	 0.117544330821749 
901	 0.117713332703675 
902	 0.117976552265982 
903	 0.118264242411369 
904	 0.118471848347055 
905	 0.118747306662989 
906	 0.118961858049988 
907	 0.119193475785824 
908	 0.119564880073533 
909	 0.119890924594833 
910	 0.120181085475038 
911	 0.120505367081342 
912	 0.120923819575435 
913	 0.121191382497685 
914	 0.121479562173817 
915	 0.121835537913525 
916	 0.122170226979979 
917	 0.122533238791817 
918	 0.122875404654139 
919	 0.123193358824976 
920	 0.1235481285069 
921	 0.123981121329682 
922	 0.124388131152806 
923	 0.124747811543175 
924	 0.125190980869566 
925	 0.12560818241056 
926	 0.125987841834944 
927	 0.126379555983502 
928	 0.126897536496515 
929	 0.127344140739607 
930	 0.127812996355663 
931	 0.128360520746251 
932	 0.128781450869802 
933	 0.129303674936353 
934	 0.129813790680622 
935	 0.130216969732503 
936	 0.13076715365211 
937	 0.131350694948187 
938	 0.131870711334467 
939	 0.132307341337817 
940	 0.132872477161597 
941	 0.13346917641576 
942	 0.134057875319827 
943	 0.13462683376597 
944	 0.135172029804675 
945	 0.135732948388668 
946	 0.136339454492233 
947	 0.13697541200394 
948	 0.137456149269887 
949	 0.138084440088134 
950	 0.138819089766595 
951	 0.139473186739618 
952	 0.140155336264998 
953	 0.140848201278822 
954	 0.141506720165466 
955	 0.142116678210228 
956	 0.142898669852582 
957	 0.143613306642544 
958	 0.144268405430382 
959	 0.145001834488059 
960	 0.145665939610641 
961	 0.146347752566894 
962	 0.147074328089456 
963	 0.147817993779109 
964	 0.148541629208598 
965	 0.149384106920313 
966	 0.150242518755686 
967	 0.150921203255058 
968	 0.151718634913749 
969	 0.152553510617263 
970	 0.153316273358068 
971	 0.153969902445964 
972	 0.154898688331392 
973	 0.15573156914199 
974	 0.156482098641639 
975	 0.157409498923783 
976	 0.158349131205929 
977	 0.159183452928479 
978	 0.159994623432703 
979	 0.160926287378799 
980	 0.16170268671841 
981	 0.162524128614973 
982	 0.163352694789375 
983	 0.164077333208734 
984	 0.165112840212215 
985	 0.166071118316962 
986	 0.166937099393528 
987	 0.1678911194035 
988	 0.168790788585897 
989	 0.169625295018789 
990	 0.170451487582924 
991	 0.171353267989252 
992	 0.172378861870922 
993	 0.17334224402218 
994	 0.174240690056093 
995	 0.17513616448318 
996	 0.175936093263602 
997	 0.176807675549603 
998	 0.177765110589101 
999	 0.178765027860697 
1000	 0.179838116445578 
1001	 0.180182962899954 
1002	 0.18105590825522 
1003	 0.1818665762069 
1004	 0.182669885914507 
1005	 0.183399512477834 
1006	 0.184211257467522 
1007	 0.18505004220354 
1008	 0.185891599066788 
1009	 0.186743502178179 
1010	 0.187532238351593 
1011	 0.188336076890182 
1012	 0.189122229239567 
1013	 0.189895864081625 
1014	 0.190694514854727 
1015	 0.191466663010102 
1016	 0.192241867450468 
1017	 0.193013845439999 
1018	 0.193783525285344 
1019	 0.194526883127838 
1020	 0.19524963812986 
1021	 0.195952559674626 
1022	 0.196639221694381 
1023	 0.197345063245302 
1024	 0.19809469346934 
1025	 0.198841245525664 
1026	 0.199532672336443 
1027	 0.200208024930114 
1028	 0.200874484919128 
1029	 0.201562767105864 
1030	 0.202316714501755 
1031	 0.203023793185449 
1032	 0.203738843008166 
1033	 0.204425229491203 
1034	 0.205088291470459 
1035	 0.205682446197013 
1036	 0.206263672918355 
1037	 0.206884383476678 
1038	 0.207514204572489 
1039	 0.208109595556016 
1040	 0.208737396798601 
1041	 0.209386197202031 
1042	 0.210023542308221 
1043	 0.210694445473425 
1044	 0.211331177198552 
1045	 0.211973130883648 
1046	 0.212586676294973 
1047	 0.21321576919344 
1048	 0.213819260249559 
1049	 0.214397042572072 
1050	 0.214989049246742 
1051	 0.215551681034727 
1052	 0.216114564641249 
1053	 0.21672087452695 
1054	 0.217323636753406 
1055	 0.217915692204661 
1056	 0.218473976419321 
1057	 0.219018498911698 
1058	 0.219533627130283 
1059	 0.220079740111133 
1060	 0.22061616450676 
1061	 0.221170979447039 
1062	 0.221716337559608 
1063	 0.222264587702645 
1064	 0.222817645924361 
1065	 0.223327207686137 
1066	 0.223871591017083 
1067	 0.224415561898646 
1068	 0.224928654735082 
1069	 0.225465157939994 
1070	 0.225985132109106 
1071	 0.226503170964703 
1072	 0.227010253821065 
1073	 0.227478230226836 
1074	 0.227982123931292 
1075	 0.228502991108547 
1076	 0.229015667481511 
1077	 0.229518569831866 
1078	 0.230002257909986 
1079	 0.230443091452816 
1080	 0.230926028325531 
1081	 0.231421353400523 
1082	 0.231909763064638 
1083	 0.232392065299218 
1084	 0.232859069834989 
1085	 0.233341545973001 
1086	 0.233829626066378 
1087	 0.234306833808663 
1088	 0.234784843164719 
1089	 0.235271962454513 
1090	 0.235756100877344 
1091	 0.236215272732629 
1092	 0.236655313960968 
1093	 0.237115071600801 
1094	 0.237594628476528 
1095	 0.238063195863705 
1096	 0.238544014074839 
1097	 0.239037652149567 
1098	 0.23949989737446 
1099	 0.239900052129374 
1100	 0.240359526193104 
1101	 0.240849998135406 
1102	 0.241314646319443 
1103	 0.241779691405042 
1104	 0.242251439719446 
1105	 0.242706329097781 
1106	 0.243206828997409 
1107	 0.243748556746781 
1108	 0.244295552981908 
1109	 0.244822833074443 
1110	 0.245299444570824 
1111	 0.2457858182886 
1112	 0.246224506425961 
1113	 0.246713381919923 
1114	 0.24724568796221 
1115	 0.247744408083029 
1116	 0.24823528349602 
1117	 0.248733191176507 
1118	 0.249227421963653 
1119	 0.249704664775146 
1120	 0.25019492721824 
1121	 0.250688440539902 
1122	 0.251195399461125 
1123	 0.251707188715304 
1124	 0.252203471132536 
1125	 0.252710716251444 
1126	 0.253201348520019 
1127	 0.253660872201881 
1128	 0.254143672945327 
1129	 0.254648106709611 
1130	 0.255130630398936 
1131	 0.25559595117879 
1132	 0.256076853191848 
1133	 0.256568912857472 
1134	 0.257038071798219 
1135	 0.257502859146571 
1136	 0.257969053645458 
1137	 0.258421303314847 
1138	 0.258861868488924 
1139	 0.259308771208451 
1140	 0.259766476595137 
1141	 0.260211799735541 
1142	 0.260653159383356 
1143	 0.261085856414658 
1144	 0.261509356308924 
1145	 0.261938598636084 
1146	 0.262363553918726 
1147	 0.26278057043969 
1148	 0.263212811747245 
1149	 0.263619135515561 
1150	 0.264012773222789 
1151	 0.264388734862306 
1152	 0.264737745957524 
1153	 0.265093245192393 
1154	 0.265448543352879 
1155	 0.265790188714349 
1156	 0.266149131210576 
1157	 0.26652677914013 
1158	 0.266882720506734 
1159	 0.267244609602511 
1160	 0.267584180335422 
1161	 0.267891800758757 
1162	 0.268222011512564 
1163	 0.268548868752778 
1164	 0.268880895351574 
1165	 0.269231664122182 
1166	 0.269580972533682 
1167	 0.2698903539103 
1168	 0.270205310034058 
1169	 0.270518631793307 
1170	 0.270815255135268 
1171	 0.271125627442002 
1172	 0.271463732661213 
1173	 0.271755432710853 
1174	 0.272016379484317 
1175	 0.272297963082325 
1176	 0.272566032248509 
1177	 0.272841514844793 
1178	 0.273136618294702 
1179	 0.273420167643265 
1180	 0.273697286673913 
1181	 0.273966687117942 
1182	 0.274237188301211 
1183	 0.274497931823591 
1184	 0.274753329627752 
1185	 0.274995984374538 
1186	 0.275243486487556 
1187	 0.275495342967262 
1188	 0.275732131455157 
1189	 0.275967059741704 
1190	 0.276186216304168 
1191	 0.276388802884797 
1192	 0.276590805253715 
1193	 0.276770130357864 
1194	 0.276972551557298 
1195	 0.277182500989321 
1196	 0.277393631063925 
1197	 0.277642739766136 
1198	 0.277850816303908 
1199	 0.278040961711136 
1200	 0.278208438471824 
1201	 0.278391585726716 
1202	 0.278554523890643 
1203	 0.278732880865224 
1204	 0.278939502797362 
1205	 0.279110213300353 
1206	 0.27925605150515 
1207	 0.279414820497736 
1208	 0.279573045386303 
1209	 0.279720142552289 
1210	 0.279861693220127 
1211	 0.280008088585391 
1212	 0.280150130313358 
1213	 0.280285330601305 
1214	 0.280421337449362 
1215	 0.280558930642682 
1216	 0.280693389612144 
1217	 0.280818937956766 
1218	 0.280941828093156 
1219	 0.281065240209364 
1220	 0.281191321105891 
1221	 0.281301131891623 
1222	 0.281434455252065 
1223	 0.281597104238018 
1224	 0.281732593012133 
1225	 0.281866844520058 
1226	 0.281992976118322 
1227	 0.282094679478487 
1228	 0.282212716527719 
1229	 0.282338914148076 
1230	 0.282461812701062 
1231	 0.28258909490126 
1232	 0.282714629627857 
1233	 0.282838857238951 
1234	 0.282965176063068 
1235	 0.283073915248537 
1236	 0.283174523986898 
1237	 0.283278496986392 
1238	 0.28337012814345 
1239	 0.283468667705263 
1240	 0.283574368574288 
1241	 0.283675401834223 
1242	 0.28377389308878 
1243	 0.283868623769941 
1244	 0.283963794759821 
1245	 0.284056146953831 
1246	 0.284139274667247 
1247	 0.284228082049264 
1248	 0.284325545405729 
1249	 0.284415838370353 
1250	 0.28448811200469 
1251	 0.284558524393941 
1252	 0.284640533635075 
1253	 0.284718584752597 
1254	 0.284798371588683 
1255	 0.284886398726397 
1256	 0.284976988648645 
1257	 0.285065319700522 
1258	 0.285152712500158 
1259	 0.285254337621501 
1260	 0.285345554736876 
1261	 0.285424496979556 
1262	 0.28550486117055 
1263	 0.285585923100001 
1264	 0.285665929817929 
1265	 0.285734552237102 
1266	 0.285813239439824 
1267	 0.285896217644542 
1268	 0.285991188546342 
1269	 0.286071110379707 
1270	 0.286156913063169 
1271	 0.286227583940654 
1272	 0.286276749203809 
1273	 0.286344918680126 
1274	 0.286412740005413 
1275	 0.286488001202712 
1276	 0.286577596099495 
1277	 0.28665553019153 
1278	 0.286736938734993 
1279	 0.286805534972209 
1280	 0.286875485992106 
1281	 0.286926625875179 
1282	 0.286938880405274 
1283	 0.286982705510155 
1284	 0.287032292307977 
1285	 0.287077094134958 
1286	 0.287138670698423 
1287	 0.287230850787408 
1288	 0.287304262516691 
1289	 0.28737309209025 
1290	 0.287443284095492 
1291	 0.287520886775821 
1292	 0.287578486944546 
1293	 0.287627116614827 
1294	 0.287673536266511 
1295	 0.287710993904535 
1296	 0.287744106014066 
1297	 0.287775555886263 
1298	 0.287797354764894 
1299	 0.287803251407147 
1300	 0.287814714621127 
1301	 0.287838345624586 
1302	 0.287837278835304 
1303	 0.287808487565162 
1304	 0.287803093021571 
1305	 0.287793825167946 
1306	 0.28776397138079 
1307	 0.287764184220468 
1308	 0.287759293155878 
1309	 0.287757443406996 
1310	 0.287761942988191 
1311	 0.287751342173716 
1312	 0.28774413976602 
1313	 0.287716556335355 
1314	 0.287662419935232 
1315	 0.287619541201476 
1316	 0.287570219763223 
1317	 0.287528626350279 
1318	 0.287481523494919 
1319	 0.28745398816449 
1320	 0.287441320936438 
1321	 0.287425143154488 
1322	 0.28741558303388 
1323	 0.287417191285036 
1324	 0.287415862709073 
1325	 0.287405033614274 
1326	 0.287388082316338 
1327	 0.287373570037236 
1328	 0.287337018572583 
1329	 0.287315733651236 
1330	 0.287319959282923 
1331	 0.28734771379996 
1332	 0.287361516554428 
1333	 0.287395793608048 
1334	 0.287411267715613 
1335	 0.287399770361706 
1336	 0.287421004667909 
1337	 0.287451471912361 
1338	 0.28748990930486 
1339	 0.287562577729343 
1340	 0.287607900972711 
1341	 0.287636695584199 
1342	 0.287676725134466 
1343	 0.287717946393277 
1344	 0.287740240790015 
1345	 0.287799357407096 
1346	 0.287850632818104 
1347	 0.287871998485611 
1348	 0.287887918044239 
1349	 0.2878606863666 
1350	 0.287836359222575 
1351	 0.287824335083103 
1352	 0.2878182127392 
1353	 0.287794712481011 
1354	 0.287777231433177 
1355	 0.28774386232847 
1356	 0.287667940416028 
1357	 0.287645050851068 
1358	 0.287640606400946 
1359	 0.287642984005039 
1360	 0.287676866666804 
1361	 0.287704516726083 
1362	 0.287721701146045 
1363	 0.287761607251942 
1364	 0.287804025719331 
1365	 0.287873629485311 
1366	 0.287971320265002 
1367	 0.28807384884379 
1368	 0.288203950651598 
1369	 0.288313289400679 
1370	 0.288379325536582 
1371	 0.288448492753269 
1372	 0.288486908836172 
1373	 0.288495412154919 
1374	 0.288483707899978 
1375	 0.288466374230424 
1376	 0.288391335221933 
1377	 0.288273664009632 
1378	 0.288143454758944 
1379	 0.287960983886269 
1380	 0.287801377718311 
1381	 0.287619266360535 
1382	 0.287457544280407 
1383	 0.287309227082474 
1384	 0.287160236485008 
1385	 0.287052935551434 
1386	 0.286888158121078 
1387	 0.286709229858779 
1388	 0.286498180088804 
1389	 0.286255953218091 
1390	 0.285974768252035 
1391	 0.285662312612341 
1392	 0.285324140136858 
1393	 0.284938538194826 
1394	 0.284519789115385 
1395	 0.284088251424918 
1396	 0.283640553507012 
1397	 0.283189925962892 
1398	 0.282725271047282 
1399	 0.282256863600156 
1400	 0.28178801703914 
1401	 0.281295237444628 
1402	 0.280773118877818 
1403	 0.280277967430082 
1404	 0.27976761946051 
1405	 0.279290800315241 
1406	 0.278854163863517 
1407	 0.278389744572092 
1408	 0.277912506449231 
1409	 0.277462340834954 
1410	 0.276981917279434 
1411	 0.276570425235842 
1412	 0.276203732952549 
1413	 0.275864220429757 
1414	 0.275566094713916 
1415	 0.275288241682956 
1416	 0.275007235889099 
1417	 0.274749933858872 
1418	 0.274501429610192 
1419	 0.274254858000396 
1420	 0.274045876969264 
1421	 0.273850329015082 
1422	 0.273650939120388 
1423	 0.273456530507438 
1424	 0.273253169207932 
1425	 0.273029070620151 
1426	 0.272832239987331 
1427	 0.272634527225761 
1428	 0.272470857359822 
1429	 0.272328172913594 
1430	 0.272201380639448 
1431	 0.272115361675321 
1432	 0.272002800599457 
1433	 0.271883418192895 
1434	 0.271778050422114 
1435	 0.271660462711742 
1436	 0.271565805855832 
1437	 0.271509032052759 
1438	 0.271435077705937 
1439	 0.271362152917097 
1440	 0.271285938106374 
1441	 0.271197594326827 
1442	 0.271095021826918 
1443	 0.27102632734923 
1444	 0.270972756767746 
1445	 0.270951946702638 
1446	 0.270950078327485 
1447	 0.270915235411073 
1448	 0.270887352835933 
1449	 0.270852822501184 
1450	 0.270815575628044 
1451	 0.270809201770239 
1452	 0.270823586976623 
1453	 0.270845459015912 
1454	 0.270891363625791 
1455	 0.270926075154106 
1456	 0.270966185444025 
1457	 0.27100842681328 
1458	 0.271048435504285 
1459	 0.271096744105823 
1460	 0.271147438337319 
1461	 0.271209783488846 
1462	 0.271282159264746 
1463	 0.271354457534414 
1464	 0.271446802600641 
1465	 0.271518987658176 
1466	 0.271574689482745 
1467	 0.271640866746318 
1468	 0.271683902684754 
1469	 0.271762722699937 
1470	 0.271868577048959 
1471	 0.271980435560472 
1472	 0.272094939088832 
1473	 0.272211942495 
1474	 0.272290160129096 
1475	 0.272381340061508 
1476	 0.272500457658819 
1477	 0.272629707292777 
1478	 0.272793383545549 
1479	 0.272971597235229 
1480	 0.273139399426632 
1481	 0.273300564488769 
1482	 0.273467517140525 
1483	 0.273639942170252 
1484	 0.27379645760728 
1485	 0.27394757733895 
1486	 0.274102206753436 
1487	 0.274245028196686 
1488	 0.274395860555603 
1489	 0.274563285511305 
1490	 0.274712349548339 
1491	 0.274842406016015 
1492	 0.274989797834341 
1493	 0.27513878620632 
1494	 0.275286266078999 
1495	 0.275449126574688 
1496	 0.275596784224177 
1497	 0.275736977882969 
1498	 0.275869602979058 
1499	 0.275996297147211 
1500	 0.276121649343483 
1501	 0.276229817254277 
1502	 0.276350512347736 
1503	 0.276481186925794 
1504	 0.276598753589755 
1505	 0.276725388093278 
1506	 0.276851166486103 
1507	 0.276981827315958 
1508	 0.27711144601276 
1509	 0.277218786524708 
1510	 0.277331173397901 
1511	 0.277455617492816 
1512	 0.277563949908869 
1513	 0.277671424611707 
1514	 0.277790465746249 
1515	 0.277898544561571 
1516	 0.278000906398533 
1517	 0.278103186341446 
1518	 0.27821701746821 
1519	 0.278319160578061 
1520	 0.278404290739016 
1521	 0.278501993696843 
1522	 0.278605160624625 
1523	 0.278702329977032 
1524	 0.278799796335474 
1525	 0.278894199103307 
1526	 0.278981758978775 
1527	 0.279080278276654 
1528	 0.27918234522377 
1529	 0.279284356726222 
1530	 0.279396535308479 
1531	 0.279499761741689 
1532	 0.27960254835055 
1533	 0.279696857689076 
1534	 0.279785187492461 
1535	 0.27986861521903 
1536	 0.279940319229068 
1537	 0.280015325979196 
1538	 0.280078953836221 
1539	 0.280159463518696 
1540	 0.280255200439683 
1541	 0.280341050737841 
1542	 0.280435614704314 
1543	 0.280526333605338 
1544	 0.28060195105612 
1545	 0.28068593855262 
1546	 0.280783217667874 
1547	 0.280863345909316 
1548	 0.280938215578574 
1549	 0.281036060373416 
1550	 0.28112162808263 
1551	 0.281206353631286 
1552	 0.281305554213742 
1553	 0.281377296987977 
1554	 0.281439543459009 
1555	 0.281510502515025 
1556	 0.281561487547706 
1557	 0.281628073458537 
1558	 0.281727362819939 
1559	 0.281792314796668 
1560	 0.281844492342543 
1561	 0.2818870926108 
1562	 0.281935519157928 
1563	 0.28196076999845 
1564	 0.282011457156093 
1565	 0.282082115399331 
1566	 0.282140074007291 
1567	 0.282195419788276 
1568	 0.282246766881493 
1569	 0.282303802146025 
1570	 0.282349953490032 
1571	 0.282386751266242 
1572	 0.282422061468666 
1573	 0.282442315587818 
1574	 0.282482379729357 
1575	 0.282526703660748 
1576	 0.282573779681013 
1577	 0.282640360689761 
1578	 0.282692120030428 
1579	 0.282738956320217 
1580	 0.282781564280049 
1581	 0.282817385522784 
1582	 0.282857788545644 
1583	 0.282891376701908 
1584	 0.282929062405345 
1585	 0.282969726839309 
1586	 0.283012584861791 
1587	 0.283065602677011 
1588	 0.283109516955165 
1589	 0.28314904468245 
1590	 0.283188059032786 
1591	 0.283227163252755 
1592	 0.283254124087648 
1593	 0.28327912502799 
1594	 0.283296326021459 
1595	 0.283290898611624 
1596	 0.283296038665079 
1597	 0.283305942452561 
1598	 0.283315350893836 
1599	 0.283320473266884 
1600	 0.283334339310227 
1601	 0.283345782912819 
1602	 0.2833726580211 
1603	 0.283422735441504 
1604	 0.283462551762635 
1605	 0.283511988198549 
1606	 0.28354919242593 
1607	 0.283577816807526 
1608	 0.283599282720288 
1609	 0.283612151787852 
1610	 0.283621521315211 
1611	 0.283655190424509 
1612	 0.28369696032279 
1613	 0.283724904012925 
1614	 0.283743893370768 
1615	 0.2837275676077 
1616	 0.283709040536294 
1617	 0.28372187283078 
1618	 0.28374127596528 
1619	 0.283762542723856 
1620	 0.283771891312398 
1621	 0.283782828508133 
1622	 0.283778574833518 
1623	 0.28379784409409 
1624	 0.283836485800547 
1625	 0.283845780014163 
1626	 0.283848473920583 
1627	 0.283857734537123 
1628	 0.283855036514369 
1629	 0.283855407772782 
1630	 0.283867551852802 
1631	 0.283869223260386 
1632	 0.283850777792952 
1633	 0.283856743948188 
1634	 0.283878219046725 
1635	 0.283889974264054 
1636	 0.28391367568699 
1637	 0.283911649699186 
1638	 0.283889168433068 
1639	 0.283887017432075 
1640	 0.283873077412042 
1641	 0.283881725237447 
1642	 0.283919007908697 
1643	 0.28393305364583 
1644	 0.283941499051471 
1645	 0.283956274725525 
1646	 0.283965559330937 
1647	 0.283980947833512 
1648	 0.284007031543135 
1649	 0.284024844833769 
1650	 0.284042652487153 
1651	 0.284050892839312 
1652	 0.284044568532256 
1653	 0.28406007246628 
1654	 0.284079215972935 
1655	 0.284098729375808 
1656	 0.284152034174762 
1657	 0.284152016183699 
1658	 0.28411903441303 
1659	 0.284095183241222 
1660	 0.284041156486286 
1661	 0.284012912423783 
1662	 0.283993818866918 
1663	 0.283984701398126 
1664	 0.283992060732247 
1665	 0.283985200425524 
1666	 0.283988922275213 
1667	 0.283974708684195 
1668	 0.283937702607245 
1669	 0.283915796083132 
1670	 0.283891502710333 
1671	 0.283876053539978 
1672	 0.283869765404232 
1673	 0.283861028790515 
1674	 0.283852598147037 
1675	 0.283851271132079 
1676	 0.283860946176822 
1677	 0.283855178749765 
1678	 0.283849310719664 
1679	 0.283838270343115 
1680	 0.283807684592836 
1681	 0.283794258287262 
1682	 0.283791142793833 
1683	 0.283783218399039 
1684	 0.283776181981179 
1685	 0.283773871877677 
1686	 0.283776606318927 
1687	 0.283769622031781 
1688	 0.283759183457117 
1689	 0.283754001522626 
1690	 0.28374095705886 
1691	 0.28373949944794 
1692	 0.283766252557404 
1693	 0.2837539036469 
1694	 0.283720008380872 
1695	 0.283694354246971 
1696	 0.283644311618425 
1697	 0.283615031649145 
1698	 0.283601653122001 
1699	 0.283589298778508 
1700	 0.283580923582208 
1701	 0.28357247610819 
1702	 0.283573007954237 
1703	 0.283565353418695 
1704	 0.283550177643871 
1705	 0.283542176825486 
1706	 0.283540727965332 
1707	 0.283528439276608 
1708	 0.28351498189132 
1709	 0.283496945088273 
1710	 0.283471104103867 
1711	 0.283444820876583 
1712	 0.283421281351222 
1713	 0.28338867049877 
1714	 0.283342313423669 
1715	 0.283305222356453 
1716	 0.283259024218069 
1717	 0.2832276837973 
1718	 0.283217286811053 
1719	 0.283189307679319 
1720	 0.283167265477386 
1721	 0.2831310024839 
1722	 0.283081238300861 
1723	 0.283023390412519 
1724	 0.282949220571114 
1725	 0.282887236623945 
1726	 0.282819736499768 
1727	 0.282760528216795 
1728	 0.282705684238321 
1729	 0.282666900694718 
1730	 0.282638008837264 
1731	 0.282605475319839 
1732	 0.282587722019178 
1733	 0.282560670187797 
1734	 0.282541082233398 
1735	 0.2824796281752 
1736	 0.282395615617806 
1737	 0.282326660047389 
1738	 0.282236372838682 
1739	 0.282140712375601 
1740	 0.282058367841985 
1741	 0.281966342969877 
1742	 0.281832608928351 
1743	 0.281750644852863 
1744	 0.281704529164304 
1745	 0.281641644411589 
1746	 0.28159268978149 
1747	 0.281533949716745 
1748	 0.281468208472603 
1749	 0.281384234256436 
1750	 0.281291499294947 
1751	 0.281221529229599 
1752	 0.281141217564044 
1753	 0.28110142875309 
1754	 0.281097515976789 
1755	 0.281047464577021 
1756	 0.28098424830189 
1757	 0.28091578283082 
1758	 0.280820197359389 
1759	 0.280751934474382 
1760	 0.280716211096119 
1761	 0.280670886537395 
1762	 0.280612622115601 
1763	 0.280548356342382 
1764	 0.280501318312067 
1765	 0.280464595297918 
1766	 0.28043791110803 
1767	 0.280442383169145 
1768	 0.280427049316956 
1769	 0.28039736133833 
1770	 0.280364904513567 
1771	 0.280311367931854 
1772	 0.280262754052451 
1773	 0.280215918144664 
1774	 0.280169581069299 
1775	 0.280116809229773 
1776	 0.280057101658474 
1777	 0.27999451045778 
1778	 0.279941208845451 
1779	 0.279910490707432 
1780	 0.279861849161351 
1781	 0.279813241992342 
1782	 0.279797266763511 
1783	 0.279778730347131 
1784	 0.279770395249432 
1785	 0.27980835060961 
1786	 0.279789048143396 
1787	 0.279725862235546 
1788	 0.279698407178006 
1789	 0.279638765266769 
1790	 0.279622414567415 
1791	 0.279675017880555 
1792	 0.279683674532418 
1793	 0.279683662523052 
1794	 0.279688977873981 
1795	 0.27967895113433 
1796	 0.279670093904991 
1797	 0.279661772236689 
1798	 0.279656253425564 
1799	 0.279652941080499 
1800	 0.279642512625727 
1801	 0.278198051289328 
1802	 0.278402901196197 
1803	 0.278623330959805 
1804	 0.278843238306358 
1805	 0.279058694885785 
1806	 0.279247380392101 
1807	 0.279428433864967 
1808	 0.279558568829006 
1809	 0.279645404761945 
1810	 0.279712501662533 
1811	 0.279746876819454 
1812	 0.279758260359788 
1813	 0.279739086057649 
1814	 0.279759438094013 
1815	 0.279790958827519 
1816	 0.279816599374139 
1817	 0.279842287327795 
1818	 0.279878529197958 
1819	 0.279901038524396 
1820	 0.279909827821628 
1821	 0.279930195340735 
1822	 0.279952523201185 
1823	 0.279984201284252 
1824	 0.280054077145713 
1825	 0.280091391248334 
1826	 0.280086938626676 
1827	 0.280104290853799 
1828	 0.280087382622624 
1829	 0.280016822770284 
1830	 0.279960488145205 
1831	 0.279901417705706 
1832	 0.279839554748652 
1833	 0.279765103362102 
1834	 0.27970013167302 
1835	 0.279663757423533 
1836	 0.279620029628645 
1837	 0.279591716788869 
1838	 0.279599577482764 
1839	 0.27958925951858 
1840	 0.27958379632082 
1841	 0.279564335865215 
1842	 0.279549456172491 
1843	 0.279547788835237 
1844	 0.279560404490297 
1845	 0.279562638267463 
1846	 0.279567814786304 
1847	 0.279555614450751 
1848	 0.279518385495329 
1849	 0.279517868210877 
1850	 0.279502246734802 
1851	 0.279489050914753 
1852	 0.279450594743229 
1853	 0.279426038162062 
1854	 0.279359189828111 
1855	 0.27927944032267 
1856	 0.279207705490677 
1857	 0.279105740555659 
1858	 0.279009234911801 
1859	 0.27891882102604 
1860	 0.278768924429785 
1861	 0.278583219498412 
1862	 0.278373759150457 
1863	 0.278125070821273 
1864	 0.277779838295852 
1865	 0.277443962310297 
1866	 0.277056700054112 
1867	 0.27660682936408 
1868	 0.276196849854357 
1869	 0.275768239056619 
1870	 0.275339998778175 
1871	 0.274926141672674 
1872	 0.27453962433485 
1873	 0.274140345311062 
1874	 0.273721872100672 
1875	 0.273308902378405 
1876	 0.272860616118676 
1877	 0.272369493545667 
1878	 0.27184013649059 
1879	 0.271233902652846 
1880	 0.270529002698579 
1881	 0.269728812616256 
1882	 0.268868646218355 
1883	 0.267930038724723 
1884	 0.266902635624207 
1885	 0.265826352195731 
1886	 0.264677985654928 
1887	 0.263418790784284 
1888	 0.262117170052808 
1889	 0.260737944025168 
1890	 0.259298271587402 
1891	 0.257836310242598 
1892	 0.256334283176654 
1893	 0.254762492835214 
1894	 0.253124949054889 
1895	 0.251491183387035 
1896	 0.249786633073875 
1897	 0.248076111572436 
1898	 0.246379269161404 
1899	 0.244702792596804 
1900	 0.243076169386497 
1901	 0.241496169152564 
1902	 0.239986244697593 
1903	 0.238561800943472 
1904	 0.237171121396818 
1905	 0.23582214473625 
1906	 0.234552935376381 
1907	 0.233335152377931 
1908	 0.232142062832475 
1909	 0.230993664024319 
1910	 0.229887241830702 
1911	 0.228832756929841 
1912	 0.227851807645982 
1913	 0.226914187027148 
1914	 0.226028607048746 
1915	 0.225198238630879 
1916	 0.224424837820027 
1917	 0.223678768530247 
1918	 0.223002716797012 
1919	 0.222405876773056 
1920	 0.221871910105088 
1921	 0.2214101919222 
1922	 0.220979048344114 
1923	 0.220601739926753 
1924	 0.220270175108644 
1925	 0.219974827187159 
1926	 0.219731674167089 
1927	 0.219561970202714 
1928	 0.219398578859225 
1929	 0.219260246569688 
1930	 0.219147438795566 
1931	 0.219041019983319 
1932	 0.218981921689187 
1933	 0.218942558907351 
1934	 0.218910362129331 
1935	 0.218913612187998 
1936	 0.218935134131429 
1937	 0.218994636411513 
1938	 0.219091880699482 
1939	 0.219210796469875 
1940	 0.219368390415385 
1941	 0.219525236966291 
1942	 0.219717739886657 
1943	 0.219927294645677 
1944	 0.220130918354748 
1945	 0.22035345028163 
1946	 0.220584292108427 
1947	 0.220813061294089 
1948	 0.221071734046192 
1949	 0.221356410294965 
1950	 0.22163986231334 
1951	 0.221937430602069 
1952	 0.222239968070458 
1953	 0.222546556258941 
1954	 0.222887340910982 
1955	 0.223232194575258 
1956	 0.223582173470533 
1957	 0.223943153239044 
1958	 0.224306254599762 
1959	 0.224682371041258 
1960	 0.225082070528649 
1961	 0.225477856655922 
1962	 0.225886044340519 
1963	 0.226290034027271 
1964	 0.226710383771048 
1965	 0.227090797416109 
1966	 0.227481751211106 
1967	 0.227865053218849 
1968	 0.228263578177634 
1969	 0.228671403537818 
1970	 0.229075399502975 
1971	 0.229490856876196 
1972	 0.229895147071584 
1973	 0.230281327133483 
1974	 0.230684854456167 
1975	 0.231093290029457 
1976	 0.23150633509228 
1977	 0.231933808752994 
1978	 0.232346740116325 
1979	 0.232750319103773 
1980	 0.233179505784248 
1981	 0.23360963072882 
1982	 0.234049824801321 
1983	 0.23448464956635 
1984	 0.234930048426315 
1985	 0.235364484077166 
1986	 0.235792569787127 
1987	 0.236218814687748 
1988	 0.236646087069178 
1989	 0.237061421517656 
1990	 0.237483635791774 
1991	 0.23789863142246 
1992	 0.238314153039676 
1993	 0.238733683505535 
1994	 0.239146712111763 
1995	 0.239548200286055 
1996	 0.239961432099499 
1997	 0.240383902471307 
1998	 0.240797155776744 
1999	 0.241201319293172 
2000	 0.241618472220903 
2001	 0.242044420546357 
2002	 0.24245781517798 
2003	 0.242882669426932 
2004	 0.243309128515419 
2005	 0.243719556127426 
2006	 0.244108220590203 
2007	 0.244516787564416 
2008	 0.24493630370794 
2009	 0.24533870327124 
2010	 0.245735836449949 
2011	 0.246136056166288 
2012	 0.24653218130203 
2013	 0.246919367257728 
2014	 0.247305085015803 
2015	 0.247692972198291 
2016	 0.248077768624889 
2017	 0.248444695395496 
2018	 0.248819795430247 
2019	 0.249213454842761 
2020	 0.249576607771424 
2021	 0.249920857681136 
2022	 0.25026522969182 
2023	 0.250576139456313 
2024	 0.250923716994675 
2025	 0.251291916814337 
2026	 0.251653355139171 
2027	 0.252022973517304 
2028	 0.252412110389898 
2029	 0.252775866461499 
2030	 0.253128974973131 
2031	 0.253472900847637 
2032	 0.253807794049808 
2033	 0.254135935808829 
2034	 0.254438971609167 
2035	 0.254767004317238 
2036	 0.255109434849652 
2037	 0.255439989671947 
2038	 0.255781842950236 
2039	 0.256108885273046 
2040	 0.256421730096934 
2041	 0.256727036757982 
2042	 0.257043764331488 
2043	 0.257351725974441 
2044	 0.257650887309063 
2045	 0.257944929470448 
2046	 0.258235489075372 
2047	 0.258516999886926 
2048	 0.258795307849609 
2049	 0.259075227805237 
2050	 0.259343284967745 
2051	 0.259593891895714 
2052	 0.259851829929828 
2053	 0.260106451075414 
2054	 0.260360490037631 
2055	 0.260608345934528 
2056	 0.260872538318672 
2057	 0.261127249130351 
2058	 0.261380342184861 
2059	 0.26163217696341 
2060	 0.261891563680481 
2061	 0.262126550701159 
2062	 0.262360907994919 
2063	 0.262570123168915 
2064	 0.262734945675091 
2065	 0.262930879545549 
2066	 0.263104513438617 
2067	 0.263314299129339 
2068	 0.263550475499823 
2069	 0.263816335392662 
2070	 0.264048809904691 
2071	 0.264289331736084 
2072	 0.264515995048712 
2073	 0.264716875891514 
2074	 0.264936544935865 
2075	 0.265177854233061 
2076	 0.265389542372414 
2077	 0.265566777195481 
2078	 0.26578328459276 
2079	 0.266005398803199 
2080	 0.266231000369504 
2081	 0.266499296149629 
2082	 0.266740050748893 
2083	 0.266972072209458 
2084	 0.267181862850977 
2085	 0.267390655904828 
2086	 0.267589736680071 
2087	 0.267787346318047 
2088	 0.267973236908048 
2089	 0.268163008855634 
2090	 0.268349946659024 
2091	 0.268539393539373 
2092	 0.268726993385706 
2093	 0.268918129966766 
2094	 0.269105500107158 
2095	 0.269304077686829 
2096	 0.269519660880243 
2097	 0.269721814333452 
2098	 0.269926482743892 
2099	 0.270127924995584 
2100	 0.270321019713313 
2101	 0.270500025298403 
2102	 0.270683339821843 
2103	 0.270865443760954 
2104	 0.271047609276473 
2105	 0.271214407441423 
2106	 0.271409842215843 
2107	 0.271608927976355 
2108	 0.271828304074344 
2109	 0.272092944387254 
2110	 0.272324333251142 
2111	 0.272546357818487 
2112	 0.272779188250797 
2113	 0.273021841625112 
2114	 0.273229148116907 
2115	 0.273446374274 
2116	 0.273671658712728 
2117	 0.273887491461313 
2118	 0.274085722003922 
2119	 0.274296410403701 
2120	 0.274524538034452 
2121	 0.274730110482926 
2122	 0.274931596606854 
2123	 0.275115190297716 
2124	 0.275270572331373 
2125	 0.275443276563839 
2126	 0.275621942309217 
2127	 0.275781370078341 
2128	 0.275950166282721 
2129	 0.276097861526497 
2130	 0.27621497275271 
2131	 0.276335327698887 
2132	 0.276434281607964 
2133	 0.27651227957388 
2134	 0.276605161315045 
2135	 0.276697574203205 
2136	 0.276764573126383 
2137	 0.276834457216678 
2138	 0.276885499696612 
2139	 0.276913336209726 
2140	 0.276926770541271 
2141	 0.276926944781936 
2142	 0.276920237126345 
2143	 0.276878144817193 
2144	 0.276851809077398 
2145	 0.276828491348058 
2146	 0.27681052789272 
2147	 0.276800600145126 
2148	 0.276790306626841 
2149	 0.276763112534495 
2150	 0.276747188113537 
2151	 0.27669012985657 
2152	 0.276604531973807 
2153	 0.276509460739837 
2154	 0.276396884990263 
2155	 0.276264736161495 
2156	 0.276100469223646 
2157	 0.275952301890617 
2158	 0.275796252960588 
2159	 0.275632612752744 
2160	 0.275486141881764 
2161	 0.275310127916267 
2162	 0.275090165963878 
2163	 0.274892784090308 
2164	 0.274695261151846 
2165	 0.274497986158682 
2166	 0.274299249713199 
2167	 0.274119187357381 
2168	 0.273911551425959 
2169	 0.273674570498032 
2170	 0.273469702090954 
2171	 0.273249779152101 
2172	 0.273071945352399 
2173	 0.272940000213584 
2174	 0.272784969283301 
2175	 0.272658255174403 
2176	 0.272501994112238 
2177	 0.272322863584462 
2178	 0.27214225173814 
2179	 0.271952373414009 
2180	 0.271756511117843 
2181	 0.271566904426271 
2182	 0.271349209930418 
2183	 0.271107879270154 
2184	 0.270856206323869 
2185	 0.270615777173292 
2186	 0.27035175445561 
2187	 0.270125363005799 
2188	 0.269933094642028 
2189	 0.269712896696965 
2190	 0.26948232081801 
2191	 0.269271890990897 
2192	 0.269040288439849 
2193	 0.268858609004755 
2194	 0.268719038659544 
2195	 0.268578345719913 
2196	 0.268469076594955 
2197	 0.26835086011565 
2198	 0.26822217542811 
2199	 0.268118296570123 
2200	 0.26801286341812 
2201	 0.267939851815449 
2202	 0.267884305688915 
2203	 0.267866106947048 
2204	 0.267872913988132 
2205	 0.26792444540438 
2206	 0.267952571608485 
2207	 0.268014605828569 
2208	 0.268030381090823 
2209	 0.268004760806875 
2210	 0.26801454160072 
2211	 0.268023769499755 
2212	 0.268040031251573 
2213	 0.268078156312208 
2214	 0.26810999939502 
2215	 0.268132620183015 
2216	 0.268165545185547 
2217	 0.268214243932106 
2218	 0.268251628512369 
2219	 0.268280989941014 
2220	 0.268317362705793 
2221	 0.268360510621279 
2222	 0.268403596605694 
2223	 0.268400793867416 
2224	 0.268383990413419 
2225	 0.268381236048348 
2226	 0.268333893002613 
2227	 0.268350690511159 
2228	 0.268423745300133 
2229	 0.268457546019513 
2230	 0.26849233332988 
2231	 0.268528180498961 
2232	 0.268566048131446 
2233	 0.268583241836305 
2234	 0.268583541192294 
2235	 0.268602432506042 
2236	 0.268643404165547 
2237	 0.268624793000319 
2238	 0.268586844899702 
2239	 0.268550735048971 
2240	 0.268452381085311 
2241	 0.268384905354097 
2242	 0.268342171052811 
2243	 0.268305214295704 
2244	 0.268301717164289 
2245	 0.268238810342323 
2246	 0.268162654865329 
2247	 0.268110679724346 
2248	 0.268050235248206 
2249	 0.267966424354316 
2250	 0.267887507777169 
2251	 0.267812021868954 
2252	 0.267757238430519 
2253	 0.267683351465107 
2254	 0.267645375907985 
2255	 0.267670003045031 
2256	 0.267647650060933 
2257	 0.267616068549269 
2258	 0.267580584143788 
2259	 0.267526042538092 
2260	 0.267481264914217 
2261	 0.267425562277442 
2262	 0.267382456390786 
2263	 0.267319657649644 
2264	 0.267319005449541 
2265	 0.267387729044763 
2266	 0.267415645522743 
2267	 0.267461145631477 
2268	 0.267505695280393 
2269	 0.267544143913537 
2270	 0.26753627904825 
2271	 0.267571615645884 
2272	 0.267614818035826 
2273	 0.26762220587114 
2274	 0.267637392846345 
2275	 0.267644484407389 
2276	 0.267658182984797 
2277	 0.267630733934738 
2278	 0.267565080674849 
2279	 0.267547968422537 
2280	 0.26751117760703 
2281	 0.267523882056018 
2282	 0.267607046146873 
2283	 0.267637178657933 
2284	 0.267652272894592 
2285	 0.26768015567125 
2286	 0.267706730908256 
2287	 0.267722567006532 
2288	 0.267751920348299 
2289	 0.267768534011332 
2290	 0.267767075583676 
2291	 0.267753912427789 
2292	 0.267736721291215 
2293	 0.267705402160639 
2294	 0.267632266377306 
2295	 0.267590438660248 
2296	 0.267530983570736 
2297	 0.267539964373201 
2298	 0.267551815492811 
2299	 0.267566190149879 
2300	 0.267583798189359 
2301	 0.267554163327884 
2302	 0.267548850661618 
2303	 0.267526691099686 
2304	 0.267491297537462 
2305	 0.26748017708217 
2306	 0.267426774730558 
2307	 0.267339646053771 
2308	 0.26725957484867 
2309	 0.267166993438701 
2310	 0.267065044777578 
2311	 0.266949259216279 
2312	 0.266833389458871 
2313	 0.266701777529976 
2314	 0.266594958698658 
2315	 0.266492514182504 
2316	 0.26639718682851 
2317	 0.266316217289961 
2318	 0.266235969555291 
2319	 0.266182044017113 
2320	 0.266084370129135 
2321	 0.265949507375585 
2322	 0.265847366226007 
2323	 0.265719027420776 
2324	 0.26564052183836 
2325	 0.26562283761419 
2326	 0.265586881081508 
2327	 0.265563930467223 
2328	 0.26551702772167 
2329	 0.265519605167339 
2330	 0.265513436606317 
2331	 0.265478038054303 
2332	 0.26540753006704 
2333	 0.265271332958224 
2334	 0.265144261329712 
2335	 0.265021128350845 
2336	 0.26489305503473 
2337	 0.264760704335984 
2338	 0.264657455895013 
2339	 0.26461281123257 
2340	 0.264580384183987 
2341	 0.264558525209757 
2342	 0.264502935983775 
2343	 0.264387066910409 
2344	 0.264221491379303 
2345	 0.264056211150497 
2346	 0.263853840510561 
2347	 0.26368057624903 
2348	 0.263498860765796 
2349	 0.263330174178883 
2350	 0.263190165800531 
2351	 0.262993702493959 
2352	 0.262766733922396 
2353	 0.262589184983728 
2354	 0.26241104653077 
2355	 0.262204167517659 
2356	 0.262028780594023 
2357	 0.261790204188293 
2358	 0.261456535038691 
2359	 0.2612135026567 
2360	 0.261019369677163 
2361	 0.26079166786653 
2362	 0.26057652998535 
2363	 0.260359056510886 
2364	 0.260118069302664 
2365	 0.259877227491976 
2366	 0.259667286861717 
2367	 0.259415932841828 
2368	 0.259105432749125 
2369	 0.258830577778318 
2370	 0.258551639544735 
2371	 0.258316834399253 
2372	 0.258027947877718 
2373	 0.257765255410244 
2374	 0.257548610406522 
2375	 0.257273010911355 
2376	 0.256983995783674 
2377	 0.256705318433907 
2378	 0.256357497570952 
2379	 0.255994247849893 
2380	 0.255723086022872 
2381	 0.255439163669728 
2382	 0.255153657443801 
2383	 0.25492725288547 
2384	 0.254643600497869 
2385	 0.254375425532404 
2386	 0.254130135653126 
2387	 0.253795857106271 
2388	 0.253591021490064 
2389	 0.253406951300825 
2390	 0.253134637926275 
2391	 0.252884149375053 
2392	 0.252499430235033 
2393	 0.252160195496369 
2394	 0.251971611370736 
2395	 0.251772979471751 
2396	 0.251561381846521 
2397	 0.251309266486925 
2398	 0.25101052329739 
2399	 0.250739101377419 
2400	 0.250502935815381 
2401	 0.250231902008151 
2402	 0.249870150638864 
2403	 0.249533268963714 
2404	 0.24922746534471 
2405	 0.248856331165749 
2406	 0.248471228933698 
2407	 0.248116208642265 
2408	 0.247822008382904 
2409	 0.24752843002042 
2410	 0.247256396084982 
2411	 0.246970398113756 
2412	 0.246654766634303 
2413	 0.246363556636202 
2414	 0.246099225892431 
2415	 0.24585107310122 
2416	 0.245517057158688 
2417	 0.245024802002521 
2418	 0.244699428561518 
2419	 0.244408039319641 
2420	 0.244183582408253 
2421	 0.244156398185529 
2422	 0.243908020215564 
2423	 0.243540174061102 
2424	 0.243247819537978 
2425	 0.242845084997484 
2426	 0.242536861861519 
2427	 0.242447240856481 
2428	 0.242108565280488 
2429	 0.2416343272894 
2430	 0.241225879669972 
2431	 0.240658841157998 
2432	 0.240199350259465 
2433	 0.239798813255543 
2434	 0.239446381974043 
2435	 0.239205994069018 
2436	 0.238907833456253 
2437	 0.238650500159036 
2438	 0.238364653715881 
2439	 0.237975243950283 
2440	 0.237680146813335 
2441	 0.237480132717179 
2442	 0.237175594994207 
2443	 0.23685783247503 
2444	 0.23654587778165 
2445	 0.236140823445406 
2446	 0.235774505939503 
2447	 0.235451750072009 
2448	 0.235212573285421 
2449	 0.235068305937042 
2450	 0.234792779413087 
2451	 0.234511757140091 
2452	 0.234171178077974 
2453	 0.233680816853016 
2454	 0.233301926126229 
2455	 0.233022940135461 
2456	 0.232655959018412 
2457	 0.232205154259797 
2458	 0.231771743112105 
2459	 0.231287283202114 
2460	 0.230932445024719 
2461	 0.230650786622171 
2462	 0.230379083514585 
2463	 0.230266297172958 
2464	 0.229974676936733 
2465	 0.229598437097195 
2466	 0.229255218987645 
2467	 0.228765985225664 
2468	 0.228464486708622 
2469	 0.228294967374799 
2470	 0.228022023383007 
2471	 0.227845219824602 
2472	 0.227563925449661 
2473	 0.227137750380738 
2474	 0.226749845568979 
2475	 0.226368532217731 
2476	 0.226130674156856 
2477	 0.22599096686931 
2478	 0.225726216979162 
2479	 0.22545720953964 
2480	 0.225045703248561 
2481	 0.224525025448506 
2482	 0.224272731890542 
2483	 0.224039022733906 
2484	 0.223921590132774 
2485	 0.223964959006354 
2486	 0.22375103115956 
2487	 0.223590411248931 
2488	 0.223338161731717 
2489	 0.222973305443815 
2490	 0.22277908201368 
2491	 0.222457428591686 
2492	 0.222230196289653 
2493	 0.221992202858212 
2494	 0.221607409448568 
2495	 0.22148250566219 
2496	 0.22135712164162 
2497	 0.220921566339443 
2498	 0.220464365555321 
2499	 0.220115205475521 
2500	 0.219621424569127 
