Wavelength	LMW_1400004.asd
350	 8.03053971757013E-02 
351	 8.29726823123287E-02 
352	 7.74522242220335E-02 
353	 6.87429538900164E-02 
354	 7.24171001290092E-02 
355	 7.31563708430792E-02 
356	 7.26516242688453E-02 
357	 7.50352719683145E-02 
358	 0.076737822267744 
359	 7.33764735092903E-02 
360	 0.069197595287697 
361	 7.26469286883523E-02 
362	 7.45087802025399E-02 
363	 7.51552315058629E-02 
364	 7.50606148221266E-02 
365	 7.28072238434175E-02 
366	 7.00834263225631E-02 
367	 6.90913199274748E-02 
368	 7.08101430714043E-02 
369	 7.17918186656185E-02 
370	 7.14810508971194E-02 
371	 7.02138349502279E-02 
372	 6.90268318321292E-02 
373	 6.98388547950586E-02 
374	 7.03810374021857E-02 
375	 6.98875560771231E-02 
376	 7.12834834576441E-02 
377	 0.070142044458014 
378	 6.88521616421706E-02 
379	 0.07054334567114 
380	 7.27598700154051E-02 
381	 7.17686573116735E-02 
382	 7.00432287859932E-02 
383	 7.36971381580118E-02 
384	 7.19238003347207E-02 
385	 7.00193278267145E-02 
386	 7.11129051043816E-02 
387	 6.96531603666864E-02 
388	 0.070580577344674 
389	 7.20793812311652E-02 
390	 7.12567680052488E-02 
391	 7.07304268443577E-02 
392	 7.07831103470811E-02 
393	 0.071184288219291 
394	 7.14053517603629E-02 
395	 7.19974301216332E-02 
396	 7.26331521372186E-02 
397	 7.27045771045239E-02 
398	 7.09077289253997E-02 
399	 0.071564731421635 
400	 7.36413829239861E-02 
401	 0.074175433330491 
402	 7.18490495355591E-02 
403	 7.07966458755348E-02 
404	 7.18386557219924E-02 
405	 7.21968321440819E-02 
406	 7.17352948508558E-02 
407	 7.15377313344612E-02 
408	 7.21845715543813E-02 
409	 7.23437357372613E-02 
410	 7.21235993054357E-02 
411	 7.18762039708045E-02 
412	 7.20584507226603E-02 
413	 7.30050662524076E-02 
414	 7.31558662876734E-02 
415	 7.23904562816117E-02 
416	 7.25817388482232E-02 
417	 7.20213434155074E-02 
418	 7.19345001376972E-02 
419	 7.31671438638569E-02 
420	 7.30096300351651E-02 
421	 7.24918296789577E-02 
422	 7.25597079890633E-02 
423	 7.37775538511828E-02 
424	 7.36868942123528E-02 
425	 7.33511085272213E-02 
426	 7.34563876267437E-02 
427	 7.30960040472509E-02 
428	 7.32923650356442E-02 
429	 7.36376095543324E-02 
430	 7.34923935805018E-02 
431	 7.35123784430345E-02 
432	 7.34562965218858E-02 
433	 7.34145537707565E-02 
434	 7.38075720203872E-02 
435	 7.43802136102088E-02 
436	 7.45627382326615E-02 
437	 7.41910760306737E-02 
438	 7.42190791350979E-02 
439	 7.46312989737527E-02 
440	 7.50139806327371E-02 
441	 7.48568158527423E-02 
442	 7.46408654695904E-02 
443	 7.50977870327673E-02 
444	 7.59406936564042E-02 
445	 7.53183273397968E-02 
446	 7.55353471661076E-02 
447	 7.62109274746151E-02 
448	 0.076390369882883 
449	 7.61641325323704E-02 
450	 7.62782851241717E-02 
451	 7.67701598370603E-02 
452	 7.70674728569427E-02 
453	 7.72031203181086E-02 
454	 7.71418145232163E-02 
455	 7.70613983111965E-02 
456	 7.77228050336921E-02 
457	 7.80554802897706E-02 
458	 7.80844228085524E-02 
459	 7.82933258587585E-02 
460	 0.078471679533361 
461	 7.85233735666995E-02 
462	 7.85687648807135E-02 
463	 7.90214853490665E-02 
464	 7.92372499033736E-02 
465	 0.079416201672561 
466	 7.98139227920857E-02 
467	 7.98769204188772E-02 
468	 8.01798532376266E-02 
469	 8.06317542016248E-02 
470	 8.06369602549864E-02 
471	 8.08039576062318E-02 
472	 8.10211315138727E-02 
473	 8.11705103690748E-02 
474	 0.081399015832783 
475	 8.17767226152625E-02 
476	 8.20768062678924E-02 
477	 8.20536882646257E-02 
478	 8.23755574529647E-02 
479	 8.26663293510171E-02 
480	 8.27648752013075E-02 
481	 8.29228286329137E-02 
482	 8.34127415307814E-02 
483	 8.38855382494045E-02 
484	 8.39933505182358E-02 
485	 8.41489008110891E-02 
486	 8.43732602439824E-02 
487	 8.46370812987201E-02 
488	 8.48689774817036E-02 
489	 8.48778424014479E-02 
490	 8.49830205844934E-02 
491	 8.53518522958229E-02 
492	 8.55877609115019E-02 
493	 8.56455413546821E-02 
494	 8.57449273317188E-02 
495	 8.61446749135376E-02 
496	 8.62566641502643E-02 
497	 8.64299629470669E-02 
498	 8.67824248212679E-02 
499	 8.69637731081372E-02 
500	 8.70503597425449E-02 
501	 0.08709876902726 
502	 0.087194797805266 
503	 8.75718011625247E-02 
504	 8.76976516651991E-02 
505	 8.75969924708174E-02 
506	 8.77999392681629E-02 
507	 8.80785784530421E-02 
508	 8.83300892052074E-02 
509	 8.84909501452055E-02 
510	 0.088545060826129 
511	 0.088519281816689 
512	 8.85456338746355E-02 
513	 8.87698460713244E-02 
514	 8.89462121802504E-02 
515	 8.90473272597163E-02 
516	 8.91086186223519E-02 
517	 8.92266725970417E-02 
518	 8.92813937144114E-02 
519	 8.93446230653337E-02 
520	 8.95087700261828E-02 
521	 8.96338382235505E-02 
522	 8.97471175582387E-02 
523	 8.98912328182798E-02 
524	 9.01105432010731E-02 
525	 0.090095753315278 
526	 0.090092610422356 
527	 9.02843067804935E-02 
528	 9.02250289846021E-02 
529	 9.03140536914925E-02 
530	 9.05280172437386E-02 
531	 9.05811413105574E-02 
532	 9.06110764079402E-02 
533	 0.090741429684906 
534	 9.09571260515144E-02 
535	 9.09465677206944E-02 
536	 9.10014267243832E-02 
537	 9.11162539279505E-02 
538	 9.11827212867147E-02 
539	 9.12307792140067E-02 
540	 9.13095730675524E-02 
541	 9.14488556271621E-02 
542	 9.16552664256315E-02 
543	 9.17477822393732E-02 
544	 0.091765017800279 
545	 9.18013301907145E-02 
546	 0.09189245878761 
547	 9.19812817160698E-02 
548	 9.20526442636908E-02 
549	 9.21311148208681E-02 
550	 9.22546858267101E-02 
551	 9.23560240139229E-02 
552	 9.24055084659495E-02 
553	 9.25234869279266E-02 
554	 9.26453048456874E-02 
555	 9.27029252591106E-02 
556	 9.26596916640842E-02 
557	 0.092785114807404 
558	 9.29088411707803E-02 
559	 9.29557860631488E-02 
560	 9.31134143886154E-02 
561	 9.31862085239495E-02 
562	 9.32439936549144E-02 
563	 9.33978883053121E-02 
564	 9.34544182073313E-02 
565	 0.093509659656001 
566	 9.36031778803808E-02 
567	 9.36926490454796E-02 
568	 0.093755591413389 
569	 9.38169976020374E-02 
570	 9.38925402178816E-02 
571	 9.39179635492107E-02 
572	 9.39712977964344E-02 
573	 0.094044539967662 
574	 9.40723833582281E-02 
575	 0.094097241736231 
576	 9.41538752276798E-02 
577	 9.42393748026968E-02 
578	 9.42647544928502E-02 
579	 9.43353825957867E-02 
580	 0.094451935752523 
581	 9.45589128954319E-02 
582	 9.45579219913072E-02 
583	 0.094544244108406 
584	 9.45462709154592E-02 
585	 9.44679307342524E-02 
586	 0.094491402209277 
587	 9.45668479730124E-02 
588	 9.46161601169842E-02 
589	 9.47821454547976E-02 
590	 9.48482232687032E-02 
591	 9.47863504112519E-02 
592	 9.47475307561785E-02 
593	 9.46892886747749E-02 
594	 9.46418453757925E-02 
595	 9.46273927807477E-02 
596	 9.46136252797544E-02 
597	 9.46554064916422E-02 
598	 9.47352730617694E-02 
599	 9.48005131937242E-02 
600	 9.48789168763801E-02 
601	 9.49364726380944E-02 
602	 9.49631613141926E-02 
603	 9.50032484644944E-02 
604	 0.095025146474495 
605	 0.095072233814713 
606	 9.51907679975346E-02 
607	 9.53034147906655E-02 
608	 9.53820676805686E-02 
609	 0.095423634225956 
610	 9.54500953015883E-02 
611	 9.54735550768758E-02 
612	 9.54980705168044E-02 
613	 9.55214703825165E-02 
614	 9.55314313396379E-02 
615	 9.55416008843815E-02 
616	 9.55669497426818E-02 
617	 9.56167115814623E-02 
618	 9.56264955864792E-02 
619	 0.095615397033428 
620	 9.56127626867475E-02 
621	 0.095640066205621 
622	 9.56950995974231E-02 
623	 0.095757834793573 
624	 9.58027211868221E-02 
625	 9.58314999076946E-02 
626	 9.58544774294532E-02 
627	 9.58722239054486E-02 
628	 9.58699508849344E-02 
629	 9.59414263949836E-02 
630	 9.60347969210949E-02 
631	 9.60793020435944E-02 
632	 9.60967740475509E-02 
633	 0.096156583237855 
634	 9.62316520842671E-02 
635	 9.62264739167483E-02 
636	 9.62949458434037E-02 
637	 9.63674767373551E-02 
638	 9.63839871676703E-02 
639	 9.63992210048963E-02 
640	 0.096443056348231 
641	 9.65222382604549E-02 
642	 9.66186227177083E-02 
643	 9.66459265878168E-02 
644	 0.096690098490679 
645	 9.67692771761853E-02 
646	 9.67783149774656E-02 
647	 9.67997899545799E-02 
648	 0.096870668712622 
649	 9.69936879946744E-02 
650	 9.71048306242221E-02 
651	 9.71252326018887E-02 
652	 9.71109900084732E-02 
653	 9.72236710524166E-02 
654	 0.097346121081007 
655	 9.74220904765241E-02 
656	 9.74454781181087E-02 
657	 9.75036748531776E-02 
658	 9.75598711648557E-02 
659	 9.76237503659067E-02 
660	 0.09771490268237 
661	 9.77650808550364E-02 
662	 9.78255784153057E-02 
663	 9.79117881629028E-02 
664	 9.79704035992484E-02 
665	 9.80439323697638E-02 
666	 9.80957850609866E-02 
667	 9.81008173017795E-02 
668	 9.81716358396088E-02 
669	 9.82479368926236E-02 
670	 0.098296490522711 
671	 9.83158508953134E-02 
672	 0.09837279447202 
673	 9.84627887098077E-02 
674	 9.85582201385325E-02 
675	 9.86113629529504E-02 
676	 9.86449640632679E-02 
677	 9.86812786752674E-02 
678	 9.87383683119033E-02 
679	 9.87966138483706E-02 
680	 9.88525235254181E-02 
681	 9.89113657072049E-02 
682	 9.89884951201099E-02 
683	 9.90032962926199E-02 
684	 9.90340660136736E-02 
685	 9.91471145491733E-02 
686	 9.92157421597172E-02 
687	 9.92370330475735E-02 
688	 9.92391398430344E-02 
689	 9.92707239497379E-02 
690	 9.93456268378195E-02 
691	 9.94048065666384E-02 
692	 9.94212313319211E-02 
693	 9.94504555467941E-02 
694	 9.95022690624997E-02 
695	 9.95362774692838E-02 
696	 9.95202340917583E-02 
697	 9.95824152846969E-02 
698	 9.96450006289437E-02 
699	 9.96784671009109E-02 
700	 0.099717293446405 
701	 9.97795632780744E-02 
702	 9.98134062324857E-02 
703	 9.97968914756056E-02 
704	 0.099836851919545 
705	 9.98535490499936E-02 
706	 9.98507400261763E-02 
707	 9.98699664435682E-02 
708	 9.98744264720512E-02 
709	 9.98982658288821E-02 
710	 9.99468481588655E-02 
711	 9.99754040415231E-02 
712	 9.99800780520671E-02 
713	 9.99787623390067E-02 
714	 9.99884839251664E-02 
715	 0.099993559205175 
716	 9.99922160776717E-02 
717	 9.99813765024352E-02 
718	 9.99614208572226E-02 
719	 9.99861448284274E-02 
720	 0.100010450851023 
721	 9.99964918207615E-02 
722	 9.99409430805441E-02 
723	 9.99556446929313E-02 
724	 9.99887320789458E-02 
725	 9.99573314801995E-02 
726	 9.99422533804779E-02 
727	 9.99362271005912E-02 
728	 9.99248778685311E-02 
729	 9.98919046215808E-02 
730	 9.98365082628669E-02 
731	 9.98020500880682E-02 
732	 9.98055593145653E-02 
733	 9.97881820894463E-02 
734	 9.97392625083905E-02 
735	 9.96745203474658E-02 
736	 9.96230466576458E-02 
737	 9.96033424300823E-02 
738	 9.95777310754644E-02 
739	 9.95389890621585E-02 
740	 0.099516845882509 
741	 9.94841933640973E-02 
742	 9.94341928424719E-02 
743	 9.93744521763026E-02 
744	 9.93422249495272E-02 
745	 0.099274530307599 
746	 9.92140462818773E-02 
747	 9.92271096961111E-02 
748	 9.91638672305143E-02 
749	 9.90966837253176E-02 
750	 9.90555896832104E-02 
751	 0.098996106851756 
752	 9.89615666710775E-02 
753	 9.89164519155247E-02 
754	 9.88419042339627E-02 
755	 9.88256590642939E-02 
756	 9.87761281237672E-02 
757	 9.86974163304006E-02 
758	 9.86411791944149E-02 
759	 9.86087637779825E-02 
760	 9.85616220330265E-02 
761	 9.84949106654194E-02 
762	 9.84500578355417E-02 
763	 9.84114303425689E-02 
764	 9.83672763166169E-02 
765	 9.83176920278752E-02 
766	 9.83013918346467E-02 
767	 9.82471243688543E-02 
768	 9.81541424866685E-02 
769	 9.80623718650013E-02 
770	 9.80048569100356E-02 
771	 9.79711967706373E-02 
772	 9.79348563152309E-02 
773	 9.78589117724917E-02 
774	 9.78151900502878E-02 
775	 9.77887375472632E-02 
776	 9.77505048763736E-02 
777	 9.76899769110721E-02 
778	 9.76244764330576E-02 
779	 9.75663532426615E-02 
780	 9.75206810755733E-02 
781	 0.097465276879075 
782	 9.74120594982125E-02 
783	 9.73687923500636E-02 
784	 9.73333392369613E-02 
785	 9.72359345714306E-02 
786	 9.71354306725116E-02 
787	 9.70860561940604E-02 
788	 9.70752109137036E-02 
789	 0.097035714010933 
790	 9.69615770774514E-02 
791	 9.68750216638488E-02 
792	 9.67885149939075E-02 
793	 9.67317418283191E-02 
794	 9.67054430867747E-02 
795	 9.66809763599729E-02 
796	 9.65975148209558E-02 
797	 0.096504229348617 
798	 9.64438526156728E-02 
799	 9.64141956957717E-02 
800	 9.63707812520594E-02 
801	 9.63008430038094E-02 
802	 9.62098178661514E-02 
803	 0.096117593741897 
804	 9.60671207098876E-02 
805	 9.60395815843691E-02 
806	 9.59849310168717E-02 
807	 9.59625834068722E-02 
808	 9.59073382855552E-02 
809	 9.58060650550726E-02 
810	 9.57284317521738E-02 
811	 9.56794434129991E-02 
812	 0.095617960507353 
813	 9.55302665429502E-02 
814	 9.55153043959373E-02 
815	 9.54444645568083E-02 
816	 9.53438748268687E-02 
817	 9.52934117776132E-02 
818	 9.52832449201241E-02 
819	 9.52272944744966E-02 
820	 9.51308154698174E-02 
821	 9.50755802672315E-02 
822	 9.50211449808233E-02 
823	 9.49529706314307E-02 
824	 9.48792253374146E-02 
825	 9.48392714788264E-02 
826	 9.47954309314069E-02 
827	 9.47184409414842E-02 
828	 0.094617389955307 
829	 9.46174358534645E-02 
830	 9.45591443983809E-02 
831	 0.094471820522627 
832	 9.44586007691359E-02 
833	 9.44509168076734E-02 
834	 9.44047480077581E-02 
835	 9.43204432410037E-02 
836	 9.42425278464355E-02 
837	 9.42368873705575E-02 
838	 9.42226782045306E-02 
839	 9.41443063610608E-02 
840	 9.40314480926055E-02 
841	 9.39630600738995E-02 
842	 9.39253276102978E-02 
843	 9.38858656886317E-02 
844	 9.38537455061483E-02 
845	 9.38115869129293E-02 
846	 0.093747270540883 
847	 9.36670968427838E-02 
848	 9.36554456079157E-02 
849	 9.36303869884314E-02 
850	 9.35714083134467E-02 
851	 9.35181706326628E-02 
852	 9.34558154034871E-02 
853	 0.093411628997087 
854	 9.33807739053676E-02 
855	 9.33073001015626E-02 
856	 9.32778866801904E-02 
857	 9.32753822150559E-02 
858	 9.32580824098569E-02 
859	 0.093187323354895 
860	 9.31147870494901E-02 
861	 9.30677829058509E-02 
862	 9.30498743717858E-02 
863	 9.30096234237372E-02 
864	 9.29819364396838E-02 
865	 9.29622775856704E-02 
866	 9.29190236237516E-02 
867	 0.092822302499176 
868	 0.092747932116724 
869	 9.27249464330335E-02 
870	 9.27214528818859E-02 
871	 9.27050531495957E-02 
872	 9.26881223866636E-02 
873	 0.092664180155347 
874	 9.25845177922634E-02 
875	 9.25489773465942E-02 
876	 9.25089676995365E-02 
877	 9.24343703612755E-02 
878	 9.24470365842199E-02 
879	 9.24511458690087E-02 
880	 9.24156735986243E-02 
881	 9.23507280044149E-02 
882	 9.23259589531659E-02 
883	 9.23124199183193E-02 
884	 0.092279034406065 
885	 9.22135600388036E-02 
886	 9.22100977963433E-02 
887	 9.22016863140706E-02 
888	 9.21770044779747E-02 
889	 9.21735519167823E-02 
890	 9.21129940554125E-02 
891	 9.20631949713859E-02 
892	 9.20472836393503E-02 
893	 9.20103270948042E-02 
894	 9.19485282299144E-02 
895	 9.19394298092685E-02 
896	 9.20011525035223E-02 
897	 9.20218494185485E-02 
898	 9.19377149476027E-02 
899	 9.18854665458624E-02 
900	 9.19462510390128E-02 
901	 0.091908930110333 
902	 9.18364229362764E-02 
903	 0.091812238761162 
904	 9.18707740413496E-02 
905	 9.18340444953933E-02 
906	 9.17758635477179E-02 
907	 9.17254087605531E-02 
908	 9.16933803684024E-02 
909	 9.17201025240409E-02 
910	 9.17316723261652E-02 
911	 9.17098600066582E-02 
912	 9.16840764154145E-02 
913	 9.16949958077718E-02 
914	 9.17003156591627E-02 
915	 9.16729178798136E-02 
916	 9.16157506084837E-02 
917	 0.091596148282009 
918	 9.16016257520715E-02 
919	 9.15978630489439E-02 
920	 9.15477683229356E-02 
921	 9.15224023931905E-02 
922	 9.15529839744344E-02 
923	 9.16038400457459E-02 
924	 9.15632993911103E-02 
925	 9.14906129777213E-02 
926	 9.14384843381044E-02 
927	 9.14351889300389E-02 
928	 9.14650735345961E-02 
929	 9.14923918504737E-02 
930	 9.14985572588985E-02 
931	 9.14815351318304E-02 
932	 9.14613915418815E-02 
933	 0.091422551555455 
934	 9.13859293261974E-02 
935	 9.13789404487089E-02 
936	 9.14262220286083E-02 
937	 9.13764761445939E-02 
938	 0.091314498522834 
939	 9.13426675001589E-02 
940	 9.13190321605239E-02 
941	 0.091349883805315 
942	 9.14200156085638E-02 
943	 9.14606711657497E-02 
944	 9.14109503423317E-02 
945	 9.13126790038696E-02 
946	 9.12464497863157E-02 
947	 9.12627977869419E-02 
948	 9.12170928978968E-02 
949	 0.091212748818014 
950	 9.12464049526896E-02 
951	 9.12668882309969E-02 
952	 9.13132695488266E-02 
953	 9.12872871990908E-02 
954	 9.12434137653916E-02 
955	 9.12889284812364E-02 
956	 9.13041066395603E-02 
957	 9.12981299303997E-02 
958	 9.12670115817514E-02 
959	 9.12123056342782E-02 
960	 9.12161924108825E-02 
961	 9.12501391366005E-02 
962	 9.12989365675272E-02 
963	 9.13485400201307E-02 
964	 9.13209464990909E-02 
965	 9.12327638280693E-02 
966	 9.11620624694759E-02 
967	 9.11928840873966E-02 
968	 0.091248480929977 
969	 0.091216622624065 
970	 9.11176243917783E-02 
971	 9.10658863320894E-02 
972	 9.11273205536037E-02 
973	 9.11554809736105E-02 
974	 9.10890509769191E-02 
975	 0.09098279381643 
976	 9.10865444330245E-02 
977	 9.12119587081144E-02 
978	 9.12377545905256E-02 
979	 9.11576054110427E-02 
980	 9.11714541096399E-02 
981	 9.11343696485097E-02 
982	 0.091032432142758 
983	 9.09521108296032E-02 
984	 9.09456376690237E-02 
985	 9.10399001767779E-02 
986	 9.11182135743046E-02 
987	 9.10568269513489E-02 
988	 0.091091380736108 
989	 0.091131455121346 
990	 9.11233630116746E-02 
991	 9.10621574216947E-02 
992	 9.10317386078859E-02 
993	 9.08443670480402E-02 
994	 9.08240582310618E-02 
995	 9.12036652729821E-02 
996	 9.09221908092416E-02 
997	 9.07962544379708E-02 
998	 9.09043251851072E-02 
999	 9.10226219317886E-02 
1000	 9.11023421552061E-02 
1001	 8.76224722906442E-02 
1002	 8.76798621330066E-02 
1003	 8.76940728172975E-02 
1004	 8.76772286383141E-02 
1005	 8.76322109397567E-02 
1006	 8.76107863145926E-02 
1007	 8.75831634075892E-02 
1008	 8.75446646402031E-02 
1009	 8.74731853972591E-02 
1010	 8.74687772063444E-02 
1011	 8.74420115257038E-02 
1012	 8.73901503804976E-02 
1013	 8.74064015804118E-02 
1014	 8.73940736194612E-02 
1015	 8.73799279184444E-02 
1016	 8.73389346835267E-02 
1017	 8.73111729313068E-02 
1018	 8.72717679213357E-02 
1019	 8.72943766654505E-02 
1020	 8.72828618166611E-02 
1021	 0.087265109252485 
1022	 8.72336624424619E-02 
1023	 8.71641221040757E-02 
1024	 0.087111737107271 
1025	 0.087076007885092 
1026	 8.70686534699847E-02 
1027	 8.70359093783398E-02 
1028	 8.70291881221881E-02 
1029	 8.70575003303038E-02 
1030	 8.70198967576192E-02 
1031	 8.69976163014402E-02 
1032	 8.69893459474771E-02 
1033	 8.69645371545884E-02 
1034	 8.69206722578744E-02 
1035	 8.68949296292065E-02 
1036	 8.68616363745855E-02 
1037	 0.08682685029099 
1038	 8.67299655241519E-02 
1039	 8.67008184660936E-02 
1040	 0.086713236801269 
1041	 8.66668016556143E-02 
1042	 8.66744890882364E-02 
1043	 8.66947015030654E-02 
1044	 8.66984378483334E-02 
1045	 8.66877977970412E-02 
1046	 8.66951433598796E-02 
1047	 8.66946289822022E-02 
1048	 8.66852692322771E-02 
1049	 8.66884159860661E-02 
1050	 8.66709170836445E-02 
1051	 8.66351272488919E-02 
1052	 8.66367361960297E-02 
1053	 8.66121806369556E-02 
1054	 8.65745952082519E-02 
1055	 8.65947585552324E-02 
1056	 8.66093097657007E-02 
1057	 8.66224389075684E-02 
1058	 8.66466795197763E-02 
1059	 8.66754369578249E-02 
1060	 8.67141479369091E-02 
1061	 8.67251693581736E-02 
1062	 0.086752447272585 
1063	 8.67725848989561E-02 
1064	 8.67430269225241E-02 
1065	 8.67414001798362E-02 
1066	 8.67503038756956E-02 
1067	 8.67401962809937E-02 
1068	 8.67634506820571E-02 
1069	 8.67762689851155E-02 
1070	 8.67602854706954E-02 
1071	 8.66852340265647E-02 
1072	 8.66852420148616E-02 
1073	 8.67135370580828E-02 
1074	 8.67111244516488E-02 
1075	 8.67244754248319E-02 
1076	 8.67466748151018E-02 
1077	 8.67255661513578E-02 
1078	 8.67130811666708E-02 
1079	 8.67433819152403E-02 
1080	 8.67669473686492E-02 
1081	 8.67686553712697E-02 
1082	 8.67961796165592E-02 
1083	 8.68027127324491E-02 
1084	 8.67813099075221E-02 
1085	 8.67875562382475E-02 
1086	 8.68171809217191E-02 
1087	 8.68092903814235E-02 
1088	 8.68023581332754E-02 
1089	 8.67818707612604E-02 
1090	 8.67153962472249E-02 
1091	 8.66817856922089E-02 
1092	 8.66452407885243E-02 
1093	 8.66315246218283E-02 
1094	 8.66643250704945E-02 
1095	 8.66610451297996E-02 
1096	 8.66634248454874E-02 
1097	 8.66826892288871E-02 
1098	 0.086674336016079 
1099	 8.66251371691559E-02 
1100	 8.66166527996897E-02 
1101	 8.66268790415881E-02 
1102	 8.66217130220321E-02 
1103	 8.66249323193914E-02 
1104	 8.66222930482331E-02 
1105	 8.66174618462857E-02 
1106	 8.66125110081317E-02 
1107	 8.65902794220211E-02 
1108	 8.65619334316516E-02 
1109	 8.65543805136348E-02 
1110	 8.65495037297978E-02 
1111	 8.65376091872892E-02 
1112	 8.65391029374201E-02 
1113	 8.65423869421987E-02 
1114	 8.65322471262838E-02 
1115	 8.65270930289301E-02 
1116	 0.086552488122465 
1117	 8.65534881030295E-02 
1118	 8.65506979045371E-02 
1119	 8.65119928836943E-02 
1120	 8.64724804057379E-02 
1121	 8.64435887232244E-02 
1122	 8.64201240578263E-02 
1123	 8.63943002374151E-02 
1124	 8.63742607530217E-02 
1125	 8.63554122429624E-02 
1126	 8.63592622808575E-02 
1127	 8.63881464250607E-02 
1128	 8.63881976170741E-02 
1129	 8.63896540180905E-02 
1130	 8.63818356673103E-02 
1131	 8.63423545115225E-02 
1132	 8.63248035370256E-02 
1133	 8.63310933511786E-02 
1134	 8.63284295830589E-02 
1135	 8.63186297019469E-02 
1136	 8.63128990354979E-02 
1137	 8.63160049744874E-02 
1138	 8.63166220810192E-02 
1139	 8.63170939883111E-02 
1140	 8.63241890392843E-02 
1141	 8.63253843845556E-02 
1142	 8.63217055832942E-02 
1143	 8.63134466585116E-02 
1144	 8.62960444656166E-02 
1145	 8.62975783416596E-02 
1146	 8.63034730207384E-02 
1147	 8.63102015230555E-02 
1148	 8.63431129192774E-02 
1149	 8.63526196315293E-02 
1150	 8.63456858443985E-02 
1151	 8.63372515874181E-02 
1152	 8.63308599323389E-02 
1153	 8.63051672776045E-02 
1154	 8.62994956018435E-02 
1155	 8.62973714489908E-02 
1156	 8.63021921100892E-02 
1157	 8.63224461345771E-02 
1158	 8.63303113661062E-02 
1159	 8.63395315459363E-02 
1160	 0.08634144243775 
1161	 8.63263697622125E-02 
1162	 8.63301204335708E-02 
1163	 8.63386488318619E-02 
1164	 8.63485172074759E-02 
1165	 8.63685388799542E-02 
1166	 8.63937022610404E-02 
1167	 8.63879866588871E-02 
1168	 8.64093633313545E-02 
1169	 8.64253738322228E-02 
1170	 8.64429185638735E-02 
1171	 8.64508038440579E-02 
1172	 8.64530392292763E-02 
1173	 8.64724882991439E-02 
1174	 8.64970369580037E-02 
1175	 8.65139921817943E-02 
1176	 8.65466407639043E-02 
1177	 8.65655067333873E-02 
1178	 8.65660696993357E-02 
1179	 8.65700704026021E-02 
1180	 8.65671114026203E-02 
1181	 8.65782227554607E-02 
1182	 8.65954291872404E-02 
1183	 8.66063111495609E-02 
1184	 8.66298837305858E-02 
1185	 8.66767388200166E-02 
1186	 8.66966918895698E-02 
1187	 8.66953377790886E-02 
1188	 8.67256570642669E-02 
1189	 8.67663427404311E-02 
1190	 8.67975199104335E-02 
1191	 8.68543373301876E-02 
1192	 8.68837210416461E-02 
1193	 8.68755390364243E-02 
1194	 8.68944154388768E-02 
1195	 8.69245482618297E-02 
1196	 8.69469449827842E-02 
1197	 8.69718593337343E-02 
1198	 8.70026430808864E-02 
1199	 8.70340679267883E-02 
1200	 8.70564074616419E-02 
1201	 0.087093063640086 
1202	 8.71512732066346E-02 
1203	 8.71811163289833E-02 
1204	 8.71952693493295E-02 
1205	 8.72261200817448E-02 
1206	 8.72567522784455E-02 
1207	 8.72810218685184E-02 
1208	 0.087311210907166 
1209	 8.73405365019934E-02 
1210	 8.73572975381399E-02 
1211	 8.73807810619303E-02 
1212	 8.74136568331131E-02 
1213	 8.74459607026495E-02 
1214	 8.74738786737282E-02 
1215	 0.087505776214574 
1216	 8.75409638923899E-02 
1217	 8.75854786232256E-02 
1218	 8.76186150463956E-02 
1219	 8.76476690616559E-02 
1220	 8.76792569505599E-02 
1221	 8.77069735454709E-02 
1222	 0.087737864853608 
1223	 8.77722289508645E-02 
1224	 8.78049678603171E-02 
1225	 8.78406833327882E-02 
1226	 8.78689997310034E-02 
1227	 8.78842226033649E-02 
1228	 8.79167286799039E-02 
1229	 8.79531767387703E-02 
1230	 8.79911005772366E-02 
1231	 8.80513615707067E-02 
1232	 8.80962427175286E-02 
1233	 8.81344728485934E-02 
1234	 8.81652532218247E-02 
1235	 8.81916020555824E-02 
1236	 8.82082871332822E-02 
1237	 8.82320348529255E-02 
1238	 8.82464336777688E-02 
1239	 8.82782273836212E-02 
1240	 8.83182796097915E-02 
1241	 8.83602374002773E-02 
1242	 8.84240609229472E-02 
1243	 8.84647231600274E-02 
1244	 8.84932572385232E-02 
1245	 8.85266565245149E-02 
1246	 8.85500007511108E-02 
1247	 8.85762910958502E-02 
1248	 8.85934187597333E-02 
1249	 8.86372683010359E-02 
1250	 0.088687677039415 
1251	 8.87216495590465E-02 
1252	 8.87565104430742E-02 
1253	 8.87990637268479E-02 
1254	 8.88314574945361E-02 
1255	 8.88436008407485E-02 
1256	 8.88766956524468E-02 
1257	 8.89323040453373E-02 
1258	 8.89598561287826E-02 
1259	 8.89687312440772E-02 
1260	 0.088998599689022 
1261	 8.90230630062861E-02 
1262	 8.90502910980372E-02 
1263	 8.90995590488289E-02 
1264	 0.089140998155875 
1265	 8.91718443869106E-02 
1266	 8.92038952578425E-02 
1267	 0.089249041639595 
1268	 8.92751435498325E-02 
1269	 8.93025005175323E-02 
1270	 8.93173598796337E-02 
1271	 8.93496455612574E-02 
1272	 8.93877951577145E-02 
1273	 0.089424353160202 
1274	 8.94621945170353E-02 
1275	 8.95118750062372E-02 
1276	 8.95735881696682E-02 
1277	 8.96185440799908E-02 
1278	 8.96616754422582E-02 
1279	 8.97124072891956E-02 
1280	 8.97397712791908E-02 
1281	 8.97971432462716E-02 
1282	 0.089899602053311 
1283	 8.99713397580222E-02 
1284	 9.00359226235179E-02 
1285	 0.090102009462459 
1286	 9.01584402872321E-02 
1287	 9.02074343536531E-02 
1288	 9.02784942895211E-02 
1289	 0.090369815568404 
1290	 9.04479530990895E-02 
1291	 9.05324854149983E-02 
1292	 9.06081872202411E-02 
1293	 9.06723570984474E-02 
1294	 0.09074681048847 
1295	 9.08259857109846E-02 
1296	 9.08989908023498E-02 
1297	 9.09718885024305E-02 
1298	 9.10475565769335E-02 
1299	 9.11246663428187E-02 
1300	 9.11934944516804E-02 
1301	 9.12645938954718E-02 
1302	 9.13305425043579E-02 
1303	 9.13873202594219E-02 
1304	 9.14361379178093E-02 
1305	 9.15018576098653E-02 
1306	 9.15616435371176E-02 
1307	 9.16167074923396E-02 
1308	 9.16652116933271E-02 
1309	 9.17112046114875E-02 
1310	 9.17497718017364E-02 
1311	 9.17828901572781E-02 
1312	 9.18050380174361E-02 
1313	 9.18466143960506E-02 
1314	 9.18961285487524E-02 
1315	 9.19355288733991E-02 
1316	 9.19873658133745E-02 
1317	 9.20225070962233E-02 
1318	 9.20294092440734E-02 
1319	 9.20539084325323E-02 
1320	 9.20935549323292E-02 
1321	 9.21189675126186E-02 
1322	 9.21369166773426E-02 
1323	 9.21605305074704E-02 
1324	 9.21844744896569E-02 
1325	 0.09220841444025 
1326	 9.22489718881718E-02 
1327	 9.22886739277142E-02 
1328	 9.23032442896767E-02 
1329	 9.23203140372931E-02 
1330	 0.092343433410628 
1331	 9.23620420213603E-02 
1332	 9.23864118644727E-02 
1333	 9.24224748601671E-02 
1334	 9.24475963524188E-02 
1335	 0.09246556617493 
1336	 9.24882607802813E-02 
1337	 9.25141266272621E-02 
1338	 9.25364317074538E-02 
1339	 9.25569981703453E-02 
1340	 9.25774466777847E-02 
1341	 9.25996225591199E-02 
1342	 9.26149616146943E-02 
1343	 9.26233627782328E-02 
1344	 9.26390656167849E-02 
1345	 9.26548302326091E-02 
1346	 9.26555988530305E-02 
1347	 9.26675052555797E-02 
1348	 0.092684484258954 
1349	 9.26913042381135E-02 
1350	 9.26843766060671E-02 
1351	 9.26733571445799E-02 
1352	 9.26530025345539E-02 
1353	 9.26304547747413E-02 
1354	 9.25945246416472E-02 
1355	 9.25783175781163E-02 
1356	 9.25662918643537E-02 
1357	 9.25551208970763E-02 
1358	 9.25489722215526E-02 
1359	 9.25494688571776E-02 
1360	 9.25461794116784E-02 
1361	 9.25576588935885E-02 
1362	 9.25916289993521E-02 
1363	 0.092619649312816 
1364	 9.26376982911306E-02 
1365	 0.092679089332215 
1366	 9.27432137089642E-02 
1367	 9.27815981181361E-02 
1368	 9.28537462270662E-02 
1369	 9.29323343362758E-02 
1370	 9.29823731248885E-02 
1371	 9.30447320089266E-02 
1372	 9.30852335248832E-02 
1373	 9.31153679285072E-02 
1374	 9.31421855854534E-02 
1375	 9.31625456978367E-02 
1376	 0.093167797761935 
1377	 9.31654473873128E-02 
1378	 9.31574544117539E-02 
1379	 9.31270988153299E-02 
1380	 9.31176642836698E-02 
1381	 9.30997092519717E-02 
1382	 9.31069418514407E-02 
1383	 9.31354424344891E-02 
1384	 9.31630044152521E-02 
1385	 9.32139998190073E-02 
1386	 9.32499497321601E-02 
1387	 9.32786983926905E-02 
1388	 9.33078827261586E-02 
1389	 9.33321958103489E-02 
1390	 9.33632078945354E-02 
1391	 9.33850143514822E-02 
1392	 9.34081290500299E-02 
1393	 9.34159566130865E-02 
1394	 9.34066628960068E-02 
1395	 9.34078557706091E-02 
1396	 9.34138865009626E-02 
1397	 9.34284402649701E-02 
1398	 9.34589199241437E-02 
1399	 0.093480654459582 
1400	 9.35073190255291E-02 
1401	 9.35160223942452E-02 
1402	 9.35057819661327E-02 
1403	 0.093521907455595 
1404	 0.093534388843071 
1405	 9.35642451168898E-02 
1406	 9.36335727096884E-02 
1407	 9.36670158674095E-02 
1408	 9.36814866672417E-02 
1409	 9.37087088022918E-02 
1410	 9.37225476058704E-02 
1411	 9.37486368595506E-02 
1412	 9.37826555008299E-02 
1413	 9.38319451238308E-02 
1414	 9.38788127396963E-02 
1415	 0.093918817144664 
1416	 9.39634554174857E-02 
1417	 9.40122184862584E-02 
1418	 9.40470426344741E-02 
1419	 9.40868808180151E-02 
1420	 9.41396722600404E-02 
1421	 9.41804783973969E-02 
1422	 9.42249350517535E-02 
1423	 9.42746390804197E-02 
1424	 9.43121218770882E-02 
1425	 9.43382821753124E-02 
1426	 9.43691583426589E-02 
1427	 9.43903585464606E-02 
1428	 0.094426800665676 
1429	 9.44691757021611E-02 
1430	 9.45147914128583E-02 
1431	 9.45775606523967E-02 
1432	 9.46240235504552E-02 
1433	 9.46623302278175E-02 
1434	 9.47045312891971E-02 
1435	 9.47364560351569E-02 
1436	 9.47772980855384E-02 
1437	 9.48405730329324E-02 
1438	 9.48794665769944E-02 
1439	 9.49010186882955E-02 
1440	 9.49340984500302E-02 
1441	 0.094968692496364 
1442	 9.49806743720411E-02 
1443	 9.50117723538343E-02 
1444	 9.50506657460734E-02 
1445	 9.50831965464723E-02 
1446	 9.51240598385249E-02 
1447	 9.51625606497214E-02 
1448	 9.51988901673622E-02 
1449	 9.52228761079716E-02 
1450	 9.52414296633786E-02 
1451	 9.52749969367684E-02 
1452	 9.53134898849177E-02 
1453	 9.53557240959205E-02 
1454	 9.54171822000888E-02 
1455	 9.54539265624256E-02 
1456	 9.54764805763953E-02 
1457	 9.55071805894428E-02 
1458	 9.55301216047395E-02 
1459	 9.55585011631648E-02 
1460	 9.55924506489896E-02 
1461	 9.56309436227302E-02 
1462	 9.56727147156546E-02 
1463	 9.57098529786692E-02 
1464	 9.57611454009461E-02 
1465	 9.57907292309911E-02 
1466	 0.095798303144876 
1467	 9.58157559658829E-02 
1468	 9.58170761765902E-02 
1469	 9.58390934364971E-02 
1470	 9.58783322901764E-02 
1471	 9.59143888423278E-02 
1472	 9.59585315575006E-02 
1473	 9.60039070789007E-02 
1474	 9.60268866704521E-02 
1475	 9.60530018463217E-02 
1476	 9.60846602374936E-02 
1477	 9.61093886676768E-02 
1478	 9.61399361927178E-02 
1479	 9.61756213273802E-02 
1480	 9.62129972877862E-02 
1481	 9.62439665626025E-02 
1482	 9.62696428273885E-02 
1483	 9.62960567806993E-02 
1484	 9.63170592131431E-02 
1485	 9.63222813163244E-02 
1486	 9.63462704379377E-02 
1487	 9.63786753070757E-02 
1488	 9.64071321172809E-02 
1489	 9.64429252459875E-02 
1490	 9.64736563163767E-02 
1491	 9.65013525281338E-02 
1492	 9.65260645648263E-02 
1493	 9.65486827669121E-02 
1494	 9.65724749095692E-02 
1495	 0.096593922569855 
1496	 0.096615974671487 
1497	 9.66410498496692E-02 
1498	 9.66611873772594E-02 
1499	 9.66735974724176E-02 
1500	 9.66926675105136E-02 
1501	 9.67145203963952E-02 
1502	 9.67391629030354E-02 
1503	 9.67729464380692E-02 
1504	 9.67921163034419E-02 
1505	 9.68231636271186E-02 
1506	 9.68458221077254E-02 
1507	 9.68573664665107E-02 
1508	 9.68835082484135E-02 
1509	 9.68964729001828E-02 
1510	 9.68893170076274E-02 
1511	 9.68866620648637E-02 
1512	 9.68930311772451E-02 
1513	 9.69038521063449E-02 
1514	 9.69279333616353E-02 
1515	 9.69691858056391E-02 
1516	 9.70018247444503E-02 
1517	 9.70234985906722E-02 
1518	 9.70422123815828E-02 
1519	 9.70577007028874E-02 
1520	 0.097057862168529 
1521	 9.70700758812709E-02 
1522	 9.70911312782649E-02 
1523	 9.71067226747507E-02 
1524	 9.71222468621174E-02 
1525	 9.71300727085014E-02 
1526	 9.71247624039877E-02 
1527	 9.71378731205488E-02 
1528	 0.097158815246847 
1529	 9.71738064730856E-02 
1530	 9.72010837804649E-02 
1531	 9.72191893354174E-02 
1532	 9.72265036499732E-02 
1533	 9.72337525921297E-02 
1534	 9.72432290300074E-02 
1535	 9.72493054218518E-02 
1536	 9.72401476971148E-02 
1537	 9.72452901030468E-02 
1538	 9.72573052674492E-02 
1539	 9.72703760351245E-02 
1540	 9.72989582535435E-02 
1541	 9.73145019179506E-02 
1542	 9.73190473111329E-02 
1543	 0.097332944964867 
1544	 9.73427952027643E-02 
1545	 0.097356869948758 
1546	 9.73869067501725E-02 
1547	 9.74037913259239E-02 
1548	 9.74037551653727E-02 
1549	 9.74156454116135E-02 
1550	 9.74225297656902E-02 
1551	 9.74326390383508E-02 
1552	 9.74532834074021E-02 
1553	 9.74672823159541E-02 
1554	 9.74871604808751E-02 
1555	 9.74995524175921E-02 
1556	 0.097505123869952 
1557	 9.75129247524211E-02 
1558	 9.75060139300244E-02 
1559	 9.75130328451033E-02 
1560	 9.75160206131465E-02 
1561	 0.097515725455086 
1562	 0.09752637590034 
1563	 9.75462679352198E-02 
1564	 9.75568652306858E-02 
1565	 9.75699254383784E-02 
1566	 9.75868213953957E-02 
1567	 9.76000416190371E-02 
1568	 9.76084801612591E-02 
1569	 9.76266188620124E-02 
1570	 9.76336031036074E-02 
1571	 9.76283680077202E-02 
1572	 9.76217450184154E-02 
1573	 9.76060540687048E-02 
1574	 9.76047170864178E-02 
1575	 9.76054844711551E-02 
1576	 0.097604805510982 
1577	 9.76217706319529E-02 
1578	 9.76183885095269E-02 
1579	 9.75873757100173E-02 
1580	 0.097585913269941 
1581	 9.75923289737805E-02 
1582	 0.0975989256753 
1583	 0.09762771007216 
1584	 9.76407768214823E-02 
1585	 9.76402951660928E-02 
1586	 9.76484286646933E-02 
1587	 9.76545446706962E-02 
1588	 9.76667666373356E-02 
1589	 0.097694126146867 
1590	 9.77041248716897E-02 
1591	 9.77093443930762E-02 
1592	 9.77113293269308E-02 
1593	 9.77024342085428E-02 
1594	 9.76921616038112E-02 
1595	 9.76698844085881E-02 
1596	 9.76652752352826E-02 
1597	 0.097670322820384 
1598	 9.76667665212891E-02 
1599	 9.76739720857284E-02 
1600	 9.76768022725219E-02 
1601	 9.76633443803646E-02 
1602	 0.097660109125799 
1603	 9.76579681856674E-02 
1604	 9.76670236049685E-02 
1605	 9.76993830793259E-02 
1606	 9.77111392910553E-02 
1607	 9.77149995947106E-02 
1608	 9.77285571331436E-02 
1609	 9.77291171813327E-02 
1610	 9.77110689820384E-02 
1611	 9.77171050917862E-02 
1612	 9.77211267529841E-02 
1613	 9.77162349099473E-02 
1614	 9.77175657060247E-02 
1615	 9.77169803650166E-02 
1616	 9.77193835128913E-02 
1617	 9.77175069577835E-02 
1618	 9.77219644448532E-02 
1619	 9.77449411124051E-02 
1620	 9.77645902814351E-02 
1621	 9.77696296307547E-02 
1622	 9.77801822224594E-02 
1623	 9.77756732702588E-02 
1624	 9.77437854298309E-02 
1625	 9.77384766905828E-02 
1626	 9.77410829933402E-02 
1627	 9.77477518606329E-02 
1628	 9.77634037521992E-02 
1629	 9.77705010227354E-02 
1630	 9.77862479987716E-02 
1631	 9.77800624998853E-02 
1632	 9.77526910824619E-02 
1633	 9.77506479810746E-02 
1634	 9.77478229487244E-02 
1635	 9.77511576829049E-02 
1636	 9.77755201933021E-02 
1637	 9.77796946930655E-02 
1638	 9.77698867871324E-02 
1639	 9.77721522016216E-02 
1640	 9.77783384988335E-02 
1641	 9.77786732604214E-02 
1642	 0.097774146043821 
1643	 9.77841797402574E-02 
1644	 9.78013964507683E-02 
1645	 9.78078826462685E-02 
1646	 9.78283265176229E-02 
1647	 9.78255558753428E-02 
1648	 9.77975262348965E-02 
1649	 9.77839612354622E-02 
1650	 9.77632483457903E-02 
1651	 0.097759228049065 
1652	 9.77697486329465E-02 
1653	 9.77665244244549E-02 
1654	 9.77654765044408E-02 
1655	 9.77657157783416E-02 
1656	 9.77552029675506E-02 
1657	 9.77560204238508E-02 
1658	 9.77719612760448E-02 
1659	 9.77752448410602E-02 
1660	 9.77723547598295E-02 
1661	 0.097774230794103 
1662	 9.77755006596227E-02 
1663	 9.77759111252905E-02 
1664	 9.77814856723934E-02 
1665	 9.77781043382014E-02 
1666	 9.77638817095326E-02 
1667	 9.77607576052231E-02 
1668	 9.77590679430523E-02 
1669	 9.77578260853064E-02 
1670	 9.77647818332005E-02 
1671	 9.77652699223276E-02 
1672	 9.77592538644261E-02 
1673	 9.77585986795223E-02 
1674	 9.77548877268541E-02 
1675	 0.097762550391601 
1676	 9.77887067159051E-02 
1677	 9.77893691299146E-02 
1678	 0.097787050360213 
1679	 9.77767064552954E-02 
1680	 9.77301903968449E-02 
1681	 9.77247946743468E-02 
1682	 9.77458121412248E-02 
1683	 9.77502804476495E-02 
1684	 9.77635909283704E-02 
1685	 9.77756274714626E-02 
1686	 9.77752727568302E-02 
1687	 9.77850601099675E-02 
1688	 9.78121054597953E-02 
1689	 9.78236408343421E-02 
1690	 9.78306142812676E-02 
1691	 0.097830427130876 
1692	 9.78193416138289E-02 
1693	 9.78174447941682E-02 
1694	 9.78134794062762E-02 
1695	 9.78077540560265E-02 
1696	 9.78028214543575E-02 
1697	 9.78032607313703E-02 
1698	 0.097805923124612 
1699	 9.78038139617038E-02 
1700	 9.78053702089236E-02 
1701	 9.78059754139845E-02 
1702	 9.77997168556582E-02 
1703	 0.097797045405815 
1704	 9.78029152838053E-02 
1705	 9.77997370072472E-02 
1706	 0.097779390552735 
1707	 9.77812379646701E-02 
1708	 9.77934049834908E-02 
1709	 9.78062694014292E-02 
1710	 9.78370826312882E-02 
1711	 9.78517802996105E-02 
1712	 9.78549246499871E-02 
1713	 9.78667778189529E-02 
1714	 9.78845780186705E-02 
1715	 9.78894899590823E-02 
1716	 9.78870510098983E-02 
1717	 9.78909648168334E-02 
1718	 9.78879046446304E-02 
1719	 0.09788864003879 
1720	 9.79064222684657E-02 
1721	 9.79038307855645E-02 
1722	 9.78844541833199E-02 
1723	 9.78720326587416E-02 
1724	 9.78553331011674E-02 
1725	 9.78402029101513E-02 
1726	 9.78291836360706E-02 
1727	 9.78106898448171E-02 
1728	 9.77813233918733E-02 
1729	 9.77698993877123E-02 
1730	 9.77627268476353E-02 
1731	 9.77603559127586E-02 
1732	 9.77717068491171E-02 
1733	 9.77735453514495E-02 
1734	 0.097778011404317 
1735	 9.77651661543609E-02 
1736	 9.77439797025485E-02 
1737	 9.77258104225471E-02 
1738	 9.76928656043539E-02 
1739	 9.76743999914041E-02 
1740	 9.76670538600091E-02 
1741	 9.76569403134458E-02 
1742	 9.76431049347419E-02 
1743	 9.76353442206412E-02 
1744	 9.76319174530101E-02 
1745	 9.76309931535626E-02 
1746	 9.76390194768233E-02 
1747	 9.76365800360881E-02 
1748	 9.76316827463156E-02 
1749	 9.76328081007878E-02 
1750	 9.76295538937736E-02 
1751	 9.76324011115553E-02 
1752	 9.76341236098331E-02 
1753	 9.76084208044194E-02 
1754	 9.75771441549824E-02 
1755	 9.75496585865277E-02 
1756	 9.75258489736725E-02 
1757	 9.75285047521076E-02 
1758	 0.097532767842765 
1759	 9.75453368173503E-02 
1760	 9.75667410731586E-02 
1761	 0.09756414878954 
1762	 0.09755529658096 
1763	 9.75495378061701E-02 
1764	 9.75491139278351E-02 
1765	 9.75689981626519E-02 
1766	 9.75931735876079E-02 
1767	 9.76097213275826E-02 
1768	 9.76038370149481E-02 
1769	 9.75879368731327E-02 
1770	 9.75840943936205E-02 
1771	 9.75681371507173E-02 
1772	 9.75420278219242E-02 
1773	 9.75337616564066E-02 
1774	 9.75292083903143E-02 
1775	 9.74978043540929E-02 
1776	 9.74891323207248E-02 
1777	 9.74788456390201E-02 
1778	 9.74472813265286E-02 
1779	 9.74603335011723E-02 
1780	 9.74809763232005E-02 
1781	 9.74852002799923E-02 
1782	 9.74874838107409E-02 
1783	 9.74872936958313E-02 
1784	 9.74827216268935E-02 
1785	 9.74640561660219E-02 
1786	 9.74627289276521E-02 
1787	 9.74730431063659E-02 
1788	 9.74760121557285E-02 
1789	 9.74895514056641E-02 
1790	 9.74932687800903E-02 
1791	 9.74790292762275E-02 
1792	 9.74779756149618E-02 
1793	 9.74864559106065E-02 
1794	 9.74846188806342E-02 
1795	 9.74885393035418E-02 
1796	 0.097478930628218 
1797	 9.74488349084732E-02 
1798	 9.74324751593025E-02 
1799	 9.74091338037038E-02 
1800	 9.74007204346933E-02 
1801	 9.46355119520288E-02 
1802	 9.47293352389803E-02 
1803	 9.48200959324557E-02 
1804	 9.49542294199287E-02 
1805	 9.50578842517323E-02 
1806	 9.51431337868926E-02 
1807	 9.52557100437124E-02 
1808	 9.53397315134953E-02 
1809	 9.54154554883589E-02 
1810	 9.54732553509896E-02 
1811	 0.09551032794828 
1812	 9.55501107379599E-02 
1813	 9.55830184143969E-02 
1814	 9.55895712028826E-02 
1815	 9.56128125610572E-02 
1816	 9.55991590314764E-02 
1817	 9.55948565830112E-02 
1818	 9.55823873149098E-02 
1819	 9.55857305419521E-02 
1820	 9.55818538297615E-02 
1821	 9.56134890153013E-02 
1822	 9.56440711506804E-02 
1823	 9.56232006017742E-02 
1824	 9.56396633767076E-02 
1825	 9.56451239678464E-02 
1826	 9.56324322392499E-02 
1827	 9.56630799868345E-02 
1828	 9.56681615000689E-02 
1829	 9.56569355326886E-02 
1830	 9.56492659223305E-02 
1831	 9.56424351510054E-02 
1832	 9.56222435621471E-02 
1833	 9.56042317784281E-02 
1834	 9.55680078851527E-02 
1835	 9.55490647797595E-02 
1836	 9.55441992619167E-02 
1837	 9.55496932326716E-02 
1838	 9.55755469912361E-02 
1839	 9.55933585587947E-02 
1840	 9.56073795828261E-02 
1841	 9.56321006792409E-02 
1842	 9.56630624477463E-02 
1843	 9.57145687757692E-02 
1844	 9.57897138500255E-02 
1845	 9.58481238013413E-02 
1846	 9.59179203097784E-02 
1847	 9.59671368289223E-02 
1848	 0.095994248146724 
1849	 9.60247321669311E-02 
1850	 9.60541861402615E-02 
1851	 9.60731145153192E-02 
1852	 9.60958916448391E-02 
1853	 9.61288547082126E-02 
1854	 9.61730775791704E-02 
1855	 9.62082905260904E-02 
1856	 9.62418948816419E-02 
1857	 9.62876748137948E-02 
1858	 9.63116353458678E-02 
1859	 0.096316368057732 
1860	 9.63248093020431E-02 
1861	 9.63337637943166E-02 
1862	 0.096319323063462 
1863	 9.62958916982729E-02 
1864	 0.096283499898688 
1865	 9.62531653228425E-02 
1866	 9.61916267115183E-02 
1867	 9.61341504385508E-02 
1868	 9.60783146010388E-02 
1869	 9.60280077325115E-02 
1870	 9.60100077800379E-02 
1871	 9.60024396725158E-02 
1872	 9.60098211426826E-02 
1873	 9.60412471981531E-02 
1874	 9.60833656847755E-02 
1875	 9.61454656776217E-02 
1876	 9.62138494240967E-02 
1877	 9.62680916557018E-02 
1878	 9.63384557932637E-02 
1879	 9.63747659703813E-02 
1880	 9.64037701552839E-02 
1881	 0.096434729240233 
1882	 9.64496675569623E-02 
1883	 9.64397129676651E-02 
1884	 9.64367520144124E-02 
1885	 0.096427842072045 
1886	 9.63922415999426E-02 
1887	 9.63666619657487E-02 
1888	 9.63150046011685E-02 
1889	 9.62585245577268E-02 
1890	 0.096232550500472 
1891	 9.61872107772658E-02 
1892	 9.61405347825742E-02 
1893	 9.60823611318305E-02 
1894	 9.60180256838454E-02 
1895	 9.59291903213619E-02 
1896	 9.58601474149704E-02 
1897	 0.09577526269563 
1898	 9.56810056412566E-02 
1899	 9.55892065272472E-02 
1900	 9.54906041867697E-02 
1901	 9.54001417589137E-02 
1902	 9.53267970040507E-02 
1903	 9.52783509340901E-02 
1904	 9.52345599453571E-02 
1905	 0.09519879562444 
1906	 9.51724999805863E-02 
1907	 9.51596202514068E-02 
1908	 9.51333092800307E-02 
1909	 9.51029867370756E-02 
1910	 9.50511750595553E-02 
1911	 9.49909086052997E-02 
1912	 9.49495974541969E-02 
1913	 9.49142135694233E-02 
1914	 9.48921983285342E-02 
1915	 9.48667623874623E-02 
1916	 9.48521615545448E-02 
1917	 9.48242238720401E-02 
1918	 9.47971469264698E-02 
1919	 9.47651778231361E-02 
1920	 9.47465809185755E-02 
1921	 0.094723811470901 
1922	 9.47035196775208E-02 
1923	 9.47041450003297E-02 
1924	 9.47104024346704E-02 
1925	 9.47433963483072E-02 
1926	 9.47542334254272E-02 
1927	 0.094769825694982 
1928	 9.47620165541845E-02 
1929	 9.47585415403929E-02 
1930	 9.47568158918402E-02 
1931	 9.47575121630263E-02 
1932	 9.47581477355412E-02 
1933	 9.47506570677262E-02 
1934	 9.47308066310509E-02 
1935	 9.47227999079923E-02 
1936	 0.094720138465782 
1937	 9.47246305240467E-02 
1938	 9.47337079709543E-02 
1939	 9.47452570319725E-02 
1940	 9.47655190999417E-02 
1941	 9.47777228166238E-02 
1942	 0.094792888298094 
1943	 9.48224799099977E-02 
1944	 9.48486779942135E-02 
1945	 9.48668666507426E-02 
1946	 9.48824870588466E-02 
1947	 9.48970164791573E-02 
1948	 0.094903947328871 
1949	 9.48950370060022E-02 
1950	 9.48990127984621E-02 
1951	 0.094900283863921 
1952	 9.49100892034706E-02 
1953	 9.49297295572715E-02 
1954	 9.49668816600194E-02 
1955	 9.50113568410029E-02 
1956	 0.095038439897144 
1957	 9.50787119262754E-02 
1958	 9.51340730996262E-02 
1959	 9.51725127193677E-02 
1960	 9.52053391027921E-02 
1961	 0.095242729207695 
1962	 9.52609336467936E-02 
1963	 9.52934023525924E-02 
1964	 9.53331971685766E-02 
1965	 9.53926635485096E-02 
1966	 9.54370747695843E-02 
1967	 9.54861731618098E-02 
1968	 9.55329852078283E-02 
1969	 9.55759133848476E-02 
1970	 9.56175440430205E-02 
1971	 9.56705588298126E-02 
1972	 9.57057148952963E-02 
1973	 9.57170783728337E-02 
1974	 9.57491526956154E-02 
1975	 9.57872920742101E-02 
1976	 9.58097975861011E-02 
1977	 9.58639497356876E-02 
1978	 9.59246315926264E-02 
1979	 9.59628224294337E-02 
1980	 9.60032652626636E-02 
1981	 9.60490982253265E-02 
1982	 9.60921944721779E-02 
1983	 9.61355827065899E-02 
1984	 9.61897755100739E-02 
1985	 9.62378931344216E-02 
1986	 9.62803789375159E-02 
1987	 9.63189902305613E-02 
1988	 9.63604586505503E-02 
1989	 9.63908236283142E-02 
1990	 0.09642031141899 
1991	 9.64472220618039E-02 
1992	 9.64819926676302E-02 
1993	 9.65265413513576E-02 
1994	 9.65609296158631E-02 
1995	 9.65869409925529E-02 
1996	 9.66291865317485E-02 
1997	 9.66844772278526E-02 
1998	 9.67220123533921E-02 
1999	 9.67603345131019E-02 
2000	 9.67967925484287E-02 
2001	 9.68162732955916E-02 
2002	 9.68364591805176E-02 
2003	 9.68811122987536E-02 
2004	 9.69383354445964E-02 
2005	 9.69844672253056E-02 
2006	 9.70299222068482E-02 
2007	 9.70826949684744E-02 
2008	 0.097137240766748 
2009	 0.097188912069122 
2010	 9.72491413122691E-02 
2011	 9.73035921674518E-02 
2012	 9.73482051654544E-02 
2013	 9.73969185306245E-02 
2014	 9.74433079302772E-02 
2015	 9.74998599654102E-02 
2016	 9.75657225350718E-02 
2017	 9.76093766199925E-02 
2018	 9.76607758799243E-02 
2019	 0.097715747034187 
2020	 9.77657635526349E-02 
2021	 9.78116907797664E-02 
2022	 9.78587331268152E-02 
2023	 9.79048901406687E-02 
2024	 9.79492830442815E-02 
2025	 9.79851411326368E-02 
2026	 9.80309142985541E-02 
2027	 9.80766492612205E-02 
2028	 9.81348565223072E-02 
2029	 9.81884635691581E-02 
2030	 9.82531980910633E-02 
2031	 9.83026081370025E-02 
2032	 9.83472927224806E-02 
2033	 0.098384049282652 
2034	 9.84108081939265E-02 
2035	 9.84361991397944E-02 
2036	 9.84463552532324E-02 
2037	 9.84741919167856E-02 
2038	 9.85094933196771E-02 
2039	 9.85432034995135E-02 
2040	 9.85811370070923E-02 
2041	 9.86224172700149E-02 
2042	 9.86733413992543E-02 
2043	 9.87314469443204E-02 
2044	 9.87771795724954E-02 
2045	 9.88315501632616E-02 
2046	 9.88752221154694E-02 
2047	 9.88985148402931E-02 
2048	 9.89349240251792E-02 
2049	 9.89860629374703E-02 
2050	 9.90197955458542E-02 
2051	 9.90391649489568E-02 
2052	 9.90676764219071E-02 
2053	 9.90858667199215E-02 
2054	 9.91178869535183E-02 
2055	 9.91552147222032E-02 
2056	 9.92100539784778E-02 
2057	 9.92601726322504E-02 
2058	 9.93301356810528E-02 
2059	 9.93596778656967E-02 
2060	 9.93688541913141E-02 
2061	 9.93891293470414E-02 
2062	 9.93769789580912E-02 
2063	 9.93993228196949E-02 
2064	 9.94633316190093E-02 
2065	 9.94947515188976E-02 
2066	 9.95226198207677E-02 
2067	 9.95437604079776E-02 
2068	 9.95359456510851E-02 
2069	 9.95404641011017E-02 
2070	 0.099569708427314 
2071	 9.96139459168382E-02 
2072	 0.099655786036885 
2073	 9.97302168694738E-02 
2074	 9.97626091673168E-02 
2075	 0.099757580529862 
2076	 9.97915339077183E-02 
2077	 9.98347691574554E-02 
2078	 9.98682871692936E-02 
2079	 9.99306378232906E-02 
2080	 9.99668849939304E-02 
2081	 0.099962621006231 
2082	 9.99800699642913E-02 
2083	 0.100010877922265 
2084	 0.100029537593312 
2085	 0.100050417652922 
2086	 0.100075987754334 
2087	 0.100103162550369 
2088	 0.100120346099263 
2089	 0.100156017734762 
2090	 0.100205146194233 
2091	 0.100252504298651 
2092	 0.100315607195749 
2093	 0.100360020272569 
2094	 0.100399865804254 
2095	 0.100436705734924 
2096	 0.100455956801787 
2097	 0.100485806249643 
2098	 0.100524273383859 
2099	 0.100555252591769 
2100	 0.100588972562461 
2101	 0.100621092414499 
2102	 0.10066139887806 
2103	 0.100708915392576 
2104	 0.100746560948018 
2105	 0.10077845941084 
2106	 0.100826009590729 
2107	 0.100878244586201 
2108	 0.10092405701918 
2109	 0.100975871638062 
2110	 0.101034106941842 
2111	 0.10108415609587 
2112	 0.101141386475889 
2113	 0.101223027114396 
2114	 0.10128988338181 
2115	 0.101351790160781 
2116	 0.101409933882873 
2117	 0.101453120805431 
2118	 0.101482425473105 
2119	 0.101521017725543 
2120	 0.101552701798862 
2121	 0.10158309719377 
2122	 0.101611242748995 
2123	 0.101650026278683 
2124	 0.101698997824715 
2125	 0.101727787410251 
2126	 0.101766182086143 
2127	 0.101785180261142 
2128	 0.101757854788003 
2129	 0.101759971166699 
2130	 0.101766145493572 
2131	 0.101781437545689 
2132	 0.101812856848998 
2133	 0.101882089185022 
2134	 0.101894927710608 
2135	 0.101892591923047 
2136	 0.101896535553961 
2137	 0.101877895697361 
2138	 0.101857154122677 
2139	 0.101842612437013 
2140	 0.101825060079492 
2141	 0.101784157653467 
2142	 0.101754913821791 
2143	 0.10174496471082 
2144	 0.101721857206744 
2145	 0.101689029602834 
2146	 0.101655367044661 
2147	 0.101599361849898 
2148	 0.101583411352839 
2149	 0.101549092785124 
2150	 0.101518702532783 
2151	 0.101471800922259 
2152	 0.101416609658762 
2153	 0.101364058188537 
2154	 0.101301664325794 
2155	 0.101238485656563 
2156	 0.101172597988814 
2157	 0.101117281322209 
2158	 0.101071273778971 
2159	 0.101006700494905 
2160	 0.100940105515945 
2161	 0.100875609104293 
2162	 0.100796861212577 
2163	 0.100716286545604 
2164	 0.100634942786602 
2165	 0.100563650789525 
2166	 0.10049482900126 
2167	 0.100425412892124 
2168	 0.100345634175036 
2169	 0.100273353169537 
2170	 0.100192489690257 
2171	 0.10007558986912 
2172	 0.100005238360351 
2173	 9.99701782204914E-02 
2174	 9.99131400449808E-02 
2175	 9.98822672866948E-02 
2176	 9.98144524333095E-02 
2177	 0.099706338370032 
2178	 9.96201256879922E-02 
2179	 9.95152516884006E-02 
2180	 9.94339466971745E-02 
2181	 0.09938309517806 
2182	 0.099319985849265 
2183	 9.92521109140737E-02 
2184	 9.92001061715322E-02 
2185	 9.91456729801144E-02 
2186	 9.90867628798872E-02 
2187	 9.90353893812985E-02 
2188	 9.89949017067884E-02 
2189	 9.89482255467467E-02 
2190	 9.89029203688865E-02 
2191	 9.88518187098568E-02 
2192	 0.098801394886509 
2193	 9.87473197529459E-02 
2194	 9.86803302848335E-02 
2195	 9.86240979325809E-02 
2196	 9.85737614791601E-02 
2197	 0.098518099650581 
2198	 9.84464228328928E-02 
2199	 9.84066113718127E-02 
2200	 9.83832502869287E-02 
2201	 9.83613844757004E-02 
2202	 9.83783068701065E-02 
2203	 9.83759602968393E-02 
2204	 9.83537407148378E-02 
2205	 9.83072123095304E-02 
2206	 9.82827443396575E-02 
2207	 0.098254009009231 
2208	 9.82265266416959E-02 
2209	 9.81929286519896E-02 
2210	 9.81955060711104E-02 
2211	 9.82269008857644E-02 
2212	 9.82203274695666E-02 
2213	 9.82374283572833E-02 
2214	 9.82256025227631E-02 
2215	 9.81349963937463E-02 
2216	 9.81145320085818E-02 
2217	 9.81383927579262E-02 
2218	 9.81444141287446E-02 
2219	 9.81752907195802E-02 
2220	 9.81935862109937E-02 
2221	 9.82053013910914E-02 
2222	 9.81986586037839E-02 
2223	 9.82009227588966E-02 
2224	 0.098231676235697 
2225	 9.82421403630007E-02 
2226	 9.82495175605725E-02 
2227	 9.82594427220553E-02 
2228	 9.82612430486184E-02 
2229	 9.82788033894186E-02 
2230	 9.83038811485123E-02 
2231	 9.83307553367804E-02 
2232	 9.83833518941285E-02 
2233	 9.83913238705655E-02 
2234	 9.83702588582029E-02 
2235	 9.83735457185423E-02 
2236	 9.83530223316438E-02 
2237	 9.83589517493676E-02 
2238	 9.84114514314226E-02 
2239	 9.84275434712233E-02 
2240	 9.84225956290621E-02 
2241	 9.84299950447732E-02 
2242	 9.84135846971005E-02 
2243	 9.84285142874075E-02 
2244	 0.098481995733374 
2245	 9.85209559322882E-02 
2246	 0.098542397052438 
2247	 9.85611208348249E-02 
2248	 9.85745476119521E-02 
2249	 9.85555187432146E-02 
2250	 9.85766124960533E-02 
2251	 9.86256025511217E-02 
2252	 9.86488898281341E-02 
2253	 9.86718155741216E-02 
2254	 9.86887446370552E-02 
2255	 9.86792347828327E-02 
2256	 9.87107748328243E-02 
2257	 9.87877610345963E-02 
2258	 9.88098208999118E-02 
2259	 9.88154965029524E-02 
2260	 9.88300691690395E-02 
2261	 0.098805941615571 
2262	 9.88066042095216E-02 
2263	 9.88312675584217E-02 
2264	 9.88631800466291E-02 
2265	 9.89043823960299E-02 
2266	 0.098934780914169 
2267	 9.89749704051466E-02 
2268	 0.099017215539035 
2269	 9.90662130380133E-02 
2270	 9.90820240699969E-02 
2271	 9.91174695969365E-02 
2272	 9.91372986519538E-02 
2273	 9.90968663404084E-02 
2274	 9.90630072151943E-02 
2275	 9.90616707721797E-02 
2276	 9.90577347903341E-02 
2277	 9.90804972864596E-02 
2278	 0.099144526485119 
2279	 9.92007805787055E-02 
2280	 9.92710210716482E-02 
2281	 9.93110934262527E-02 
2282	 9.93595627850249E-02 
2283	 9.93865308446041E-02 
2284	 9.93636289798303E-02 
2285	 0.099381684252806 
2286	 9.94325829405206E-02 
2287	 9.94412589865423E-02 
2288	 9.94256645367652E-02 
2289	 9.94465030560297E-02 
2290	 9.94683261836508E-02 
2291	 9.94764372050172E-02 
2292	 9.94971240907487E-02 
2293	 9.95219973298587E-02 
2294	 9.95368264923462E-02 
2295	 0.099550188746036 
2296	 9.95804123188193E-02 
2297	 9.96077472616016E-02 
2298	 9.96243148675411E-02 
2299	 9.96333815426221E-02 
2300	 9.96466507819957E-02 
2301	 9.96899553479745E-02 
2302	 9.97365992650091E-02 
2303	 0.099761894647538 
2304	 9.97847658389159E-02 
2305	 9.98047093285926E-02 
2306	 9.98079821653501E-02 
2307	 9.97720237977178E-02 
2308	 9.97741585338467E-02 
2309	 9.97840565958864E-02 
2310	 9.98064778406042E-02 
2311	 0.099849194487403 
2312	 9.98772862792768E-02 
2313	 9.99159048502145E-02 
2314	 0.099938719566834 
2315	 9.99476158297927E-02 
2316	 9.99632395851625E-02 
2317	 9.99718276399451E-02 
2318	 9.99837962853183E-02 
2319	 0.10000226380555 
2320	 0.10001717151381 
2321	 9.99957880676164E-02 
2322	 0.100041825035316 
2323	 0.100140106902145 
2324	 0.10020615692075 
2325	 0.100332311489623 
2326	 0.100398944372431 
2327	 0.100396517371004 
2328	 0.100416940942519 
2329	 0.100462686046032 
2330	 0.10048701613902 
2331	 0.100515768328455 
2332	 0.100545960258556 
2333	 0.100546872537677 
2334	 0.10057702188072 
2335	 0.100631299066124 
2336	 0.100655387699031 
2337	 0.100706986347603 
2338	 0.100728879724821 
2339	 0.100745649659314 
2340	 0.100786384683694 
2341	 0.100805839644707 
2342	 0.100823023858477 
2343	 0.100832163140712 
2344	 0.100882232816346 
2345	 0.1009266745778 
2346	 0.1009909351258 
2347	 0.101024406148413 
2348	 0.101040838046773 
2349	 0.101050264801019 
2350	 0.101036350604295 
2351	 0.101055545092315 
2352	 0.101112821895659 
2353	 0.101135291349961 
2354	 0.101141559790976 
2355	 0.101140393778256 
2356	 0.10109267006881 
2357	 0.101094275509273 
2358	 0.101164943574229 
2359	 0.101149385087686 
2360	 0.101066004320658 
2361	 0.101077747545734 
2362	 0.101097675340272 
2363	 0.101112993033527 
2364	 0.101227642559118 
2365	 0.101259839931899 
2366	 0.101174157449703 
2367	 0.101165861890072 
2368	 0.101206280102393 
2369	 0.101219088423494 
2370	 0.101262475043628 
2371	 0.101267339303915 
2372	 0.101165857313416 
2373	 0.101110229213309 
2374	 0.101110627840709 
2375	 0.101118676903747 
2376	 0.101189025553921 
2377	 0.101246437472812 
2378	 0.101225739012983 
2379	 0.101213453126498 
2380	 0.101222167731045 
2381	 0.101211261936206 
2382	 0.101219083939853 
2383	 0.101266592407788 
2384	 0.101279931429165 
2385	 0.101256483878813 
2386	 0.101266428356199 
2387	 0.101254197832462 
2388	 0.101268884741326 
2389	 0.101357025105884 
2390	 0.101402716831376 
2391	 0.101364384572582 
2392	 0.101293658806677 
2393	 0.101260608309873 
2394	 0.101218759911101 
2395	 0.101194414056178 
2396	 0.101265890580316 
2397	 0.10136303087824 
2398	 0.101413407225562 
2399	 0.10140954689801 
2400	 0.101384008128036 
2401	 0.10130480461076 
2402	 0.101219529928026 
2403	 0.101194601383299 
2404	 0.101179180676087 
2405	 0.101122577027094 
2406	 0.100997265665054 
2407	 0.100939949661397 
2408	 0.100942940757209 
2409	 0.100909333083086 
2410	 0.100960243932075 
2411	 0.101069922516569 
2412	 0.101130111021924 
2413	 0.101101544886449 
2414	 0.101054880553289 
2415	 0.101042220126414 
2416	 0.101027668272758 
2417	 0.100978912147047 
2418	 0.10102410621451 
2419	 0.10115821180095 
2420	 0.101151428353666 
2421	 0.101139287756298 
2422	 0.101153986469182 
2423	 0.10109350885477 
2424	 0.101042719742226 
2425	 0.101042043276188 
2426	 0.10098633567549 
2427	 0.100811507185144 
2428	 0.100794469362594 
2429	 0.10088967449645 
2430	 0.100877837326637 
2431	 0.100888310226011 
2432	 0.10089654649726 
2433	 0.100845786798032 
2434	 0.100810073158528 
2435	 0.100805043160982 
2436	 0.100801441002064 
2437	 0.100798066758794 
2438	 0.100730729900618 
2439	 0.100619236708831 
2440	 0.100526081603566 
2441	 0.100370018855363 
2442	 0.100341955685914 
2443	 0.100468543218752 
2444	 0.100467842797068 
2445	 0.100428890919496 
2446	 0.100395828162943 
2447	 0.100256454649122 
2448	 0.1002404982627 
2449	 0.100311969955208 
2450	 0.100359451544219 
2451	 0.100496503737225 
2452	 0.100493211218921 
2453	 0.100415899126357 
2454	 0.100338699675634 
2455	 0.100144079693042 
2456	 0.10012992919474 
2457	 0.100238857736708 
2458	 0.100244162223374 
2459	 0.100261203985934 
2460	 0.100263816300427 
2461	 0.100203969252004 
2462	 0.100183537021641 
2463	 0.1002707198603 
2464	 0.100265202985289 
2465	 0.100050376473864 
2466	 0.100063314528185 
2467	 0.100211856819714 
2468	 0.100274031069306 
2469	 0.100528325904458 
2470	 0.100472728644411 
2471	 0.100373442025803 
2472	 0.100209722816655 
2473	 0.100081266965728 
2474	 0.100147126961146 
2475	 0.100138997148259 
2476	 0.100191298361456 
2477	 0.100202008828815 
2478	 0.100031772043648 
2479	 9.99541978699613E-02 
2480	 9.99365515446465E-02 
2481	 9.99083723001992E-02 
2482	 9.99015879042604E-02 
2483	 9.98700162204174E-02 
2484	 0.099760908914199 
2485	 9.96634789689306E-02 
2486	 9.96980802878783E-02 
2487	 9.98182229587903E-02 
2488	 9.99891681262155E-02 
2489	 9.99594604105895E-02 
2490	 0.099802582487697 
2491	 9.97100870976031E-02 
2492	 9.94269567069016E-02 
2493	 9.93231853343086E-02 
2494	 0.099507058427572 
2495	 9.95167386105166E-02 
2496	 9.95657690830074E-02 
2497	 9.95751610983565E-02 
2498	 9.94201369935463E-02 
2499	 9.93494492746779E-02 
2500	 9.93551992222289E-02 
