Wavelength	LMW_1700001.asd
350	 5.53103551783479E-02 
351	 5.86337537206364E-02 
352	 5.39307551424433E-02 
353	 4.99331248347207E-02 
354	 5.46583423645994E-02 
355	 5.43110112738522E-02 
356	 0.051626721109119 
357	 5.29014923694603E-02 
358	 6.19534436929992E-02 
359	 6.14331086300652E-02 
360	 5.48131901912274E-02 
361	 5.73846735646051E-02 
362	 5.44722034137107E-02 
363	 5.34840463461898E-02 
364	 5.71701647284419E-02 
365	 5.72529272444543E-02 
366	 5.41793593106266E-02 
367	 0.053786759024256 
368	 5.95972166241909E-02 
369	 6.10391799538383E-02 
370	 5.94558122360891E-02 
371	 5.70661910113248E-02 
372	 5.63915931570846E-02 
373	 5.92063508155579E-02 
374	 6.03485992471975E-02 
375	 5.85381402763897E-02 
376	 6.07908752381016E-02 
377	 5.91555821824646E-02 
378	 0.058160134821239 
379	 6.28312016210226E-02 
380	 6.48757922205863E-02 
381	 6.27650145780796E-02 
382	 6.05469692741242E-02 
383	 6.51291199729196E-02 
384	 6.62281150310136E-02 
385	 6.41797185660402E-02 
386	 0.062100729036726 
387	 6.54784451302417E-02 
388	 6.68653545087152E-02 
389	 6.67985326660309E-02 
390	 6.77915498843108E-02 
391	 6.84850080261664E-02 
392	 6.95970360348322E-02 
393	 7.10337562995967E-02 
394	 0.071928717457011 
395	 0.070398587379659 
396	 6.99716709378848E-02 
397	 7.25363489853274E-02 
398	 0.074933000241646 
399	 7.66218960470079E-02 
400	 7.74347502517655E-02 
401	 7.76284294760608E-02 
402	 7.81812621297099E-02 
403	 7.78020190166179E-02 
404	 7.68433087508339E-02 
405	 7.73443598364026E-02 
406	 7.90182373046946E-02 
407	 8.07719883713142E-02 
408	 0.081503531761101 
409	 0.080282341995924 
410	 0.079597841281019 
411	 8.04141492233359E-02 
412	 8.24045399140884E-02 
413	 8.22685984731844E-02 
414	 8.17386267893096E-02 
415	 8.20542154586647E-02 
416	 8.32287055645281E-02 
417	 8.41141036296855E-02 
418	 8.46044330402651E-02 
419	 8.49190766814615E-02 
420	 8.53965025877839E-02 
421	 8.51446426755601E-02 
422	 8.48449602842245E-02 
423	 8.59388730272344E-02 
424	 8.64810191178227E-02 
425	 8.67378326398768E-02 
426	 8.69365778621398E-02 
427	 8.65727959646067E-02 
428	 8.70884464580241E-02 
429	 8.77956097514598E-02 
430	 8.77122997648438E-02 
431	 8.81172838165794E-02 
432	 8.86079403724593E-02 
433	 8.89884004076485E-02 
434	 8.93370348051759E-02 
435	 8.93690058258976E-02 
436	 8.93903766449926E-02 
437	 8.96721389869765E-02 
438	 9.01488561348108E-02 
439	 9.03076080770531E-02 
440	 0.090401533799412 
441	 9.09452378899349E-02 
442	 9.11164131273712E-02 
443	 9.13865599011571E-02 
444	 9.18547544284544E-02 
445	 9.18615848846715E-02 
446	 0.09215143455989 
447	 9.24257053158788E-02 
448	 9.23160451397692E-02 
449	 9.24352204404304E-02 
450	 9.28710377952612E-02 
451	 9.34306716964592E-02 
452	 9.37138024988617E-02 
453	 9.36639341485516E-02 
454	 9.37237379116018E-02 
455	 9.41184797907129E-02 
456	 9.43432994414524E-02 
457	 9.45305623920533E-02 
458	 9.47244834844823E-02 
459	 9.49473173469352E-02 
460	 9.52982473224227E-02 
461	 0.095519894170608 
462	 9.55990102719304E-02 
463	 9.58944990821699E-02 
464	 9.63974794368563E-02 
465	 9.67610288627026E-02 
466	 9.67329639690871E-02 
467	 9.68127940175571E-02 
468	 9.70696733351584E-02 
469	 9.74079082482407E-02 
470	 0.097625033890408 
471	 9.79676713861154E-02 
472	 9.82066461307706E-02 
473	 9.82487923402384E-02 
474	 9.84940125855749E-02 
475	 9.87708230632399E-02 
476	 9.89615366588935E-02 
477	 9.90372776374492E-02 
478	 9.94846557572045E-02 
479	 9.98005528623413E-02 
480	 9.98797984019123E-02 
481	 0.100282886962272 
482	 0.100506177519117 
483	 0.100700258732846 
484	 0.101033584115295 
485	 0.100969200697333 
486	 0.101090152070085 
487	 0.101422225628366 
488	 0.10153614827308 
489	 0.101844134780242 
490	 0.102104175562076 
491	 0.102184265265954 
492	 0.102514534111167 
493	 0.102678986269124 
494	 0.102722587778475 
495	 0.102880058289699 
496	 0.103035121665735 
497	 0.103197562566109 
498	 0.103417068418458 
499	 0.10379989751041 
500	 0.103944937811285 
501	 0.104014203282326 
502	 0.104233673286871 
503	 0.104288854309051 
504	 0.104442694869553 
505	 0.104683494541634 
506	 0.104753188610988 
507	 0.104993195349083 
508	 0.105271319466049 
509	 0.105414325599983 
510	 0.105343070116813 
511	 0.105534782180052 
512	 0.105899865055472 
513	 0.106061325151327 
514	 0.106081172281709 
515	 0.1062267991741 
516	 0.106546709717211 
517	 0.106698022667599 
518	 0.10663861944617 
519	 0.106656390954376 
520	 0.107005821756709 
521	 0.107141138755272 
522	 0.107201351077541 
523	 0.107276744027202 
524	 0.107364503021059 
525	 0.107490328177792 
526	 0.107604481443167 
527	 0.107692422422769 
528	 0.107912106200841 
529	 0.10811833812015 
530	 0.108259225637104 
531	 0.108352065789761 
532	 0.108419288641288 
533	 0.108552365626248 
534	 0.108752556635377 
535	 0.108812665841393 
536	 0.108905338740152 
537	 0.109031419286945 
538	 0.109132009069287 
539	 0.10922338452977 
540	 0.109303939489076 
541	 0.109394933216621 
542	 0.10954927162306 
543	 0.109702043656025 
544	 0.109825616794865 
545	 0.109922768225082 
546	 0.110074883570305 
547	 0.110184492039648 
548	 0.110250906818088 
549	 0.110351040161835 
550	 0.11031024323798 
551	 0.110318692890504 
552	 0.110503025719027 
553	 0.110664884755456 
554	 0.110800319829774 
555	 0.110941103404466 
556	 0.111126412584796 
557	 0.111219375915174 
558	 0.111373267711874 
559	 0.111623528684146 
560	 0.111747975307431 
561	 0.11180567836918 
562	 0.111864074901788 
563	 0.111973906045609 
564	 0.112043569633292 
565	 0.112094542086867 
566	 0.112105085127664 
567	 0.112002184465142 
568	 0.112065190461946 
569	 0.112235070214161 
570	 0.1124062855975 
571	 0.11264000551387 
572	 0.112788887967082 
573	 0.112864234225685 
574	 0.112987719673962 
575	 0.11311956320805 
576	 0.113245587585417 
577	 0.113337403729975 
578	 0.113330178013874 
579	 0.113238895979956 
580	 0.113118459033734 
581	 0.113038979171949 
582	 0.113008395096934 
583	 0.113037229487305 
584	 0.113118792191257 
585	 0.11322331058037 
586	 0.113416819291269 
587	 0.113608347993328 
588	 0.113702687059038 
589	 0.113789380373277 
590	 0.11393935207418 
591	 0.114115573893809 
592	 0.114193509930025 
593	 0.114334736315495 
594	 0.11452516088817 
595	 0.114682198455157 
596	 0.114633208905391 
597	 0.114538965374507 
598	 0.114458957401986 
599	 0.114397492816273 
600	 0.114385483686688 
601	 0.114401462469853 
602	 0.114422773799804 
603	 0.114431888143544 
604	 0.114502525790039 
605	 0.114599845032019 
606	 0.114660696170641 
607	 0.11470046169277 
608	 0.114776082253917 
609	 0.114906752438016 
610	 0.115064597650498 
611	 0.115135628357342 
612	 0.115171856211105 
613	 0.115236706855219 
614	 0.115279305170054 
615	 0.115293142552502 
616	 0.115310868647767 
617	 0.115383332846792 
618	 0.115430287507451 
619	 0.115443608283158 
620	 0.115451415599141 
621	 0.115537550187244 
622	 0.115640916214978 
623	 0.115692958137669 
624	 0.115658416102859 
625	 0.115746798337577 
626	 0.115841225848775 
627	 0.115889264242336 
628	 0.115958857934265 
629	 0.116001926600481 
630	 0.116063055208053 
631	 0.116169944278521 
632	 0.116186361697072 
633	 0.116203383259886 
634	 0.116261457884466 
635	 0.116351602500562 
636	 0.116432197678931 
637	 0.116507594643637 
638	 0.116568874879963 
639	 0.116532741750974 
640	 0.116622377304391 
641	 0.116765979404116 
642	 0.116786916552697 
643	 0.116886545983726 
644	 0.116970325519676 
645	 0.116992983370258 
646	 0.117018709374557 
647	 0.117057272195786 
648	 0.117120858773982 
649	 0.117206382883265 
650	 0.117255713081621 
651	 0.117334125916892 
652	 0.117430259123365 
653	 0.117469277326034 
654	 0.117524459569482 
655	 0.117572033381641 
656	 0.117606125286237 
657	 0.11771401281689 
658	 0.117814371814552 
659	 0.1178760396048 
660	 0.117902537486034 
661	 0.117962949290185 
662	 0.118023239415895 
663	 0.118063223753456 
664	 0.118096217121275 
665	 0.118180815349939 
666	 0.118277591123476 
667	 0.118336683346929 
668	 0.118396917782588 
669	 0.118449599141629 
670	 0.118500640467411 
671	 0.118566759360457 
672	 0.118624087036921 
673	 0.118700259830778 
674	 0.118805956880313 
675	 0.118895663499285 
676	 0.118958853393641 
677	 0.119007147768083 
678	 0.119059266292796 
679	 0.119089216871485 
680	 0.119127575898682 
681	 0.119190480235121 
682	 0.119269906077417 
683	 0.119307209620915 
684	 0.119356925930511 
685	 0.119455451365604 
686	 0.119456302860353 
687	 0.119476023766289 
688	 0.119542608513001 
689	 0.119612586828083 
690	 0.119621847197518 
691	 0.119647387684692 
692	 0.119727375686765 
693	 0.119781788258797 
694	 0.119830560295762 
695	 0.119868973616941 
696	 0.119893239761326 
697	 0.119944118987722 
698	 0.119968408355854 
699	 0.119962549028337 
700	 0.119980380647377 
701	 0.120056484257212 
702	 0.120124367273986 
703	 0.120131708354781 
704	 0.120124658490541 
705	 0.120142986206482 
706	 0.120181371802858 
707	 0.120212338325147 
708	 0.120261598442153 
709	 0.120298118727871 
710	 0.120312783637139 
711	 0.120336279088396 
712	 0.120337225903145 
713	 0.120326726982037 
714	 0.12033067440292 
715	 0.120389064906241 
716	 0.12040960436825 
717	 0.120395284821564 
718	 0.120417128889776 
719	 0.120444414828557 
720	 0.120484682988574 
721	 0.120519390179982 
722	 0.12046282802705 
723	 0.12046734884152 
724	 0.120505568265039 
725	 0.120502069795013 
726	 0.12048204799612 
727	 0.120486881972275 
728	 0.120516955881188 
729	 0.120534507147835 
730	 0.120550133111673 
731	 0.120535423022011 
732	 0.120497910583603 
733	 0.120553535314155 
734	 0.120550843816933 
735	 0.120508233451608 
736	 0.120503495815045 
737	 0.120503757795734 
738	 0.12050003432451 
739	 0.120477554784611 
740	 0.120417685963743 
741	 0.12043498640973 
742	 0.120470039167953 
743	 0.120455611076275 
744	 0.12040717060038 
745	 0.120371966447925 
746	 0.12037233621947 
747	 0.120404313895704 
748	 0.120394210915755 
749	 0.12037875496469 
750	 0.120375827625666 
751	 0.120367801056952 
752	 0.120336563642717 
753	 0.120295780662583 
754	 0.120262904751613 
755	 0.120240779605475 
756	 0.120228677320877 
757	 0.120220320618582 
758	 0.120211785295704 
759	 0.120247124377487 
760	 0.12022751900457 
761	 0.120158096794738 
762	 0.120185370468363 
763	 0.120197654186219 
764	 0.120177904265644 
765	 0.120137828011394 
766	 0.120100133882228 
767	 0.120096937556776 
768	 0.120120772496954 
769	 0.120135986746285 
770	 0.120075730849901 
771	 0.120054087108792 
772	 0.120086130230278 
773	 0.120052711859325 
774	 0.120038825899508 
775	 0.120027067259885 
776	 0.119995020687045 
777	 0.119965037481705 
778	 0.119954637937778 
779	 0.11996042328878 
780	 0.119967346119666 
781	 0.119965584104856 
782	 0.119959759086765 
783	 0.11993998368855 
784	 0.119883323590306 
785	 0.119851426925017 
786	 0.119848253435249 
787	 0.11985186185547 
788	 0.119804075411401 
789	 0.119799798724573 
790	 0.119811804003399 
791	 0.119784172396965 
792	 0.119779737535526 
793	 0.119752334142077 
794	 0.119704681434409 
795	 0.119684637660283 
796	 0.11969753909891 
797	 0.119689023876621 
798	 0.119644445239424 
799	 0.119638374314382 
800	 0.119638640979161 
801	 0.119608327699602 
802	 0.119537731266241 
803	 0.119525504701141 
804	 0.119517672124469 
805	 0.119514883555669 
806	 0.119540491630301 
807	 0.119487065549643 
808	 0.119450549195163 
809	 0.119460999890484 
810	 0.119435539907122 
811	 0.11944674449501 
812	 0.119447436152567 
813	 0.119402312876886 
814	 0.119380989609124 
815	 0.119340134620237 
816	 0.119286192639253 
817	 0.119250881171268 
818	 0.119285107389564 
819	 0.119299090296061 
820	 0.119264749869776 
821	 0.119217250055215 
822	 0.119179059465456 
823	 0.119165230953054 
824	 0.119173856500608 
825	 0.119180941578065 
826	 0.119168799335208 
827	 0.11913916876549 
828	 0.119101766816327 
829	 0.119064159646767 
830	 0.119052670691727 
831	 0.119058666372992 
832	 0.119055604638989 
833	 0.119034866699982 
834	 0.118990306050399 
835	 0.118946291055735 
836	 0.118949781970029 
837	 0.11897089112422 
838	 0.118992620603723 
839	 0.118980309527763 
840	 0.118864868580534 
841	 0.118850922169683 
842	 0.118869783198038 
843	 0.11883151758951 
844	 0.118840633253996 
845	 0.118854004621528 
846	 0.118856025052843 
847	 0.118844421149472 
848	 0.118815608947544 
849	 0.118786721171709 
850	 0.11877325256297 
851	 0.118783155143699 
852	 0.118783498681184 
853	 0.118768193970978 
854	 0.118743746966856 
855	 0.118727642896386 
856	 0.118712135532569 
857	 0.118718716046095 
858	 0.118747204601967 
859	 0.118727483877941 
860	 0.118700700882914 
861	 0.11867523197017 
862	 0.118656249631611 
863	 0.118687567498123 
864	 0.118683952911291 
865	 0.118638151149019 
866	 0.118598813371215 
867	 0.118604097363596 
868	 0.118637875295473 
869	 0.118660625579801 
870	 0.118623220020625 
871	 0.118566613218802 
872	 0.118547361210567 
873	 0.118564558027359 
874	 0.118525162557271 
875	 0.118539266730185 
876	 0.118557653043074 
877	 0.118533061042985 
878	 0.118529205627438 
879	 0.118522269168579 
880	 0.118523678294141 
881	 0.118541681822708 
882	 0.118523890784843 
883	 0.118530890385991 
884	 0.118536830509864 
885	 0.118489629200197 
886	 0.118499554268774 
887	 0.118505147510943 
888	 0.118499980851668 
889	 0.118528179953442 
890	 0.118549245096279 
891	 0.118525138621755 
892	 0.118480390224315 
893	 0.118506456453349 
894	 0.118498159838765 
895	 0.118473041189137 
896	 0.118470673785822 
897	 0.118524297002242 
898	 0.118561196006316 
899	 0.118549941968957 
900	 0.118504888650217 
901	 0.118519251394229 
902	 0.118580676001037 
903	 0.11857565510413 
904	 0.118443268171957 
905	 0.118440833183435 
906	 0.118481879684739 
907	 0.118508532042039 
908	 0.118499137111123 
909	 0.118531610656607 
910	 0.11855575923351 
911	 0.118559402815668 
912	 0.1185583940274 
913	 0.118541007687985 
914	 0.118527838784346 
915	 0.1185235409364 
916	 0.118513578237159 
917	 0.118462127934874 
918	 0.118454683368451 
919	 0.118488618475472 
920	 0.118456319091762 
921	 0.118482458570965 
922	 0.118556204809315 
923	 0.118630467264952 
924	 0.118645121468567 
925	 0.118544132266133 
926	 0.118545165431492 
927	 0.118696578359075 
928	 0.118643369277489 
929	 0.118611010067479 
930	 0.118606423816723 
931	 0.118590516627967 
932	 0.118537931906033 
933	 0.118643960730353 
934	 0.118729178724432 
935	 0.118642805409334 
936	 0.118653249559618 
937	 0.118591644622696 
938	 0.11854463742358 
939	 0.118612640048605 
940	 0.118651901578735 
941	 0.118699210985693 
942	 0.118733858150894 
943	 0.118724513239665 
944	 0.118679532032197 
945	 0.118638405844802 
946	 0.118649132404416 
947	 0.118722579293423 
948	 0.118721682818109 
949	 0.118683702227757 
950	 0.118636067780717 
951	 0.11860148088851 
952	 0.118606878089085 
953	 0.118676675243179 
954	 0.118761914566217 
955	 0.118794144354686 
956	 0.118838440118684 
957	 0.118840581825671 
958	 0.118780734547637 
959	 0.118701223502158 
960	 0.118828989252 
961	 0.118852706552116 
962	 0.118786553530423 
963	 0.118831415985678 
964	 0.11879280633514 
965	 0.118793713166591 
966	 0.118843101530197 
967	 0.118861328554499 
968	 0.118838976031222 
969	 0.118696971730789 
970	 0.118575675086548 
971	 0.118690265097921 
972	 0.118788272209324 
973	 0.118836067072464 
974	 0.118849953409526 
975	 0.118867991050867 
976	 0.118882174584803 
977	 0.118880887061688 
978	 0.118842869483726 
979	 0.11877502804441 
980	 0.118867573676947 
981	 0.118862051692503 
982	 0.118792743180293 
983	 0.118849374677858 
984	 0.118907287072171 
985	 0.1189157751461 
986	 0.11888278300298 
987	 0.118856723476652 
988	 0.118897325162956 
989	 0.118892332218406 
990	 0.118829256023838 
991	 0.118770515358804 
992	 0.118831369173163 
993	 0.118699140372378 
994	 0.118700597336994 
995	 0.119151545833749 
996	 0.11912972798006 
997	 0.119023486210855 
998	 0.118962162906331 
999	 0.118953330856837 
1000	 0.118987960553313 
1001	 0.117660730469741 
1002	 0.117687211158829 
1003	 0.117781366884555 
1004	 0.117802514139963 
1005	 0.117761346256387 
1006	 0.117742701938277 
1007	 0.117717836021025 
1008	 0.11762890855334 
1009	 0.117605038960007 
1010	 0.11765770219063 
1011	 0.117647399917505 
1012	 0.117618488766283 
1013	 0.117648946311847 
1014	 0.117631632455354 
1015	 0.117564132464382 
1016	 0.117552592726509 
1017	 0.117555117816705 
1018	 0.117555302498915 
1019	 0.117537216382585 
1020	 0.117581730006668 
1021	 0.117636533844425 
1022	 0.117642804537771 
1023	 0.117607339811934 
1024	 0.117565322246362 
1025	 0.11761889942936 
1026	 0.1177016011566 
1027	 0.117690454025322 
1028	 0.117706501462713 
1029	 0.11771180796914 
1030	 0.11762293492921 
1031	 0.117580349530584 
1032	 0.117576279407908 
1033	 0.117604181881442 
1034	 0.117580501276495 
1035	 0.11756927830304 
1036	 0.117557813727321 
1037	 0.117498043403626 
1038	 0.117472043570713 
1039	 0.11751812403326 
1040	 0.117572854104513 
1041	 0.117604114616397 
1042	 0.117607883804927 
1043	 0.117586207635502 
1044	 0.117587904961173 
1045	 0.117589644767593 
1046	 0.117630635888977 
1047	 0.117664525550124 
1048	 0.117675259733885 
1049	 0.117673517320703 
1050	 0.117693315266666 
1051	 0.117709579977453 
1052	 0.117727388356313 
1053	 0.117763086881679 
1054	 0.11778363074038 
1055	 0.117794572418983 
1056	 0.117815133266206 
1057	 0.117841448006052 
1058	 0.117866258448678 
1059	 0.117883840092171 
1060	 0.117901350551925 
1061	 0.117938993526857 
1062	 0.117956992632556 
1063	 0.118006789815431 
1064	 0.118079433699944 
1065	 0.118097524074353 
1066	 0.118088040451024 
1067	 0.118060733142941 
1068	 0.11802184238395 
1069	 0.118005917898036 
1070	 0.118009045419457 
1071	 0.118065630989016 
1072	 0.118059394105026 
1073	 0.118026053526931 
1074	 0.118019497294439 
1075	 0.117998069849971 
1076	 0.117975983605986 
1077	 0.117992593696813 
1078	 0.117967756671238 
1079	 0.11790430137565 
1080	 0.117869785778777 
1081	 0.117890678194423 
1082	 0.117924343317634 
1083	 0.11793028910766 
1084	 0.117968461489745 
1085	 0.117958456911161 
1086	 0.117879612021077 
1087	 0.117846699467316 
1088	 0.117818442498544 
1089	 0.117805652217107 
1090	 0.117819481508388 
1091	 0.117832069586045 
1092	 0.117851901573197 
1093	 0.117902332006221 
1094	 0.11792123793825 
1095	 0.11791815698094 
1096	 0.117910807241458 
1097	 0.117860721603151 
1098	 0.117835183255216 
1099	 0.117788578709656 
1100	 0.117793125941847 
1101	 0.117843456376608 
1102	 0.117864433400033 
1103	 0.11788941327741 
1104	 0.117923620323081 
1105	 0.117947257626968 
1106	 0.117933213431391 
1107	 0.117927673541471 
1108	 0.117935642750892 
1109	 0.117941516284303 
1110	 0.117954303656321 
1111	 0.117990148409807 
1112	 0.118081719447309 
1113	 0.118111134646352 
1114	 0.118112947289461 
1115	 0.118134740798716 
1116	 0.11812085632369 
1117	 0.118138784068269 
1118	 0.118184678675141 
1119	 0.11824212087227 
1120	 0.11826663516321 
1121	 0.118304675000949 
1122	 0.118321370741291 
1123	 0.118362499511045 
1124	 0.118416848858901 
1125	 0.11850428545239 
1126	 0.118540887106106 
1127	 0.118563620240472 
1128	 0.118592497825846 
1129	 0.118597462902718 
1130	 0.118621216663123 
1131	 0.118665811940467 
1132	 0.118700139835788 
1133	 0.118713988388752 
1134	 0.118746266003124 
1135	 0.118784300698698 
1136	 0.11884434643796 
1137	 0.118888396743021 
1138	 0.118927881153312 
1139	 0.118964965617337 
1140	 0.118990265663504 
1141	 0.119014116951086 
1142	 0.119040894685181 
1143	 0.119069568061606 
1144	 0.119089996308539 
1145	 0.119116714312898 
1146	 0.119152887813313 
1147	 0.119174638003621 
1148	 0.11918972333365 
1149	 0.119207704451158 
1150	 0.119216106837321 
1151	 0.11923675086253 
1152	 0.119251803277822 
1153	 0.119271897138992 
1154	 0.11930222149288 
1155	 0.119340798582112 
1156	 0.119372568404184 
1157	 0.119415138702399 
1158	 0.11944568029072 
1159	 0.119470721718537 
1160	 0.119487910726618 
1161	 0.119488219027435 
1162	 0.119507956605827 
1163	 0.119531665968985 
1164	 0.119551861439549 
1165	 0.119578323747409 
1166	 0.119613884272631 
1167	 0.119640325360622 
1168	 0.119665600599641 
1169	 0.119692078006728 
1170	 0.119729313801171 
1171	 0.119752125091978 
1172	 0.119762998966069 
1173	 0.119781807458758 
1174	 0.11979806742551 
1175	 0.119819086032345 
1176	 0.119836842858924 
1177	 0.119867841785892 
1178	 0.119914081580791 
1179	 0.1199506958107 
1180	 0.120003109136106 
1181	 0.120035048985258 
1182	 0.120047691744831 
1183	 0.120057235813145 
1184	 0.120077935060851 
1185	 0.120090278146863 
1186	 0.120120716432302 
1187	 0.120168647609736 
1188	 0.120208041160184 
1189	 0.120258982614843 
1190	 0.120290544522691 
1191	 0.120305655336541 
1192	 0.120334907199264 
1193	 0.120360268261146 
1194	 0.120387190218675 
1195	 0.120431065117125 
1196	 0.120461978633554 
1197	 0.120474949483906 
1198	 0.120499081291443 
1199	 0.120525704245855 
1200	 0.120551738914264 
1201	 0.120582805656892 
1202	 0.120621755477956 
1203	 0.120656089167441 
1204	 0.120694491998015 
1205	 0.120723874652651 
1206	 0.120744793792644 
1207	 0.12077498868117 
1208	 0.120803739669496 
1209	 0.120833651699252 
1210	 0.120874885792367 
1211	 0.12090684207955 
1212	 0.120926269964269 
1213	 0.120955286122854 
1214	 0.120990011071374 
1215	 0.121020383676058 
1216	 0.121050954495568 
1217	 0.121084084156924 
1218	 0.121118675668937 
1219	 0.121152504269758 
1220	 0.121183234057163 
1221	 0.121220208706525 
1222	 0.121247171748366 
1223	 0.121253086665723 
1224	 0.121285391510856 
1225	 0.121334620628699 
1226	 0.121370728191776 
1227	 0.12142274023961 
1228	 0.121456116458503 
1229	 0.121464021046816 
1230	 0.121483256630462 
1231	 0.121498233168792 
1232	 0.121519668424701 
1233	 0.121545317067781 
1234	 0.121571908674588 
1235	 0.121613289001878 
1236	 0.121672839983137 
1237	 0.121712009134458 
1238	 0.121756916179665 
1239	 0.121790382292541 
1240	 0.121806197252559 
1241	 0.121826428655038 
1242	 0.12183615371439 
1243	 0.121865992253213 
1244	 0.121907150882306 
1245	 0.12193973925043 
1246	 0.121989470680871 
1247	 0.122026442716729 
1248	 0.122050259579606 
1249	 0.122067498797344 
1250	 0.122092941079768 
1251	 0.122115134609828 
1252	 0.122143302350706 
1253	 0.122169750197771 
1254	 0.122206751016797 
1255	 0.122257572576612 
1256	 0.122295832663946 
1257	 0.122341674997926 
1258	 0.122368406681497 
1259	 0.122375052673293 
1260	 0.122392339410733 
1261	 0.122401083363221 
1262	 0.122419277231828 
1263	 0.122450976218445 
1264	 0.122473011067104 
1265	 0.122485584485932 
1266	 0.122509173861988 
1267	 0.122540993598599 
1268	 0.122565727245182 
1269	 0.122587450277162 
1270	 0.12261307747749 
1271	 0.122637644066686 
1272	 0.122648338265557 
1273	 0.122678120238757 
1274	 0.122726237274726 
1275	 0.122758613051969 
1276	 0.122784803199762 
1277	 0.122822550904662 
1278	 0.122851506866623 
1279	 0.122900171678183 
1280	 0.122972853558713 
1281	 0.123033177061756 
1282	 0.123096723590704 
1283	 0.12316232281444 
1284	 0.123224020416056 
1285	 0.123291544956733 
1286	 0.123360268998641 
1287	 0.123415848700967 
1288	 0.123481526237707 
1289	 0.123547890179928 
1290	 0.123606115052071 
1291	 0.123673707955511 
1292	 0.12372409851704 
1293	 0.123760165810017 
1294	 0.123789189867412 
1295	 0.123801883657009 
1296	 0.1238256950449 
1297	 0.123837882348992 
1298	 0.12386964530664 
1299	 0.123932915642663 
1300	 0.123965659743732 
1301	 0.123993796894206 
1302	 0.124012621163813 
1303	 0.124008644970984 
1304	 0.124008256698749 
1305	 0.124015443419447 
1306	 0.124000327810367 
1307	 0.123999167426714 
1308	 0.124010335775911 
1309	 0.12401693345927 
1310	 0.124035445780881 
1311	 0.124042073758277 
1312	 0.124034717897366 
1313	 0.124041085585865 
1314	 0.124051355670768 
1315	 0.124059864906459 
1316	 0.124079986126798 
1317	 0.124088806272385 
1318	 0.124085720656103 
1319	 0.124091842267646 
1320	 0.124102412264638 
1321	 0.124103668378891 
1322	 0.124104504340419 
1323	 0.124100462197116 
1324	 0.124092619793043 
1325	 0.124109583162198 
1326	 0.124134167186342 
1327	 0.124165483144899 
1328	 0.124195535811374 
1329	 0.124213196725265 
1330	 0.124236150414473 
1331	 0.124251544959336 
1332	 0.124285125090661 
1333	 0.124331114515178 
1334	 0.124368990407368 
1335	 0.124415887520657 
1336	 0.124452405175387 
1337	 0.124472718382718 
1338	 0.124509557821854 
1339	 0.124549993764212 
1340	 0.124596037344789 
1341	 0.124656705820601 
1342	 0.124707412195248 
1343	 0.124748704142157 
1344	 0.124805249139134 
1345	 0.124868159377007 
1346	 0.12492433112145 
1347	 0.12497988027462 
1348	 0.125031040819378 
1349	 0.125078342726742 
1350	 0.125134567444997 
1351	 0.125190441568181 
1352	 0.125258427057108 
1353	 0.125312717843996 
1354	 0.125354484125645 
1355	 0.125410996641343 
1356	 0.125472300681088 
1357	 0.125530110660437 
1358	 0.125596172956251 
1359	 0.125655652471427 
1360	 0.125709296565701 
1361	 0.125766011979527 
1362	 0.125827587093571 
1363	 0.125876570474837 
1364	 0.125911497571002 
1365	 0.125956020517919 
1366	 0.125999342396018 
1367	 0.12604980723738 
1368	 0.126089205237697 
1369	 0.126125176140893 
1370	 0.126155941180138 
1371	 0.126174631405829 
1372	 0.126207087672504 
1373	 0.126236367297873 
1374	 0.126252252378416 
1375	 0.126254664540182 
1376	 0.126265847723219 
1377	 0.126266714619882 
1378	 0.126281298846232 
1379	 0.126307175242973 
1380	 0.126328761784328 
1381	 0.126364491662405 
1382	 0.126376862178879 
1383	 0.126369350184647 
1384	 0.126374566975001 
1385	 0.126379196342247 
1386	 0.126374206918284 
1387	 0.126369157242929 
1388	 0.12636902561804 
1389	 0.126366593771802 
1390	 0.126352082328996 
1391	 0.126346997272053 
1392	 0.126330308674394 
1393	 0.126296107790998 
1394	 0.126256238071774 
1395	 0.126220751144902 
1396	 0.126188122310564 
1397	 0.12613718087298 
1398	 0.126076168675234 
1399	 0.126009069209954 
1400	 0.125926014428041 
1401	 0.125855122776412 
1402	 0.125779667396503 
1403	 0.125710876589575 
1404	 0.125648147587405 
1405	 0.125584707618316 
1406	 0.125524874067408 
1407	 0.125467219258329 
1408	 0.125406532258209 
1409	 0.125352946833588 
1410	 0.125298899272629 
1411	 0.125255319301315 
1412	 0.125216098056162 
1413	 0.125193033298241 
1414	 0.125181640784149 
1415	 0.125180894093332 
1416	 0.125179243693063 
1417	 0.125178631099295 
1418	 0.125173829651149 
1419	 0.12516002888218 
1420	 0.125179344990387 
1421	 0.125196106803491 
1422	 0.125202381271202 
1423	 0.125235750495466 
1424	 0.125256307478006 
1425	 0.125267253318034 
1426	 0.125292596969583 
1427	 0.1253268912206 
1428	 0.125348871274094 
1429	 0.125371368793043 
1430	 0.12539024367958 
1431	 0.125404909851981 
1432	 0.125418164649089 
1433	 0.125427709165949 
1434	 0.125441291706072 
1435	 0.125447094120776 
1436	 0.125466895337874 
1437	 0.125493031825964 
1438	 0.125522327939154 
1439	 0.125559283814214 
1440	 0.125601378141934 
1441	 0.12563843022045 
1442	 0.125685393624197 
1443	 0.12572778504864 
1444	 0.125760967603651 
1445	 0.12578779766462 
1446	 0.1258181387769 
1447	 0.125852533289969 
1448	 0.125883632210818 
1449	 0.125918232699821 
1450	 0.125958914433354 
1451	 0.1259930905074 
1452	 0.126021250050958 
1453	 0.126055692640244 
1454	 0.126088908214329 
1455	 0.126127140011628 
1456	 0.126175842106666 
1457	 0.126209594132205 
1458	 0.126239230688627 
1459	 0.126269954480492 
1460	 0.126290355916757 
1461	 0.126316711863772 
1462	 0.126350227197553 
1463	 0.126378418252931 
1464	 0.126402451874257 
1465	 0.126429586493625 
1466	 0.126452211454281 
1467	 0.126482459064678 
1468	 0.126525392877543 
1469	 0.126556858027769 
1470	 0.126587182864364 
1471	 0.126618411264947 
1472	 0.126633515399533 
1473	 0.12663679171526 
1474	 0.126646175851789 
1475	 0.126663140365642 
1476	 0.126704453863527 
1477	 0.126749985480652 
1478	 0.12677941728661 
1479	 0.12681530384138 
1480	 0.126840721353341 
1481	 0.126853064348921 
1482	 0.126872771364525 
1483	 0.126893512800417 
1484	 0.126926001847199 
1485	 0.12696464128845 
1486	 0.127000246017272 
1487	 0.127046743394929 
1488	 0.127084630435492 
1489	 0.127114426716034 
1490	 0.127141951270857 
1491	 0.127164624584753 
1492	 0.127205807176841 
1493	 0.127251402572427 
1494	 0.12729124546313 
1495	 0.127353481293456 
1496	 0.12738785710309 
1497	 0.127393532015528 
1498	 0.127416250659587 
1499	 0.127436093444055 
1500	 0.127459032979742 
1501	 0.12748962364437 
1502	 0.12751757213955 
1503	 0.127541527032066 
1504	 0.127573205157089 
1505	 0.127602460273247 
1506	 0.127625151064101 
1507	 0.127650220412598 
1508	 0.127670544020341 
1509	 0.127698606922764 
1510	 0.127722582783953 
1511	 0.127728009785484 
1512	 0.127734900356406 
1513	 0.127733972862924 
1514	 0.127739550479808 
1515	 0.127768186066039 
1516	 0.127802875201229 
1517	 0.127832221790871 
1518	 0.127869901748321 
1519	 0.127893611717424 
1520	 0.127906046054107 
1521	 0.127923266760363 
1522	 0.127941229100849 
1523	 0.127954250175821 
1524	 0.127962135861993 
1525	 0.127978242546586 
1526	 0.127992611077104 
1527	 0.128007417144743 
1528	 0.128033033472587 
1529	 0.128045572932943 
1530	 0.128043996109807 
1531	 0.128055724930569 
1532	 0.128069706946274 
1533	 0.128087604896531 
1534	 0.128120632988434 
1535	 0.128137042378891 
1536	 0.128139947750045 
1537	 0.128151393399683 
1538	 0.128150735471392 
1539	 0.128170554490497 
1540	 0.128220563530842 
1541	 0.128244903808673 
1542	 0.128262574227783 
1543	 0.128284526296626 
1544	 0.128294608631003 
1545	 0.128306928923988 
1546	 0.128330169096208 
1547	 0.128345107620135 
1548	 0.128355122161691 
1549	 0.128351428906088 
1550	 0.128330762001221 
1551	 0.128318685631676 
1552	 0.128322101751812 
1553	 0.128320523357204 
1554	 0.12832850299563 
1555	 0.128351826618739 
1556	 0.128363458252922 
1557	 0.128360838156139 
1558	 0.128369033814645 
1559	 0.128384143093893 
1560	 0.128393287824293 
1561	 0.128394949259613 
1562	 0.128407400222443 
1563	 0.128426362849154 
1564	 0.128439136655695 
1565	 0.128450110224423 
1566	 0.128469065746613 
1567	 0.128492960534405 
1568	 0.128508002535905 
1569	 0.128528023023478 
1570	 0.128536314809023 
1571	 0.128528117855127 
1572	 0.128531258154961 
1573	 0.128535688679425 
1574	 0.128545370710098 
1575	 0.128560956627496 
1576	 0.128572525493783 
1577	 0.128590619859705 
1578	 0.128593759925604 
1579	 0.128579040479173 
1580	 0.128584204991985 
1581	 0.128591998474777 
1582	 0.128600122030281 
1583	 0.128635991020841 
1584	 0.128639633327975 
1585	 0.128606945343833 
1586	 0.128604096216083 
1587	 0.12860453407779 
1588	 0.128603132425114 
1589	 0.128615036215808 
1590	 0.128629120133691 
1591	 0.128639978488911 
1592	 0.128649341984465 
1593	 0.128671693897759 
1594	 0.128685701936687 
1595	 0.128685747078679 
1596	 0.128689545909841 
1597	 0.128695546704258 
1598	 0.128701857638197 
1599	 0.128703901110604 
1600	 0.128712663244372 
1601	 0.12872972394967 
1602	 0.128740893437285 
1603	 0.128763303440485 
1604	 0.128766571975684 
1605	 0.128736207223075 
1606	 0.128735348472628 
1607	 0.12874631793118 
1608	 0.128751922030396 
1609	 0.128758392934373 
1610	 0.128765535572694 
1611	 0.128745108937386 
1612	 0.128735927596311 
1613	 0.128758208277536 
1614	 0.128783018898805 
1615	 0.12879624224393 
1616	 0.128817531470925 
1617	 0.128833622236622 
1618	 0.128830809560222 
1619	 0.128849431852442 
1620	 0.128866278873098 
1621	 0.128874731408328 
1622	 0.128878711975084 
1623	 0.1288911930746 
1624	 0.128904104663476 
1625	 0.128905610763653 
1626	 0.128909273816367 
1627	 0.128910064339711 
1628	 0.128892431626731 
1629	 0.128895261476575 
1630	 0.128912550772669 
1631	 0.128925312434089 
1632	 0.128939360248735 
1633	 0.12895548685607 
1634	 0.128977876251369 
1635	 0.128988261996452 
1636	 0.128997375265545 
1637	 0.129001990206996 
1638	 0.128999590102489 
1639	 0.12899193843114 
1640	 0.12897183246806 
1641	 0.128974129537761 
1642	 0.128983909706324 
1643	 0.128984072229339 
1644	 0.128995233989255 
1645	 0.129000894600062 
1646	 0.128992641474963 
1647	 0.12899131827557 
1648	 0.129003431206497 
1649	 0.129000504072566 
1650	 0.128977894893172 
1651	 0.128978798626492 
1652	 0.128991933950887 
1653	 0.128994691924119 
1654	 0.129003410562882 
1655	 0.129007451892008 
1656	 0.128995368819507 
1657	 0.129004010598906 
1658	 0.129034788042341 
1659	 0.12904061978538 
1660	 0.129041989447562 
1661	 0.129042616308885 
1662	 0.129019629857649 
1663	 0.129024256001597 
1664	 0.129054808705493 
1665	 0.129060494282074 
1666	 0.129064735387856 
1667	 0.129065818240371 
1668	 0.129051084778801 
1669	 0.129043949568828 
1670	 0.129036300968595 
1671	 0.129041227746469 
1672	 0.129051222559309 
1673	 0.129060129087161 
1674	 0.12908124384046 
1675	 0.129097670989754 
1676	 0.129112862964043 
1677	 0.129119122423538 
1678	 0.12912230637054 
1679	 0.129127725963749 
1680	 0.129122817055365 
1681	 0.129125636626735 
1682	 0.129142047787629 
1683	 0.129144763248347 
1684	 0.129136705967708 
1685	 0.129136004329481 
1686	 0.129134124358079 
1687	 0.129133234018935 
1688	 0.129136757335172 
1689	 0.129137610263989 
1690	 0.129125948799346 
1691	 0.12913907962206 
1692	 0.12917654368669 
1693	 0.129187435499505 
1694	 0.129199369077346 
1695	 0.129207580520897 
1696	 0.129197021970696 
1697	 0.129192593668342 
1698	 0.129205278192896 
1699	 0.129191913331812 
1700	 0.129142562416078 
1701	 0.129133172460515 
1702	 0.129134472190936 
1703	 0.129134987168275 
1704	 0.129165563343387 
1705	 0.129168369395284 
1706	 0.129148044037003 
1707	 0.1291436490002 
1708	 0.129132690643009 
1709	 0.129140683371463 
1710	 0.129165253643682 
1711	 0.129179119467511 
1712	 0.129208063321772 
1713	 0.129217057172359 
1714	 0.129203233552161 
1715	 0.129208688928354 
1716	 0.129218517457389 
1717	 0.129221890975228 
1718	 0.129227278676293 
1719	 0.129241255911066 
1720	 0.129262400392482 
1721	 0.129260143009261 
1722	 0.129260885737723 
1723	 0.129247126218503 
1724	 0.129195683228853 
1725	 0.129176083257949 
1726	 0.129180600123571 
1727	 0.129154483671304 
1728	 0.12911381572114 
1729	 0.129096263764345 
1730	 0.129061512297713 
1731	 0.129061733528004 
1732	 0.129113102577396 
1733	 0.129113986831965 
1734	 0.12910313742398 
1735	 0.129090753713455 
1736	 0.129053871537305 
1737	 0.129036275816528 
1738	 0.129033214208006 
1739	 0.129010057639387 
1740	 0.128973365517775 
1741	 0.128959587096713 
1742	 0.128944422207732 
1743	 0.128943102869996 
1744	 0.128966434522255 
1745	 0.128966631317785 
1746	 0.128953404393826 
1747	 0.128969313214451 
1748	 0.128984782331591 
1749	 0.128980501151572 
1750	 0.128977268486195 
1751	 0.128955525273006 
1752	 0.128932183346793 
1753	 0.128935625933054 
1754	 0.12893846894735 
1755	 0.128926631188291 
1756	 0.12891696664125 
1757	 0.1289206323455 
1758	 0.128903861924891 
1759	 0.128886118705646 
1760	 0.128875571377885 
1761	 0.128828377163986 
1762	 0.128823496016654 
1763	 0.128856271411021 
1764	 0.1288670654826 
1765	 0.12889160141892 
1766	 0.128896645451873 
1767	 0.128859927090299 
1768	 0.12881639647126 
1769	 0.128787772511434 
1770	 0.128785987222612 
1771	 0.128806785197567 
1772	 0.128826661937299 
1773	 0.128833198487291 
1774	 0.128822047249193 
1775	 0.128802819520693 
1776	 0.12878488201264 
1777	 0.12876822302509 
1778	 0.128757682801004 
1779	 0.12875416826456 
1780	 0.128772973288793 
1781	 0.128789824608156 
1782	 0.128800022161456 
1783	 0.128820635441654 
1784	 0.128822029774618 
1785	 0.128842067974361 
1786	 0.128833123116701 
1787	 0.128758310989226 
1788	 0.12873951832366 
1789	 0.128741431905497 
1790	 0.128739183689097 
1791	 0.128769939876756 
1792	 0.128797218323341 
1793	 0.128814391781318 
1794	 0.128830260601586 
1795	 0.128851696553374 
1796	 0.128879354295258 
1797	 0.128911181607655 
1798	 0.128923057068116 
1799	 0.128942889867466 
1800	 0.128943264559269 
1801	 0.126273041030914 
1802	 0.126261094781451 
1803	 0.126260629813515 
1804	 0.126245738541594 
1805	 0.126272491870198 
1806	 0.126332067721908 
1807	 0.126363151328595 
1808	 0.126390447794292 
1809	 0.12640371591019 
1810	 0.126419545864171 
1811	 0.126419095572246 
1812	 0.126453258370081 
1813	 0.126477971022611 
1814	 0.126477529821846 
1815	 0.12648584347848 
1816	 0.126514912148663 
1817	 0.126539929202438 
1818	 0.126569084142252 
1819	 0.126598936311107 
1820	 0.126635586090609 
1821	 0.126664832397985 
1822	 0.126689534753596 
1823	 0.126716617717289 
1824	 0.126724617824171 
1825	 0.126711758730314 
1826	 0.126709186017174 
1827	 0.126741458459823 
1828	 0.126761982078602 
1829	 0.12679001443927 
1830	 0.126817027624557 
1831	 0.126848825533739 
1832	 0.126862079828665 
1833	 0.126871122012806 
1834	 0.126910206290183 
1835	 0.12693235429688 
1836	 0.126925157235335 
1837	 0.126914429382075 
1838	 0.126917085478869 
1839	 0.126920496633163 
1840	 0.126919303484849 
1841	 0.126921554512785 
1842	 0.12694195122404 
1843	 0.126936852182517 
1844	 0.126908254453702 
1845	 0.126898372217851 
1846	 0.126905711317841 
1847	 0.126910971222672 
1848	 0.126911458336033 
1849	 0.126923879540651 
1850	 0.126928530043689 
1851	 0.12692191427036 
1852	 0.126905830347352 
1853	 0.126911690315864 
1854	 0.126929529832463 
1855	 0.126945154051162 
1856	 0.12696522283333 
1857	 0.126985869837083 
1858	 0.126974554914836 
1859	 0.126950228564129 
1860	 0.126919584412183 
1861	 0.126878035668695 
1862	 0.126824675157401 
1863	 0.126776202204261 
1864	 0.126724705902693 
1865	 0.126693873977828 
1866	 0.126662660645921 
1867	 0.126652943204786 
1868	 0.126672901391143 
1869	 0.126640793393478 
1870	 0.126602670784429 
1871	 0.126555830172776 
1872	 0.126494139294379 
1873	 0.126385927044707 
1874	 0.126304046602396 
1875	 0.126227211086102 
1876	 0.126130289551825 
1877	 0.126033662885983 
1878	 0.125929897868599 
1879	 0.125810650261022 
1880	 0.125685572258081 
1881	 0.125547971283405 
1882	 0.125409643235373 
1883	 0.125268463357777 
1884	 0.125116357428882 
1885	 0.124950631892332 
1886	 0.12478765132099 
1887	 0.124603660507418 
1888	 0.124390004118763 
1889	 0.124173851125933 
1890	 0.123944263352239 
1891	 0.123698060802819 
1892	 0.123420340862091 
1893	 0.123161129208675 
1894	 0.12290091398537 
1895	 0.12263651075564 
1896	 0.122362591013238 
1897	 0.122081653443256 
1898	 0.12178145364802 
1899	 0.121473798564229 
1900	 0.121183929051501 
1901	 0.120912179152045 
1902	 0.120659095379477 
1903	 0.120456060034414 
1904	 0.120207959496943 
1905	 0.11994077297333 
1906	 0.119700997493115 
1907	 0.119463471380143 
1908	 0.119208986648046 
1909	 0.11898716693334 
1910	 0.118778700199926 
1911	 0.118546219062118 
1912	 0.118319718062472 
1913	 0.118118534447327 
1914	 0.117937473401099 
1915	 0.117758706354129 
1916	 0.117594963482381 
1917	 0.117441613205518 
1918	 0.117286437265877 
1919	 0.117139167924161 
1920	 0.116991115768392 
1921	 0.116855219436675 
1922	 0.116737098428935 
1923	 0.116630737916805 
1924	 0.116527730912154 
1925	 0.116443497371748 
1926	 0.116349248314754 
1927	 0.11624526331314 
1928	 0.11615928848382 
1929	 0.11608404328861 
1930	 0.116030124876693 
1931	 0.116000200915399 
1932	 0.115972815094863 
1933	 0.115959627896044 
1934	 0.115964411001891 
1935	 0.115969111335026 
1936	 0.115994726248081 
1937	 0.116005623846717 
1938	 0.116000460521532 
1939	 0.116015217042448 
1940	 0.116038539862809 
1941	 0.11605979335492 
1942	 0.116080411871775 
1943	 0.116131121398242 
1944	 0.116207780909189 
1945	 0.116282089496224 
1946	 0.116344415733228 
1947	 0.116431994196553 
1948	 0.116484438064517 
1949	 0.116474761017529 
1950	 0.116520098063332 
1951	 0.116581881526517 
1952	 0.116652138080462 
1953	 0.116733335094592 
1954	 0.116828472425359 
1955	 0.116899970703284 
1956	 0.116968380448584 
1957	 0.117045887584847 
1958	 0.117133352062377 
1959	 0.117209890224903 
1960	 0.117289282584206 
1961	 0.117356104203295 
1962	 0.117407083463195 
1963	 0.117469644161509 
1964	 0.117535723730486 
1965	 0.117592632704133 
1966	 0.117661442330635 
1967	 0.117721643130489 
1968	 0.117789531426657 
1969	 0.117855032424198 
1970	 0.117932288639481 
1971	 0.118026530383695 
1972	 0.118104218159448 
1973	 0.118168593699681 
1974	 0.118255102907401 
1975	 0.118344843567008 
1976	 0.118440037310341 
1977	 0.11855922201831 
1978	 0.118648817727961 
1979	 0.118721903153193 
1980	 0.118789805337845 
1981	 0.11886116269567 
1982	 0.118921587568201 
1983	 0.118997902918375 
1984	 0.119087339184094 
1985	 0.11916826405894 
1986	 0.119252803301564 
1987	 0.119331411513767 
1988	 0.119407022916509 
1989	 0.119476263051301 
1990	 0.11954544005008 
1991	 0.119607342197593 
1992	 0.119677364322415 
1993	 0.119751244781952 
1994	 0.119818602272886 
1995	 0.119890878524327 
1996	 0.119956258359509 
1997	 0.120006903376363 
1998	 0.120068366420583 
1999	 0.120115112803892 
2000	 0.120192230498658 
2001	 0.120302252657079 
2002	 0.120397798631865 
2003	 0.120493840126458 
2004	 0.120592593569986 
2005	 0.12066427280861 
2006	 0.12069414109804 
2007	 0.120762623160733 
2008	 0.120831770119704 
2009	 0.120909299675076 
2010	 0.121005879492667 
2011	 0.121094757439059 
2012	 0.121168697684702 
2013	 0.121270859062951 
2014	 0.121391656286718 
2015	 0.121520692443576 
2016	 0.1216385087889 
2017	 0.121752505180478 
2018	 0.121856608840752 
2019	 0.121921854515332 
2020	 0.122029107406592 
2021	 0.122160269440977 
2022	 0.122281641193139 
2023	 0.122418368850052 
2024	 0.122543801982682 
2025	 0.122660183370113 
2026	 0.122776806987954 
2027	 0.12288898095359 
2028	 0.123007143857727 
2029	 0.123122532317834 
2030	 0.123240771780119 
2031	 0.12334411396973 
2032	 0.123441840038751 
2033	 0.123540475159882 
2034	 0.123623185282566 
2035	 0.123719697586108 
2036	 0.123832631062249 
2037	 0.123927628495256 
2038	 0.124020486923319 
2039	 0.124108023784101 
2040	 0.124192917420715 
2041	 0.1242528819302 
2042	 0.124335675833908 
2043	 0.124407381096859 
2044	 0.124490162821058 
2045	 0.124579764139365 
2046	 0.124668153949624 
2047	 0.12476508573674 
2048	 0.124850313600548 
2049	 0.124926274806837 
2050	 0.125010559930323 
2051	 0.125100415103749 
2052	 0.125177548321012 
2053	 0.125251470793471 
2054	 0.125325547752329 
2055	 0.125390674779998 
2056	 0.125450892928272 
2057	 0.125518474793323 
2058	 0.125595268497221 
2059	 0.125662448541541 
2060	 0.125731189780725 
2061	 0.12578787680584 
2062	 0.125826091861767 
2063	 0.125884796287918 
2064	 0.125949306904603 
2065	 0.126007773274078 
2066	 0.126069485591592 
2067	 0.126138707856536 
2068	 0.126210678920665 
2069	 0.126271778185784 
2070	 0.126343662720783 
2071	 0.126433452639519 
2072	 0.126506365947181 
2073	 0.126577559489808 
2074	 0.126633668248345 
2075	 0.126672819738041 
2076	 0.126727075443505 
2077	 0.126769028903209 
2078	 0.126825627648522 
2079	 0.126901186208648 
2080	 0.126972291410138 
2081	 0.12704518503073 
2082	 0.127117896807651 
2083	 0.127193791469846 
2084	 0.12727660535432 
2085	 0.127334816279235 
2086	 0.127380025833611 
2087	 0.127429682212649 
2088	 0.127457561201812 
2089	 0.127509531072901 
2090	 0.127576189319018 
2091	 0.127639943488108 
2092	 0.127710448005835 
2093	 0.127780629058137 
2094	 0.127856618966307 
2095	 0.127924378533548 
2096	 0.127983826539555 
2097	 0.128052140830133 
2098	 0.128117651427983 
2099	 0.128188372974684 
2100	 0.128264798959311 
2101	 0.128357623967885 
2102	 0.128431348533374 
2103	 0.128512079906101 
2104	 0.128562397543436 
2105	 0.128573793783189 
2106	 0.128624360622999 
2107	 0.128666814317315 
2108	 0.128727596755164 
2109	 0.128831685881938 
2110	 0.128911213622493 
2111	 0.128969833008153 
2112	 0.129048190443632 
2113	 0.129141039837658 
2114	 0.129224171327654 
2115	 0.129303717932201 
2116	 0.129393107887511 
2117	 0.129470476685764 
2118	 0.129531451912419 
2119	 0.129600995550693 
2120	 0.129674461924184 
2121	 0.129744910809595 
2122	 0.129821279641963 
2123	 0.129877155870842 
2124	 0.129912290211759 
2125	 0.129968283523574 
2126	 0.13001870740924 
2127	 0.130073491494355 
2128	 0.130158405604702 
2129	 0.130220841158839 
2130	 0.130264066452881 
2131	 0.130308333034639 
2132	 0.1303524824758 
2133	 0.130395616834185 
2134	 0.130426922297193 
2135	 0.130453332343248 
2136	 0.130477641626872 
2137	 0.130496514736672 
2138	 0.130504502071578 
2139	 0.130509868185815 
2140	 0.130507778207505 
2141	 0.130480029607164 
2142	 0.130469459759062 
2143	 0.130491467962813 
2144	 0.130468090805885 
2145	 0.13041996337164 
2146	 0.13037588306301 
2147	 0.130301774214587 
2148	 0.130219536361354 
2149	 0.130170936815189 
2150	 0.130158066169667 
2151	 0.130104812451227 
2152	 0.130038110144741 
2153	 0.129992681990384 
2154	 0.12994091549308 
2155	 0.129890585558443 
2156	 0.129882671069077 
2157	 0.129821495094509 
2158	 0.129708029810718 
2159	 0.129623715128765 
2160	 0.129544158328709 
2161	 0.129446353262565 
2162	 0.129347408547289 
2163	 0.129248534606664 
2164	 0.129130697055863 
2165	 0.129009957395707 
2166	 0.12890012545993 
2167	 0.12879905148072 
2168	 0.128706304298059 
2169	 0.128612208277547 
2170	 0.128532490660516 
2171	 0.128473672210528 
2172	 0.128409741204854 
2173	 0.128365896565945 
2174	 0.128287471674439 
2175	 0.128188163553385 
2176	 0.128099886060599 
2177	 0.12798816543212 
2178	 0.127895131081653 
2179	 0.127826298070758 
2180	 0.127747108990259 
2181	 0.127668971752295 
2182	 0.127582379593983 
2183	 0.127486804794888 
2184	 0.127392836645072 
2185	 0.127306832258647 
2186	 0.127217486964023 
2187	 0.127138298375581 
2188	 0.12707022127342 
2189	 0.12700539949311 
2190	 0.126942633347439 
2191	 0.126885844080119 
2192	 0.126843149165979 
2193	 0.126790170617753 
2194	 0.126743749777537 
2195	 0.126682069441355 
2196	 0.126593599492182 
2197	 0.126533686945419 
2198	 0.126474246257843 
2199	 0.126425820147565 
2200	 0.126404520312664 
2201	 0.126378393299778 
2202	 0.126349436653693 
2203	 0.126332563292015 
2204	 0.126307901900451 
2205	 0.126274283603897 
2206	 0.126272878438784 
2207	 0.126287041303012 
2208	 0.126293919107142 
2209	 0.12633435648846 
2210	 0.126335673846617 
2211	 0.126296001409937 
2212	 0.126288945036881 
2213	 0.126287139442342 
2214	 0.126287791493474 
2215	 0.126305848983186 
2216	 0.126315493215209 
2217	 0.126317033119151 
2218	 0.126322876093612 
2219	 0.12634075411104 
2220	 0.126341799228575 
2221	 0.126327774244389 
2222	 0.12632157309182 
2223	 0.126303254404797 
2224	 0.126319004386662 
2225	 0.126337846241769 
2226	 0.126382358754383 
2227	 0.12640982526437 
2228	 0.126436110061688 
2229	 0.126465100063601 
2230	 0.126496204451085 
2231	 0.126523403610627 
2232	 0.126544590553098 
2233	 0.12658034250142 
2234	 0.126616656728307 
2235	 0.12665851713449 
2236	 0.126732549009928 
2237	 0.126772017479998 
2238	 0.126793487228537 
2239	 0.126816708908639 
2240	 0.126820539118186 
2241	 0.126828562734547 
2242	 0.126823457864744 
2243	 0.126843726014231 
2244	 0.126882026398625 
2245	 0.126915950717731 
2246	 0.126936493148315 
2247	 0.126976189319297 
2248	 0.127006233894639 
2249	 0.127019769528343 
2250	 0.127029846024478 
2251	 0.127049712516125 
2252	 0.127063308657356 
2253	 0.127049498293718 
2254	 0.127064798894331 
2255	 0.127099878279061 
2256	 0.127128406043215 
2257	 0.127169792693779 
2258	 0.127191376291093 
2259	 0.127196505875537 
2260	 0.127217997448316 
2261	 0.127228315866695 
2262	 0.127260958104252 
2263	 0.12732695924025 
2264	 0.127376697510852 
2265	 0.127427315953379 
2266	 0.127470739252637 
2267	 0.127510144337469 
2268	 0.127542309651202 
2269	 0.127563064679967 
2270	 0.127588580791409 
2271	 0.127625185630724 
2272	 0.127665984757448 
2273	 0.127680027823677 
2274	 0.127692910381563 
2275	 0.127704434634993 
2276	 0.127679346071652 
2277	 0.127699530672817 
2278	 0.127757896536949 
2279	 0.127782406420573 
2280	 0.127802091353552 
2281	 0.127830674915405 
2282	 0.127848633818215 
2283	 0.127877943959471 
2284	 0.127923959218964 
2285	 0.127963800561268 
2286	 0.128003609536582 
2287	 0.128034097838303 
2288	 0.128067747200366 
2289	 0.128091913190659 
2290	 0.128088181602259 
2291	 0.128109469141802 
2292	 0.128146228826221 
2293	 0.128180378748861 
2294	 0.128229698143192 
2295	 0.12826988979845 
2296	 0.128324710378046 
2297	 0.128330037910425 
2298	 0.128331864901288 
2299	 0.128349529215808 
2300	 0.128355389401445 
2301	 0.128372709602612 
2302	 0.128377322317479 
2303	 0.128356452579304 
2304	 0.128338977343752 
2305	 0.128287442626911 
2306	 0.128255665895937 
2307	 0.128228711093089 
2308	 0.128217839058551 
2309	 0.128197382069843 
2310	 0.128215492693378 
2311	 0.12828678877001 
2312	 0.128298647882422 
2313	 0.128307802249662 
2314	 0.128313044673369 
2315	 0.12828150421099 
2316	 0.12825933418443 
2317	 0.12825283377698 
2318	 0.128239397540866 
2319	 0.128189777796477 
2320	 0.128174876612482 
2321	 0.128194241028312 
2322	 0.128187475215037 
2323	 0.12818809325928 
2324	 0.128188293994806 
2325	 0.128149469774622 
2326	 0.128159600359618 
2327	 0.128199627414618 
2328	 0.128243192921641 
2329	 0.128317115814192 
2330	 0.128356043381266 
2331	 0.128348941227536 
2332	 0.12836131458691 
2333	 0.128325654159431 
2334	 0.128298153271004 
2335	 0.128313864836021 
2336	 0.12830658481685 
2337	 0.1283517998607 
2338	 0.128373907153925 
2339	 0.128336902869597 
2340	 0.1283451167661 
2341	 0.128317618227591 
2342	 0.128277182233801 
2343	 0.128331343466094 
2344	 0.128346182664937 
2345	 0.128308280850778 
2346	 0.128251008669712 
2347	 0.128191809072872 
2348	 0.128040017810989 
2349	 0.127991460145832 
2350	 0.12799289108024 
2351	 0.127984356765649 
2352	 0.128040069992363 
2353	 0.128026249557915 
2354	 0.127997050919996 
2355	 0.127946927023261 
2356	 0.127844997856847 
2357	 0.127745882196361 
2358	 0.127599782134382 
2359	 0.127542613271032 
2360	 0.127532226770406 
2361	 0.127503459364087 
2362	 0.1275317454088 
2363	 0.127511802300187 
2364	 0.127474359608 
2365	 0.127409197161472 
2366	 0.127306931506892 
2367	 0.127223335100866 
2368	 0.1270871279173 
2369	 0.126992094839075 
2370	 0.126929715601007 
2371	 0.126904766650344 
2372	 0.126849976192913 
2373	 0.126751743519121 
2374	 0.126606305212423 
2375	 0.126482032385763 
2376	 0.12636853437268 
2377	 0.126319370067565 
2378	 0.12634596499978 
2379	 0.126335996356236 
2380	 0.12632607360492 
2381	 0.126307431354687 
2382	 0.126225441185979 
2383	 0.126176320286846 
2384	 0.126106469406871 
2385	 0.126026128133944 
2386	 0.125982804394358 
2387	 0.12592860172797 
2388	 0.125926613079517 
2389	 0.125857742514279 
2390	 0.125704007624252 
2391	 0.125620038366587 
2392	 0.12551235719073 
2393	 0.125397774524183 
2394	 0.125380334746896 
2395	 0.125389111625119 
2396	 0.125430882755898 
2397	 0.125519335476505 
2398	 0.125571115348799 
2399	 0.125518739285605 
2400	 0.125417980342409 
2401	 0.125283558289317 
2402	 0.125116305001365 
2403	 0.12503343734111 
2404	 0.125000387127574 
2405	 0.124958672328121 
2406	 0.124955115772565 
2407	 0.124947425790424 
2408	 0.124862068697072 
2409	 0.124726184781302 
2410	 0.124567878343739 
2411	 0.124411439924148 
2412	 0.124374904683478 
2413	 0.124434545738989 
2414	 0.124469942058664 
2415	 0.124484765198659 
2416	 0.124442217124555 
2417	 0.124244866376966 
2418	 0.124189868092778 
2419	 0.124207568333199 
2420	 0.124102142626518 
2421	 0.123997455103033 
2422	 0.12389033029387 
2423	 0.123700560736748 
2424	 0.12357462584877 
2425	 0.123479495056556 
2426	 0.123392219623305 
2427	 0.123274886224329 
2428	 0.123253505827336 
2429	 0.123371086683801 
2430	 0.123325763036597 
2431	 0.123266566005544 
2432	 0.123153861498448 
2433	 0.122910688270798 
2434	 0.122805311296044 
2435	 0.122682799512489 
2436	 0.122589226024057 
2437	 0.122634016292104 
2438	 0.122565553669795 
2439	 0.1224672470599 
2440	 0.122396426822507 
2441	 0.122238385836924 
2442	 0.122094811897796 
2443	 0.121962241631667 
2444	 0.121885004988426 
2445	 0.121855925922417 
2446	 0.121820990182473 
2447	 0.121873801537062 
2448	 0.121786709488489 
2449	 0.121596576660247 
2450	 0.121445447155928 
2451	 0.121216110903735 
2452	 0.121100927728942 
2453	 0.121009860600448 
2454	 0.120992500516417 
2455	 0.121114555916918 
2456	 0.121138034473548 
2457	 0.121229282037203 
2458	 0.121216960401649 
2459	 0.121064735130782 
2460	 0.120906656455948 
2461	 0.120693266604968 
2462	 0.120514674998341 
2463	 0.120280619139019 
2464	 0.120179760076091 
2465	 0.120207775464362 
2466	 0.120181136313366 
2467	 0.120230999027829 
2468	 0.120144307234942 
2469	 0.119926847476927 
2470	 0.119646199421674 
2471	 0.119489365193112 
2472	 0.119406177450948 
2473	 0.119320853278609 
2474	 0.11935857704131 
2475	 0.119426229262035 
2476	 0.119452224797793 
2477	 0.119540082329776 
2478	 0.119435343757346 
2479	 0.119270508955583 
2480	 0.119311070462307 
2481	 0.11907816213195 
2482	 0.11887048728262 
2483	 0.118953022142735 
2484	 0.118849075977498 
2485	 0.118812299656444 
2486	 0.119089593802884 
2487	 0.119265704242847 
2488	 0.119150296711269 
2489	 0.119180303300307 
2490	 0.119232493470152 
2491	 0.118843907769481 
2492	 0.118590925401015 
2493	 0.118693316544896 
2494	 0.118598379822901 
2495	 0.11863293884108 
2496	 0.118861315528502 
2497	 0.118833386474864 
2498	 0.118615759471986 
2499	 0.118446307919304 
2500	 0.118412392828051 
