Wavelength	LMW_12_00008.asd
350	 0.130257948784905 
351	 0.120633521455018 
352	 0.107195169811343 
353	 0.102710519818031 
354	 0.114152553896985 
355	 0.120515228954639 
356	 0.117209270672787 
357	 0.109238327803654 
358	 0.11890079409884 
359	 0.1204078164277 
360	 0.112354339959331 
361	 0.1096322956208 
362	 0.11246408891516 
363	 0.115876160984183 
364	 0.116560991227645 
365	 0.114840869115262 
366	 0.114256200283888 
367	 0.11592626509773 
368	 0.118871661605744 
369	 0.117263285969976 
370	 0.118177912030327 
371	 0.121714850275006 
372	 0.123186956966388 
373	 0.124636895565907 
374	 0.125400580582649 
375	 0.125697819418581 
376	 0.128163362123897 
377	 0.124689627009452 
378	 0.122217886673688 
379	 0.12826160929253 
380	 0.133869097629884 
381	 0.131349888722663 
382	 0.126983733458315 
383	 0.135431370972123 
384	 0.137923348733488 
385	 0.136343817039009 
386	 0.135260443397169 
387	 0.13855021027792 
388	 0.141236837282662 
389	 0.142853000588827 
390	 0.144241995988386 
391	 0.144827980498786 
392	 0.146562927545653 
393	 0.149494983361591 
394	 0.152025188018499 
395	 0.153617740675081 
396	 0.155370358307233 
397	 0.157843185024042 
398	 0.159918241749906 
399	 0.161595209364127 
400	 0.162692728338409 
401	 0.163273161650479 
402	 0.164971749617633 
403	 0.165874349036139 
404	 0.166278451414833 
405	 0.168768621849936 
406	 0.170460170056009 
407	 0.171857012760754 
408	 0.173511550378483 
409	 0.174162046740362 
410	 0.175500727962505 
411	 0.177204013913666 
412	 0.178096146619026 
413	 0.178215565214829 
414	 0.178980868880097 
415	 0.18038556069086 
416	 0.18048678729704 
417	 0.181227906998222 
418	 0.181973329272564 
419	 0.181943689007257 
420	 0.18202575400743 
421	 0.181807821806825 
422	 0.182061063410897 
423	 0.183906969875231 
424	 0.183486774694593 
425	 0.182625523314666 
426	 0.182651813331278 
427	 0.182707193483822 
428	 0.182273920548816 
429	 0.181752394722713 
430	 0.181739754561587 
431	 0.182116910099494 
432	 0.182175541019272 
433	 0.181940906615797 
434	 0.182128449852052 
435	 0.18246210174766 
436	 0.182750145151827 
437	 0.182927367954919 
438	 0.183156951910686 
439	 0.183933666431568 
440	 0.184880064352845 
441	 0.185343447190515 
442	 0.186338405858936 
443	 0.187557039364507 
444	 0.188653377890839 
445	 0.189417829901141 
446	 0.190296075017033 
447	 0.191260445980825 
448	 0.192237849175155 
449	 0.193645777535657 
450	 0.194872371759678 
451	 0.195735502321792 
452	 0.196462785539137 
453	 0.197243655708398 
454	 0.198107500513603 
455	 0.199074130612579 
456	 0.200319542687012 
457	 0.20113368631525 
458	 0.201644066914782 
459	 0.202330355678186 
460	 0.203038042134182 
461	 0.203564401544385 
462	 0.204019030583037 
463	 0.204957517340813 
464	 0.205579622843975 
465	 0.206064089289311 
466	 0.206709000792506 
467	 0.207115741191017 
468	 0.2074862155816 
469	 0.207920356776078 
470	 0.20842931263898 
471	 0.209232013426963 
472	 0.209796065825838 
473	 0.209895568359703 
474	 0.210274027525468 
475	 0.210787226465346 
476	 0.21132691316235 
477	 0.211802812493076 
478	 0.212340593514885 
479	 0.212711485999409 
480	 0.212913605256078 
481	 0.213287275365696 
482	 0.213787184208098 
483	 0.214304305171124 
484	 0.214770297916076 
485	 0.215416951427498 
486	 0.215928210279066 
487	 0.216253247935621 
488	 0.216587302037852 
489	 0.217220051937661 
490	 0.217795212963324 
491	 0.218110189048628 
492	 0.218648627531258 
493	 0.218962454483641 
494	 0.219238449886734 
495	 0.219861145399151 
496	 0.220285140883832 
497	 0.220661144091431 
498	 0.221164854945748 
499	 0.221922208308251 
500	 0.222504458507717 
501	 0.222863151380142 
502	 0.223133108750181 
503	 0.223657276385118 
504	 0.224162954828987 
505	 0.224570667191214 
506	 0.225003336700789 
507	 0.225663186096686 
508	 0.226249680487361 
509	 0.226584693180594 
510	 0.227102682459995 
511	 0.227416183871212 
512	 0.227695853703004 
513	 0.228339053493831 
514	 0.228923511281766 
515	 0.229418702015488 
516	 0.229875333733737 
517	 0.230409922940606 
518	 0.230800064186992 
519	 0.231167846785204 
520	 0.231694063137217 
521	 0.232249091337496 
522	 0.23268139480789 
523	 0.233037695591345 
524	 0.233563356880816 
525	 0.233947524024011 
526	 0.234303238690548 
527	 0.234784290892565 
528	 0.235386502494078 
529	 0.23587441211809 
530	 0.236267467626876 
531	 0.236742983100435 
532	 0.237158442347237 
533	 0.237656481377682 
534	 0.238275544606243 
535	 0.238767192917252 
536	 0.239183252113923 
537	 0.239635241735805 
538	 0.240216366882874 
539	 0.240670941193969 
540	 0.241137857626032 
541	 0.241670682989526 
542	 0.242168171917519 
543	 0.242623945243732 
544	 0.24310056704652 
545	 0.243650046017797 
546	 0.244198446517925 
547	 0.244748429720249 
548	 0.24534173461413 
549	 0.246037962476223 
550	 0.246584703891675 
551	 0.247101572851189 
552	 0.247716452535362 
553	 0.24840012653498 
554	 0.249067731663146 
555	 0.249656879412701 
556	 0.250144555671262 
557	 0.250708529706722 
558	 0.251287015180347 
559	 0.251850488567195 
560	 0.252476783441076 
561	 0.253123268977803 
562	 0.253838663785874 
563	 0.254675280169526 
564	 0.255537827083484 
565	 0.256427686673378 
566	 0.257435432542655 
567	 0.258735536579532 
568	 0.259893883937847 
569	 0.260736739566162 
570	 0.261259819408511 
571	 0.261687403058911 
572	 0.262396758354323 
573	 0.263382023084985 
574	 0.264343548969198 
575	 0.265101250423983 
576	 0.265794214380776 
577	 0.26657192541631 
578	 0.267454068884353 
579	 0.268621292993048 
580	 0.270014816638336 
581	 0.271464938748299 
582	 0.272939099516325 
583	 0.274275829647849 
584	 0.275337909569188 
585	 0.276024950175283 
586	 0.276777173009848 
587	 0.27756533635251 
588	 0.278262475326232 
589	 0.279011806889699 
590	 0.279729066654098 
591	 0.280383188606425 
592	 0.281002187449506 
593	 0.281565866479441 
594	 0.282197185219906 
595	 0.28304921891747 
596	 0.28430079363425 
597	 0.285782271423944 
598	 0.287306627429959 
599	 0.288702879670761 
600	 0.290041300851036 
601	 0.291188163161271 
602	 0.292102921221913 
603	 0.29294600269402 
604	 0.293735719864644 
605	 0.294531365878964 
606	 0.295390668284396 
607	 0.296334319718588 
608	 0.297175510433475 
609	 0.297884801074643 
610	 0.298626581044579 
611	 0.299503644340856 
612	 0.300512139526228 
613	 0.301557319584802 
614	 0.302381849664949 
615	 0.30318286022882 
616	 0.304001605461972 
617	 0.304766774912623 
618	 0.305529414247365 
619	 0.306256810658712 
620	 0.306932963525369 
621	 0.307588325753808 
622	 0.308323985465543 
623	 0.309086268896432 
624	 0.309770999457078 
625	 0.310420633091608 
626	 0.311107380094388 
627	 0.311820656118931 
628	 0.312436032426729 
629	 0.313111335891153 
630	 0.313782000398336 
631	 0.314380907022722 
632	 0.315076373161261 
633	 0.315763873561942 
634	 0.316385873458255 
635	 0.31694626375152 
636	 0.317695169044346 
637	 0.318439202762488 
638	 0.319031417777725 
639	 0.319632315826073 
640	 0.320252742057098 
641	 0.320910668209576 
642	 0.321608913318543 
643	 0.322276584351635 
644	 0.322926293405434 
645	 0.323571454184176 
646	 0.324212726062095 
647	 0.324827294169232 
648	 0.325459820748592 
649	 0.326160131340908 
650	 0.326926740447805 
651	 0.327617846440577 
652	 0.328223545513861 
653	 0.328855972739682 
654	 0.329584886333557 
655	 0.330320477280957 
656	 0.330983999211593 
657	 0.331588823574162 
658	 0.332259665884759 
659	 0.333029626212084 
660	 0.333847871988061 
661	 0.334449854719422 
662	 0.335048817341668 
663	 0.335773470582462 
664	 0.336561731762765 
665	 0.33738231692333 
666	 0.338106741630238 
667	 0.338685294462355 
668	 0.339476108274179 
669	 0.340280598330943 
670	 0.341024397506971 
671	 0.341750899691327 
672	 0.34248907791414 
673	 0.343267063818099 
674	 0.34408113502914 
675	 0.344865914202856 
676	 0.345595272211038 
677	 0.346327643087045 
678	 0.347142451580364 
679	 0.347954195061318 
680	 0.348751657137805 
681	 0.349536070506835 
682	 0.350316751135973 
683	 0.351115305339612 
684	 0.351902675636749 
685	 0.352668564340456 
686	 0.353525540260849 
687	 0.354352522771625 
688	 0.355124942777698 
689	 0.355894987913713 
690	 0.356730410258246 
691	 0.357579073305033 
692	 0.358404810472553 
693	 0.359250983369273 
694	 0.359992903942542 
695	 0.360751431538249 
696	 0.361677399117603 
697	 0.362558657601036 
698	 0.363372133892164 
699	 0.36416491364974 
700	 0.365038518895977 
701	 0.365776238269806 
702	 0.366566970311269 
703	 0.367521383337239 
704	 0.368279981861409 
705	 0.369078666240116 
706	 0.369891826019573 
707	 0.370593399775589 
708	 0.371426511353054 
709	 0.372283522190836 
710	 0.373100093213034 
711	 0.373934730247258 
712	 0.374710368429019 
713	 0.375426133021101 
714	 0.376120697331527 
715	 0.376878173819886 
716	 0.377647929769477 
717	 0.378425367793845 
718	 0.379224340810078 
719	 0.379853644832601 
720	 0.380423857254368 
721	 0.3810458414683 
722	 0.381742941144193 
723	 0.382472418860457 
724	 0.383215597636468 
725	 0.383956682985854 
726	 0.384676134526196 
727	 0.385211156840635 
728	 0.385632563886074 
729	 0.386216314957439 
730	 0.386824409697457 
731	 0.387471837697705 
732	 0.38812536393658 
733	 0.388564130216108 
734	 0.389040336143904 
735	 0.389559588907148 
736	 0.390037200181891 
737	 0.390515555865423 
738	 0.391002635268093 
739	 0.39148439007317 
740	 0.391926712794254 
741	 0.392363132338151 
742	 0.392741578635891 
743	 0.393041832591542 
744	 0.393370159518191 
745	 0.393727924868153 
746	 0.394085003420002 
747	 0.394394600774019 
748	 0.394635718220665 
749	 0.394875118761314 
750	 0.395125427518771 
751	 0.395325913920484 
752	 0.395614109230472 
753	 0.395914136541973 
754	 0.396140492492595 
755	 0.396330547025221 
756	 0.396518375339261 
757	 0.396696554745365 
758	 0.396841519447675 
759	 0.397010455027994 
760	 0.397054807104255 
761	 0.397011107979638 
762	 0.397160424811714 
763	 0.397319923839174 
764	 0.397439617007375 
765	 0.397522747869587 
766	 0.397651604119933 
767	 0.397639909681671 
768	 0.39759704380724 
769	 0.39772651080906 
770	 0.397729693800377 
771	 0.397727205386583 
772	 0.397761905856637 
773	 0.397741066925059 
774	 0.397710132673316 
775	 0.397703048589305 
776	 0.397725420894938 
777	 0.397716362710927 
778	 0.397681764759816 
779	 0.397613028958498 
780	 0.39752475139709 
781	 0.397615682907376 
782	 0.397572721720028 
783	 0.397391240724237 
784	 0.397414460454549 
785	 0.397353513629482 
786	 0.397229252271459 
787	 0.397119735036931 
788	 0.397091017712467 
789	 0.397119831269364 
790	 0.397127736404148 
791	 0.397032054454001 
792	 0.396839148594633 
793	 0.396750021344099 
794	 0.396788151148314 
795	 0.396808267062191 
796	 0.396716493069976 
797	 0.396565245430392 
798	 0.396426073037261 
799	 0.396351374429871 
800	 0.396316038126087 
801	 0.396217151524286 
802	 0.396017161653773 
803	 0.396015355591113 
804	 0.396014212616203 
805	 0.395955802494276 
806	 0.3958847680412 
807	 0.395850058988512 
808	 0.395761621159098 
809	 0.39562049235822 
810	 0.395561389004455 
811	 0.395569067720795 
812	 0.395506679210258 
813	 0.395323326829773 
814	 0.395268040744684 
815	 0.395248330700043 
816	 0.395244918497614 
817	 0.395249550221383 
818	 0.395179723152167 
819	 0.39507519482111 
820	 0.394969304592296 
821	 0.394887912058536 
822	 0.394928202596833 
823	 0.394932305229927 
824	 0.394818113165809 
825	 0.394688946703608 
826	 0.394637448698088 
827	 0.394613125488011 
828	 0.394575336136201 
829	 0.394687544667099 
830	 0.394610575190583 
831	 0.394456055870348 
832	 0.394519078011711 
833	 0.394724061845998 
834	 0.394740423543788 
835	 0.394544473915595 
836	 0.394424886218883 
837	 0.394537751580864 
838	 0.394647602843181 
839	 0.394625662828871 
840	 0.394646694236153 
841	 0.394644291873163 
842	 0.394611657494632 
843	 0.394563964910598 
844	 0.394528716039886 
845	 0.394582302764632 
846	 0.394629975404647 
847	 0.394547922484887 
848	 0.394524651046114 
849	 0.394635999107111 
850	 0.394827418772156 
851	 0.394943483098672 
852	 0.394941219088245 
853	 0.394936710968753 
854	 0.394989029308235 
855	 0.395036844747174 
856	 0.395108785605646 
857	 0.39525752518121 
858	 0.395434503206119 
859	 0.395302469792494 
860	 0.395312418839531 
861	 0.395491280579538 
862	 0.395695181369135 
863	 0.395802977104917 
864	 0.395878614434617 
865	 0.395985679952534 
866	 0.396160059495309 
867	 0.396302595463967 
868	 0.396306333284645 
869	 0.396281538007956 
870	 0.396517944708839 
871	 0.396705559774628 
872	 0.396900390358969 
873	 0.397138545227007 
874	 0.397329986171472 
875	 0.3973638205534 
876	 0.397332583034841 
877	 0.397386490374303 
878	 0.397686697343813 
879	 0.397948959707738 
880	 0.398109161345587 
881	 0.398233355056472 
882	 0.398538166946062 
883	 0.39880465827321 
884	 0.398968956137724 
885	 0.399099686676864 
886	 0.39942627143732 
887	 0.399699586924726 
888	 0.39989703627224 
889	 0.400194551610484 
890	 0.40039495738324 
891	 0.400652131695094 
892	 0.400963533317878 
893	 0.401097261668656 
894	 0.401284858244097 
895	 0.401493076856428 
896	 0.401720497320923 
897	 0.402113046972233 
898	 0.402452580737015 
899	 0.40272119210601 
900	 0.402958705112529 
901	 0.40318867061738 
902	 0.403491687700425 
903	 0.403808482316115 
904	 0.404086279724119 
905	 0.404510980491064 
906	 0.404836261884397 
907	 0.405081226801846 
908	 0.405391439757541 
909	 0.405803064294084 
910	 0.406208134820833 
911	 0.406586893780496 
912	 0.406971029718998 
913	 0.407258927613665 
914	 0.407551185688965 
915	 0.407918790075754 
916	 0.408378612733506 
917	 0.40890500536199 
918	 0.409331065620801 
919	 0.409625893149409 
920	 0.409936288477958 
921	 0.4103791631296 
922	 0.410797762533266 
923	 0.411163104963638 
924	 0.411692390096404 
925	 0.412134317889544 
926	 0.412544014061286 
927	 0.4129761500051 
928	 0.413359821260587 
929	 0.413811240527511 
930	 0.414296074366206 
931	 0.414781167945818 
932	 0.415332812452024 
933	 0.415885220289069 
934	 0.416323715936635 
935	 0.416641631801392 
936	 0.417161470051795 
937	 0.417690802920161 
938	 0.418237060808816 
939	 0.418862263296044 
940	 0.419610307563333 
941	 0.420136852239864 
942	 0.420509445249687 
943	 0.4209291582251 
944	 0.421346558216881 
945	 0.421865201901705 
946	 0.422518820106069 
947	 0.423231986339343 
948	 0.423661572735697 
949	 0.42410627051114 
950	 0.424627193046717 
951	 0.425160351878617 
952	 0.425760474549665 
953	 0.426383944598878 
954	 0.426980111512689 
955	 0.427502302624656 
956	 0.427908457644617 
957	 0.428475444838299 
958	 0.429111196177712 
959	 0.429549479269462 
960	 0.42996840999023 
961	 0.430609866766267 
962	 0.431407604933213 
963	 0.432097292667919 
964	 0.432583537465976 
965	 0.433166135935297 
966	 0.433878619438989 
967	 0.434579908523662 
968	 0.435425732355305 
969	 0.436071013831948 
970	 0.436571825342502 
971	 0.437221986223566 
972	 0.437816033758359 
973	 0.4385386221316 
974	 0.43935487300504 
975	 0.440086748857179 
976	 0.440748983513598 
977	 0.441434126250208 
978	 0.442062171775076 
979	 0.44249707437482 
980	 0.442962282465874 
981	 0.443506227620086 
982	 0.444117690846201 
983	 0.444766935556332 
984	 0.445524548406148 
985	 0.446274398196375 
986	 0.446899625991182 
987	 0.447389334776111 
988	 0.448143351128293 
989	 0.448933817987507 
990	 0.449626856111991 
991	 0.450226314337942 
992	 0.451014189036221 
993	 0.451577096738036 
994	 0.452063934344264 
995	 0.452757725720409 
996	 0.453322632474729 
997	 0.453799741086748 
998	 0.45449118603876 
999	 0.455494462809773 
1000	 0.45588648959595 
1001	 0.459623889704962 
1002	 0.460109999626299 
1003	 0.460670077144903 
1004	 0.461196861652727 
1005	 0.461709061551496 
1006	 0.462203326489097 
1007	 0.462693981882926 
1008	 0.463183681278955 
1009	 0.463612176212025 
1010	 0.464188045839686 
1011	 0.464858303931535 
1012	 0.465311453317078 
1013	 0.465747675197823 
1014	 0.466229833533089 
1015	 0.466620944808122 
1016	 0.467081385023256 
1017	 0.467558621224781 
1018	 0.468112538180216 
1019	 0.468543793135676 
1020	 0.46894283559106 
1021	 0.469394260139058 
1022	 0.469841142148756 
1023	 0.470258916753696 
1024	 0.470655923041244 
1025	 0.471099230960067 
1026	 0.471545772809331 
1027	 0.471992539717531 
1028	 0.472456033193526 
1029	 0.472826063319735 
1030	 0.473147389915905 
1031	 0.473493580082004 
1032	 0.473808402920639 
1033	 0.474183456886054 
1034	 0.474595034738575 
1035	 0.474976511364957 
1036	 0.475381043568372 
1037	 0.475748493184598 
1038	 0.476073767669802 
1039	 0.476436666753682 
1040	 0.476801548419395 
1041	 0.477176104227399 
1042	 0.477594011591628 
1043	 0.477979518355462 
1044	 0.478328386374425 
1045	 0.47864590857467 
1046	 0.478947580792091 
1047	 0.479225865882556 
1048	 0.4795480967004 
1049	 0.479903676020654 
1050	 0.480252920008492 
1051	 0.480635254084508 
1052	 0.480987740336983 
1053	 0.481355174924007 
1054	 0.48176108459749 
1055	 0.482080145916301 
1056	 0.482410674997829 
1057	 0.482760467604342 
1058	 0.483078250097041 
1059	 0.483413952934872 
1060	 0.483798642888232 
1061	 0.484157668542008 
1062	 0.484459932373593 
1063	 0.484762842807101 
1064	 0.485007429477774 
1065	 0.485290475456753 
1066	 0.485609343630849 
1067	 0.485900848627662 
1068	 0.486240663260929 
1069	 0.486525906160574 
1070	 0.486798330944018 
1071	 0.487018132561562 
1072	 0.487292686405871 
1073	 0.487590928190774 
1074	 0.487887731460612 
1075	 0.488211176025809 
1076	 0.488493636359108 
1077	 0.488777703782262 
1078	 0.489021498078522 
1079	 0.489251783676422 
1080	 0.489496218562489 
1081	 0.489724354928327 
1082	 0.48990198015373 
1083	 0.490103797756242 
1084	 0.490315063441929 
1085	 0.490503201908918 
1086	 0.490679822904872 
1087	 0.490877174737117 
1088	 0.491059390575571 
1089	 0.491254390621427 
1090	 0.491508540118038 
1091	 0.491692187569121 
1092	 0.491900091466476 
1093	 0.492087374123337 
1094	 0.492169422322456 
1095	 0.492332046375645 
1096	 0.492530283988632 
1097	 0.492679395630078 
1098	 0.49286412502303 
1099	 0.493120577148989 
1100	 0.493321678232705 
1101	 0.493486658255153 
1102	 0.493673511193132 
1103	 0.493875308059735 
1104	 0.494034714500952 
1105	 0.494233599942708 
1106	 0.494447516998297 
1107	 0.494679121688315 
1108	 0.494926825939478 
1109	 0.49511360356454 
1110	 0.49530615321841 
1111	 0.495521739592502 
1112	 0.495719633155299 
1113	 0.495951467548263 
1114	 0.496236825216844 
1115	 0.496485003272617 
1116	 0.496718822008688 
1117	 0.496970430412616 
1118	 0.497226481391629 
1119	 0.497471056839698 
1120	 0.497741862582101 
1121	 0.498012481838336 
1122	 0.498252059370752 
1123	 0.498509991140426 
1124	 0.498749518050571 
1125	 0.498965950280678 
1126	 0.499199850457781 
1127	 0.499430709105769 
1128	 0.4996743142559 
1129	 0.499929724993361 
1130	 0.50018365092556 
1131	 0.500460283412063 
1132	 0.500707428947734 
1133	 0.500953057293706 
1134	 0.501177064921762 
1135	 0.501382885691266 
1136	 0.501552798140328 
1137	 0.501757871017786 
1138	 0.501972278199488 
1139	 0.502153125646545 
1140	 0.5023246964782 
1141	 0.502511442104175 
1142	 0.502671983131421 
1143	 0.502853832818424 
1144	 0.503078586098426 
1145	 0.50326525248901 
1146	 0.503432493291965 
1147	 0.503592271045825 
1148	 0.503740969383016 
1149	 0.503889021919111 
1150	 0.50402231392732 
1151	 0.504167489919552 
1152	 0.504311047293368 
1153	 0.504438886003558 
1154	 0.504569520298156 
1155	 0.504692652411156 
1156	 0.504827351354053 
1157	 0.504959798308516 
1158	 0.505103985105083 
1159	 0.505283394596888 
1160	 0.505410599444635 
1161	 0.505495705272935 
1162	 0.505622810737372 
1163	 0.505753049960123 
1164	 0.505867953522654 
1165	 0.50600324692212 
1166	 0.506140164824759 
1167	 0.506215536458219 
1168	 0.506320354573755 
1169	 0.506438950813647 
1170	 0.506572027566498 
1171	 0.506709088452015 
1172	 0.50686363021951 
1173	 0.507008677595289 
1174	 0.507166923106731 
1175	 0.507305477203447 
1176	 0.507446177235921 
1177	 0.507560044056442 
1178	 0.507646400889778 
1179	 0.507740469063491 
1180	 0.507812280174483 
1181	 0.507897889001008 
1182	 0.507997730735343 
1183	 0.50808359803662 
1184	 0.508186563104185 
1185	 0.508294508778093 
1186	 0.508410087116381 
1187	 0.508547108929886 
1188	 0.508656026317645 
1189	 0.5087711894448 
1190	 0.508858935011611 
1191	 0.508906091850776 
1192	 0.508981209747754 
1193	 0.509040350644074 
1194	 0.50912724449797 
1195	 0.509262058464885 
1196	 0.509359666084812 
1197	 0.509445068062957 
1198	 0.509535987224662 
1199	 0.509621147136762 
1200	 0.509684750457852 
1201	 0.509763777939037 
1202	 0.509851166188391 
1203	 0.509943664899947 
1204	 0.510034152530088 
1205	 0.510128449434957 
1206	 0.510243296230124 
1207	 0.510339042794307 
1208	 0.510427495345737 
1209	 0.510508878151846 
1210	 0.510576264220558 
1211	 0.510652225127281 
1212	 0.510707409046493 
1213	 0.510792686389278 
1214	 0.510912140307164 
1215	 0.511014218095183 
1216	 0.511117122813576 
1217	 0.511250253250981 
1218	 0.511316865950847 
1219	 0.511334845916942 
1220	 0.511390825634283 
1221	 0.511418553205866 
1222	 0.511482933719379 
1223	 0.511593501968349 
1224	 0.511672412235328 
1225	 0.511736858379545 
1226	 0.511818114270079 
1227	 0.511907255981978 
1228	 0.511985391538985 
1229	 0.512068223232372 
1230	 0.512149768792617 
1231	 0.512208351923893 
1232	 0.512286547703631 
1233	 0.512374922118876 
1234	 0.51248671872107 
1235	 0.512567659172171 
1236	 0.512653371041482 
1237	 0.512716593663182 
1238	 0.512762122312706 
1239	 0.512793473626391 
1240	 0.512808755036898 
1241	 0.512823108713376 
1242	 0.512794117093721 
1243	 0.512815702617053 
1244	 0.51286253468103 
1245	 0.512905880287954 
1246	 0.512970974717698 
1247	 0.513039099811215 
1248	 0.513102885936291 
1249	 0.513182869014339 
1250	 0.513254713048876 
1251	 0.51333736380454 
1252	 0.513416445856487 
1253	 0.51349031987181 
1254	 0.513561414868663 
1255	 0.513636155868692 
1256	 0.513711795389112 
1257	 0.513793706735541 
1258	 0.513849667298573 
1259	 0.513897577760704 
1260	 0.513942790763162 
1261	 0.51395500839541 
1262	 0.513989096717458 
1263	 0.514039295663087 
1264	 0.514085623462778 
1265	 0.514106025184004 
1266	 0.514169572042658 
1267	 0.51426125921129 
1268	 0.514372364206706 
1269	 0.514450163914186 
1270	 0.514552610681041 
1271	 0.514613485701045 
1272	 0.51461855653065 
1273	 0.514664625601825 
1274	 0.514722219221736 
1275	 0.514775828877224 
1276	 0.514832535888962 
1277	 0.514890746389815 
1278	 0.514950526839774 
1279	 0.515007195416829 
1280	 0.515074038274861 
1281	 0.515126465580875 
1282	 0.515161892943616 
1283	 0.515208590528646 
1284	 0.515262099913876 
1285	 0.515291818080107 
1286	 0.515334974103472 
1287	 0.515413026502805 
1288	 0.515492845075432 
1289	 0.515588993834375 
1290	 0.515674334211398 
1291	 0.51577049899613 
1292	 0.515855644976977 
1293	 0.51594093923642 
1294	 0.516003511239269 
1295	 0.516061811543978 
1296	 0.5161027264056 
1297	 0.516104664286861 
1298	 0.516131792760462 
1299	 0.516171561650433 
1300	 0.516195547549628 
1301	 0.516229200407339 
1302	 0.516239167135145 
1303	 0.51621866302398 
1304	 0.516210153058264 
1305	 0.516190196861825 
1306	 0.51616403061599 
1307	 0.516170103734223 
1308	 0.516122858062075 
1309	 0.516064050174784 
1310	 0.515987574236401 
1311	 0.515906807074951 
1312	 0.515793843144149 
1313	 0.51570854170103 
1314	 0.515623336055129 
1315	 0.515552993969875 
1316	 0.515488598185837 
1317	 0.51543009681657 
1318	 0.515402364820416 
1319	 0.515349068465552 
1320	 0.515293326484466 
1321	 0.51522752360354 
1322	 0.515137559704065 
1323	 0.515052067963457 
1324	 0.515000700615539 
1325	 0.514955847622452 
1326	 0.514926893791987 
1327	 0.514898156159327 
1328	 0.514834601208242 
1329	 0.514757207225314 
1330	 0.51470567655454 
1331	 0.514638854778056 
1332	 0.514625095856843 
1333	 0.514651547229268 
1334	 0.51467472941991 
1335	 0.514728874731903 
1336	 0.514769577688064 
1337	 0.514801331529168 
1338	 0.514844910065755 
1339	 0.514914302000794 
1340	 0.514955293895082 
1341	 0.514976728052882 
1342	 0.515019371215256 
1343	 0.515074561147063 
1344	 0.515090631525322 
1345	 0.515136083599348 
1346	 0.515172922443069 
1347	 0.515173603718117 
1348	 0.515179681765042 
1349	 0.515170807605169 
1350	 0.515159210432321 
1351	 0.515142137213927 
1352	 0.515125144988565 
1353	 0.515078661395702 
1354	 0.515019896587259 
1355	 0.514947553457686 
1356	 0.514832715343262 
1357	 0.514761236169993 
1358	 0.514678492179114 
1359	 0.51464148579611 
1360	 0.514645744206794 
1361	 0.51464473836326 
1362	 0.514674790765734 
1363	 0.51469651939044 
1364	 0.514700172411077 
1365	 0.514735302534849 
1366	 0.514791419194626 
1367	 0.514856510617664 
1368	 0.514928033851606 
1369	 0.51497196901414 
1370	 0.51496006977289 
1371	 0.514923841012585 
1372	 0.514862978575905 
1373	 0.514781514080286 
1374	 0.514655560365182 
1375	 0.514536329877553 
1376	 0.514278020874706 
1377	 0.513937122633107 
1378	 0.5135561711618 
1379	 0.513042883327692 
1380	 0.512591495114513 
1381	 0.512129827286875 
1382	 0.511658357448075 
1383	 0.511217073142075 
1384	 0.510708346025578 
1385	 0.510242771808044 
1386	 0.509614308702817 
1387	 0.50892999563213 
1388	 0.508111141722522 
1389	 0.507189350776493 
1390	 0.506118526805543 
1391	 0.504904075823456 
1392	 0.503535252265003 
1393	 0.501987462889337 
1394	 0.500342878192102 
1395	 0.498615241923116 
1396	 0.496844970956218 
1397	 0.495101759033646 
1398	 0.493304423637324 
1399	 0.491579507342294 
1400	 0.489851905280547 
1401	 0.48822270637465 
1402	 0.486592045006109 
1403	 0.485142093300963 
1404	 0.483786281692982 
1405	 0.482563824998048 
1406	 0.481475453578495 
1407	 0.48048953284373 
1408	 0.479530421774404 
1409	 0.478845307297884 
1410	 0.478220781519661 
1411	 0.477976254583113 
1412	 0.477995624103486 
1413	 0.478302393597123 
1414	 0.478967684941655 
1415	 0.479867477141444 
1416	 0.480997251666467 
1417	 0.482314783341047 
1418	 0.483706029036507 
1419	 0.485122504467992 
1420	 0.486521156062396 
1421	 0.487842771353868 
1422	 0.489029474242401 
1423	 0.490096646712345 
1424	 0.49100104589023 
1425	 0.491738780446905 
1426	 0.492398156515321 
1427	 0.492889930807794 
1428	 0.493374009097421 
1429	 0.493777951602553 
1430	 0.494130241506989 
1431	 0.494434558192469 
1432	 0.494677973874041 
1433	 0.494834909250463 
1434	 0.494984989479689 
1435	 0.495066514088831 
1436	 0.495163624257962 
1437	 0.495263976681223 
1438	 0.495327098901809 
1439	 0.495367356495232 
1440	 0.495406515487997 
1441	 0.495397525838143 
1442	 0.495379253594907 
1443	 0.495382890574643 
1444	 0.495380768432742 
1445	 0.495400237764663 
1446	 0.4954239025095 
1447	 0.495408648603601 
1448	 0.495390387719189 
1449	 0.495370009640587 
1450	 0.495315330883942 
1451	 0.49529080556284 
1452	 0.495289881549812 
1453	 0.495273012613754 
1454	 0.495266698001901 
1455	 0.495233966772942 
1456	 0.495188209133602 
1457	 0.495120526209322 
1458	 0.495010366721543 
1459	 0.494947706020833 
1460	 0.494867120836903 
1461	 0.494842219120742 
1462	 0.49488810943971 
1463	 0.494892341048926 
1464	 0.49490805250648 
1465	 0.494919888493643 
1466	 0.494894059153339 
1467	 0.494906583642359 
1468	 0.494924418262502 
1469	 0.494981321795003 
1470	 0.495076721659354 
1471	 0.495183625192123 
1472	 0.495303933401538 
1473	 0.495428410424904 
1474	 0.495511118782907 
1475	 0.495613766865703 
1476	 0.495739114083775 
1477	 0.49588428889354 
1478	 0.496088706087427 
1479	 0.496288559155159 
1480	 0.496484445129883 
1481	 0.49668890769234 
1482	 0.496854047072116 
1483	 0.496986745226361 
1484	 0.49713278796015 
1485	 0.497260134814481 
1486	 0.497395105092298 
1487	 0.497536531112439 
1488	 0.49767508283484 
1489	 0.497806547921211 
1490	 0.49794565606729 
1491	 0.498095223569187 
1492	 0.498233341342298 
1493	 0.49836295463789 
1494	 0.498500979173069 
1495	 0.49864190555205 
1496	 0.498774997976706 
1497	 0.498925079266855 
1498	 0.499043059879858 
1499	 0.499147102181061 
1500	 0.499233362095413 
1501	 0.499272446743826 
1502	 0.499343443961615 
1503	 0.499415830159161 
1504	 0.499486571356487 
1505	 0.499597536823737 
1506	 0.49970241857918 
1507	 0.499784317688804 
1508	 0.499871665240306 
1509	 0.499948125673442 
1510	 0.500016774558668 
1511	 0.500087796227707 
1512	 0.500144987598834 
1513	 0.500182717144482 
1514	 0.50025214086593 
1515	 0.50035597251356 
1516	 0.500436619899308 
1517	 0.500514706393743 
1518	 0.500598417165893 
1519	 0.500682437666832 
1520	 0.500750217878904 
1521	 0.500835683598983 
1522	 0.50094593471756 
1523	 0.501029880328203 
1524	 0.501106402031204 
1525	 0.501169681912675 
1526	 0.501219037551184 
1527	 0.501265664031209 
1528	 0.501299044742094 
1529	 0.501340601192096 
1530	 0.501382746408192 
1531	 0.501422159606663 
1532	 0.501459391930299 
1533	 0.501497039258541 
1534	 0.501527372915385 
1535	 0.501567715307798 
1536	 0.501609185075814 
1537	 0.501662600844004 
1538	 0.501724652610302 
1539	 0.501795919652877 
1540	 0.501893098204963 
1541	 0.501966448509725 
1542	 0.502033937668067 
1543	 0.502100761417907 
1544	 0.502152834154115 
1545	 0.502206857832508 
1546	 0.502260898623402 
1547	 0.502313798969083 
1548	 0.502387665881398 
1549	 0.502461640275698 
1550	 0.502543539656685 
1551	 0.502631889232714 
1552	 0.50268882434853 
1553	 0.502725108543976 
1554	 0.502766585519015 
1555	 0.50280403959027 
1556	 0.502813941480566 
1557	 0.502842107001533 
1558	 0.502877964456878 
1559	 0.502902891837207 
1560	 0.502929608969571 
1561	 0.502968030474015 
1562	 0.502996657992478 
1563	 0.503003435402227 
1564	 0.50304570051032 
1565	 0.503111582433753 
1566	 0.50316964788965 
1567	 0.503244883635104 
1568	 0.503293852869038 
1569	 0.503332573692174 
1570	 0.50336588091544 
1571	 0.503393850676713 
1572	 0.503407391010039 
1573	 0.503392879806646 
1574	 0.503413502212649 
1575	 0.503444479898991 
1576	 0.503458718600231 
1577	 0.50348585181317 
1578	 0.503511533523626 
1579	 0.50350146458719 
1580	 0.503538266365472 
1581	 0.503635615308265 
1582	 0.503676087479751 
1583	 0.503706355401479 
1584	 0.503727727818419 
1585	 0.503712605462251 
1586	 0.503708190143771 
1587	 0.503710961333931 
1588	 0.503713073393227 
1589	 0.5037069176166 
1590	 0.503702348995247 
1591	 0.50369884808057 
1592	 0.503698592625868 
1593	 0.50370228309872 
1594	 0.503699689836198 
1595	 0.503709604015169 
1596	 0.503696926346936 
1597	 0.503667884265551 
1598	 0.503631995616922 
1599	 0.503554683156238 
1600	 0.503522329297121 
1601	 0.503503542315288 
1602	 0.503495726100788 
1603	 0.50354865931177 
1604	 0.503558756409683 
1605	 0.503532085518517 
1606	 0.503527934745775 
1607	 0.503519687878385 
1608	 0.503505594496154 
1609	 0.503522710396875 
1610	 0.503538863238323 
1611	 0.50352804293458 
1612	 0.503521471309811 
1613	 0.50352156507102 
1614	 0.503509710791285 
1615	 0.503486931840007 
1616	 0.503457078488064 
1617	 0.503411735621437 
1618	 0.503380796658782 
1619	 0.503388098839803 
1620	 0.50339606086583 
1621	 0.503395348068102 
1622	 0.503416853113946 
1623	 0.503386382140747 
1624	 0.503328699805974 
1625	 0.503263788589129 
1626	 0.503161035874268 
1627	 0.503099717210255 
1628	 0.503040774486388 
1629	 0.502994823478033 
1630	 0.502971069723593 
1631	 0.502944612222902 
1632	 0.502917700282408 
1633	 0.502902694676042 
1634	 0.502906082156797 
1635	 0.502890660366004 
1636	 0.502874278957254 
1637	 0.502855018861386 
1638	 0.502823945999006 
1639	 0.502803636506812 
1640	 0.502792354955942 
1641	 0.502768814855064 
1642	 0.502752841106869 
1643	 0.502706328304273 
1644	 0.502628786336952 
1645	 0.502579848532292 
1646	 0.502523729247509 
1647	 0.502476318789075 
1648	 0.50245477945601 
1649	 0.502412346801466 
1650	 0.502350205188007 
1651	 0.502307860899445 
1652	 0.502271963256564 
1653	 0.50223745835249 
1654	 0.502215261722279 
1655	 0.502180037996539 
1656	 0.502144150630888 
1657	 0.502097602912855 
1658	 0.502042490851619 
1659	 0.501983553493319 
1660	 0.501905969069277 
1661	 0.501853133371455 
1662	 0.501812545707917 
1663	 0.501760475876912 
1664	 0.501716741214078 
1665	 0.501668793505364 
1666	 0.501629580850462 
1667	 0.501544806786392 
1668	 0.501431629292895 
1669	 0.501339608588204 
1670	 0.501198770589563 
1671	 0.501120529661636 
1672	 0.501084276669745 
1673	 0.501062956636415 
1674	 0.501090897088393 
1675	 0.501070336480986 
1676	 0.501066092965069 
1677	 0.501021749649234 
1678	 0.500930114848241 
1679	 0.500841366210996 
1680	 0.500721666225373 
1681	 0.500641644012774 
1682	 0.500568062341569 
1683	 0.500496966555186 
1684	 0.500452283395785 
1685	 0.500401401379102 
1686	 0.500347840121572 
1687	 0.500281176750887 
1688	 0.500216038208124 
1689	 0.500154825918628 
1690	 0.50007272880984 
1691	 0.500009814667087 
1692	 0.499979112641856 
1693	 0.499916368444159 
1694	 0.499839461378303 
1695	 0.499763926826729 
1696	 0.49965826468208 
1697	 0.499597189732488 
1698	 0.499564983004353 
1699	 0.499515216333339 
1700	 0.499478166700926 
1701	 0.499444322752602 
1702	 0.499409740553523 
1703	 0.499359647184239 
1704	 0.49933666143246 
1705	 0.499256221278401 
1706	 0.499107839432746 
1707	 0.499009664436293 
1708	 0.498894577405128 
1709	 0.498820637914853 
1710	 0.49880688474242 
1711	 0.498742477366049 
1712	 0.498673097133203 
1713	 0.498596220023755 
1714	 0.498480305604191 
1715	 0.498400862139154 
1716	 0.498346973064522 
1717	 0.498273752203954 
1718	 0.498225573219968 
1719	 0.498121902409952 
1720	 0.497971145886252 
1721	 0.49784680085802 
1722	 0.497689173747785 
1723	 0.497575702189025 
1724	 0.497516514713562 
1725	 0.497400952359686 
1726	 0.497270422001335 
1727	 0.497147224758663 
1728	 0.496997651633945 
1729	 0.496861462288537 
1730	 0.496732783930297 
1731	 0.496617189559138 
1732	 0.496500593751605 
1733	 0.496391687674361 
1734	 0.496324302018046 
1735	 0.496202461854519 
1736	 0.496054975614282 
1737	 0.495903047804891 
1738	 0.495713845094047 
1739	 0.495560791071221 
1740	 0.495425811083099 
1741	 0.495265667145105 
1742	 0.495087603801145 
1743	 0.494976722925521 
1744	 0.494878777559145 
1745	 0.494780851158138 
1746	 0.494752530015757 
1747	 0.49461928097523 
1748	 0.494473146087577 
1749	 0.494269394592224 
1750	 0.494086911892615 
1751	 0.493909987196652 
1752	 0.493691577451414 
1753	 0.493534442469699 
1754	 0.493416925499558 
1755	 0.493288721175228 
1756	 0.493174196823296 
1757	 0.493054240475146 
1758	 0.492904064926287 
1759	 0.492747993143991 
1760	 0.492641905082103 
1761	 0.492561792231466 
1762	 0.492467509011371 
1763	 0.492362632912906 
1764	 0.492196924833101 
1765	 0.492021782532319 
1766	 0.491871348822192 
1767	 0.491712094493756 
1768	 0.491616728758994 
1769	 0.491533772194655 
1770	 0.491384423792249 
1771	 0.49126022698963 
1772	 0.491159215490466 
1773	 0.491040204776015 
1774	 0.490960759215412 
1775	 0.490901369640386 
1776	 0.490791488857758 
1777	 0.490642757734874 
1778	 0.490509436153786 
1779	 0.490398556195014 
1780	 0.490309803049069 
1781	 0.490257149143368 
1782	 0.490202735578174 
1783	 0.490135600158992 
1784	 0.49006931824602 
1785	 0.4900134939269 
1786	 0.48994824220856 
1787	 0.489867810422072 
1788	 0.489787913670699 
1789	 0.489693489784031 
1790	 0.489635726541214 
1791	 0.489606320759347 
1792	 0.489552891669743 
1793	 0.48951470195677 
1794	 0.489453475120835 
1795	 0.489358569061313 
1796	 0.489290675948165 
1797	 0.489234852011459 
1798	 0.489177843084658 
1799	 0.489118558644231 
1800	 0.489054433467828 
1801	 0.488690533842723 
1802	 0.488896641961726 
1803	 0.489124220643449 
1804	 0.489371773670304 
1805	 0.489586194023789 
1806	 0.489747923854205 
1807	 0.489925993085253 
1808	 0.490040556996737 
1809	 0.490084498819842 
1810	 0.490135226308696 
1811	 0.490184284341323 
1812	 0.490165442627035 
1813	 0.490150519015068 
1814	 0.490137826841829 
1815	 0.490070895205671 
1816	 0.49001777966598 
1817	 0.489974686552478 
1818	 0.489904596620148 
1819	 0.489872591505964 
1820	 0.489890214182727 
1821	 0.489864321644944 
1822	 0.489802537558498 
1823	 0.489744050665676 
1824	 0.489656247833501 
1825	 0.489582066114933 
1826	 0.489491455065176 
1827	 0.489346978799266 
1828	 0.489202702847286 
1829	 0.4889971432723 
1830	 0.488840365030881 
1831	 0.488697011238381 
1832	 0.488584668671988 
1833	 0.488432088278224 
1834	 0.48824304761383 
1835	 0.488068897229572 
1836	 0.487908382420067 
1837	 0.487759752103876 
1838	 0.487659660341593 
1839	 0.487570307515051 
1840	 0.487501785688069 
1841	 0.487410235692426 
1842	 0.487363254131707 
1843	 0.487341461556615 
1844	 0.487346350940023 
1845	 0.48734401453999 
1846	 0.487330777401549 
1847	 0.487324924058927 
1848	 0.487249351746748 
1849	 0.48717594063157 
1850	 0.487116262864957 
1851	 0.487063843905433 
1852	 0.486985914266153 
1853	 0.486932717919825 
1854	 0.486883997548301 
1855	 0.486829396378471 
1856	 0.486764549822866 
1857	 0.486677754235232 
1858	 0.486572361119458 
1859	 0.486439310499018 
1860	 0.486258309495852 
1861	 0.486041137158668 
1862	 0.485798316590025 
1863	 0.48549369844315 
1864	 0.485105736247994 
1865	 0.484696906747834 
1866	 0.484235184515497 
1867	 0.48376278765669 
1868	 0.483297067004269 
1869	 0.482823300049894 
1870	 0.482378527342682 
1871	 0.48190533060311 
1872	 0.481423017199024 
1873	 0.480927282279727 
1874	 0.480436497368006 
1875	 0.479948826204173 
1876	 0.479422910806366 
1877	 0.47886482496349 
1878	 0.478209006937758 
1879	 0.477420866774324 
1880	 0.476524400818139 
1881	 0.475517342979813 
1882	 0.474395033160785 
1883	 0.473175445632837 
1884	 0.471805203138553 
1885	 0.470325971686738 
1886	 0.468747146384866 
1887	 0.467027501463465 
1888	 0.465241811683273 
1889	 0.463327413787422 
1890	 0.461291248600993 
1891	 0.459223057964723 
1892	 0.457027337980839 
1893	 0.45484591719021 
1894	 0.452610463665615 
1895	 0.450388204314139 
1896	 0.448167253818946 
1897	 0.44592951152358 
1898	 0.44369687208552 
1899	 0.441566670284225 
1900	 0.439524470573618 
1901	 0.437596375397461 
1902	 0.43581139317006 
1903	 0.434199760518104 
1904	 0.432663684607225 
1905	 0.431230971006697 
1906	 0.429927385056161 
1907	 0.428739792765507 
1908	 0.427619662299001 
1909	 0.426558739432687 
1910	 0.42555375715502 
1911	 0.424613924464409 
1912	 0.42370228860094 
1913	 0.422844905196838 
1914	 0.422045383066487 
1915	 0.421297366176209 
1916	 0.420585780781346 
1917	 0.419938085046635 
1918	 0.41934828660001 
1919	 0.418826763004587 
1920	 0.418389416788367 
1921	 0.418005933635192 
1922	 0.417702272522382 
1923	 0.417439298764402 
1924	 0.417194398575814 
1925	 0.416979483628837 
1926	 0.416804480709244 
1927	 0.416648737613297 
1928	 0.416543727109773 
1929	 0.416507942307899 
1930	 0.416509722586353 
1931	 0.416500226451571 
1932	 0.416512974270176 
1933	 0.416535746868515 
1934	 0.416539552770666 
1935	 0.416602787862696 
1936	 0.416710827949465 
1937	 0.41683307242448 
1938	 0.416996634044331 
1939	 0.417169843267531 
1940	 0.417354541593456 
1941	 0.417564417974285 
1942	 0.41780281018265 
1943	 0.418069447474716 
1944	 0.418350466735532 
1945	 0.418647148164041 
1946	 0.418941367034481 
1947	 0.41923953847103 
1948	 0.419525728145917 
1949	 0.419814388316657 
1950	 0.420106874056408 
1951	 0.420384713608421 
1952	 0.420680862766743 
1953	 0.421000082421983 
1954	 0.42133494507174 
1955	 0.421679048570081 
1956	 0.422024868795266 
1957	 0.422387285552665 
1958	 0.422752874313827 
1959	 0.423136932581095 
1960	 0.423553363160289 
1961	 0.423956999023921 
1962	 0.424359238413015 
1963	 0.424774667281026 
1964	 0.425180458255106 
1965	 0.425617959903148 
1966	 0.42608574066279 
1967	 0.426527227700831 
1968	 0.426971482109119 
1969	 0.42741944460545 
1970	 0.427859468635153 
1971	 0.428299567884941 
1972	 0.428729960949663 
1973	 0.429137072753809 
1974	 0.429570080565127 
1975	 0.430009025650959 
1976	 0.430436581676622 
1977	 0.430906302761189 
1978	 0.431397477703428 
1979	 0.431854595592308 
1980	 0.432346084566236 
1981	 0.432813110725212 
1982	 0.43325536056857 
1983	 0.433719970570488 
1984	 0.434197151750977 
1985	 0.434661765218633 
1986	 0.435142783124969 
1987	 0.435605751890262 
1988	 0.436055432707493 
1989	 0.436490457605502 
1990	 0.436928623137231 
1991	 0.437363497945458 
1992	 0.437810935024124 
1993	 0.43826922356474 
1994	 0.438716999910367 
1995	 0.43915997950461 
1996	 0.439615531620891 
1997	 0.440081098004067 
1998	 0.440537584403641 
1999	 0.440998649139097 
2000	 0.441456924483311 
2001	 0.441916413408514 
2002	 0.442345961004004 
2003	 0.442789642450836 
2004	 0.44327359280061 
2005	 0.443740349782778 
2006	 0.444213956559499 
2007	 0.444678586040558 
2008	 0.445150475749725 
2009	 0.445598726448254 
2010	 0.446042922025695 
2011	 0.446466142976025 
2012	 0.446833908140989 
2013	 0.44724855523096 
2014	 0.447670108973043 
2015	 0.448112692493422 
2016	 0.448547696366089 
2017	 0.44898360205055 
2018	 0.449400803897653 
2019	 0.449782902822253 
2020	 0.450177098829212 
2021	 0.450580024832946 
2022	 0.450971488225809 
2023	 0.451349538961045 
2024	 0.451731681955766 
2025	 0.452112690017592 
2026	 0.452489475528387 
2027	 0.452858523773537 
2028	 0.453235044816628 
2029	 0.453607996723714 
2030	 0.453986536574253 
2031	 0.454341114982744 
2032	 0.45470212937937 
2033	 0.455018640513433 
2034	 0.455284781865808 
2035	 0.455583262774837 
2036	 0.455861904648935 
2037	 0.456156798222927 
2038	 0.456474332150925 
2039	 0.456785545177757 
2040	 0.457073202338043 
2041	 0.457415993659846 
2042	 0.457734692787741 
2043	 0.458020415050391 
2044	 0.458287964772447 
2045	 0.458521056359299 
2046	 0.458758791349907 
2047	 0.458985959136208 
2048	 0.459203318971632 
2049	 0.459416303852553 
2050	 0.459615837465652 
2051	 0.459775880049479 
2052	 0.459966295988266 
2053	 0.460147525628408 
2054	 0.460357735849333 
2055	 0.46059843685748 
2056	 0.460856675533361 
2057	 0.461087184990997 
2058	 0.461331928420225 
2059	 0.461546486853451 
2060	 0.461754960143545 
2061	 0.461911861309524 
2062	 0.462030603787588 
2063	 0.462149157996678 
2064	 0.462196202989401 
2065	 0.462300139412707 
2066	 0.46243249495171 
2067	 0.462565749318559 
2068	 0.462709776134443 
2069	 0.462876088984544 
2070	 0.463020016937469 
2071	 0.463154665357003 
2072	 0.463302571199503 
2073	 0.463459843176276 
2074	 0.463595541261368 
2075	 0.463727854650017 
2076	 0.463862369878569 
2077	 0.463978424969367 
2078	 0.464102852926008 
2079	 0.464241456236759 
2080	 0.464373920580125 
2081	 0.464489730238685 
2082	 0.464619654777689 
2083	 0.464775467557091 
2084	 0.464916465224441 
2085	 0.465017192260577 
2086	 0.465106729183624 
2087	 0.465178182878585 
2088	 0.465191463004447 
2089	 0.465248331187171 
2090	 0.465309298384217 
2091	 0.465386533091523 
2092	 0.465478700553242 
2093	 0.465572707561728 
2094	 0.465690507717938 
2095	 0.465790848768848 
2096	 0.465894869629526 
2097	 0.465981838041981 
2098	 0.466044531304057 
2099	 0.46612568792508 
2100	 0.466185073167813 
2101	 0.466221969786907 
2102	 0.466283396906071 
2103	 0.466327503952821 
2104	 0.466419013178683 
2105	 0.466537334445702 
2106	 0.466666850066068 
2107	 0.466834230499521 
2108	 0.466993347959056 
2109	 0.46715566948188 
2110	 0.467328217456846 
2111	 0.467512144290386 
2112	 0.467696489996157 
2113	 0.467886566192694 
2114	 0.468095045563401 
2115	 0.468267329261083 
2116	 0.468423609694993 
2117	 0.468590585274566 
2118	 0.468737482017953 
2119	 0.468904828826507 
2120	 0.469094863937401 
2121	 0.46926787264142 
2122	 0.469429885547339 
2123	 0.469604099350874 
2124	 0.46978707523321 
2125	 0.469958086402668 
2126	 0.470149224213594 
2127	 0.470305543294012 
2128	 0.47045989380647 
2129	 0.470569978146592 
2130	 0.4706593993511 
2131	 0.470688934851554 
2132	 0.470721634508736 
2133	 0.470715532117841 
2134	 0.470710786235147 
2135	 0.470698839158078 
2136	 0.470671162292949 
2137	 0.470644090349572 
2138	 0.470566397716223 
2139	 0.470484509222051 
2140	 0.470336073504376 
2141	 0.470104679219287 
2142	 0.469887184616001 
2143	 0.469646190801843 
2144	 0.469376609108728 
2145	 0.469094378005006 
2146	 0.468789365275034 
2147	 0.468434015266654 
2148	 0.468099036323362 
2149	 0.467704272662126 
2150	 0.467293827592959 
2151	 0.466839754642065 
2152	 0.466335779095919 
2153	 0.465808598753912 
2154	 0.465263133010792 
2155	 0.464668504745306 
2156	 0.464027844497604 
2157	 0.463361190166516 
2158	 0.462641516160857 
2159	 0.461921299065709 
2160	 0.46119382652495 
2161	 0.460422623406104 
2162	 0.459658586946397 
2163	 0.458817567677805 
2164	 0.457903252685486 
2165	 0.456957633545141 
2166	 0.455990455498011 
2167	 0.454975509000383 
2168	 0.453939725771033 
2169	 0.452881531654568 
2170	 0.451797144245978 
2171	 0.450688161515286 
2172	 0.449524586955435 
2173	 0.448345936872658 
2174	 0.447098446772645 
2175	 0.44576646894187 
2176	 0.444426407477206 
2177	 0.443054216216396 
2178	 0.441640098524374 
2179	 0.440197005757998 
2180	 0.438709827945057 
2181	 0.437141323159157 
2182	 0.435586659059738 
2183	 0.434018757897926 
2184	 0.432421681018597 
2185	 0.430811455483725 
2186	 0.42916875466989 
2187	 0.427581383466743 
2188	 0.425950412964701 
2189	 0.424432616889439 
2190	 0.422942014082441 
2191	 0.4215871498363 
2192	 0.420279565566561 
2193	 0.419135948497302 
2194	 0.418129290047207 
2195	 0.417239316897206 
2196	 0.416477439145399 
2197	 0.415832827651705 
2198	 0.415308024486079 
2199	 0.414913152764562 
2200	 0.414645448265996 
2201	 0.414509142202273 
2202	 0.414517218042616 
2203	 0.414638499697609 
2204	 0.414888548416586 
2205	 0.415259354506627 
2206	 0.415787777914271 
2207	 0.416463255512012 
2208	 0.417251023546069 
2209	 0.418232175162383 
2210	 0.419222666051956 
2211	 0.420337551474435 
2212	 0.421449665135948 
2213	 0.422621798238001 
2214	 0.423801514158501 
2215	 0.425051051629307 
2216	 0.42624206134781 
2217	 0.427479450327001 
2218	 0.428618484284235 
2219	 0.429727205197649 
2220	 0.430739869148554 
2221	 0.431667787144766 
2222	 0.43252882796774 
2223	 0.433342724617007 
2224	 0.434069698362892 
2225	 0.434743981081116 
2226	 0.435373846297252 
2227	 0.435910264286126 
2228	 0.436343788995971 
2229	 0.436765199819371 
2230	 0.43711152667742 
2231	 0.437458260665035 
2232	 0.437782125039991 
2233	 0.438068813944166 
2234	 0.438334274099842 
2235	 0.438542405528299 
2236	 0.438700857717046 
2237	 0.438833108189454 
2238	 0.438903385465346 
2239	 0.438976358769743 
2240	 0.43903890558759 
2241	 0.43906278249586 
2242	 0.439036230219565 
2243	 0.439030274466083 
2244	 0.439033379442392 
2245	 0.438995517023046 
2246	 0.438918404904728 
2247	 0.438814620849004 
2248	 0.438677146362587 
2249	 0.438447405812357 
2250	 0.438293731577423 
2251	 0.438161888224259 
2252	 0.438010198893868 
2253	 0.437833928372658 
2254	 0.437722812514302 
2255	 0.437637550923953 
2256	 0.437554747341354 
2257	 0.437540002173356 
2258	 0.437473036694575 
2259	 0.437353004190166 
2260	 0.437280032320188 
2261	 0.437198382874834 
2262	 0.437165609203167 
2263	 0.437141473656535 
2264	 0.437192216521572 
2265	 0.437347082807148 
2266	 0.437448846515079 
2267	 0.437578136661213 
2268	 0.437718882446875 
2269	 0.437853281609828 
2270	 0.437964869190375 
2271	 0.438128944045152 
2272	 0.438226950576804 
2273	 0.438281252626769 
2274	 0.438366611729205 
2275	 0.438470609239906 
2276	 0.438599382213359 
2277	 0.438705943540836 
2278	 0.438830709537343 
2279	 0.438921360346006 
2280	 0.438983118560422 
2281	 0.439050578364078 
2282	 0.439101555930351 
2283	 0.43917087389749 
2284	 0.439260159923305 
2285	 0.439309364619693 
2286	 0.439362631232054 
2287	 0.439384338868289 
2288	 0.439340767633975 
2289	 0.43933812436787 
2290	 0.43937721782997 
2291	 0.439349082975643 
2292	 0.439297401511469 
2293	 0.439238279442886 
2294	 0.439134150371282 
2295	 0.439007518395661 
2296	 0.438850929467312 
2297	 0.438741604180074 
2298	 0.438559538699973 
2299	 0.438365562397487 
2300	 0.438187381781093 
2301	 0.437988742794702 
2302	 0.437786930127442 
2303	 0.437550982131432 
2304	 0.437289868370219 
2305	 0.437030120065386 
2306	 0.436786620393567 
2307	 0.4365336634649 
2308	 0.436304797393955 
2309	 0.43610942868419 
2310	 0.435885094476904 
2311	 0.435676683341701 
2312	 0.435401372013809 
2313	 0.435102070279224 
2314	 0.434776794295404 
2315	 0.434361155790532 
2316	 0.434020828319917 
2317	 0.433738291409876 
2318	 0.433375933487732 
2319	 0.432980613160913 
2320	 0.432610975620743 
2321	 0.432163812016976 
2322	 0.431787844150398 
2323	 0.431518907143816 
2324	 0.431186415829065 
2325	 0.430840296353348 
2326	 0.430499428545144 
2327	 0.430157889332906 
2328	 0.429771775527987 
2329	 0.429359625865114 
2330	 0.42900155167232 
2331	 0.428645436341303 
2332	 0.42820913286829 
2333	 0.427836012384198 
2334	 0.427480030202508 
2335	 0.427060921737704 
2336	 0.426624175092236 
2337	 0.426177814245445 
2338	 0.425741123394736 
2339	 0.425346585640213 
2340	 0.425001684398891 
2341	 0.424626951291007 
2342	 0.424238752665258 
2343	 0.423902568269854 
2344	 0.423588792699637 
2345	 0.423300746689696 
2346	 0.423102709745223 
2347	 0.422868703130657 
2348	 0.42257463406058 
2349	 0.422386241263255 
2350	 0.422258325846499 
2351	 0.42215164541706 
2352	 0.422130554477031 
2353	 0.42207246931757 
2354	 0.421986078521499 
2355	 0.421963214236293 
2356	 0.421986927500435 
2357	 0.421991607586345 
2358	 0.422065338463263 
2359	 0.422103679643024 
2360	 0.422089528199232 
2361	 0.422076782588894 
2362	 0.422073658064262 
2363	 0.422044508938494 
2364	 0.421999873002219 
2365	 0.421926154364446 
2366	 0.421848974140702 
2367	 0.421719908565956 
2368	 0.421551906329338 
2369	 0.421377715767154 
2370	 0.421155153707967 
2371	 0.420939819797668 
2372	 0.42075407438444 
2373	 0.420465388712411 
2374	 0.420286330433561 
2375	 0.420032358953051 
2376	 0.419706538765305 
2377	 0.419463424918238 
2378	 0.419125016506057 
2379	 0.418810672427871 
2380	 0.418535615334512 
2381	 0.418217104860934 
2382	 0.417846812056938 
2383	 0.417492470047799 
2384	 0.417135961773223 
2385	 0.416690243770484 
2386	 0.416362848415571 
2387	 0.41607953941062 
2388	 0.4157793802179 
2389	 0.415553944315146 
2390	 0.415277542033475 
2391	 0.414977941322814 
2392	 0.414660823798639 
2393	 0.414332646385302 
2394	 0.41402575567074 
2395	 0.413638840307534 
2396	 0.413260840918732 
2397	 0.412985065448744 
2398	 0.412607531472191 
2399	 0.41214204549017 
2400	 0.411723105328588 
2401	 0.411184125833586 
2402	 0.410611870016843 
2403	 0.410106050865607 
2404	 0.409540246293128 
2405	 0.408899136037181 
2406	 0.408171687393895 
2407	 0.407464685221922 
2408	 0.406719211787442 
2409	 0.40595485559798 
2410	 0.405330261726427 
2411	 0.404640502642565 
2412	 0.403992389668582 
2413	 0.403439335548035 
2414	 0.402781514593944 
2415	 0.402135680658307 
2416	 0.401447966424337 
2417	 0.400632686306639 
2418	 0.399928644513367 
2419	 0.399324226056036 
2420	 0.398663175307641 
2421	 0.398007462742647 
2422	 0.397363225270742 
2423	 0.396659220594858 
2424	 0.395983943236076 
2425	 0.395390297171694 
2426	 0.394730405441297 
2427	 0.39402812313768 
2428	 0.393390494189593 
2429	 0.39269234136873 
2430	 0.392073960366517 
2431	 0.391608228074341 
2432	 0.390999921669494 
2433	 0.390360795150925 
2434	 0.38977696113982 
2435	 0.389097655910954 
2436	 0.38842082685585 
2437	 0.387771239770844 
2438	 0.387271816811704 
2439	 0.386877566622728 
2440	 0.38643856029769 
2441	 0.38606681263322 
2442	 0.385624225529928 
2443	 0.385058594333968 
2444	 0.384646509807263 
2445	 0.384389783728552 
2446	 0.38399799068902 
2447	 0.383546536912051 
2448	 0.383163949415181 
2449	 0.382779168799837 
2450	 0.382393291675911 
2451	 0.382064460937423 
2452	 0.381713995798835 
2453	 0.38129416292281 
2454	 0.380970207687883 
2455	 0.380743659106771 
2456	 0.380410176081642 
2457	 0.380012491457934 
2458	 0.379836196795508 
2459	 0.379704907305037 
2460	 0.379492479310077 
2461	 0.379418295867363 
2462	 0.379220691212345 
2463	 0.378937320491693 
2464	 0.37864925822019 
2465	 0.37832527609465 
2466	 0.378045540948448 
2467	 0.377702604819384 
2468	 0.377384548613438 
2469	 0.37721504137508 
2470	 0.377059208677941 
2471	 0.376650481681006 
2472	 0.376345847793956 
2473	 0.375949390606922 
2474	 0.375276211185242 
2475	 0.374723293810041 
2476	 0.374189326628122 
2477	 0.373723814872886 
2478	 0.373479463444981 
2479	 0.373127161237426 
2480	 0.372764728763449 
2481	 0.372510469214904 
2482	 0.372122500918363 
2483	 0.371640815493595 
2484	 0.371364194280699 
2485	 0.371133124474678 
2486	 0.370717255422016 
2487	 0.370539570872084 
2488	 0.37030301554592 
2489	 0.369883133699643 
2490	 0.369658577120492 
2491	 0.369405253333626 
2492	 0.369170431953911 
2493	 0.368903636754601 
2494	 0.368672082846162 
2495	 0.368753927062943 
2496	 0.368751102361404 
2497	 0.368427520705648 
2498	 0.368227049859585 
2499	 0.367811187982246 
2500	 0.367298208173474 
