Wavelength	LMW_13_a00001.asd
350	 5.78327985845689E-02 
351	 0.062418382331321 
352	 0.059114170566117 
353	 0.048502997712632 
354	 5.79251027903581E-02 
355	 6.12080029064963E-02 
356	 5.34835586673402E-02 
357	 0.041296744464868 
358	 5.14456967983849E-02 
359	 5.31757062266235E-02 
360	 4.67205625644873E-02 
361	 5.11257294578368E-02 
362	 0.047961551871465 
363	 4.43204785355918E-02 
364	 4.41333727201298E-02 
365	 4.13443167245363E-02 
366	 4.06227179203058E-02 
367	 4.08919079103495E-02 
368	 4.06021760892632E-02 
369	 4.25714417039253E-02 
370	 0.047032458583641 
371	 4.97842791513026E-02 
372	 4.49532139395435E-02 
373	 4.51124592576381E-02 
374	 4.61149395592401E-02 
375	 4.52824117162497E-02 
376	 4.64766536064215E-02 
377	 4.68248962984471E-02 
378	 4.59518793084311E-02 
379	 4.49798528052838E-02 
380	 4.81385242498307E-02 
381	 4.85997701367105E-02 
382	 4.68651253880193E-02 
383	 4.87032599244797E-02 
384	 4.92494427645037E-02 
385	 4.79466765659525E-02 
386	 4.67416002758987E-02 
387	 5.16068379363352E-02 
388	 5.24649200439667E-02 
389	 5.08906555466023E-02 
390	 5.13127292723722E-02 
391	 5.19830758331676E-02 
392	 5.34378300609612E-02 
393	 5.55187453871219E-02 
394	 5.73707655629654E-02 
395	 5.66736693950407E-02 
396	 5.70720113710214E-02 
397	 5.98497879638233E-02 
398	 5.90370678479495E-02 
399	 5.92233631871805E-02 
400	 6.05884439450761E-02 
401	 6.17107277971988E-02 
402	 6.19549727912185E-02 
403	 6.22539317110312E-02 
404	 6.27957000904548E-02 
405	 6.29636755422913E-02 
406	 6.41633791191759E-02 
407	 0.065429931671788 
408	 0.065734999503735 
409	 6.49613022745588E-02 
410	 6.41920295373266E-02 
411	 6.37217779908077E-02 
412	 0.063556120120389 
413	 6.49039326401687E-02 
414	 6.54864247725888E-02 
415	 6.47552700903797E-02 
416	 6.46869307460546E-02 
417	 6.41356729007069E-02 
418	 6.34733115932892E-02 
419	 6.32155813874326E-02 
420	 6.33087678053987E-02 
421	 6.24383063236798E-02 
422	 6.13121737208471E-02 
423	 6.16467117774931E-02 
424	 6.09160677068647E-02 
425	 6.00852235475726E-02 
426	 5.97821062243037E-02 
427	 5.92076118550533E-02 
428	 5.86660728958426E-02 
429	 5.82268795527472E-02 
430	 5.78822927175859E-02 
431	 5.75545081961278E-02 
432	 0.057406412106904 
433	 5.76136559164043E-02 
434	 5.83242618038833E-02 
435	 5.88444326123964E-02 
436	 5.93825600215362E-02 
437	 6.01117592986605E-02 
438	 6.05526811104854E-02 
439	 6.14480426457483E-02 
440	 6.25825200349343E-02 
441	 6.33784705841918E-02 
442	 6.46071721629391E-02 
443	 6.57075275943124E-02 
444	 6.64249043624054E-02 
445	 6.71311577613785E-02 
446	 6.79733950626023E-02 
447	 6.90042374802925E-02 
448	 7.01737527120173E-02 
449	 7.12640192624865E-02 
450	 7.21172234142348E-02 
451	 7.29103745325418E-02 
452	 7.40579491547473E-02 
453	 7.49757377586651E-02 
454	 7.58691037334055E-02 
455	 0.076943575869004 
456	 7.81027401312092E-02 
457	 7.90760220979621E-02 
458	 7.98291063924758E-02 
459	 8.04801155915105E-02 
460	 8.12468511775131E-02 
461	 8.20574691569184E-02 
462	 8.28505224319988E-02 
463	 8.36146235277274E-02 
464	 8.45923212697617E-02 
465	 8.56203533911654E-02 
466	 8.65008237685327E-02 
467	 8.74292536942522E-02 
468	 8.80505625415136E-02 
469	 8.85159115072829E-02 
470	 8.93656293707533E-02 
471	 9.04949569377447E-02 
472	 9.13255951905497E-02 
473	 9.16782514230292E-02 
474	 9.24860118080485E-02 
475	 9.31805652131959E-02 
476	 9.37691087462458E-02 
477	 9.44732365367012E-02 
478	 9.52226360020847E-02 
479	 9.58132585895238E-02 
480	 9.62758964499457E-02 
481	 9.69744981818094E-02 
482	 9.76741242733217E-02 
483	 9.83546442236131E-02 
484	 0.099005818982821 
485	 9.94273113529229E-02 
486	 9.98137887893315E-02 
487	 0.100208980923675 
488	 0.100547665410517 
489	 0.101336117657491 
490	 0.101894918149865 
491	 0.101860047875775 
492	 0.102106421204225 
493	 0.102473362178134 
494	 0.102853627214212 
495	 0.103172540178841 
496	 0.103634548532033 
497	 0.103879005737122 
498	 0.103915261425272 
499	 0.10438137107657 
500	 0.104587365284702 
501	 0.104652844132279 
502	 0.104849960556381 
503	 0.105017367428037 
504	 0.10509687900789 
505	 0.105127907459184 
506	 0.105233933426501 
507	 0.105506042965663 
508	 0.105694376968707 
509	 0.105660878843005 
510	 0.105733400466424 
511	 0.105829686811313 
512	 0.105901527197594 
513	 0.10592938683797 
514	 0.106010838533118 
515	 0.106196041899249 
516	 0.106422781831082 
517	 0.106454925430374 
518	 0.106405310014934 
519	 0.10632303724945 
520	 0.106265735533446 
521	 0.106419134791299 
522	 0.106549301468116 
523	 0.106577776983306 
524	 0.106612954538863 
525	 0.106700641349997 
526	 0.106753272163283 
527	 0.106712686792016 
528	 0.106691036076902 
529	 0.106842439077899 
530	 0.107041245131225 
531	 0.10700908684236 
532	 0.107002862928546 
533	 0.107064094031377 
534	 0.107160131766825 
535	 0.107162190915429 
536	 0.107238520973502 
537	 0.107363243961345 
538	 0.107450111485759 
539	 0.107579993716422 
540	 0.107638446650137 
541	 0.107650663182396 
542	 0.107844216527268 
543	 0.1079992572993 
544	 0.108085649821677 
545	 0.108160763592968 
546	 0.108420180099049 
547	 0.108598005462661 
548	 0.108672037655508 
549	 0.108828622475892 
550	 0.10893043881184 
551	 0.109009600555389 
552	 0.109137883192621 
553	 0.109435038148059 
554	 0.109618960365322 
555	 0.109732597844746 
556	 0.109966174915833 
557	 0.110126961856486 
558	 0.110292278711733 
559	 0.110532904289948 
560	 0.110866868205173 
561	 0.111145747815537 
562	 0.11138163542724 
563	 0.111629852315212 
564	 0.11182007758772 
565	 0.112051879450862 
566	 0.112389715390805 
567	 0.112845349474735 
568	 0.113256909289382 
569	 0.113571348062084 
570	 0.113798316765351 
571	 0.114025561527674 
572	 0.114317242198803 
573	 0.11469269582147 
574	 0.115126238358111 
575	 0.115491191215333 
576	 0.115883210448529 
577	 0.116357675554898 
578	 0.116792067487395 
579	 0.117324142861481 
580	 0.117903666104484 
581	 0.118420309183709 
582	 0.118982434400325 
583	 0.119418710058235 
584	 0.119717644068839 
585	 0.120125225218047 
586	 0.120508217481649 
587	 0.120932719286529 
588	 0.121489591256891 
589	 0.122161054227859 
590	 0.12276630442206 
591	 0.123255858286686 
592	 0.123712276232532 
593	 0.124198782906669 
594	 0.124756982496577 
595	 0.125401766560123 
596	 0.126124919665425 
597	 0.126788698538791 
598	 0.127344394744529 
599	 0.127810201780553 
600	 0.128267481567841 
601	 0.128649708333192 
602	 0.128973579683566 
603	 0.129443369886774 
604	 0.129923602731964 
605	 0.130406151046555 
606	 0.130912087795563 
607	 0.131378396876308 
608	 0.131879888832979 
609	 0.132406539898486 
610	 0.132846103780181 
611	 0.13313989415559 
612	 0.133432041380891 
613	 0.133826379579162 
614	 0.134112078936254 
615	 0.134405212136087 
616	 0.134717652336678 
617	 0.134991261303662 
618	 0.135293664384342 
619	 0.135555942076423 
620	 0.135756909066797 
621	 0.136018574613021 
622	 0.136288987936089 
623	 0.136559286743289 
624	 0.136824835998439 
625	 0.137014303644572 
626	 0.137174184024127 
627	 0.137366762441834 
628	 0.137662451127241 
629	 0.137859454053944 
630	 0.137997179841823 
631	 0.138170276743567 
632	 0.138395554053843 
633	 0.138652934917685 
634	 0.138860064086561 
635	 0.138910567713429 
636	 0.139122479915575 
637	 0.139378340539162 
638	 0.139553144669377 
639	 0.139694865405058 
640	 0.139860669364911 
641	 0.140052462267506 
642	 0.140242834593865 
643	 0.140425967891918 
644	 0.140606574667414 
645	 0.140787744820767 
646	 0.140967547041797 
647	 0.141158247193185 
648	 0.141327024409448 
649	 0.141454494529285 
650	 0.141626521709216 
651	 0.141840178618384 
652	 0.142064962983045 
653	 0.142252892419452 
654	 0.142444842837629 
655	 0.142609272082562 
656	 0.142736204256663 
657	 0.142895084190597 
658	 0.143090242044601 
659	 0.143306213755143 
660	 0.143515187091123 
661	 0.143709301836057 
662	 0.143858434356453 
663	 0.1439955400457 
664	 0.144245305560516 
665	 0.144531370730592 
666	 0.144723678043845 
667	 0.144772811460397 
668	 0.145008593376223 
669	 0.145282105271758 
670	 0.145511999774989 
671	 0.145687086798837 
672	 0.145798144396452 
673	 0.146021737495841 
674	 0.146388792433709 
675	 0.146510125883947 
676	 0.146655783329803 
677	 0.146866095992968 
678	 0.147087608474685 
679	 0.14733489062493 
680	 0.147558394397042 
681	 0.147741711357852 
682	 0.147916667040812 
683	 0.148130728001889 
684	 0.148380851739796 
685	 0.14863521129695 
686	 0.148815858084395 
687	 0.149031258925748 
688	 0.149279004788019 
689	 0.149481073277644 
690	 0.149682850091104 
691	 0.149933820670092 
692	 0.150227362232641 
693	 0.150447355336762 
694	 0.150626466460926 
695	 0.15084546719241 
696	 0.151157662453519 
697	 0.151352653106644 
698	 0.151540612881162 
699	 0.151776682195856 
700	 0.152035216456851 
701	 0.152226908614933 
702	 0.15242069009459 
703	 0.152666798128473 
704	 0.152855604715966 
705	 0.15308926498646 
706	 0.153336584435808 
707	 0.153513536806798 
708	 0.153724834092493 
709	 0.153936608958353 
710	 0.154137838229038 
711	 0.154373265909982 
712	 0.154581532644991 
713	 0.154760529596456 
714	 0.154921097362389 
715	 0.15503640079942 
716	 0.155246547149681 
717	 0.155503689469281 
718	 0.155636135264523 
719	 0.155773514221563 
720	 0.155902666516379 
721	 0.156014216186217 
722	 0.156144207276804 
723	 0.156285176664957 
724	 0.156429804930356 
725	 0.15656151928028 
726	 0.156621645969221 
727	 0.15670748800017 
728	 0.15681105502421 
729	 0.156827725605845 
730	 0.156852566188114 
731	 0.156947709210208 
732	 0.157085377893205 
733	 0.157030967431356 
734	 0.157042342999889 
735	 0.157068491293837 
736	 0.15697517962449 
737	 0.156954616981238 
738	 0.156956575177065 
739	 0.15693232567073 
740	 0.156857171588271 
741	 0.156787521558663 
742	 0.156713225267181 
743	 0.156611082969241 
744	 0.156460136888142 
745	 0.156310975777217 
746	 0.156177474545567 
747	 0.15604539489125 
748	 0.155847878673129 
749	 0.155657073585357 
750	 0.155503997906956 
751	 0.155354267647579 
752	 0.155156422549525 
753	 0.154952732148647 
754	 0.154768156380646 
755	 0.154497936668255 
756	 0.154278056432166 
757	 0.154076842880479 
758	 0.15379625158443 
759	 0.153555032487865 
760	 0.153243005667889 
761	 0.152883611455882 
762	 0.152684879534896 
763	 0.152408434490241 
764	 0.152103545913304 
765	 0.151840617183912 
766	 0.151545753723405 
767	 0.151230093275732 
768	 0.150886190025839 
769	 0.150513924228081 
770	 0.15022015833445 
771	 0.14994337412758 
772	 0.149639066377612 
773	 0.149304270550262 
774	 0.14895981480635 
775	 0.148628846705754 
776	 0.148320218970238 
777	 0.148009759304877 
778	 0.147678862855771 
779	 0.147361795995833 
780	 0.147093058254882 
781	 0.146745939744313 
782	 0.146373370448079 
783	 0.146014211317563 
784	 0.145677554730692 
785	 0.145402731759849 
786	 0.145100815822048 
787	 0.144736309920074 
788	 0.14446375443559 
789	 0.144161233961147 
790	 0.143824122764739 
791	 0.143487179889266 
792	 0.143137966719723 
793	 0.142849758384611 
794	 0.142615756682781 
795	 0.142355797717468 
796	 0.142013919586386 
797	 0.14164936717909 
798	 0.141327211907596 
799	 0.141088524900272 
800	 0.140799205019128 
801	 0.140471361757233 
802	 0.140172858236329 
803	 0.139993807695071 
804	 0.139770253279512 
805	 0.139473836183403 
806	 0.139171964658189 
807	 0.13889707474895 
808	 0.138604635829054 
809	 0.13831855697938 
810	 0.138156275099175 
811	 0.137986722710543 
812	 0.137740477062176 
813	 0.137415125157032 
814	 0.137128588543013 
815	 0.136915362356228 
816	 0.136729985630776 
817	 0.136508376287617 
818	 0.136311848438465 
819	 0.136122420323602 
820	 0.135917727827555 
821	 0.135680374089098 
822	 0.13544246772555 
823	 0.13524179041243 
824	 0.135090437840628 
825	 0.134962182896123 
826	 0.134729391406801 
827	 0.134472983321955 
828	 0.13430004561135 
829	 0.134206505643966 
830	 0.134036630736922 
831	 0.133830457848695 
832	 0.133707399596926 
833	 0.133608551172876 
834	 0.133462709974354 
835	 0.133288155181303 
836	 0.133178659122044 
837	 0.133043763163347 
838	 0.13291601389996 
839	 0.132804552349199 
840	 0.132645199401749 
841	 0.132510190713473 
842	 0.132398819620903 
843	 0.132295880529037 
844	 0.132211683733375 
845	 0.132132720026702 
846	 0.132023923728833 
847	 0.131869456033655 
848	 0.131805705162589 
849	 0.131746436344439 
850	 0.13165512735167 
851	 0.131555618894455 
852	 0.131500517050357 
853	 0.131457380886827 
854	 0.131415212519458 
855	 0.131411935427109 
856	 0.131388273850827 
857	 0.131368205664363 
858	 0.131352747041705 
859	 0.131222384270894 
860	 0.131153631056086 
861	 0.131150512342819 
862	 0.131152022224073 
863	 0.13112419436376 
864	 0.131102477119736 
865	 0.131107482620762 
866	 0.13113580906115 
867	 0.131100814581399 
868	 0.1311070610861 
869	 0.131158707346972 
870	 0.131149222756523 
871	 0.131139035109291 
872	 0.131198249985161 
873	 0.131304428777868 
874	 0.131291451945878 
875	 0.13129867779252 
876	 0.131290035365767 
877	 0.131246002616779 
878	 0.131295955087394 
879	 0.131438401474339 
880	 0.131582175177464 
881	 0.131645035225462 
882	 0.131732618876985 
883	 0.13182257278487 
884	 0.131889191525114 
885	 0.131928493846667 
886	 0.132064531515691 
887	 0.132229246063197 
888	 0.132358196714111 
889	 0.132421653101799 
890	 0.132542837263688 
891	 0.132667704002627 
892	 0.132762779826252 
893	 0.132851521726982 
894	 0.132952230311893 
895	 0.133079823472955 
896	 0.133244128732497 
897	 0.133450246745201 
898	 0.133620605766586 
899	 0.133766353409796 
900	 0.133925883125004 
901	 0.134145551883879 
902	 0.134268972863647 
903	 0.134376665311831 
904	 0.134579326696028 
905	 0.13476085903951 
906	 0.134992774024025 
907	 0.135221803233801 
908	 0.135379630850924 
909	 0.135645636908242 
910	 0.135855261802051 
911	 0.136027731582232 
912	 0.136288552647214 
913	 0.136522798835843 
914	 0.136732163305413 
915	 0.136946103771681 
916	 0.137207015544926 
917	 0.137534775519096 
918	 0.137769992514799 
919	 0.137925205945559 
920	 0.13821585479722 
921	 0.138517296599879 
922	 0.138791971739706 
923	 0.139050088259652 
924	 0.139347844112199 
925	 0.139578706130411 
926	 0.139822348819692 
927	 0.140146659262028 
928	 0.14052117294899 
929	 0.140874607310509 
930	 0.141206062123368 
931	 0.141512789428192 
932	 0.14173279873088 
933	 0.142064017418328 
934	 0.142462109546402 
935	 0.142830158777213 
936	 0.143155715736679 
937	 0.143481870262187 
938	 0.143837251969586 
939	 0.144227036280654 
940	 0.144604984174609 
941	 0.1449711579709 
942	 0.145370333223731 
943	 0.145828004638514 
944	 0.146231131457199 
945	 0.146573392160366 
946	 0.146932403727038 
947	 0.147366969251494 
948	 0.147672038402651 
949	 0.148091876031358 
950	 0.148605839768568 
951	 0.149061164177971 
952	 0.149442655884279 
953	 0.149863853740037 
954	 0.150282575736973 
955	 0.150622635756845 
956	 0.151153078598605 
957	 0.151669105447094 
958	 0.152059472872701 
959	 0.15234767389947 
960	 0.152802901566171 
961	 0.153331441996903 
962	 0.153900340706852 
963	 0.154494390482825 
964	 0.154874585929507 
965	 0.155369888484693 
966	 0.155917411607867 
967	 0.156260203240717 
968	 0.156824365962316 
969	 0.157332570686214 
970	 0.157749988213224 
971	 0.158226776045841 
972	 0.158745334460374 
973	 0.159237295594614 
974	 0.159716388599067 
975	 0.160241682335556 
976	 0.160753171061413 
977	 0.161339737623897 
978	 0.161865311614297 
979	 0.162169466730709 
980	 0.162826097505899 
981	 0.163396769221824 
982	 0.163861371720561 
983	 0.164449666137205 
984	 0.164985806825365 
985	 0.165569366227913 
986	 0.166082247493306 
987	 0.166387918157199 
988	 0.166895997038 
989	 0.167442444572388 
990	 0.16800022887403 
991	 0.16860201154823 
992	 0.169157396919304 
993	 0.16968118192772 
994	 0.170258514964004 
995	 0.170933910365429 
996	 0.171494949568588 
997	 0.171971556539423 
998	 0.172437070194138 
999	 0.172983906394322 
1000	 0.173727437786209 
1001	 0.173692673112143 
1002	 0.174204846172392 
1003	 0.174678029887015 
1004	 0.175177189287365 
1005	 0.175685265627304 
1006	 0.176148757152619 
1007	 0.176580796642707 
1008	 0.177074814698303 
1009	 0.177550584786726 
1010	 0.178054005002001 
1011	 0.178618285540562 
1012	 0.17917408988741 
1013	 0.179630800183325 
1014	 0.180100869423414 
1015	 0.180583076253002 
1016	 0.180993215890709 
1017	 0.181441365348304 
1018	 0.181903630293622 
1019	 0.182378496051922 
1020	 0.18285612854676 
1021	 0.183336317687852 
1022	 0.183797167926143 
1023	 0.184222953396868 
1024	 0.184600824141222 
1025	 0.185011664923975 
1026	 0.185421351756611 
1027	 0.185810467963465 
1028	 0.186170027184103 
1029	 0.186488446997835 
1030	 0.186824484994234 
1031	 0.187151061467873 
1032	 0.187473938333678 
1033	 0.187803201300082 
1034	 0.188141366132721 
1035	 0.188448379674717 
1036	 0.188758247770755 
1037	 0.189097770986867 
1038	 0.189413038227589 
1039	 0.189713970400306 
1040	 0.189993996847881 
1041	 0.190257781704485 
1042	 0.190582203602553 
1043	 0.19084545582973 
1044	 0.191098533206099 
1045	 0.191326180269319 
1046	 0.191634108796142 
1047	 0.191885695487502 
1048	 0.192135858600238 
1049	 0.192442096128566 
1050	 0.192680414406391 
1051	 0.192913482700516 
1052	 0.193169815968322 
1053	 0.193420271180736 
1054	 0.193705831355237 
1055	 0.193975373453928 
1056	 0.194268442809284 
1057	 0.194611550190853 
1058	 0.195031756393106 
1059	 0.195383947015609 
1060	 0.195724669037547 
1061	 0.196122776798082 
1062	 0.196462175377743 
1063	 0.196763325266834 
1064	 0.197131238893175 
1065	 0.197461446656058 
1066	 0.197776330233618 
1067	 0.198144720048845 
1068	 0.198553090447105 
1069	 0.198961393862815 
1070	 0.19937686015837 
1071	 0.199817156658586 
1072	 0.200256720856858 
1073	 0.200701825745324 
1074	 0.201136111543367 
1075	 0.201574689747717 
1076	 0.201999933278937 
1077	 0.202424909609719 
1078	 0.202851305279015 
1079	 0.20325624475203 
1080	 0.203694749534821 
1081	 0.20411709710553 
1082	 0.204508516253517 
1083	 0.204941078001479 
1084	 0.205418513733916 
1085	 0.205838210744186 
1086	 0.20626193323739 
1087	 0.206652034832578 
1088	 0.206990005883354 
1089	 0.207351451045468 
1090	 0.207721741355577 
1091	 0.208095256091405 
1092	 0.208524538509216 
1093	 0.208895333421996 
1094	 0.209217741105024 
1095	 0.209586935652229 
1096	 0.209921021475663 
1097	 0.210212261486976 
1098	 0.21050062202799 
1099	 0.210789386994418 
1100	 0.2110553703745 
1101	 0.211310990909975 
1102	 0.211534804406642 
1103	 0.211747624728028 
1104	 0.211914391898359 
1105	 0.212097132150848 
1106	 0.212286962316717 
1107	 0.212499063194827 
1108	 0.212723094856245 
1109	 0.212874687534846 
1110	 0.212988376871525 
1111	 0.213124308822873 
1112	 0.213245423372936 
1113	 0.213364545351063 
1114	 0.213491032359187 
1115	 0.213618120358064 
1116	 0.213739563948408 
1117	 0.213847686026918 
1118	 0.213974480597751 
1119	 0.214073986543645 
1120	 0.214089459052842 
1121	 0.214095354440443 
1122	 0.214146334489709 
1123	 0.214174311587731 
1124	 0.214216439509799 
1125	 0.2143184161054 
1126	 0.214353710202767 
1127	 0.214320180973114 
1128	 0.214355084454898 
1129	 0.214417538756509 
1130	 0.214451876397046 
1131	 0.214508726681721 
1132	 0.214545143331737 
1133	 0.21453691051903 
1134	 0.214555918650961 
1135	 0.214592410787731 
1136	 0.214630053541056 
1137	 0.214645424382943 
1138	 0.214655438815477 
1139	 0.214651078956192 
1140	 0.214612916150793 
1141	 0.214602159903067 
1142	 0.214591903848217 
1143	 0.21459799217219 
1144	 0.214628196741164 
1145	 0.214637539538889 
1146	 0.214642737657111 
1147	 0.214648576735007 
1148	 0.214661501930227 
1149	 0.214651599108778 
1150	 0.214619556591898 
1151	 0.214600697042956 
1152	 0.214607594154654 
1153	 0.214599275220101 
1154	 0.21461570139525 
1155	 0.214680453022434 
1156	 0.214709587154821 
1157	 0.214706115962904 
1158	 0.214745343734041 
1159	 0.214811074702731 
1160	 0.214855568711375 
1161	 0.214908496238756 
1162	 0.21496353840969 
1163	 0.214994774840007 
1164	 0.215048988952626 
1165	 0.215131129110389 
1166	 0.215198670504115 
1167	 0.215273189371115 
1168	 0.215367964082543 
1169	 0.215458332566583 
1170	 0.215556182043763 
1171	 0.215653456749708 
1172	 0.215749022907181 
1173	 0.215853141198682 
1174	 0.21596685324306 
1175	 0.216074949927304 
1176	 0.216191919928632 
1177	 0.216297029975693 
1178	 0.216376335139128 
1179	 0.216486484593378 
1180	 0.216616305050878 
1181	 0.216733171726139 
1182	 0.216861881088905 
1183	 0.216993152278772 
1184	 0.217107472318518 
1185	 0.217191306107634 
1186	 0.217316032383326 
1187	 0.217457353606331 
1188	 0.2175890751654 
1189	 0.217749886979351 
1190	 0.217870164831668 
1191	 0.21796068762798 
1192	 0.218063230051975 
1193	 0.218144745399177 
1194	 0.218245675057303 
1195	 0.218362379603855 
1196	 0.218474167543976 
1197	 0.218603854533467 
1198	 0.218711417742025 
1199	 0.218808818782089 
1200	 0.218894568942678 
1201	 0.218985597944558 
1202	 0.219056045982757 
1203	 0.219154628185301 
1204	 0.219259217241488 
1205	 0.219384154857644 
1206	 0.219550056026777 
1207	 0.219669892597285 
1208	 0.219783973015071 
1209	 0.219894556817874 
1210	 0.219979493114785 
1211	 0.220065200631077 
1212	 0.22015207729719 
1213	 0.220242240057381 
1214	 0.220321027540443 
1215	 0.220402460905209 
1216	 0.220487494984787 
1217	 0.220588242435703 
1218	 0.22067080148275 
1219	 0.220741977466056 
1220	 0.220819514305629 
1221	 0.22089524118933 
1222	 0.220972219444682 
1223	 0.221049261741246 
1224	 0.221127758602439 
1225	 0.221214955115274 
1226	 0.22128755510619 
1227	 0.221356580774227 
1228	 0.221420108783557 
1229	 0.221454931764253 
1230	 0.221516297938583 
1231	 0.221595789313645 
1232	 0.221668237685087 
1233	 0.22174427284648 
1234	 0.221841880112295 
1235	 0.221905577289923 
1236	 0.221950455163729 
1237	 0.222000357599209 
1238	 0.222041596088617 
1239	 0.222080829267927 
1240	 0.222108567393001 
1241	 0.222155461175566 
1242	 0.222201544774649 
1243	 0.222255989156035 
1244	 0.222333140274306 
1245	 0.222399373067752 
1246	 0.222460986630171 
1247	 0.22252692215036 
1248	 0.222605480656789 
1249	 0.222668133602807 
1250	 0.222709789553604 
1251	 0.222754610076134 
1252	 0.222802177105366 
1253	 0.222836287831244 
1254	 0.222879785975213 
1255	 0.222944980917874 
1256	 0.222980527207129 
1257	 0.222993463201302 
1258	 0.223021626743252 
1259	 0.223041851828784 
1260	 0.223071969069745 
1261	 0.223111153478265 
1262	 0.223151393574347 
1263	 0.223210561007242 
1264	 0.223241297949626 
1265	 0.223250968824269 
1266	 0.223276671859994 
1267	 0.223287080626015 
1268	 0.223306548898983 
1269	 0.223335437411599 
1270	 0.223391909442207 
1271	 0.223416180114718 
1272	 0.223422607143219 
1273	 0.223443289115602 
1274	 0.223467072737964 
1275	 0.223480256926492 
1276	 0.223491641948328 
1277	 0.223505761292002 
1278	 0.223506685674337 
1279	 0.223516856696004 
1280	 0.223541357974355 
1281	 0.223561029851819 
1282	 0.223567267963893 
1283	 0.223591572126549 
1284	 0.223623135708125 
1285	 0.223654639499307 
1286	 0.22371564234825 
1287	 0.223802452701983 
1288	 0.223898561430599 
1289	 0.224010126934941 
1290	 0.224144565187106 
1291	 0.224299353742891 
1292	 0.224463662461936 
1293	 0.224648496449316 
1294	 0.224845389554538 
1295	 0.225056778866456 
1296	 0.225271013933295 
1297	 0.225493716719569 
1298	 0.225737732141214 
1299	 0.226002394560991 
1300	 0.226257452955015 
1301	 0.226534462864463 
1302	 0.226799173562257 
1303	 0.227047479770401 
1304	 0.227293559683004 
1305	 0.227578777828517 
1306	 0.227846923101843 
1307	 0.228095394102066 
1308	 0.228356631905703 
1309	 0.228591631489445 
1310	 0.228796611349013 
1311	 0.229002594382548 
1312	 0.229216810260501 
1313	 0.229392045700653 
1314	 0.229541387992384 
1315	 0.229682577535088 
1316	 0.229803222758257 
1317	 0.229908948873066 
1318	 0.23000471422614 
1319	 0.230082058807647 
1320	 0.230157414195222 
1321	 0.230188266223729 
1322	 0.23019685112694 
1323	 0.230164525761465 
1324	 0.230124580183564 
1325	 0.230045658510599 
1326	 0.229945401949048 
1327	 0.229855926885254 
1328	 0.229711256704605 
1329	 0.229546645467276 
1330	 0.229385453814329 
1331	 0.229217657978784 
1332	 0.229024681851609 
1333	 0.228831056312232 
1334	 0.228604902282163 
1335	 0.228353983243184 
1336	 0.228083807163621 
1337	 0.227772981763517 
1338	 0.227484416339222 
1339	 0.22719884808242 
1340	 0.226891935562609 
1341	 0.226589488086961 
1342	 0.226273084056216 
1343	 0.22593404573606 
1344	 0.22557667857745 
1345	 0.2252440448793 
1346	 0.224925253390352 
1347	 0.224583433155388 
1348	 0.224221657538731 
1349	 0.223867310051481 
1350	 0.223497300574529 
1351	 0.223123857712604 
1352	 0.222750186236111 
1353	 0.222378994300438 
1354	 0.221986092767655 
1355	 0.221618479159232 
1356	 0.221269837095988 
1357	 0.220915671039538 
1358	 0.220544824868695 
1359	 0.220219561467724 
1360	 0.219911443427837 
1361	 0.219616042885448 
1362	 0.219351498597035 
1363	 0.219100971696852 
1364	 0.218855746017699 
1365	 0.218633924938711 
1366	 0.218443651288007 
1367	 0.218259483271382 
1368	 0.218095391915682 
1369	 0.217919190009162 
1370	 0.217715368330025 
1371	 0.21750736808965 
1372	 0.217266225939266 
1373	 0.216999680429817 
1374	 0.216718904568813 
1375	 0.216438299912517 
1376	 0.216094399863423 
1377	 0.215704898538368 
1378	 0.215311233591174 
1379	 0.214852582422226 
1380	 0.214443882955141 
1381	 0.214040563452615 
1382	 0.213648144332241 
1383	 0.213281144227475 
1384	 0.212906156193078 
1385	 0.212553988547824 
1386	 0.212173335681947 
1387	 0.211805666781101 
1388	 0.211387111620556 
1389	 0.210946627005612 
1390	 0.210463649548411 
1391	 0.209925134431563 
1392	 0.20934544997469 
1393	 0.208729588776664 
1394	 0.208088428557046 
1395	 0.207430352003423 
1396	 0.206758079722706 
1397	 0.206066137340027 
1398	 0.205354247682996 
1399	 0.204621321098266 
1400	 0.203871968976132 
1401	 0.20310096197397 
1402	 0.202306475922845 
1403	 0.201508221531514 
1404	 0.200679152699779 
1405	 0.199868159920893 
1406	 0.199059515131617 
1407	 0.198239094896983 
1408	 0.197415433454263 
1409	 0.196599655687184 
1410	 0.195751165893587 
1411	 0.194958585003706 
1412	 0.194195960851562 
1413	 0.193443412117226 
1414	 0.192740970213081 
1415	 0.192069112635436 
1416	 0.191384589888257 
1417	 0.190719534505942 
1418	 0.190073818307593 
1419	 0.18944997556583 
1420	 0.1888729293416 
1421	 0.188339677678847 
1422	 0.187834804823203 
1423	 0.187327417620323 
1424	 0.186827143686662 
1425	 0.186330515777867 
1426	 0.185864171280452 
1427	 0.185402438328848 
1428	 0.184976973914128 
1429	 0.184592017874877 
1430	 0.184204615709539 
1431	 0.183834130869681 
1432	 0.183470271188709 
1433	 0.183116168374414 
1434	 0.182771567205253 
1435	 0.182441675115721 
1436	 0.182109946703232 
1437	 0.181786182576083 
1438	 0.181463219145702 
1439	 0.181135180132593 
1440	 0.180824465927425 
1441	 0.180512238719122 
1442	 0.180196073518688 
1443	 0.179914623377704 
1444	 0.17963942714439 
1445	 0.179378478191406 
1446	 0.179156324852571 
1447	 0.178936383811794 
1448	 0.178733968778242 
1449	 0.178574149094569 
1450	 0.178448728652752 
1451	 0.178379350436268 
1452	 0.178354968254733 
1453	 0.178379576830452 
1454	 0.178469981563562 
1455	 0.178566448967691 
1456	 0.178707437958609 
1457	 0.178846406655091 
1458	 0.179011072942064 
1459	 0.179168139571187 
1460	 0.179338317881936 
1461	 0.179500275062245 
1462	 0.179675050225662 
1463	 0.179816055870711 
1464	 0.179947840653711 
1465	 0.180058775409862 
1466	 0.180136054911447 
1467	 0.180215694033105 
1468	 0.180269233266884 
1469	 0.180343525413948 
1470	 0.180432993365665 
1471	 0.180503766872094 
1472	 0.180573151843128 
1473	 0.180653387136005 
1474	 0.180699656458941 
1475	 0.18074577176973 
1476	 0.180799613638537 
1477	 0.180856631968715 
1478	 0.180937876274945 
1479	 0.181015374089558 
1480	 0.181105192766497 
1481	 0.181203870269143 
1482	 0.181288829423677 
1483	 0.181369330148095 
1484	 0.18145530529262 
1485	 0.181530767036493 
1486	 0.181617410633366 
1487	 0.181716275792474 
1488	 0.181804526788865 
1489	 0.181892463617085 
1490	 0.181983484655391 
1491	 0.182073102828643 
1492	 0.182162897760149 
1493	 0.182247603674604 
1494	 0.182343477454499 
1495	 0.182451591008257 
1496	 0.18254304830209 
1497	 0.182646053455012 
1498	 0.182728962526981 
1499	 0.182780090317344 
1500	 0.182847609548911 
1501	 0.182905906969983 
1502	 0.182977875650711 
1503	 0.183059077518498 
1504	 0.183153823047324 
1505	 0.183242547708548 
1506	 0.183318986308064 
1507	 0.183385204016353 
1508	 0.183449873827538 
1509	 0.183508144058413 
1510	 0.183559051030721 
1511	 0.183612837842425 
1512	 0.183653969535842 
1513	 0.183697023456972 
1514	 0.183770017614269 
1515	 0.183861243064446 
1516	 0.183941889142307 
1517	 0.184013155556665 
1518	 0.18408796128535 
1519	 0.184151562242837 
1520	 0.184194520851999 
1521	 0.184257280556115 
1522	 0.184327406363099 
1523	 0.184389768740182 
1524	 0.184458261502324 
1525	 0.184509843674046 
1526	 0.184548975782798 
1527	 0.184595628365218 
1528	 0.184632567455981 
1529	 0.184676989572976 
1530	 0.184734808242649 
1531	 0.184777499764652 
1532	 0.18481928882875 
1533	 0.184853414279589 
1534	 0.184864897413869 
1535	 0.18489811455917 
1536	 0.184936997676283 
1537	 0.184975593311458 
1538	 0.185033317596501 
1539	 0.185074279801033 
1540	 0.185099338453767 
1541	 0.185134834316619 
1542	 0.185172430373862 
1543	 0.185206089769765 
1544	 0.185242719457895 
1545	 0.185277675155723 
1546	 0.185295215779765 
1547	 0.185340484211163 
1548	 0.185392812770034 
1549	 0.18542792886019 
1550	 0.185471070062654 
1551	 0.185498184407525 
1552	 0.185514526648016 
1553	 0.18552544812871 
1554	 0.185536748339748 
1555	 0.185549990801971 
1556	 0.185558069976725 
1557	 0.185579070952461 
1558	 0.185599576383051 
1559	 0.185622229343712 
1560	 0.185636017667346 
1561	 0.185645252494894 
1562	 0.185661249993416 
1563	 0.185669750117913 
1564	 0.185686781569274 
1565	 0.185714446472687 
1566	 0.185739858671296 
1567	 0.185767929000701 
1568	 0.185791528381189 
1569	 0.185827888929908 
1570	 0.185833722650216 
1571	 0.185820798280807 
1572	 0.185807456971317 
1573	 0.18577018004561 
1574	 0.185752409560462 
1575	 0.185739816410221 
1576	 0.185729802696153 
1577	 0.185725322326556 
1578	 0.185719240209881 
1579	 0.185710455346154 
1580	 0.185714212423218 
1581	 0.185733999235046 
1582	 0.185738377278923 
1583	 0.185741679022256 
1584	 0.185744514411609 
1585	 0.18574378825958 
1586	 0.185730987503355 
1587	 0.185719638658971 
1588	 0.185698884610876 
1589	 0.185648783085652 
1590	 0.185619477050803 
1591	 0.18560704015814 
1592	 0.185579658132813 
1593	 0.185551154397578 
1594	 0.18552146465217 
1595	 0.185479486912535 
1596	 0.185441140999685 
1597	 0.185420945694533 
1598	 0.185376760980705 
1599	 0.185301893074374 
1600	 0.185252438335773 
1601	 0.185193475185338 
1602	 0.185152066791023 
1603	 0.185152686763377 
1604	 0.185130347616437 
1605	 0.185105994147669 
1606	 0.18507100250172 
1607	 0.185026054546028 
1608	 0.184968941719477 
1609	 0.184891982100161 
1610	 0.184833252738424 
1611	 0.184800404580234 
1612	 0.184736380583439 
1613	 0.184676260427056 
1614	 0.184628305598446 
1615	 0.184554007195076 
1616	 0.184480062755468 
1617	 0.184431623253274 
1618	 0.184383727042875 
1619	 0.184321769094582 
1620	 0.184268084019527 
1621	 0.184195101448504 
1622	 0.184107531825501 
1623	 0.184020891500469 
1624	 0.183921275296558 
1625	 0.183838906674904 
1626	 0.1837622272714 
1627	 0.183679680476222 
1628	 0.183604259409975 
1629	 0.183521438406195 
1630	 0.1834261486196 
1631	 0.18334604390312 
1632	 0.18327405181248 
1633	 0.183197857820421 
1634	 0.183122095294027 
1635	 0.183054071747778 
1636	 0.182990975829177 
1637	 0.182920279325181 
1638	 0.182853939360936 
1639	 0.182782851310001 
1640	 0.182704403121377 
1641	 0.182625313247889 
1642	 0.182551805345107 
1643	 0.182465505367261 
1644	 0.182365616546668 
1645	 0.182272660679463 
1646	 0.182181337562695 
1647	 0.182078583103478 
1648	 0.181967979706203 
1649	 0.18186610343326 
1650	 0.181756865278258 
1651	 0.181657899971509 
1652	 0.181567777117998 
1653	 0.181482028538469 
1654	 0.18139846968248 
1655	 0.181319387216599 
1656	 0.181256691316503 
1657	 0.181176939755605 
1658	 0.181097821593232 
1659	 0.181000245935399 
1660	 0.180878974866558 
1661	 0.180777645083127 
1662	 0.180665275210511 
1663	 0.180575082455998 
1664	 0.180515301541757 
1665	 0.180430649631522 
1666	 0.180340059232591 
1667	 0.180254925890527 
1668	 0.180163979342732 
1669	 0.180073518708147 
1670	 0.179984432567394 
1671	 0.179903984733922 
1672	 0.179813267915307 
1673	 0.179748502920456 
1674	 0.17972801393396 
1675	 0.179656573637183 
1676	 0.179573602791321 
1677	 0.179484084555768 
1678	 0.17935746087695 
1679	 0.179252762382388 
1680	 0.179159536607793 
1681	 0.179062938189494 
1682	 0.178964874748882 
1683	 0.178866634233559 
1684	 0.178761637113784 
1685	 0.178677669659349 
1686	 0.17861171284991 
1687	 0.178526490316379 
1688	 0.178445550992141 
1689	 0.178365424032192 
1690	 0.178273837717427 
1691	 0.178178415547688 
1692	 0.178092358613189 
1693	 0.177997941327937 
1694	 0.177875213144015 
1695	 0.177784457848872 
1696	 0.177710010911308 
1697	 0.177638130486152 
1698	 0.177586168384815 
1699	 0.177520421731696 
1700	 0.177452398275404 
1701	 0.177385465970968 
1702	 0.17733021875342 
1703	 0.177236391556618 
1704	 0.17711503751418 
1705	 0.177016761157833 
1706	 0.176893271531101 
1707	 0.176797452671163 
1708	 0.17674496295658 
1709	 0.176660045388742 
1710	 0.17655304191338 
1711	 0.176467311080281 
1712	 0.176381435224054 
1713	 0.176304907186026 
1714	 0.17625503954668 
1715	 0.176179212514153 
1716	 0.176087219392285 
1717	 0.176009289038656 
1718	 0.175928632159782 
1719	 0.175842081971054 
1720	 0.175764968857795 
1721	 0.175680619625141 
1722	 0.17558849323749 
1723	 0.175489787142252 
1724	 0.175392262145122 
1725	 0.175281713989798 
1726	 0.175149235140748 
1727	 0.175034558963313 
1728	 0.174914195927326 
1729	 0.174816021620099 
1730	 0.174731113340861 
1731	 0.174648690540663 
1732	 0.174586346187741 
1733	 0.17451713537837 
1734	 0.174450390254672 
1735	 0.174372265708877 
1736	 0.174291903488215 
1737	 0.174208588425338 
1738	 0.174115385345496 
1739	 0.174026953929698 
1740	 0.173932987368768 
1741	 0.173856789627211 
1742	 0.173788108528356 
1743	 0.1737197744524 
1744	 0.173670829458974 
1745	 0.173607137203004 
1746	 0.173534973689768 
1747	 0.173465011115106 
1748	 0.173364351484264 
1749	 0.173252183161923 
1750	 0.173172357644508 
1751	 0.173096717814049 
1752	 0.173034999091596 
1753	 0.172978321655976 
1754	 0.172922310602935 
1755	 0.172849676481983 
1756	 0.172774416219998 
1757	 0.172715998105414 
1758	 0.172626453846719 
1759	 0.172550933368213 
1760	 0.172487682017046 
1761	 0.172383384810853 
1762	 0.172306612345301 
1763	 0.172259508071587 
1764	 0.172186358046651 
1765	 0.172139047325017 
1766	 0.172106214405623 
1767	 0.172028806815971 
1768	 0.171949168477141 
1769	 0.171873535147346 
1770	 0.171785168828609 
1771	 0.17172847510038 
1772	 0.171697410808681 
1773	 0.171656410961482 
1774	 0.171591461072457 
1775	 0.1714946735761 
1776	 0.171371461663829 
1777	 0.171246734205331 
1778	 0.171152305608974 
1779	 0.17106926131664 
1780	 0.171020701053006 
1781	 0.171000555899346 
1782	 0.170988804845373 
1783	 0.171016436268931 
1784	 0.170991029170329 
1785	 0.170931486659202 
1786	 0.170888452637333 
1787	 0.170829159677755 
1788	 0.170768482326437 
1789	 0.170722319789813 
1790	 0.170664521077097 
1791	 0.170574811342239 
1792	 0.170519184675916 
1793	 0.170480050201069 
1794	 0.170438014927841 
1795	 0.170409602213764 
1796	 0.170385365059413 
1797	 0.170363657270141 
1798	 0.170351930667762 
1799	 0.170356702952189 
1800	 0.170324030349497 
1801	 0.166420914767585 
1802	 0.166601000010587 
1803	 0.166727058641593 
1804	 0.166861977626089 
1805	 0.166999310404791 
1806	 0.167117863132752 
1807	 0.167256237516832 
1808	 0.167358966502809 
1809	 0.167448010217398 
1810	 0.167519704360648 
1811	 0.167561453679369 
1812	 0.16760667928772 
1813	 0.167657931816091 
1814	 0.167709052593868 
1815	 0.167737074153389 
1816	 0.167750546881755 
1817	 0.16776134558361 
1818	 0.167746060891694 
1819	 0.167745508078474 
1820	 0.167755936519623 
1821	 0.167743813184161 
1822	 0.167738626985363 
1823	 0.167764093706812 
1824	 0.167792258997785 
1825	 0.167829026471683 
1826	 0.167868715208365 
1827	 0.167870924059779 
1828	 0.167871180087002 
1829	 0.167861841413804 
1830	 0.167851354917311 
1831	 0.167831303615222 
1832	 0.167816085178577 
1833	 0.167785077430769 
1834	 0.167715305244991 
1835	 0.167645073754533 
1836	 0.167584004011115 
1837	 0.167539155517848 
1838	 0.167521506964035 
1839	 0.167505642009912 
1840	 0.167507250502115 
1841	 0.167504659317221 
1842	 0.167507560397523 
1843	 0.167503468078119 
1844	 0.167508704065618 
1845	 0.167494817548915 
1846	 0.167483795026576 
1847	 0.167503844269655 
1848	 0.167483452166969 
1849	 0.167473040077941 
1850	 0.167468507807259 
1851	 0.167473401470335 
1852	 0.167426411375722 
1853	 0.16740111708799 
1854	 0.167390049019943 
1855	 0.167339039246536 
1856	 0.167271740260181 
1857	 0.167207184296407 
1858	 0.167129073907844 
1859	 0.16700414951978 
1860	 0.166873884945194 
1861	 0.166735363006905 
1862	 0.166603576224997 
1863	 0.166400148868688 
1864	 0.166170779667126 
1865	 0.16594239669023 
1866	 0.165649889387989 
1867	 0.165356501314756 
1868	 0.165067464406138 
1869	 0.164769950447138 
1870	 0.164465811449153 
1871	 0.164163548611117 
1872	 0.16385664576091 
1873	 0.163570123252466 
1874	 0.163289634103534 
1875	 0.163024839457711 
1876	 0.162731441026793 
1877	 0.162428214043728 
1878	 0.162082756936746 
1879	 0.161670334987844 
1880	 0.161214039460269 
1881	 0.160701902824657 
1882	 0.160169731486222 
1883	 0.159607872800645 
1884	 0.158969230008032 
1885	 0.158323149922642 
1886	 0.157644479758749 
1887	 0.156871704902991 
1888	 0.156105819209586 
1889	 0.155294299829139 
1890	 0.154410776870145 
1891	 0.153512941324471 
1892	 0.152575259515748 
1893	 0.151615843068561 
1894	 0.150631594817262 
1895	 0.149614701238925 
1896	 0.148561271420388 
1897	 0.147481028678989 
1898	 0.146345505453557 
1899	 0.145209253433576 
1900	 0.144124706847831 
1901	 0.143024684288216 
1902	 0.141958645690413 
1903	 0.140940049555608 
1904	 0.139935628674509 
1905	 0.13893293422549 
1906	 0.137974005565587 
1907	 0.13705000822101 
1908	 0.136144587851057 
1909	 0.135283429157913 
1910	 0.134434761197237 
1911	 0.13360922606038 
1912	 0.132802546355123 
1913	 0.132033025378793 
1914	 0.1312766327681 
1915	 0.130562778768535 
1916	 0.12988437783508 
1917	 0.129253224052222 
1918	 0.128637381851657 
1919	 0.128077632234509 
1920	 0.127555684626427 
1921	 0.127069683018437 
1922	 0.126619455878658 
1923	 0.12619546857975 
1924	 0.125806818664628 
1925	 0.125466196649532 
1926	 0.125126967665417 
1927	 0.124812081271075 
1928	 0.124516061700083 
1929	 0.12422399050716 
1930	 0.123955275618679 
1931	 0.123703437976475 
1932	 0.123481162776261 
1933	 0.123274975765442 
1934	 0.123077782819808 
1935	 0.122902707745948 
1936	 0.122747236323952 
1937	 0.122600359527268 
1938	 0.122459153656428 
1939	 0.122358448461057 
1940	 0.122276197461547 
1941	 0.122216203706137 
1942	 0.122209670705159 
1943	 0.122209371837121 
1944	 0.122238752642094 
1945	 0.122304309689627 
1946	 0.122375000335241 
1947	 0.122460855549321 
1948	 0.122572730027619 
1949	 0.12271226367866 
1950	 0.122854473944758 
1951	 0.123026182516155 
1952	 0.123195789128998 
1953	 0.123342419424081 
1954	 0.123474992446274 
1955	 0.123618057696855 
1956	 0.123784521608997 
1957	 0.123963787600905 
1958	 0.124177305853609 
1959	 0.124372491227991 
1960	 0.12458328584098 
1961	 0.124766344400625 
1962	 0.124938599646129 
1963	 0.125106189109799 
1964	 0.125255147406582 
1965	 0.125401118526324 
1966	 0.125562234798339 
1967	 0.125705200454997 
1968	 0.125855381866021 
1969	 0.126014231319108 
1970	 0.126157224171129 
1971	 0.126278187874383 
1972	 0.126427526572074 
1973	 0.126568347266594 
1974	 0.126732532897044 
1975	 0.126935046383012 
1976	 0.127131152775489 
1977	 0.127277216664894 
1978	 0.127453524566735 
1979	 0.127603489090876 
1980	 0.127738189836409 
1981	 0.127917265043793 
1982	 0.128136406342482 
1983	 0.128335547092727 
1984	 0.128569767708254 
1985	 0.128759845831644 
1986	 0.128913843982274 
1987	 0.129084288625276 
1988	 0.129233249376094 
1989	 0.129395151958263 
1990	 0.129586311751364 
1991	 0.129778368852065 
1992	 0.129971741704607 
1993	 0.130179151138457 
1994	 0.130364854499721 
1995	 0.130542897540754 
1996	 0.130724365195273 
1997	 0.130883239325884 
1998	 0.131066900435202 
1999	 0.1312740528476 
2000	 0.131468282293568 
2001	 0.131665616889672 
2002	 0.131867726108769 
2003	 0.132053903334445 
2004	 0.132224125563168 
2005	 0.132407424652349 
2006	 0.13258553731621 
2007	 0.132777476521485 
2008	 0.132985054678363 
2009	 0.133182800852266 
2010	 0.133382585712893 
2011	 0.133582184447268 
2012	 0.13377067629234 
2013	 0.133969260831261 
2014	 0.134172621053792 
2015	 0.13438431190196 
2016	 0.134588212614918 
2017	 0.134822552775697 
2018	 0.135036094614492 
2019	 0.135247530710982 
2020	 0.135456929181932 
2021	 0.135666385336312 
2022	 0.135860675243532 
2023	 0.136044949584251 
2024	 0.136233196136952 
2025	 0.136400551428919 
2026	 0.13658827871304 
2027	 0.136785546920104 
2028	 0.136997478603013 
2029	 0.137199047657853 
2030	 0.137406625127854 
2031	 0.137607359055832 
2032	 0.137797196485915 
2033	 0.138001341268071 
2034	 0.138224499133327 
2035	 0.138418083957361 
2036	 0.138605158888827 
2037	 0.138788262664846 
2038	 0.138945351396535 
2039	 0.139114163613143 
2040	 0.139295187548822 
2041	 0.139461948885787 
2042	 0.139630448860605 
2043	 0.139804801797167 
2044	 0.139983781382365 
2045	 0.140172996726692 
2046	 0.140352910587351 
2047	 0.140533368504368 
2048	 0.140712258283782 
2049	 0.14088366637741 
2050	 0.14105823618054 
2051	 0.141244183590751 
2052	 0.14141493972341 
2053	 0.141567035506025 
2054	 0.141736108923713 
2055	 0.141910687009049 
2056	 0.142077381986578 
2057	 0.1422470470998 
2058	 0.142431905567144 
2059	 0.142594750184936 
2060	 0.142743446270514 
2061	 0.142894413455149 
2062	 0.143041660590758 
2063	 0.143186364631498 
2064	 0.143323128934759 
2065	 0.143463298843111 
2066	 0.143594509835021 
2067	 0.143737398810628 
2068	 0.143886045019298 
2069	 0.144043687695965 
2070	 0.144194121134071 
2071	 0.144353648680492 
2072	 0.14449719402503 
2073	 0.144630873963949 
2074	 0.144764722644527 
2075	 0.144882152109004 
2076	 0.145023809233917 
2077	 0.14517538862203 
2078	 0.145325181360687 
2079	 0.145497121994774 
2080	 0.145648849641097 
2081	 0.145795410483613 
2082	 0.14593042774952 
2083	 0.146045489969352 
2084	 0.146170412130067 
2085	 0.146287889064151 
2086	 0.146384653935489 
2087	 0.146514260549144 
2088	 0.146657232808878 
2089	 0.146800981785058 
2090	 0.146962320810062 
2091	 0.147117702754878 
2092	 0.147283496883442 
2093	 0.147427530327328 
2094	 0.147567654739414 
2095	 0.147700817931909 
2096	 0.147820506406583 
2097	 0.147930640699356 
2098	 0.148042344009929 
2099	 0.14812715900577 
2100	 0.148225647363353 
2101	 0.148304624388172 
2102	 0.148412736053701 
2103	 0.148535482574382 
2104	 0.148662598174859 
2105	 0.148800957781834 
2106	 0.148942368051239 
2107	 0.149092482341005 
2108	 0.149243317202449 
2109	 0.149400395124205 
2110	 0.149556821757623 
2111	 0.149732707246375 
2112	 0.149882112611628 
2113	 0.150011009312693 
2114	 0.150146069485389 
2115	 0.150283989411889 
2116	 0.150410284181067 
2117	 0.150536293910317 
2118	 0.150679933113796 
2119	 0.150797066039403 
2120	 0.15087516630112 
2121	 0.150992779878846 
2122	 0.151124804177547 
2123	 0.151250508449031 
2124	 0.15140232843977 
2125	 0.151528787536576 
2126	 0.151635151491985 
2127	 0.151744581468325 
2128	 0.151852632921163 
2129	 0.151948159451794 
2130	 0.1520295174699 
2131	 0.152122138734736 
2132	 0.152199101230137 
2133	 0.152262819140537 
2134	 0.152329852772673 
2135	 0.152403631241223 
2136	 0.152449952773577 
2137	 0.152482118295943 
2138	 0.152506749569888 
2139	 0.152513277327719 
2140	 0.152516399309277 
2141	 0.15250674714232 
2142	 0.152503514496618 
2143	 0.152490783096273 
2144	 0.15248273993485 
2145	 0.152467456941868 
2146	 0.152472829594236 
2147	 0.152493895069278 
2148	 0.15252372978763 
2149	 0.152523547668912 
2150	 0.152539856565732 
2151	 0.152510660463621 
2152	 0.15243649399759 
2153	 0.152368495176268 
2154	 0.152274374375915 
2155	 0.152204111486214 
2156	 0.152124743948032 
2157	 0.152065101334983 
2158	 0.152042842106753 
2159	 0.151989226716228 
2160	 0.151924900370485 
2161	 0.151863024282449 
2162	 0.151785766434316 
2163	 0.151713286705399 
2164	 0.15165358860381 
2165	 0.151586489181348 
2166	 0.151502818497427 
2167	 0.15141373012206 
2168	 0.151307743583386 
2169	 0.151167788894373 
2170	 0.151068744881125 
2171	 0.15097090970887 
2172	 0.150883600271684 
2173	 0.15083156437929 
2174	 0.150752509447237 
2175	 0.150665179126412 
2176	 0.150574925358345 
2177	 0.150481766448506 
2178	 0.150379652308199 
2179	 0.150255620545134 
2180	 0.150151219618697 
2181	 0.150055493650328 
2182	 0.149952320696257 
2183	 0.149846697786355 
2184	 0.149762658678773 
2185	 0.149664300920411 
2186	 0.149557272299442 
2187	 0.149447439855425 
2188	 0.149337414050351 
2189	 0.149224438815062 
2190	 0.14909353497373 
2191	 0.148986564029231 
2192	 0.148893103440471 
2193	 0.148798049448571 
2194	 0.148713066940908 
2195	 0.148625656456683 
2196	 0.148515585306362 
2197	 0.148448283166355 
2198	 0.148410166670566 
2199	 0.148368483133002 
2200	 0.148370291623114 
2201	 0.14834518648419 
2202	 0.14830240858656 
2203	 0.148253063645845 
2204	 0.148215463979519 
2205	 0.148167240398838 
2206	 0.148138298195771 
2207	 0.14812980524765 
2208	 0.148108591295726 
2209	 0.148092078639449 
2210	 0.148068326393797 
2211	 0.148020139165075 
2212	 0.148015472573139 
2213	 0.148042811666251 
2214	 0.14804398739908 
2215	 0.148067881092772 
2216	 0.148066403160156 
2217	 0.148025132392999 
2218	 0.147999712998676 
2219	 0.147961551471661 
2220	 0.147954742908609 
2221	 0.147961460444696 
2222	 0.147977223804873 
2223	 0.148009494017494 
2224	 0.148063330595531 
2225	 0.148115603162817 
2226	 0.148183185820345 
2227	 0.148213712082898 
2228	 0.148235380609523 
2229	 0.148265073742334 
2230	 0.148276212730092 
2231	 0.148283898797473 
2232	 0.148320080186265 
2233	 0.148312828481592 
2234	 0.148253848861931 
2235	 0.148222061629833 
2236	 0.148175647559996 
2237	 0.148151697049317 
2238	 0.148154392908963 
2239	 0.148138876993561 
2240	 0.1481270925333 
2241	 0.148114228150891 
2242	 0.148096914912507 
2243	 0.148070142986801 
2244	 0.148044905449544 
2245	 0.148011574920482 
2246	 0.147965367530176 
2247	 0.1478963205586 
2248	 0.147864904733979 
2249	 0.147853409909726 
2250	 0.147825164712909 
2251	 0.147810170150125 
2252	 0.147778082396991 
2253	 0.147735634071742 
2254	 0.147674447654077 
2255	 0.147599008714641 
2256	 0.147534139138478 
2257	 0.147440445432164 
2258	 0.147380323684183 
2259	 0.147352601464148 
2260	 0.14731142450509 
2261	 0.147273975935042 
2262	 0.147235890618877 
2263	 0.147194257828341 
2264	 0.147150865501025 
2265	 0.147086838120232 
2266	 0.147066724591224 
2267	 0.147094232019549 
2268	 0.147088229981685 
2269	 0.147109728921254 
2270	 0.147091759458986 
2271	 0.147047104582737 
2272	 0.146980625185055 
2273	 0.146949588266021 
2274	 0.14695903144551 
2275	 0.146940400607 
2276	 0.146943579845078 
2277	 0.146899602723539 
2278	 0.146826050216765 
2279	 0.146743575437691 
2280	 0.146617163891921 
2281	 0.146537480757574 
2282	 0.146468077306265 
2283	 0.146398530700238 
2284	 0.146352324305794 
2285	 0.146294304670277 
2286	 0.146233952969957 
2287	 0.146163487130243 
2288	 0.1460894899335 
2289	 0.146022895385264 
2290	 0.145935876696519 
2291	 0.145867843087429 
2292	 0.145827057368074 
2293	 0.145763982604487 
2294	 0.145702818759249 
2295	 0.145636201130903 
2296	 0.145536506095341 
2297	 0.145483859881812 
2298	 0.145435373140583 
2299	 0.145317055424506 
2300	 0.145254414572469 
2301	 0.145155955204502 
2302	 0.14502498570417 
2303	 0.144968926705597 
2304	 0.144895290922675 
2305	 0.144784594842833 
2306	 0.144660662475458 
2307	 0.144516632904862 
2308	 0.144389272836951 
2309	 0.144248960102208 
2310	 0.14410924114485 
2311	 0.143993823079127 
2312	 0.143853605419456 
2313	 0.143672114268984 
2314	 0.143522806445687 
2315	 0.143394569892421 
2316	 0.143247268268384 
2317	 0.143089141513282 
2318	 0.14295556809216 
2319	 0.14282663148152 
2320	 0.142702351304393 
2321	 0.142607174156043 
2322	 0.14247981634374 
2323	 0.142311643327387 
2324	 0.142190672283374 
2325	 0.142120108122995 
2326	 0.141991823601356 
2327	 0.141856806728368 
2328	 0.141720556097077 
2329	 0.141514332026051 
2330	 0.141300491370057 
2331	 0.141172697413558 
2332	 0.141048267325211 
2333	 0.140924828007075 
2334	 0.140801538783716 
2335	 0.140622283061714 
2336	 0.140462972032073 
2337	 0.140304744309814 
2338	 0.140120169720958 
2339	 0.139992244527677 
2340	 0.139844793555448 
2341	 0.13963166969465 
2342	 0.139463356999981 
2343	 0.139270832916093 
2344	 0.139029913071667 
2345	 0.138868081998508 
2346	 0.138786884721313 
2347	 0.138610183479222 
2348	 0.138434672966325 
2349	 0.138247346397769 
2350	 0.138014318390168 
2351	 0.137777440698709 
2352	 0.137527721293037 
2353	 0.137283547884341 
2354	 0.136985082613912 
2355	 0.136751753902293 
2356	 0.136618310371526 
2357	 0.136386531966514 
2358	 0.13610454461485 
2359	 0.135851274335502 
2360	 0.135554273272543 
2361	 0.135299632586273 
2362	 0.13510193622188 
2363	 0.13487640666951 
2364	 0.134675654911771 
2365	 0.134392149689222 
2366	 0.134045901428582 
2367	 0.133738642426902 
2368	 0.133345193616423 
2369	 0.133047113454746 
2370	 0.132839467855852 
2371	 0.132618246113521 
2372	 0.132356954982416 
2373	 0.132132863475123 
2374	 0.131893943302378 
2375	 0.131612843569885 
2376	 0.131373578113479 
2377	 0.131108141328721 
2378	 0.130845012407154 
2379	 0.130595600570159 
2380	 0.130397938733545 
2381	 0.130245610756067 
2382	 0.129967691319502 
2383	 0.129724892779456 
2384	 0.129487701248958 
2385	 0.1291744530645 
2386	 0.128954997451365 
2387	 0.128745957191412 
2388	 0.128499730990613 
2389	 0.128245867785288 
2390	 0.128001836204484 
2391	 0.127827783715489 
2392	 0.127641168691823 
2393	 0.127461873071137 
2394	 0.127300074022311 
2395	 0.12712447560852 
2396	 0.126941362824811 
2397	 0.126741124393 
2398	 0.126555631602664 
2399	 0.126301602534025 
2400	 0.126059804866479 
2401	 0.125892084381569 
2402	 0.12564848899451 
2403	 0.125354103798757 
2404	 0.125167343214976 
2405	 0.124942491140965 
2406	 0.124726137365759 
2407	 0.124616557139252 
2408	 0.124306596077978 
2409	 0.124081468114607 
2410	 0.124021759298056 
2411	 0.123805376888591 
2412	 0.12363354934767 
2413	 0.123449244671709 
2414	 0.123160415954859 
2415	 0.12296262419889 
2416	 0.122771520633337 
2417	 0.122619114894888 
2418	 0.122487025005255 
2419	 0.122405634746612 
2420	 0.122252315920569 
2421	 0.122137029633947 
2422	 0.122012046691752 
2423	 0.121763813950111 
2424	 0.121606227832576 
2425	 0.12152690791774 
2426	 0.121421096142095 
2427	 0.121378847731479 
2428	 0.121199395874627 
2429	 0.120948535099271 
2430	 0.120723390764862 
2431	 0.120412367360274 
2432	 0.120164549433444 
2433	 0.119948792199508 
2434	 0.119761974973641 
2435	 0.119565705420053 
2436	 0.119382295149011 
2437	 0.119244181610695 
2438	 0.119141405415933 
2439	 0.119097983533338 
2440	 0.118927866740097 
2441	 0.118767260281169 
2442	 0.118635738220085 
2443	 0.118385349199931 
2444	 0.118218334444614 
2445	 0.118177088768906 
2446	 0.117987065210079 
2447	 0.117689282671966 
2448	 0.117434715907046 
2449	 0.117115554912157 
2450	 0.116913952552532 
2451	 0.116766235466788 
2452	 0.116644823119768 
2453	 0.116675677651144 
2454	 0.116605538549092 
2455	 0.116525188330788 
2456	 0.116386254771786 
2457	 0.116142291877425 
2458	 0.115894233928332 
2459	 0.115566626478721 
2460	 0.115357888653899 
2461	 0.11521551438331 
2462	 0.115088474788689 
2463	 0.115043951405714 
2464	 0.114899271389805 
2465	 0.114717283757111 
2466	 0.114563491767518 
2467	 0.114365061930686 
2468	 0.114213458196273 
2469	 0.114137631666105 
2470	 0.113933501801799 
2471	 0.113800560564003 
2472	 0.11379252060653 
2473	 0.113647478986112 
2474	 0.113544417242851 
2475	 0.113310677066106 
2476	 0.113000061205365 
2477	 0.112803262195438 
2478	 0.112677201391203 
2479	 0.11267616181229 
2480	 0.112639104947951 
2481	 0.112578775524692 
2482	 0.112499555709605 
2483	 0.112366620263312 
2484	 0.112322476904794 
2485	 0.112251897254535 
2486	 0.112002867636602 
2487	 0.11176257633221 
2488	 0.111556843605285 
2489	 0.111424926246094 
2490	 0.111438322509128 
2491	 0.111476102630516 
2492	 0.111450190505727 
2493	 0.111148429577887 
2494	 0.110788066117931 
2495	 0.110536831969113 
2496	 0.110288066879046 
2497	 0.110149662252506 
2498	 0.110124410238615 
2499	 0.110007524238796 
2500	 0.109773731866753 
