Wavelength	LMW_1600004.asd
350	 8.98297025020917E-02 
351	 8.57035047251932E-02 
352	 7.90478090590426E-02 
353	 7.75849695170375E-02 
354	 8.83103806594843E-02 
355	 8.41642934884616E-02 
356	 7.99798205977904E-02 
357	 9.14002659779424E-02 
358	 9.53784731103624E-02 
359	 9.07785968652911E-02 
360	 8.52895249670968E-02 
361	 8.97266381094282E-02 
362	 0.088477900417535 
363	 8.69929186141558E-02 
364	 8.89885035806316E-02 
365	 9.15935038441709E-02 
366	 9.20384085775302E-02 
367	 9.21734698114798E-02 
368	 9.39841484083065E-02 
369	 9.39667026245663E-02 
370	 9.61884402502806E-02 
371	 9.93741145061133E-02 
372	 0.099069150773316 
373	 0.101362399387396 
374	 0.103885413886515 
375	 0.105357902892252 
376	 0.108547935394095 
377	 0.10756295608957 
378	 0.106824224076367 
379	 0.110699618200202 
380	 0.109534363441694 
381	 0.109907230463518 
382	 0.112324630712199 
383	 0.112768079562376 
384	 0.116561328278762 
385	 0.119162802215526 
386	 0.118867723337977 
387	 0.121954761727521 
388	 0.124107851879185 
389	 0.126137568807832 
390	 0.129434181820904 
391	 0.130320733662148 
392	 0.131832816378653 
393	 0.13442414977337 
394	 0.136269782392564 
395	 0.139195119395804 
396	 0.141904466741218 
397	 0.143714975479163 
398	 0.146417855182701 
399	 0.148154848065237 
400	 0.14998485736728 
401	 0.153253432151626 
402	 0.154771091889498 
403	 0.156453795693602 
404	 0.159154704185233 
405	 0.162325922672421 
406	 0.16341142630253 
407	 0.165019495871553 
408	 0.168511672017034 
409	 0.169413710023339 
410	 0.169958275429993 
411	 0.17139409225565 
412	 0.174141745031623 
413	 0.176619038506894 
414	 0.17743013118691 
415	 0.177163041033427 
416	 0.17877826760383 
417	 0.179504927587854 
418	 0.180360861799807 
419	 0.182295101792408 
420	 0.182964406175107 
421	 0.18317051975613 
422	 0.183525290094027 
423	 0.184353237613157 
424	 0.184713556396479 
425	 0.184539918285214 
426	 0.184045549067532 
427	 0.183628940063848 
428	 0.183783027307178 
429	 0.184005054293304 
430	 0.183708461772091 
431	 0.183713020590762 
432	 0.183661124962829 
433	 0.183614832508474 
434	 0.184060043174505 
435	 0.184546246495389 
436	 0.185139429026192 
437	 0.185867650223721 
438	 0.186312654994926 
439	 0.187360483450702 
440	 0.18884155038237 
441	 0.19011885798367 
442	 0.191474868162302 
443	 0.193174163648534 
444	 0.19505053269112 
445	 0.196281885952172 
446	 0.197917190465328 
447	 0.199787854175485 
448	 0.201497582793248 
449	 0.203308270138503 
450	 0.205080517282044 
451	 0.206756551903886 
452	 0.20837195941698 
453	 0.210103038985995 
454	 0.211660570530326 
455	 0.212947346916159 
456	 0.214560113640756 
457	 0.216033664026761 
458	 0.21724443938976 
459	 0.218266091414789 
460	 0.219367960746471 
461	 0.220309835922298 
462	 0.221176988736198 
463	 0.222579912706819 
464	 0.223579952565288 
465	 0.224375002045394 
466	 0.225329810423303 
467	 0.226079168547724 
468	 0.226961116912283 
469	 0.227878708493157 
470	 0.228423054610337 
471	 0.229243487071517 
472	 0.230098217971372 
473	 0.230788230107544 
474	 0.231576202524692 
475	 0.232353359225222 
476	 0.233066809643116 
477	 0.233729244393288 
478	 0.234656598830137 
479	 0.235605297186316 
480	 0.236415993519263 
481	 0.237110371219317 
482	 0.237916920787616 
483	 0.238777896347769 
484	 0.23958193670895 
485	 0.24039511525536 
486	 0.241060357692922 
487	 0.241662435279578 
488	 0.242479890031523 
489	 0.243472326486 
490	 0.244453959267504 
491	 0.245286983132935 
492	 0.245993046166735 
493	 0.246744711454247 
494	 0.247679349881869 
495	 0.248827643533932 
496	 0.249641455345778 
497	 0.250367711749079 
498	 0.251227622556417 
499	 0.252298097787978 
500	 0.253174180684098 
501	 0.253883540854246 
502	 0.254598288375344 
503	 0.255464732336092 
504	 0.256372918254105 
505	 0.257249979625906 
506	 0.258071176567426 
507	 0.258833650305419 
508	 0.259683124751304 
509	 0.260663379474239 
510	 0.261494746074257 
511	 0.262214015499261 
512	 0.262972147953578 
513	 0.263937207736228 
514	 0.264795586854643 
515	 0.265619816355914 
516	 0.266470678466891 
517	 0.267331650007998 
518	 0.267905180892672 
519	 0.268481328635449 
520	 0.269409610271629 
521	 0.270255936684565 
522	 0.271097840587255 
523	 0.271903584378808 
524	 0.272506646123503 
525	 0.273306999419558 
526	 0.274198517212093 
527	 0.275022854023128 
528	 0.275843113471225 
529	 0.276693710916794 
530	 0.277555061471503 
531	 0.27837386530265 
532	 0.279144852611621 
533	 0.279934653563321 
534	 0.280771139513812 
535	 0.281583796440616 
536	 0.282372420747569 
537	 0.283219534274197 
538	 0.284190967627632 
539	 0.285006810680199 
540	 0.285743573747385 
541	 0.286515369205694 
542	 0.287443857640285 
543	 0.288300003872053 
544	 0.289128481582271 
545	 0.290022529209726 
546	 0.290945781901113 
547	 0.29188627546671 
548	 0.292837307521289 
549	 0.293798623728279 
550	 0.294798761432191 
551	 0.295746262787589 
552	 0.296607533172659 
553	 0.297553104325221 
554	 0.298476412355467 
555	 0.29936015710389 
556	 0.300232759171791 
557	 0.301101221531313 
558	 0.301930103904658 
559	 0.302719042911139 
560	 0.303531452239067 
561	 0.304394920357982 
562	 0.305338054865946 
563	 0.30636324292751 
564	 0.307367703606352 
565	 0.308338324911895 
566	 0.309413057277904 
567	 0.310877949271413 
568	 0.312116899422951 
569	 0.313027189547959 
570	 0.313671487431359 
571	 0.314126238228282 
572	 0.314742418780304 
573	 0.315624706139407 
574	 0.316660462004963 
575	 0.317516418427493 
576	 0.318211090990323 
577	 0.318822797800206 
578	 0.319366969996751 
579	 0.320198971542853 
580	 0.321324883227499 
581	 0.322577917317421 
582	 0.323910038930752 
583	 0.325040493102811 
584	 0.325806172293244 
585	 0.326223031720872 
586	 0.326611339091703 
587	 0.326976321502274 
588	 0.327271045225808 
589	 0.32769722790149 
590	 0.328109461341903 
591	 0.32846484068248 
592	 0.328824819343134 
593	 0.329137630459473 
594	 0.329477027806262 
595	 0.329996492874528 
596	 0.331015941986667 
597	 0.33224065526148 
598	 0.333509362986156 
599	 0.33472801649406 
600	 0.335733919429684 
601	 0.336465529567215 
602	 0.336983958032471 
603	 0.337538286193582 
604	 0.338022826688866 
605	 0.338494365171834 
606	 0.339051760518801 
607	 0.339735876996421 
608	 0.340374668493575 
609	 0.340911959397891 
610	 0.341441104406605 
611	 0.342147589384005 
612	 0.342964663590887 
613	 0.343751309524682 
614	 0.344366398869599 
615	 0.3450373834804 
616	 0.345698663470263 
617	 0.346113744307566 
618	 0.346701092281462 
619	 0.347268812560015 
620	 0.347710014890651 
621	 0.34830411375624 
622	 0.348883880392611 
623	 0.349465227139887 
624	 0.350098849724472 
625	 0.350579469907083 
626	 0.351048053778651 
627	 0.351580529753208 
628	 0.352129547826311 
629	 0.352645178177083 
630	 0.353082692162383 
631	 0.353467308745307 
632	 0.35407360794086 
633	 0.354620871702095 
634	 0.355059189718724 
635	 0.355541409773662 
636	 0.356132458248963 
637	 0.356679058148304 
638	 0.35707817623019 
639	 0.357433105865388 
640	 0.357869635133047 
641	 0.358349440043965 
642	 0.358771876118924 
643	 0.359267760720766 
644	 0.359756769868067 
645	 0.360202078683919 
646	 0.360658742819206 
647	 0.361038681689963 
648	 0.361423539053952 
649	 0.361910153336434 
650	 0.362456506407064 
651	 0.362889443874242 
652	 0.363239758340656 
653	 0.363709765583839 
654	 0.364208107653357 
655	 0.364655455048184 
656	 0.365033582083027 
657	 0.365474676942033 
658	 0.365867542796123 
659	 0.366278256849695 
660	 0.366813982807838 
661	 0.367235077135214 
662	 0.367551746795611 
663	 0.367872012588095 
664	 0.368406661407513 
665	 0.368953625439567 
666	 0.369359126403251 
667	 0.369593714961068 
668	 0.370045339721475 
669	 0.370543702189001 
670	 0.371011528312557 
671	 0.371458595254366 
672	 0.371810244184804 
673	 0.372195498772305 
674	 0.372680490669773 
675	 0.373113020531209 
676	 0.373456372720473 
677	 0.373767112901589 
678	 0.374142473045134 
679	 0.374586598847458 
680	 0.375053845814797 
681	 0.375490950533843 
682	 0.375843037232854 
683	 0.376229460496009 
684	 0.376630412137375 
685	 0.377000699614844 
686	 0.377338644369326 
687	 0.377739394733027 
688	 0.378170690591844 
689	 0.378519469727862 
690	 0.378884780682202 
691	 0.379266408104832 
692	 0.379660834812623 
693	 0.380100381724851 
694	 0.380428247831185 
695	 0.380704426103109 
696	 0.381050358472141 
697	 0.381425461184606 
698	 0.381796122900024 
699	 0.382169532095969 
700	 0.382590273135657 
701	 0.382845079523053 
702	 0.383095790161978 
703	 0.383471218536088 
704	 0.383774005211352 
705	 0.384080499535395 
706	 0.384356090909281 
707	 0.384552097706688 
708	 0.384992299583673 
709	 0.385356958461331 
710	 0.385574608251343 
711	 0.386034142185973 
712	 0.386326594691903 
713	 0.386467093689895 
714	 0.386609873310846 
715	 0.386946621671581 
716	 0.387261779887159 
717	 0.387524071020189 
718	 0.387825377238672 
719	 0.387935425786942 
720	 0.388063475110269 
721	 0.388317248738731 
722	 0.388480530179389 
723	 0.388739869304415 
724	 0.389062992202057 
725	 0.389348596393857 
726	 0.389566419587826 
727	 0.389703477412301 
728	 0.389797899988494 
729	 0.389929702585956 
730	 0.390095355903479 
731	 0.390298869655567 
732	 0.390517935286891 
733	 0.390667862589496 
734	 0.390823140082577 
735	 0.390973279866545 
736	 0.391090042912862 
737	 0.391262782764378 
738	 0.391409461757449 
739	 0.391518744491889 
740	 0.391667088476313 
741	 0.391793802956721 
742	 0.391892855781607 
743	 0.391968800846235 
744	 0.392007019678908 
745	 0.392151471122924 
746	 0.392345529348624 
747	 0.392441253402268 
748	 0.392426912319831 
749	 0.392371638344837 
750	 0.392364943758131 
751	 0.392503437683677 
752	 0.392635680855461 
753	 0.392719831668117 
754	 0.392762817058552 
755	 0.392831140504515 
756	 0.392850615537992 
757	 0.392838447928474 
758	 0.392861442850128 
759	 0.392982033893643 
760	 0.392999791971664 
761	 0.392895360662918 
762	 0.392900576724243 
763	 0.392912918822234 
764	 0.392908463344361 
765	 0.392898246404966 
766	 0.392950667670353 
767	 0.393012275522173 
768	 0.393009204059277 
769	 0.392896403757366 
770	 0.392887058251409 
771	 0.39290001463031 
772	 0.392872367503615 
773	 0.392798859311568 
774	 0.392687006177014 
775	 0.39265548535258 
776	 0.392739352095082 
777	 0.392688388208455 
778	 0.392610796437128 
779	 0.392553706281373 
780	 0.3925285714065 
781	 0.392495087173428 
782	 0.392433662129657 
783	 0.392334390639318 
784	 0.392201350499247 
785	 0.39216567427689 
786	 0.392122949987948 
787	 0.392011437769852 
788	 0.39198654069267 
789	 0.391984032573505 
790	 0.391918795667899 
791	 0.391729403990616 
792	 0.3915069119863 
793	 0.391422649472023 
794	 0.391488342276971 
795	 0.391558485291218 
796	 0.391398474608333 
797	 0.391217512537602 
798	 0.391149776901008 
799	 0.391055879637445 
800	 0.390922387223136 
801	 0.39077069466374 
802	 0.390649201373157 
803	 0.390649787491485 
804	 0.390626182004923 
805	 0.390549381984947 
806	 0.390468415724464 
807	 0.390367703156528 
808	 0.390228803378299 
809	 0.390083521618625 
810	 0.390024615843387 
811	 0.390065890585012 
812	 0.389977722579342 
813	 0.389669420838346 
814	 0.389556039974786 
815	 0.389494489710281 
816	 0.389436260826064 
817	 0.389369906038331 
818	 0.389311283730551 
819	 0.389248367989441 
820	 0.38914359664385 
821	 0.388956796144975 
822	 0.388855984249287 
823	 0.388768843302975 
824	 0.388628477970763 
825	 0.388437424243874 
826	 0.388403002375449 
827	 0.388362920371943 
828	 0.388182034680228 
829	 0.388170532357553 
830	 0.388035654783714 
831	 0.387895199088255 
832	 0.38798327197553 
833	 0.387930071470128 
834	 0.387801318652345 
835	 0.387645225797617 
836	 0.387474242223541 
837	 0.387438476014876 
838	 0.387462762542019 
839	 0.387441868435575 
840	 0.387291873205809 
841	 0.387142093171122 
842	 0.386996844561707 
843	 0.386856199901863 
844	 0.386832397859204 
845	 0.386766238444579 
846	 0.386650598144357 
847	 0.386552495138688 
848	 0.386488026351323 
849	 0.386467478352442 
850	 0.38643624545884 
851	 0.386308116785926 
852	 0.386250598108312 
853	 0.386214612451158 
854	 0.386127687280754 
855	 0.38593645312885 
856	 0.385932535280116 
857	 0.385991107581037 
858	 0.385927666842624 
859	 0.385646859813312 
860	 0.38560539927824 
861	 0.38573077840624 
862	 0.385774118539929 
863	 0.385693465946702 
864	 0.385576832923561 
865	 0.385544201977174 
866	 0.385666104608896 
867	 0.385609038160198 
868	 0.385413597830729 
869	 0.385280863429755 
870	 0.385477993695962 
871	 0.385480527244286 
872	 0.385476248275592 
873	 0.385558775590626 
874	 0.385481978689414 
875	 0.385291764152488 
876	 0.385167930766386 
877	 0.38521383291447 
878	 0.385245880946909 
879	 0.385310775498828 
880	 0.385306827623956 
881	 0.385192712170551 
882	 0.385358359238037 
883	 0.385473796431803 
884	 0.385482388177912 
885	 0.385491449178762 
886	 0.38550251266021 
887	 0.385532737733775 
888	 0.385593468240966 
889	 0.385682482463775 
890	 0.385730393393543 
891	 0.38576804574139 
892	 0.385811091714989 
893	 0.385836314784251 
894	 0.385757588732716 
895	 0.385778509654207 
896	 0.385977314454728 
897	 0.386113762125089 
898	 0.386171822577652 
899	 0.386241541109035 
900	 0.386363809976017 
901	 0.386352570321081 
902	 0.386369164407076 
903	 0.386490554441035 
904	 0.386690028864641 
905	 0.386682865946033 
906	 0.386796892397938 
907	 0.386952222997567 
908	 0.386944108937551 
909	 0.387034781205505 
910	 0.387136505561189 
911	 0.387289055983504 
912	 0.387565975241104 
913	 0.387628843299418 
914	 0.387655686697232 
915	 0.387771282340845 
916	 0.387990824182856 
917	 0.388236702644051 
918	 0.388337385772002 
919	 0.388316176116855 
920	 0.388414108335154 
921	 0.38856381484647 
922	 0.388758955536802 
923	 0.389001160970669 
924	 0.389288118043664 
925	 0.389303859885057 
926	 0.389319553022702 
927	 0.389526487329382 
928	 0.389726228388116 
929	 0.38993063931275 
930	 0.390141000581385 
931	 0.390335273704133 
932	 0.390431876168404 
933	 0.390611931018054 
934	 0.390763928089443 
935	 0.390814999955386 
936	 0.391066164337173 
937	 0.391237874459471 
938	 0.391450815437321 
939	 0.391853960813133 
940	 0.392243288702151 
941	 0.392420890300677 
942	 0.392522244840083 
943	 0.392751204608545 
944	 0.392978768823106 
945	 0.393163770964235 
946	 0.393266493550818 
947	 0.393296051331424 
948	 0.393425684314866 
949	 0.393597772128021 
950	 0.393813207125536 
951	 0.394089091917324 
952	 0.394365053554436 
953	 0.394623369592811 
954	 0.39482310544241 
955	 0.39494445993208 
956	 0.395114859945363 
957	 0.3954234274045 
958	 0.395679314242963 
959	 0.395650751282527 
960	 0.395835856634263 
961	 0.396130173154179 
962	 0.396484953094303 
963	 0.39687225515737 
964	 0.397046626175264 
965	 0.397253073053515 
966	 0.397569286071303 
967	 0.397926034605025 
968	 0.398305635460509 
969	 0.398568280237155 
970	 0.398733636087598 
971	 0.398958659012875 
972	 0.399482428007384 
973	 0.399839407711308 
974	 0.399986934476598 
975	 0.400202346988485 
976	 0.400538902741319 
977	 0.400958574716434 
978	 0.401314038185901 
979	 0.401466345844722 
980	 0.401672796338948 
981	 0.401753955678468 
982	 0.401861890940506 
983	 0.402303014302741 
984	 0.403013816195928 
985	 0.40351351977615 
986	 0.403700875906614 
987	 0.403783196449325 
988	 0.404077741417447 
989	 0.404526896717379 
990	 0.404923806500379 
991	 0.405090747707995 
992	 0.405254519466735 
993	 0.405575361265289 
994	 0.405895101674119 
995	 0.406048974327124 
996	 0.406488705258745 
997	 0.406706846613895 
998	 0.406913651184343 
999	 0.407432374259912 
1000	 0.407916829563715 
1001	 0.405881436331837 
1002	 0.406129883736958 
1003	 0.406281653525141 
1004	 0.4064432838681 
1005	 0.406616256404952 
1006	 0.406791117047275 
1007	 0.406915092744454 
1008	 0.407119856588671 
1009	 0.407346707104917 
1010	 0.40752996622318 
1011	 0.407768383286548 
1012	 0.408001889358982 
1013	 0.408229273907769 
1014	 0.408486961029252 
1015	 0.408708020624846 
1016	 0.408872218244646 
1017	 0.409059106969979 
1018	 0.409245135402464 
1019	 0.40942749280398 
1020	 0.409613550425672 
1021	 0.409848386321419 
1022	 0.410065070801645 
1023	 0.410271688011238 
1024	 0.410473212302286 
1025	 0.410674560330528 
1026	 0.41090419002868 
1027	 0.411108288777698 
1028	 0.411286723627997 
1029	 0.411523269884708 
1030	 0.411739745373213 
1031	 0.411914525470521 
1032	 0.412069220132484 
1033	 0.412288716870256 
1034	 0.412441227792661 
1035	 0.412559352920957 
1036	 0.412808556023722 
1037	 0.413023943898745 
1038	 0.413185144201956 
1039	 0.413377222699641 
1040	 0.413540601484532 
1041	 0.413693439013479 
1042	 0.413893081867388 
1043	 0.414155345751531 
1044	 0.414373458864828 
1045	 0.414584320949032 
1046	 0.414787477845314 
1047	 0.414967410555236 
1048	 0.415106431033257 
1049	 0.415278577067757 
1050	 0.415443788522476 
1051	 0.415649966856438 
1052	 0.415844169253098 
1053	 0.416009535287374 
1054	 0.416229456930157 
1055	 0.416420400521997 
1056	 0.416622961048701 
1057	 0.41684569954466 
1058	 0.417089090096552 
1059	 0.417310463832563 
1060	 0.417549689207575 
1061	 0.417775906573406 
1062	 0.417939724457206 
1063	 0.418100198824529 
1064	 0.418218340802553 
1065	 0.41833486379649 
1066	 0.418470710533781 
1067	 0.418600957312588 
1068	 0.418835986974385 
1069	 0.419078162273105 
1070	 0.419282576555417 
1071	 0.419507927757461 
1072	 0.419701907182363 
1073	 0.419834118971366 
1074	 0.420010568886892 
1075	 0.420203550029342 
1076	 0.420389710354857 
1077	 0.420575379167104 
1078	 0.420753801474263 
1079	 0.420931845893524 
1080	 0.421109703464876 
1081	 0.421268587992193 
1082	 0.421387444318217 
1083	 0.421535565368079 
1084	 0.421680713134485 
1085	 0.42182615371436 
1086	 0.421993011944633 
1087	 0.422144729790924 
1088	 0.422284635139668 
1089	 0.422401422384886 
1090	 0.422536238380675 
1091	 0.422663076617883 
1092	 0.422807488677562 
1093	 0.42288874082389 
1094	 0.422941733067027 
1095	 0.423085644962273 
1096	 0.423204178203596 
1097	 0.423297012056876 
1098	 0.423384549135984 
1099	 0.423450423117851 
1100	 0.423549166879366 
1101	 0.423655262115245 
1102	 0.4237557287477 
1103	 0.423894482123332 
1104	 0.424010255527114 
1105	 0.424044778521698 
1106	 0.424109524026168 
1107	 0.424206635906541 
1108	 0.424301813171052 
1109	 0.424432582231407 
1110	 0.424555595571187 
1111	 0.424649074357701 
1112	 0.424720277861005 
1113	 0.424789676898306 
1114	 0.424811962701349 
1115	 0.42489669191879 
1116	 0.425012119895195 
1117	 0.425120735082148 
1118	 0.425262272418605 
1119	 0.42539411397741 
1120	 0.425474973212441 
1121	 0.425557692770531 
1122	 0.425662628969642 
1123	 0.425790031834123 
1124	 0.425916096803763 
1125	 0.426082224140967 
1126	 0.426195939953298 
1127	 0.426277972293339 
1128	 0.426374088249115 
1129	 0.426464736714434 
1130	 0.426552206380508 
1131	 0.426617884987469 
1132	 0.426720286272037 
1133	 0.426865576581911 
1134	 0.42695975851006 
1135	 0.427037651599358 
1136	 0.427143694555299 
1137	 0.427213233244932 
1138	 0.427258210062109 
1139	 0.427329681373157 
1140	 0.427432057258896 
1141	 0.427507560773999 
1142	 0.42757225359478 
1143	 0.427636407096967 
1144	 0.427683830104587 
1145	 0.42775728280292 
1146	 0.427857027764128 
1147	 0.427919190965236 
1148	 0.427989661964736 
1149	 0.428040999277487 
1150	 0.428043796246631 
1151	 0.428055652718558 
1152	 0.428127558078863 
1153	 0.428196942055337 
1154	 0.428274639404884 
1155	 0.428393373281028 
1156	 0.428474225859379 
1157	 0.428533866661817 
1158	 0.428605295569696 
1159	 0.428676471162661 
1160	 0.428741017986815 
1161	 0.428808427652568 
1162	 0.42886567129303 
1163	 0.428906217753692 
1164	 0.428959030634001 
1165	 0.429011924398339 
1166	 0.429067376458605 
1167	 0.429119974449099 
1168	 0.42918813498632 
1169	 0.429276635033623 
1170	 0.42939019529973 
1171	 0.429473339814667 
1172	 0.42956636549609 
1173	 0.429649972281413 
1174	 0.429702894231498 
1175	 0.429777006866186 
1176	 0.429876317471925 
1177	 0.42995381096041 
1178	 0.430010526889122 
1179	 0.430088586525273 
1180	 0.430152043297666 
1181	 0.430244564798656 
1182	 0.430386036589204 
1183	 0.430508279363657 
1184	 0.430591050459381 
1185	 0.430664222542146 
1186	 0.430736896113673 
1187	 0.430755020492053 
1188	 0.430830280069403 
1189	 0.430954017517357 
1190	 0.431039080229742 
1191	 0.431121870832329 
1192	 0.43119795325767 
1193	 0.431239470847256 
1194	 0.43131868102971 
1195	 0.431427344082349 
1196	 0.431517257457534 
1197	 0.431625839539466 
1198	 0.431715036957543 
1199	 0.43179142834805 
1200	 0.431843647342227 
1201	 0.431909273294232 
1202	 0.431965607754509 
1203	 0.432039415056815 
1204	 0.432124700146249 
1205	 0.432199111650972 
1206	 0.43227908203116 
1207	 0.432355264723311 
1208	 0.432417842105046 
1209	 0.432491938178987 
1210	 0.432574212161359 
1211	 0.432655659603167 
1212	 0.432735247583604 
1213	 0.432822294085633 
1214	 0.432924950027032 
1215	 0.433013382076405 
1216	 0.433097851462455 
1217	 0.433187705097778 
1218	 0.433257499262155 
1219	 0.433305972775304 
1220	 0.433368535255572 
1221	 0.433427255607978 
1222	 0.433488614809376 
1223	 0.433562581626752 
1224	 0.433617871207712 
1225	 0.433658601791791 
1226	 0.433708418178716 
1227	 0.43374408402689 
1228	 0.433797236296527 
1229	 0.43386762117995 
1230	 0.433933404980231 
1231	 0.434001915924194 
1232	 0.434074941153617 
1233	 0.434150255363446 
1234	 0.434229948201697 
1235	 0.434297683026185 
1236	 0.434367422039554 
1237	 0.434432084730567 
1238	 0.434493524068045 
1239	 0.434537582520228 
1240	 0.434560541000719 
1241	 0.434610407389346 
1242	 0.434654029099443 
1243	 0.434707281771639 
1244	 0.434793702132892 
1245	 0.434859827314915 
1246	 0.434907625701231 
1247	 0.43496634837521 
1248	 0.435028011501838 
1249	 0.435091185534701 
1250	 0.43515996311946 
1251	 0.435229102818643 
1252	 0.43529979801307 
1253	 0.435373252499279 
1254	 0.435445848971242 
1255	 0.435515747181278 
1256	 0.435593392771918 
1257	 0.43568673063961 
1258	 0.435757152489203 
1259	 0.435815744497392 
1260	 0.435884374150007 
1261	 0.435943443376688 
1262	 0.436004373724712 
1263	 0.436089317648479 
1264	 0.436147647619098 
1265	 0.436173917307229 
1266	 0.436217941618487 
1267	 0.436252981235916 
1268	 0.436300061053633 
1269	 0.436357300759561 
1270	 0.43643394806413 
1271	 0.436495968538194 
1272	 0.43656533279706 
1273	 0.4366162918466 
1274	 0.436659973836443 
1275	 0.436697008053605 
1276	 0.436707768821159 
1277	 0.436747481331825 
1278	 0.436794351371805 
1279	 0.436842430749881 
1280	 0.436919309128359 
1281	 0.436969073830585 
1282	 0.437002879366816 
1283	 0.43703784867871 
1284	 0.437055839731124 
1285	 0.4370860237454 
1286	 0.437107143897026 
1287	 0.437139861125381 
1288	 0.437188863753096 
1289	 0.437247103046339 
1290	 0.437308786859598 
1291	 0.437385113290132 
1292	 0.437464284668198 
1293	 0.437555093744069 
1294	 0.437628100468186 
1295	 0.437707863807931 
1296	 0.43777567231177 
1297	 0.437813670499126 
1298	 0.437877381240011 
1299	 0.437966425320182 
1300	 0.438024819478 
1301	 0.438077629668098 
1302	 0.438126681202924 
1303	 0.438148517594297 
1304	 0.438179076517524 
1305	 0.43824552818393 
1306	 0.438291231522447 
1307	 0.438321632286522 
1308	 0.438346119516613 
1309	 0.43834636394636 
1310	 0.438310254404556 
1311	 0.438287368352083 
1312	 0.438257828775137 
1313	 0.438232412007118 
1314	 0.438213576023191 
1315	 0.438177467067788 
1316	 0.438114824000707 
1317	 0.438082789673456 
1318	 0.438053561579342 
1319	 0.438031097847932 
1320	 0.438063061866165 
1321	 0.438041341557518 
1322	 0.437984982114131 
1323	 0.437928011093675 
1324	 0.437888979648141 
1325	 0.437816375706387 
1326	 0.437769123481632 
1327	 0.437727600153305 
1328	 0.437634181031909 
1329	 0.437549193669 
1330	 0.437482009142169 
1331	 0.437417598616913 
1332	 0.437359244830996 
1333	 0.437320571247593 
1334	 0.437275455783581 
1335	 0.437229233277144 
1336	 0.437181127733767 
1337	 0.437131452669742 
1338	 0.437086487963557 
1339	 0.437054754693333 
1340	 0.437000941278726 
1341	 0.436949311601138 
1342	 0.436884551750531 
1343	 0.436805395985189 
1344	 0.436701257127555 
1345	 0.436624941507067 
1346	 0.436522002054709 
1347	 0.436395841997519 
1348	 0.436259418894213 
1349	 0.436081181399981 
1350	 0.435858840583354 
1351	 0.435644943973056 
1352	 0.435419050102214 
1353	 0.435179803364476 
1354	 0.434934595966841 
1355	 0.434669846130576 
1356	 0.434361713306123 
1357	 0.434092390305098 
1358	 0.43378139802957 
1359	 0.433570576515696 
1360	 0.433412315898206 
1361	 0.433286017508246 
1362	 0.43323576129232 
1363	 0.433185621647131 
1364	 0.433140721172232 
1365	 0.433139436285803 
1366	 0.433169478069068 
1367	 0.433232905547309 
1368	 0.433344119956707 
1369	 0.433409064034923 
1370	 0.433427441357254 
1371	 0.433416397813869 
1372	 0.433323480039706 
1373	 0.433198179174293 
1374	 0.433015966838695 
1375	 0.432812144210146 
1376	 0.432484690217091 
1377	 0.432086866232673 
1378	 0.431606104943873 
1379	 0.430955802926373 
1380	 0.430400503547258 
1381	 0.429773762668162 
1382	 0.429243634024749 
1383	 0.428840038613482 
1384	 0.428333781018156 
1385	 0.427901969151163 
1386	 0.427312870288572 
1387	 0.426640955887002 
1388	 0.425872952028976 
1389	 0.425038376853631 
1390	 0.424060455973043 
1391	 0.422947456502211 
1392	 0.421727440782619 
1393	 0.420338238755928 
1394	 0.418870834921514 
1395	 0.417362826484769 
1396	 0.415836975868525 
1397	 0.414358928980599 
1398	 0.412873164971175 
1399	 0.411439696172234 
1400	 0.410037903505979 
1401	 0.408662656179775 
1402	 0.407281763899614 
1403	 0.406012798853647 
1404	 0.404770883942715 
1405	 0.40365893212115 
1406	 0.402658462680097 
1407	 0.401714164425969 
1408	 0.400770715224541 
1409	 0.400062635468763 
1410	 0.399359554881827 
1411	 0.399021925666679 
1412	 0.398928844775669 
1413	 0.399089959408886 
1414	 0.399565564416428 
1415	 0.400274375684618 
1416	 0.401207484622836 
1417	 0.402296469315867 
1418	 0.403455066715436 
1419	 0.404640182007706 
1420	 0.405828664689498 
1421	 0.40696475601295 
1422	 0.407975546433322 
1423	 0.408886522894341 
1424	 0.409615725889806 
1425	 0.410143498267307 
1426	 0.410643230236465 
1427	 0.410993771547245 
1428	 0.411346587586573 
1429	 0.411645041318911 
1430	 0.411900721657456 
1431	 0.412128538380245 
1432	 0.412278362779772 
1433	 0.412340569993779 
1434	 0.412409786393792 
1435	 0.41239181448227 
1436	 0.412421198028367 
1437	 0.412497911505321 
1438	 0.412519000976726 
1439	 0.412521056706826 
1440	 0.412522136026884 
1441	 0.41246040098009 
1442	 0.412384041241472 
1443	 0.41232893287837 
1444	 0.412265063015693 
1445	 0.412247356817656 
1446	 0.412239163031059 
1447	 0.41220483328417 
1448	 0.412173280376918 
1449	 0.412085483118665 
1450	 0.411959782738075 
1451	 0.411881797164979 
1452	 0.411801857021481 
1453	 0.411745754189584 
1454	 0.411752436980628 
1455	 0.411684644537751 
1456	 0.411604041398258 
1457	 0.411481984569294 
1458	 0.411273839374669 
1459	 0.411149679841228 
1460	 0.411020999769539 
1461	 0.410937039349021 
1462	 0.410936382483282 
1463	 0.410883319113302 
1464	 0.410824234321988 
1465	 0.410766321945561 
1466	 0.410672929746628 
1467	 0.410626926528121 
1468	 0.41057517376426 
1469	 0.410580493782329 
1470	 0.410645681537425 
1471	 0.410711551013053 
1472	 0.410809744623378 
1473	 0.410920733998414 
1474	 0.410949241884222 
1475	 0.411016746045138 
1476	 0.411097119488061 
1477	 0.411168271147515 
1478	 0.411332625718813 
1479	 0.411494006423134 
1480	 0.411626435229921 
1481	 0.411781886415909 
1482	 0.411903411705209 
1483	 0.411991424326306 
1484	 0.412097823918624 
1485	 0.412187513956295 
1486	 0.412311906316644 
1487	 0.412454064964093 
1488	 0.412591112872528 
1489	 0.412773025912356 
1490	 0.412889756933485 
1491	 0.41298477309395 
1492	 0.41305593930944 
1493	 0.413056028731808 
1494	 0.413111685519837 
1495	 0.413174616621969 
1496	 0.413243247098241 
1497	 0.413358669865704 
1498	 0.413428432313455 
1499	 0.413479349242833 
1500	 0.413519925630052 
1501	 0.413524106930112 
1502	 0.41355159483897 
1503	 0.413581715431806 
1504	 0.413607710995274 
1505	 0.413660683135101 
1506	 0.413708288627735 
1507	 0.41374146339666 
1508	 0.413781579316618 
1509	 0.413803439632835 
1510	 0.413819766675581 
1511	 0.413840397372082 
1512	 0.413840212509313 
1513	 0.413851426786926 
1514	 0.413866088550955 
1515	 0.413887358050706 
1516	 0.413919131917039 
1517	 0.413913283634153 
1518	 0.413891410289872 
1519	 0.413860819044841 
1520	 0.413787610390332 
1521	 0.413760788884289 
1522	 0.41374960186729 
1523	 0.413737703423564 
1524	 0.413757185338319 
1525	 0.413735424378034 
1526	 0.413691279125304 
1527	 0.413653551662617 
1528	 0.413597361799579 
1529	 0.413552471219896 
1530	 0.413522611662716 
1531	 0.413480051006907 
1532	 0.413418181183272 
1533	 0.413377979247752 
1534	 0.413344905649695 
1535	 0.413309537394979 
1536	 0.413282107243402 
1537	 0.413264535016153 
1538	 0.413250262148887 
1539	 0.413235162832545 
1540	 0.413232388678394 
1541	 0.413227659317727 
1542	 0.413239622114194 
1543	 0.413214613494516 
1544	 0.413171904113929 
1545	 0.413125602246558 
1546	 0.413051118853873 
1547	 0.412966066426227 
1548	 0.412909942879346 
1549	 0.412859668845568 
1550	 0.412832358198643 
1551	 0.4128042774662 
1552	 0.412770910726207 
1553	 0.412750093695354 
1554	 0.412691219714601 
1555	 0.41263278367594 
1556	 0.412583290919551 
1557	 0.412523186094111 
1558	 0.412481249008348 
1559	 0.41242733112644 
1560	 0.41237126700537 
1561	 0.412311405951851 
1562	 0.412253291513943 
1563	 0.412183978926597 
1564	 0.412141540804529 
1565	 0.412122526353875 
1566	 0.412071529096078 
1567	 0.412026524788121 
1568	 0.411955788581467 
1569	 0.411849920416498 
1570	 0.41176283564562 
1571	 0.411678183421035 
1572	 0.411590991544671 
1573	 0.411490649937847 
1574	 0.411412914660443 
1575	 0.411342173919143 
1576	 0.41127669637945 
1577	 0.411233350905174 
1578	 0.411183463430462 
1579	 0.411134358852048 
1580	 0.4110804953425 
1581	 0.411025747073894 
1582	 0.410972198551077 
1583	 0.410916331596127 
1584	 0.410853869912507 
1585	 0.410799038628258 
1586	 0.410728306082009 
1587	 0.41064238688717 
1588	 0.410559135975917 
1589	 0.410467490429353 
1590	 0.410374654174553 
1591	 0.410277489637359 
1592	 0.410185341131565 
1593	 0.410094287576224 
1594	 0.410003477883486 
1595	 0.409923201262599 
1596	 0.409823595587938 
1597	 0.409717170875353 
1598	 0.40960301947918 
1599	 0.409470463264875 
1600	 0.409343956508748 
1601	 0.409198052897981 
1602	 0.409080235892112 
1603	 0.408980380726464 
1604	 0.408880660905278 
1605	 0.408798319801073 
1606	 0.408718797612431 
1607	 0.40864342715947 
1608	 0.408565081256839 
1609	 0.40849599174348 
1610	 0.408416987708432 
1611	 0.408325286906222 
1612	 0.408213270331289 
1613	 0.408084699290076 
1614	 0.407950896105202 
1615	 0.40782676323872 
1616	 0.407739355068692 
1617	 0.407671280760563 
1618	 0.407622799340594 
1619	 0.407572823172259 
1620	 0.407491447018679 
1621	 0.407404013976129 
1622	 0.407302653228596 
1623	 0.407199011691301 
1624	 0.407082480239855 
1625	 0.406967882666051 
1626	 0.406842142196544 
1627	 0.406742214749788 
1628	 0.406647251695431 
1629	 0.406558284463426 
1630	 0.406500792249994 
1631	 0.406395587144666 
1632	 0.406271392312854 
1633	 0.40614595446169 
1634	 0.405996633512789 
1635	 0.405861216089775 
1636	 0.405730908255472 
1637	 0.405593216425498 
1638	 0.405442154011333 
1639	 0.40531719469895 
1640	 0.405200582008017 
1641	 0.405087810937772 
1642	 0.404996773001208 
1643	 0.404888681618094 
1644	 0.404783515928545 
1645	 0.404652658283119 
1646	 0.404504125338939 
1647	 0.404363385415157 
1648	 0.404193821842444 
1649	 0.404064974554556 
1650	 0.40396490107909 
1651	 0.403850150249299 
1652	 0.403747718263386 
1653	 0.403636308106037 
1654	 0.403517497093812 
1655	 0.403398615581516 
1656	 0.403287430005517 
1657	 0.403156391243162 
1658	 0.402998002631161 
1659	 0.402873507321303 
1660	 0.402754277285664 
1661	 0.402638323363091 
1662	 0.402548822390416 
1663	 0.402440825978393 
1664	 0.402336178009321 
1665	 0.402197052013645 
1666	 0.402044843679331 
1667	 0.401878423187583 
1668	 0.401666468180066 
1669	 0.4014855814044 
1670	 0.40130101392259 
1671	 0.401144505445118 
1672	 0.4009975639683 
1673	 0.400877181258427 
1674	 0.400806838756671 
1675	 0.400695057045108 
1676	 0.40059665576773 
1677	 0.400461152689624 
1678	 0.400280084365319 
1679	 0.400121861441645 
1680	 0.399946358558027 
1681	 0.399797569564523 
1682	 0.399665024634131 
1683	 0.399534650416311 
1684	 0.399428556765927 
1685	 0.399298610362241 
1686	 0.399171672642595 
1687	 0.399017229832596 
1688	 0.398832710160179 
1689	 0.398662516863418 
1690	 0.398484649995855 
1691	 0.398305137103581 
1692	 0.398134325645145 
1693	 0.397948137646042 
1694	 0.397734120625017 
1695	 0.397550586434538 
1696	 0.397359732186634 
1697	 0.397210838547746 
1698	 0.397107478862932 
1699	 0.396982705324915 
1700	 0.396882818425575 
1701	 0.396755634038851 
1702	 0.396607780583014 
1703	 0.39646190968635 
1704	 0.39631338421672 
1705	 0.3961561430502 
1706	 0.395973965624721 
1707	 0.395825942541664 
1708	 0.395694803925394 
1709	 0.395553676121404 
1710	 0.395436998182391 
1711	 0.395293940245022 
1712	 0.395116841444414 
1713	 0.394964808486753 
1714	 0.394824153804579 
1715	 0.394674799016142 
1716	 0.39452393562437 
1717	 0.394386294789429 
1718	 0.394261803631472 
1719	 0.394100623530451 
1720	 0.393937132533867 
1721	 0.393766538713604 
1722	 0.393556072287011 
1723	 0.393376618479434 
1724	 0.393234209447377 
1725	 0.393034616448444 
1726	 0.392798421186512 
1727	 0.392596245433741 
1728	 0.392366097997327 
1729	 0.392187878810705 
1730	 0.392051680711475 
1731	 0.391918228291745 
1732	 0.39180479044684 
1733	 0.391689786613231 
1734	 0.391608135144324 
1735	 0.391471459334115 
1736	 0.391323449782867 
1737	 0.391146303819716 
1738	 0.390930331531412 
1739	 0.390709963055072 
1740	 0.390455759462497 
1741	 0.390241747894561 
1742	 0.39001456684553 
1743	 0.389835193506779 
1744	 0.389701872632146 
1745	 0.389565469026267 
1746	 0.389449147641829 
1747	 0.389331504086144 
1748	 0.389208522437408 
1749	 0.389026029668359 
1750	 0.388856726894144 
1751	 0.388686917104797 
1752	 0.388487053452054 
1753	 0.388311873636025 
1754	 0.388134250994554 
1755	 0.387964132991064 
1756	 0.387798371434843 
1757	 0.387608142278321 
1758	 0.387438529451597 
1759	 0.387274364861475 
1760	 0.387116872816241 
1761	 0.386992326811784 
1762	 0.386874320200527 
1763	 0.38673622448 
1764	 0.386580620343026 
1765	 0.386436423471473 
1766	 0.386298189979057 
1767	 0.386163816599821 
1768	 0.386016986759799 
1769	 0.385867943228755 
1770	 0.385743365269617 
1771	 0.385604657102761 
1772	 0.385485488773567 
1773	 0.385399708693048 
1774	 0.385266158587505 
1775	 0.385113176914024 
1776	 0.384979092491625 
1777	 0.384826105249284 
1778	 0.384667653131394 
1779	 0.38453227868794 
1780	 0.384399911722008 
1781	 0.384255140699247 
1782	 0.384136752998884 
1783	 0.384063298135181 
1784	 0.383972537324658 
1785	 0.383893783889301 
1786	 0.383798438601492 
1787	 0.383702903027627 
1788	 0.383572399068049 
1789	 0.383392726579579 
1790	 0.383259371396093 
1791	 0.383140774921018 
1792	 0.382999147185435 
1793	 0.382874331613893 
1794	 0.38273131505336 
1795	 0.382526981415032 
1796	 0.382385062692934 
1797	 0.382297352374517 
1798	 0.382196041874515 
1799	 0.382113082573522 
1800	 0.382008463538075 
1801	 0.375350542370676 
1802	 0.375660016719461 
1803	 0.37606308022163 
1804	 0.376456077671485 
1805	 0.376788558365103 
1806	 0.377143527629696 
1807	 0.377493788607213 
1808	 0.377749277164186 
1809	 0.377945913230224 
1810	 0.378099820341244 
1811	 0.378205199901741 
1812	 0.378239456458433 
1813	 0.378249912196807 
1814	 0.378248490442028 
1815	 0.378206088693104 
1816	 0.378128632739719 
1817	 0.378055962200967 
1818	 0.377924765667848 
1819	 0.377860738468344 
1820	 0.377831822811497 
1821	 0.377790821189059 
1822	 0.377745308890926 
1823	 0.377688496312758 
1824	 0.377563738128656 
1825	 0.377430577955949 
1826	 0.377311738753185 
1827	 0.377168743048743 
1828	 0.377006287237221 
1829	 0.376832714437411 
1830	 0.376641276348927 
1831	 0.37641870328468 
1832	 0.376205970745264 
1833	 0.375971871627819 
1834	 0.375728137700087 
1835	 0.375497405931664 
1836	 0.375288877259459 
1837	 0.375126959659746 
1838	 0.375001664365513 
1839	 0.374886513606408 
1840	 0.374813859503654 
1841	 0.374707797261734 
1842	 0.374608693930524 
1843	 0.374559897059877 
1844	 0.37451926726723 
1845	 0.37448362544437 
1846	 0.374470178007486 
1847	 0.374457347440943 
1848	 0.374436430988823 
1849	 0.374434916317865 
1850	 0.374429386055942 
1851	 0.374426377899862 
1852	 0.374414732368554 
1853	 0.37442838888845 
1854	 0.374450954874466 
1855	 0.37445714211384 
1856	 0.374424437834369 
1857	 0.374365388835101 
1858	 0.37428963214656 
1859	 0.374231882546983 
1860	 0.374119521601611 
1861	 0.374009950168423 
1862	 0.373818448467172 
1863	 0.373541394162175 
1864	 0.37315876428408 
1865	 0.37274284707346 
1866	 0.372274442643362 
1867	 0.371801443436961 
1868	 0.371349005926693 
1869	 0.370886941224143 
1870	 0.370496394590788 
1871	 0.37013996293738 
1872	 0.369819880302225 
1873	 0.369550005090569 
1874	 0.369336045184655 
1875	 0.36914953655416 
1876	 0.368933292412341 
1877	 0.368662271652687 
1878	 0.368297537948944 
1879	 0.367803660347339 
1880	 0.367212037611123 
1881	 0.366526614647529 
1882	 0.365731265594693 
1883	 0.364841900730635 
1884	 0.363809096645801 
1885	 0.362685110689452 
1886	 0.361458778568467 
1887	 0.360121114732093 
1888	 0.358740696728918 
1889	 0.357285461274055 
1890	 0.355784502986171 
1891	 0.354221443567607 
1892	 0.352589898377918 
1893	 0.350901673828347 
1894	 0.349149215604674 
1895	 0.347327429386302 
1896	 0.345488270991302 
1897	 0.343658904635601 
1898	 0.34178515551101 
1899	 0.339964757121748 
1900	 0.338238947567124 
1901	 0.336571828520788 
1902	 0.335032394506914 
1903	 0.333680123446713 
1904	 0.332333039144097 
1905	 0.331047009269041 
1906	 0.329835407631522 
1907	 0.328685238704718 
1908	 0.327577158034061 
1909	 0.326542320227393 
1910	 0.32554563325716 
1911	 0.324609331439881 
1912	 0.323721403213474 
1913	 0.322875533096966 
1914	 0.32205833725848 
1915	 0.321329707249326 
1916	 0.320662895608671 
1917	 0.320034814697272 
1918	 0.319508182007927 
1919	 0.319050798417809 
1920	 0.318647095791601 
1921	 0.318307187562778 
1922	 0.317985437373311 
1923	 0.317719015940083 
1924	 0.317484992028174 
1925	 0.317297451179806 
1926	 0.317123289145647 
1927	 0.31700016163596 
1928	 0.316864145654881 
1929	 0.316731457526874 
1930	 0.316623369175774 
1931	 0.316520392203461 
1932	 0.316433322733714 
1933	 0.316378086251223 
1934	 0.31633820125616 
1935	 0.316330468936799 
1936	 0.316353117752575 
1937	 0.316399931163083 
1938	 0.31647065348679 
1939	 0.316570639158027 
1940	 0.316701505922661 
1941	 0.316846174053904 
1942	 0.317027077549643 
1943	 0.317208516061432 
1944	 0.317400068952327 
1945	 0.31763577525772 
1946	 0.317867251208711 
1947	 0.3181221329119 
1948	 0.318371841710528 
1949	 0.318624322457956 
1950	 0.318870365034665 
1951	 0.319117170028349 
1952	 0.319367144485186 
1953	 0.319596015752033 
1954	 0.319867309639447 
1955	 0.320145182490996 
1956	 0.32042365757404 
1957	 0.320727507025043 
1958	 0.321069961588168 
1959	 0.321388936481908 
1960	 0.321715315711791 
1961	 0.322034968751107 
1962	 0.32235321427431 
1963	 0.322657822789339 
1964	 0.322949358311434 
1965	 0.323249495221287 
1966	 0.323549477554472 
1967	 0.32385153882699 
1968	 0.324164491552856 
1969	 0.324508988235683 
1970	 0.324818842411092 
1971	 0.325116043174226 
1972	 0.325412436060423 
1973	 0.325684111029054 
1974	 0.325974502446663 
1975	 0.326275316691443 
1976	 0.32657154883619 
1977	 0.326873439262163 
1978	 0.327190262794747 
1979	 0.327484538218455 
1980	 0.327805368172397 
1981	 0.328114037454309 
1982	 0.328408539335442 
1983	 0.328720551298805 
1984	 0.329053758332956 
1985	 0.329365602237562 
1986	 0.329685172017775 
1987	 0.329993187911658 
1988	 0.330288888558942 
1989	 0.330560440592659 
1990	 0.330864020794706 
1991	 0.331153571647983 
1992	 0.331453791491406 
1993	 0.331766940299431 
1994	 0.332072599484739 
1995	 0.33239365273855 
1996	 0.332678593563885 
1997	 0.332938361369355 
1998	 0.333209704537014 
1999	 0.333442285276983 
2000	 0.333712608132989 
2001	 0.334010069118641 
2002	 0.334315864044798 
2003	 0.33462793107303 
2004	 0.334925436128079 
2005	 0.335221082340861 
2006	 0.335499737485306 
2007	 0.335805921255528 
2008	 0.336124654708845 
2009	 0.336440040898932 
2010	 0.336781066697937 
2011	 0.337093114816161 
2012	 0.337377235771775 
2013	 0.337676729428773 
2014	 0.337972899402661 
2015	 0.338275985808917 
2016	 0.338575316425386 
2017	 0.338874044381305 
2018	 0.339159511223962 
2019	 0.339426106387855 
2020	 0.339700796954863 
2021	 0.339975607606784 
2022	 0.34024368113105 
2023	 0.340519042406232 
2024	 0.340774606347072 
2025	 0.340999371690331 
2026	 0.341247164775307 
2027	 0.341497868825246 
2028	 0.341739915747366 
2029	 0.341999506985748 
2030	 0.342289493262482 
2031	 0.342548342790693 
2032	 0.342810412461769 
2033	 0.343038481307028 
2034	 0.343234400491646 
2035	 0.343442322005657 
2036	 0.3436340489033 
2037	 0.343828452623647 
2038	 0.344036195487061 
2039	 0.344227301428407 
2040	 0.344403270840273 
2041	 0.344576558804391 
2042	 0.344748124646682 
2043	 0.344893304516319 
2044	 0.34504868314825 
2045	 0.345195776466082 
2046	 0.345345854384827 
2047	 0.345506404746636 
2048	 0.34564825103638 
2049	 0.345772175766619 
2050	 0.345909094534293 
2051	 0.34602368775786 
2052	 0.346170039660495 
2053	 0.346358461096607 
2054	 0.346521662174701 
2055	 0.346692381291854 
2056	 0.346859388311711 
2057	 0.346996586882901 
2058	 0.347105395344492 
2059	 0.347214352058595 
2060	 0.347308629548796 
2061	 0.34739815881416 
2062	 0.347464132388155 
2063	 0.347554670824779 
2064	 0.347650271236289 
2065	 0.347743477792319 
2066	 0.347840149756838 
2067	 0.347950779228706 
2068	 0.348066056560121 
2069	 0.348191811138388 
2070	 0.348288955664066 
2071	 0.348396349041245 
2072	 0.348477194875636 
2073	 0.348513005802085 
2074	 0.348580810852506 
2075	 0.348653110362146 
2076	 0.348732840406345 
2077	 0.348830403570008 
2078	 0.348909182223696 
2079	 0.348981279415609 
2080	 0.349057898928842 
2081	 0.349122001412751 
2082	 0.349194037284987 
2083	 0.349263142417501 
2084	 0.349369372449815 
2085	 0.349438099703527 
2086	 0.34950420013978 
2087	 0.349546871708169 
2088	 0.349569285409039 
2089	 0.349587281820446 
2090	 0.349566483213649 
2091	 0.349590834757424 
2092	 0.349632468079411 
2093	 0.349669509982242 
2094	 0.349734147203554 
2095	 0.349783778875352 
2096	 0.349811563319631 
2097	 0.349853327259371 
2098	 0.349892898954967 
2099	 0.349956754272889 
2100	 0.350010423751287 
2101	 0.350065717750296 
2102	 0.350126618096045 
2103	 0.350187894296029 
2104	 0.350256029549184 
2105	 0.350328440032334 
2106	 0.350412646630981 
2107	 0.35049576868584 
2108	 0.350600736375265 
2109	 0.350740990398405 
2110	 0.35085628890386 
2111	 0.350969730305458 
2112	 0.351089593675665 
2113	 0.351207451505728 
2114	 0.351311218714327 
2115	 0.351428642504899 
2116	 0.351562750126169 
2117	 0.351678969256451 
2118	 0.351770936503967 
2119	 0.35190726663189 
2120	 0.352070321808369 
2121	 0.352212981849063 
2122	 0.352385506864349 
2123	 0.352519982451109 
2124	 0.352638757302338 
2125	 0.35272695612773 
2126	 0.352778193499489 
2127	 0.352842399569812 
2128	 0.352871540806911 
2129	 0.352919950350605 
2130	 0.352998018191529 
2131	 0.353067280653611 
2132	 0.35310163094456 
2133	 0.35312186850664 
2134	 0.353129680911122 
2135	 0.353099412397523 
2136	 0.353088824337797 
2137	 0.353112826895437 
2138	 0.353062593547885 
2139	 0.352998904840217 
2140	 0.35288388785167 
2141	 0.352686863576223 
2142	 0.352505045754087 
2143	 0.352317318169956 
2144	 0.352092066342105 
2145	 0.351853713831512 
2146	 0.351582902928044 
2147	 0.351270093452602 
2148	 0.350931915880335 
2149	 0.350583976284651 
2150	 0.350211420834052 
2151	 0.349839641888096 
2152	 0.349460912632351 
2153	 0.349056800757861 
2154	 0.348646207282541 
2155	 0.348205345382646 
2156	 0.347744114033245 
2157	 0.347250562976873 
2158	 0.346734422056145 
2159	 0.346187739116877 
2160	 0.345579967420911 
2161	 0.344992700272614 
2162	 0.344410129505879 
2163	 0.343797472716679 
2164	 0.343160902364723 
2165	 0.342540732186157 
2166	 0.341896540423773 
2167	 0.34122447374825 
2168	 0.340548257331167 
2169	 0.33988274595038 
2170	 0.339172593011699 
2171	 0.338433413801617 
2172	 0.337671742837713 
2173	 0.336897243338523 
2174	 0.336074941866282 
2175	 0.335216584768854 
2176	 0.334328818702001 
2177	 0.333408925237263 
2178	 0.332444493302618 
2179	 0.331414797489615 
2180	 0.330400850108208 
2181	 0.329359745893965 
2182	 0.328304897031615 
2183	 0.32725928378394 
2184	 0.326182782928683 
2185	 0.325100651907233 
2186	 0.323982425620775 
2187	 0.322882369331498 
2188	 0.321764086952313 
2189	 0.320694486949865 
2190	 0.319605008167544 
2191	 0.318605010247013 
2192	 0.317631895491595 
2193	 0.316761961147097 
2194	 0.315947485359293 
2195	 0.315235826109815 
2196	 0.314627108102475 
2197	 0.314091436243094 
2198	 0.313648931283018 
2199	 0.313275809147021 
2200	 0.312981331405173 
2201	 0.312765206247079 
2202	 0.312623239830743 
2203	 0.312557133203834 
2204	 0.312602774847067 
2205	 0.312728675798056 
2206	 0.3129843555275 
2207	 0.313346136627771 
2208	 0.313841082676933 
2209	 0.314505229814643 
2210	 0.315177218394567 
2211	 0.315966344251002 
2212	 0.316774961730828 
2213	 0.317646442406216 
2214	 0.318513433717184 
2215	 0.319494102931749 
2216	 0.320364965228325 
2217	 0.321220353205497 
2218	 0.322001614650313 
2219	 0.322713499321817 
2220	 0.323383861292174 
2221	 0.324004901889892 
2222	 0.324567601959347 
2223	 0.325073580947503 
2224	 0.325555716977688 
2225	 0.325972069366291 
2226	 0.326327131316447 
2227	 0.326642228453771 
2228	 0.326894471702022 
2229	 0.327140322092283 
2230	 0.327348363382711 
2231	 0.327530376017255 
2232	 0.327697038941686 
2233	 0.327818607668915 
2234	 0.327890654470018 
2235	 0.327945679224465 
2236	 0.327977173865913 
2237	 0.327968563505933 
2238	 0.327907745899401 
2239	 0.327852105445198 
2240	 0.327765612528649 
2241	 0.327674203508729 
2242	 0.327569838164383 
2243	 0.327474468228707 
2244	 0.327383589562005 
2245	 0.327273582467044 
2246	 0.327157382335724 
2247	 0.326978320006055 
2248	 0.326815992600794 
2249	 0.32662198175495 
2250	 0.32643043032633 
2251	 0.326235074630161 
2252	 0.32605607616122 
2253	 0.325840358125703 
2254	 0.325684360964343 
2255	 0.32557256515447 
2256	 0.32546647013781 
2257	 0.32538285795401 
2258	 0.325312892477597 
2259	 0.325277450764393 
2260	 0.325223385779369 
2261	 0.325156718122293 
2262	 0.325119779353937 
2263	 0.325068161530201 
2264	 0.32506860469119 
2265	 0.325151426183933 
2266	 0.325192432478485 
2267	 0.325228640126626 
2268	 0.325283430317094 
2269	 0.325360399433088 
2270	 0.325371224275263 
2271	 0.325423076834197 
2272	 0.325489179852606 
2273	 0.325515476500866 
2274	 0.325583705201932 
2275	 0.325644575136464 
2276	 0.325732136504818 
2277	 0.325770668880347 
2278	 0.325782743475149 
2279	 0.325812133011558 
2280	 0.325795195674101 
2281	 0.325862974509978 
2282	 0.326006977377899 
2283	 0.326097699660558 
2284	 0.326234546383556 
2285	 0.326295522092128 
2286	 0.326279363376886 
2287	 0.326289339625255 
2288	 0.326289146249734 
2289	 0.326273030507997 
2290	 0.326229421849613 
2291	 0.326219160446309 
2292	 0.326207712369211 
2293	 0.326197315429749 
2294	 0.32622580549218 
2295	 0.326237376627653 
2296	 0.326238497142536 
2297	 0.326228342087449 
2298	 0.326215360174522 
2299	 0.326137324112203 
2300	 0.32602257559585 
2301	 0.325916999695661 
2302	 0.325801170494073 
2303	 0.325693755784208 
2304	 0.325562993738908 
2305	 0.325399541358744 
2306	 0.325220089066068 
2307	 0.325000286841654 
2308	 0.324797448556631 
2309	 0.324585619535299 
2310	 0.324378501820305 
2311	 0.324171123814003 
2312	 0.323967996489602 
2313	 0.32377760293326 
2314	 0.323553791341935 
2315	 0.323334234624001 
2316	 0.323066460034063 
2317	 0.322753716967766 
2318	 0.322447135520702 
2319	 0.322099891431799 
2320	 0.321790511725541 
2321	 0.321451440756226 
2322	 0.321177938240113 
2323	 0.32097051904276 
2324	 0.320744094106027 
2325	 0.320589713131503 
2326	 0.320374297514258 
2327	 0.32012988434996 
2328	 0.319845861924192 
2329	 0.31955488317272 
2330	 0.319273495590033 
2331	 0.318955845556187 
2332	 0.318603708610333 
2333	 0.318244838408914 
2334	 0.317906489939374 
2335	 0.317623094864888 
2336	 0.317281394027957 
2337	 0.316925186276304 
2338	 0.316553868343896 
2339	 0.316180864060725 
2340	 0.31587855613581 
2341	 0.315541075696261 
2342	 0.315224418728378 
2343	 0.31493424940185 
2344	 0.314619803688769 
2345	 0.314318646707833 
2346	 0.31407029658666 
2347	 0.31378448337884 
2348	 0.313430943295955 
2349	 0.313171498383739 
2350	 0.312942894656007 
2351	 0.312731508395682 
2352	 0.312603875403051 
2353	 0.312432480741333 
2354	 0.312246925498486 
2355	 0.312085336302436 
2356	 0.311941706654591 
2357	 0.311750337187832 
2358	 0.311553022686531 
2359	 0.311364014183196 
2360	 0.311107693170009 
2361	 0.31092233671469 
2362	 0.310836512583208 
2363	 0.310656514240586 
2364	 0.310464467306574 
2365	 0.310240458634628 
2366	 0.309947081081906 
2367	 0.309656934380978 
2368	 0.309350301183707 
2369	 0.309053108584031 
2370	 0.30875675482855 
2371	 0.308416633426731 
2372	 0.308084840189079 
2373	 0.307803214276712 
2374	 0.307428493814277 
2375	 0.307021371113031 
2376	 0.306657756194747 
2377	 0.306244978794632 
2378	 0.305886163689622 
2379	 0.305606648954612 
2380	 0.305240579461975 
2381	 0.304793866455773 
2382	 0.30435110008664 
2383	 0.303853041623754 
2384	 0.303381980797363 
2385	 0.303050066628533 
2386	 0.30266178540045 
2387	 0.302258249848055 
2388	 0.302007246340344 
2389	 0.301688815102635 
2390	 0.301385612479425 
2391	 0.301126201468539 
2392	 0.300642962495823 
2393	 0.300161103776761 
2394	 0.299782168087351 
2395	 0.299400184856344 
2396	 0.299062256722759 
2397	 0.298723064998843 
2398	 0.298355048116906 
2399	 0.297937356634596 
2400	 0.297480275831661 
2401	 0.29703253492487 
2402	 0.296514030087709 
2403	 0.295903433792084 
2404	 0.295283686385373 
2405	 0.294716317136705 
2406	 0.294167730826858 
2407	 0.293698813357243 
2408	 0.293304062556852 
2409	 0.292743760018226 
2410	 0.292050046883205 
2411	 0.291329747742122 
2412	 0.290691541978195 
2413	 0.290143325640439 
2414	 0.289680252287131 
2415	 0.289235549045483 
2416	 0.288668268086577 
2417	 0.287928615404793 
2418	 0.287357258048339 
2419	 0.286779660939305 
2420	 0.286258289960205 
2421	 0.285899141756246 
2422	 0.285407623574376 
2423	 0.284856959192579 
2424	 0.284291527279631 
2425	 0.283650823898817 
2426	 0.283026827515706 
2427	 0.282402057413066 
2428	 0.281886244834933 
2429	 0.281418433858618 
2430	 0.280927921054664 
2431	 0.28051081258424 
2432	 0.279982568576213 
2433	 0.279331111432838 
2434	 0.278898115429274 
2435	 0.278595649736839 
2436	 0.278103788273598 
2437	 0.27762786183741 
2438	 0.277100623095622 
2439	 0.276363216119226 
2440	 0.275818657933918 
2441	 0.275412568421919 
2442	 0.274995524399171 
2443	 0.274619719382589 
2444	 0.274294314265286 
2445	 0.274050434923102 
2446	 0.273728065567769 
2447	 0.273357389551953 
2448	 0.273020616005592 
2449	 0.272676788618455 
2450	 0.272286921164135 
2451	 0.271954093838778 
2452	 0.271575675864437 
2453	 0.271085911167285 
2454	 0.270707767062417 
2455	 0.270369494233694 
2456	 0.270061642048939 
2457	 0.269814134427085 
2458	 0.269549669048728 
2459	 0.269319689099241 
2460	 0.268991377792019 
2461	 0.268653662689784 
2462	 0.26828530765021 
2463	 0.267853826477014 
2464	 0.267462837690705 
2465	 0.266972736225819 
2466	 0.266575793154345 
2467	 0.266214495949166 
2468	 0.265909956236341 
2469	 0.265786754695722 
2470	 0.265639737312039 
2471	 0.265309059207591 
2472	 0.265079855537426 
2473	 0.264914397475307 
2474	 0.264712555760013 
2475	 0.264528367850881 
2476	 0.264263733924307 
2477	 0.264044197144276 
2478	 0.26375836616404 
2479	 0.263363222979902 
2480	 0.263008246972387 
2481	 0.26257112391323 
2482	 0.262128763452084 
2483	 0.261719591215688 
2484	 0.261450274429163 
2485	 0.261361511281815 
2486	 0.261220033097568 
2487	 0.261090584647551 
2488	 0.260813178706647 
2489	 0.260180730904256 
2490	 0.259607450139246 
2491	 0.259106311767156 
2492	 0.258721550616513 
2493	 0.258571201761775 
2494	 0.258354594603573 
2495	 0.25824564210881 
2496	 0.258258379435965 
2497	 0.258096070564762 
2498	 0.257855960950483 
2499	 0.257508622178782 
2500	 0.256944403653508 
