Wavelength	LMW_1600009.asd
350	 9.33258919061468E-02 
351	 9.04378166849698E-02 
352	 8.54714269105153E-02 
353	 8.18105349689701E-02 
354	 8.22714224210904E-02 
355	 9.01289470877942E-02 
356	 9.75010125857076E-02 
357	 9.71965448249631E-02 
358	 9.52659469673924E-02 
359	 9.36413147689425E-02 
360	 9.37686716855018E-02 
361	 9.60567775158021E-02 
362	 9.25850937601075E-02 
363	 9.22772469819436E-02 
364	 9.74583702711414E-02 
365	 9.73022249467159E-02 
366	 9.58513402888771E-02 
367	 9.45349132862283E-02 
368	 9.42540717140958E-02 
369	 9.61556522878122E-02 
370	 9.90162302620304E-02 
371	 0.101146459856154 
372	 0.100954962273744 
373	 0.102437045295743 
374	 0.105270012296194 
375	 0.108116713143343 
376	 0.108991137760902 
377	 0.108971160304871 
378	 0.109980020576334 
379	 0.113057120330402 
380	 0.115016068526092 
381	 0.114959889119031 
382	 0.115097069523189 
383	 0.119256077862023 
384	 0.121797822184301 
385	 0.123504162908109 
386	 0.125280386593658 
387	 0.126180393317984 
388	 0.129555488469484 
389	 0.132549412067795 
390	 0.131986786808755 
391	 0.133154171827391 
392	 0.134928387916563 
393	 0.137273908582555 
394	 0.141134845496923 
395	 0.144064705212097 
396	 0.145291851614582 
397	 0.145551682217142 
398	 0.147960675389141 
399	 0.151112420938625 
400	 0.154350267091138 
401	 0.157231571955961 
402	 0.159545691793153 
403	 0.161058814286236 
404	 0.162220792377224 
405	 0.164135144869924 
406	 0.16725726731628 
407	 0.169832004482507 
408	 0.170939063404279 
409	 0.172771360284388 
410	 0.174253029034862 
411	 0.175626125696885 
412	 0.177541248360845 
413	 0.179047005862156 
414	 0.180271605403915 
415	 0.181400697529647 
416	 0.182544001375355 
417	 0.183503243645751 
418	 0.184419056021579 
419	 0.185441280792737 
420	 0.186589002669514 
421	 0.186809972771692 
422	 0.186602839756035 
423	 0.187300849999022 
424	 0.187671460071699 
425	 0.187958267200239 
426	 0.188250812692945 
427	 0.187982255339354 
428	 0.187706331494445 
429	 0.18781055938716 
430	 0.188304571495043 
431	 0.187642627992201 
432	 0.187404793346951 
433	 0.187762468002988 
434	 0.187474936737235 
435	 0.188064409084053 
436	 0.189075274482275 
437	 0.189867653284444 
438	 0.190274794968463 
439	 0.191205857596873 
440	 0.192658555864457 
441	 0.194162235565289 
442	 0.195640587650758 
443	 0.197171233578333 
444	 0.198734621537385 
445	 0.200113294174469 
446	 0.201829139856151 
447	 0.203730759888823 
448	 0.205529275613316 
449	 0.207260908441769 
450	 0.209189131499618 
451	 0.211110228392247 
452	 0.212478318955641 
453	 0.213847929884396 
454	 0.215471499892065 
455	 0.217293316329581 
456	 0.218703310886662 
457	 0.219854908762158 
458	 0.220952251685634 
459	 0.222202018264824 
460	 0.223480975858919 
461	 0.224680010069181 
462	 0.225755208822788 
463	 0.226745192124426 
464	 0.227702179858558 
465	 0.228594972725375 
466	 0.229413384069066 
467	 0.230330582050893 
468	 0.231236469644819 
469	 0.232033065633437 
470	 0.232670909914752 
471	 0.2336519104272 
472	 0.23453322002744 
473	 0.235037792368225 
474	 0.235586827211362 
475	 0.236619822299171 
476	 0.237740651179952 
477	 0.23829609310854 
478	 0.238832498643857 
479	 0.23970544794429 
480	 0.240819468383738 
481	 0.24149584986823 
482	 0.242261303330158 
483	 0.243076339622777 
484	 0.243821001171486 
485	 0.244710855886019 
486	 0.245504612968463 
487	 0.246142863379525 
488	 0.246746926649718 
489	 0.247636306204979 
490	 0.248630952758724 
491	 0.249534299593851 
492	 0.250338883828501 
493	 0.25114502981947 
494	 0.252020314762535 
495	 0.252990869937651 
496	 0.253951536522456 
497	 0.254725103211849 
498	 0.255404697968421 
499	 0.256493245528628 
500	 0.257443150135004 
501	 0.258245513957734 
502	 0.259053075846952 
503	 0.259991814875415 
504	 0.260802487520301 
505	 0.26151931999392 
506	 0.262440106121813 
507	 0.263374574854486 
508	 0.264342285240679 
509	 0.265300043008738 
510	 0.265909101930685 
511	 0.266607438737414 
512	 0.26747873027297 
513	 0.268388144086091 
514	 0.269110425023066 
515	 0.26984341132655 
516	 0.270722851534847 
517	 0.271726424718273 
518	 0.272439563909597 
519	 0.273054716768671 
520	 0.273896142935306 
521	 0.27480076460758 
522	 0.275645663995427 
523	 0.276416037347774 
524	 0.27720644648504 
525	 0.27794657597478 
526	 0.278718430545846 
527	 0.279577585913759 
528	 0.280402680355575 
529	 0.281173778281695 
530	 0.281958352628934 
531	 0.282864301403712 
532	 0.28374594190174 
533	 0.284591543185505 
534	 0.285424978609798 
535	 0.286316311813257 
536	 0.28705100400973 
537	 0.287811043503547 
538	 0.288824463132292 
539	 0.289470778923595 
540	 0.290144903040544 
541	 0.291057030761941 
542	 0.292071295967351 
543	 0.292946716959193 
544	 0.293766772097954 
545	 0.294667243238243 
546	 0.295573857410185 
547	 0.296487584292462 
548	 0.297416221728767 
549	 0.298371245102791 
550	 0.299319720308077 
551	 0.30026759492765 
552	 0.301233093703431 
553	 0.302255210809493 
554	 0.303234435258176 
555	 0.30412602340593 
556	 0.304932780663767 
557	 0.305784657323838 
558	 0.306597866771493 
559	 0.307363097742844 
560	 0.308244137340396 
561	 0.309170806830055 
562	 0.310131379621572 
563	 0.311119624946215 
564	 0.312071701399448 
565	 0.313018606962166 
566	 0.314092590546898 
567	 0.31552060383105 
568	 0.316812713892617 
569	 0.317783320859658 
570	 0.318415300994504 
571	 0.318885244814462 
572	 0.319557161522279 
573	 0.320517020257955 
574	 0.32160498437218 
575	 0.322398775160847 
576	 0.322986685286931 
577	 0.323535799770501 
578	 0.324145952176637 
579	 0.325026632550686 
580	 0.326164575304056 
581	 0.327425675463091 
582	 0.328739011840762 
583	 0.329847723346117 
584	 0.330603196029441 
585	 0.331016173330547 
586	 0.331448321186949 
587	 0.331816639812192 
588	 0.332020088658143 
589	 0.332522603103045 
590	 0.333004422607444 
591	 0.333354549416924 
592	 0.333680304169678 
593	 0.333984524349137 
594	 0.334352573174668 
595	 0.334915302305925 
596	 0.335903114085271 
597	 0.337146675805281 
598	 0.3384508543804 
599	 0.339618311980047 
600	 0.340598134870155 
601	 0.341381027790595 
602	 0.341997945083126 
603	 0.342533707448881 
604	 0.343001773108471 
605	 0.343483751120345 
606	 0.344062723852413 
607	 0.344720830518453 
608	 0.345347523722081 
609	 0.345924121895514 
610	 0.346543742352253 
611	 0.347253221158729 
612	 0.348020111083787 
613	 0.34878030786921 
614	 0.349465279074433 
615	 0.350080578190695 
616	 0.350669251612079 
617	 0.351288084040285 
618	 0.351864251648861 
619	 0.352372941473359 
620	 0.352851692308355 
621	 0.353456952100612 
622	 0.354080057681659 
623	 0.354687626076518 
624	 0.355268557100472 
625	 0.355768176042013 
626	 0.356233288480328 
627	 0.356722235821243 
628	 0.357296609719506 
629	 0.357766117743125 
630	 0.358223544825382 
631	 0.358784357578055 
632	 0.359321788858053 
633	 0.359888363356616 
634	 0.360410561139606 
635	 0.360744395373714 
636	 0.36134781172222 
637	 0.361966767255321 
638	 0.362376443305669 
639	 0.362726323989012 
640	 0.363111887720309 
641	 0.363569414995057 
642	 0.364085217758041 
643	 0.364577436461528 
644	 0.365074846810269 
645	 0.365558177741332 
646	 0.365918438227683 
647	 0.366313036914075 
648	 0.366762740620137 
649	 0.36724174833664 
650	 0.367727874990548 
651	 0.368171594172058 
652	 0.368566393151902 
653	 0.368952955588975 
654	 0.369507841858932 
655	 0.370003973531984 
656	 0.370316429192376 
657	 0.370760162361232 
658	 0.371195907725602 
659	 0.371658984558945 
660	 0.372219990928081 
661	 0.372620158570081 
662	 0.372907117076993 
663	 0.373201720308646 
664	 0.373680045968177 
665	 0.374280905444112 
666	 0.374773968528385 
667	 0.375020263902641 
668	 0.375448630316252 
669	 0.375923454300264 
670	 0.376372800391084 
671	 0.376791404899431 
672	 0.377183112161304 
673	 0.37764339672344 
674	 0.378173261127141 
675	 0.378513947713345 
676	 0.378832744178219 
677	 0.379185308838583 
678	 0.379586088374699 
679	 0.380104370749906 
680	 0.380545281281211 
681	 0.380858156361801 
682	 0.381205924090838 
683	 0.381593402662279 
684	 0.382009464432257 
685	 0.382431167332229 
686	 0.382834201902466 
687	 0.383212769085853 
688	 0.38358793907476 
689	 0.383989780260539 
690	 0.384314874900306 
691	 0.384645772795056 
692	 0.385042612189914 
693	 0.385480755559228 
694	 0.385810749245667 
695	 0.386093699412733 
696	 0.386450338483342 
697	 0.386830663920836 
698	 0.387229364286969 
699	 0.387637051041604 
700	 0.388036395508796 
701	 0.388293188935031 
702	 0.388517533746568 
703	 0.388825169718192 
704	 0.389199861125128 
705	 0.389540216860015 
706	 0.389814579712917 
707	 0.390053222537923 
708	 0.390434294198388 
709	 0.39078458203784 
710	 0.391033877442942 
711	 0.391315105188847 
712	 0.39161696133178 
713	 0.391879348013376 
714	 0.392076078915914 
715	 0.392369078479231 
716	 0.392655233069807 
717	 0.392913443792194 
718	 0.393181213546239 
719	 0.393405909144156 
720	 0.393578498688027 
721	 0.393720285795867 
722	 0.393885820020802 
723	 0.394178364752958 
724	 0.394542530878766 
725	 0.394850092808325 
726	 0.394945603941443 
727	 0.395037942373166 
728	 0.395201537793585 
729	 0.395366882879334 
730	 0.395535671675579 
731	 0.395718984959373 
732	 0.395918792796738 
733	 0.39611413747914 
734	 0.396271263345988 
735	 0.396379571879047 
736	 0.396458609799182 
737	 0.396617898759886 
738	 0.396819603279027 
739	 0.396983747524988 
740	 0.397007869225926 
741	 0.39712835210843 
742	 0.397276697185088 
743	 0.397364339208102 
744	 0.397429804741171 
745	 0.39755114210241 
746	 0.397699828381858 
747	 0.397795487995089 
748	 0.397819829486582 
749	 0.397792481108737 
750	 0.397787283317431 
751	 0.397930860403724 
752	 0.398038562986404 
753	 0.398128624204608 
754	 0.398229672876089 
755	 0.398253164275757 
756	 0.398245491430402 
757	 0.398253607219504 
758	 0.398314955336827 
759	 0.398413744731391 
760	 0.39838061099882 
761	 0.398256710427239 
762	 0.398351680411301 
763	 0.39837468548124 
764	 0.398335831288867 
765	 0.398311871185352 
766	 0.398365390855023 
767	 0.398368668690988 
768	 0.3983197704758 
769	 0.398284883899518 
770	 0.398299158629475 
771	 0.39829474092117 
772	 0.398242955489006 
773	 0.398174202876676 
774	 0.398068512649594 
775	 0.398001783194876 
776	 0.398021710133562 
777	 0.398063239782192 
778	 0.39798130233996 
779	 0.397869087518693 
780	 0.397893432328315 
781	 0.397904320323067 
782	 0.397839269034005 
783	 0.397709724383383 
784	 0.397598314231746 
785	 0.397539641121893 
786	 0.397473761484315 
787	 0.39738588043718 
788	 0.397428213855849 
789	 0.397434175799199 
790	 0.397346694355503 
791	 0.397164942399034 
792	 0.39690476160886 
793	 0.396822582310896 
794	 0.396897758823732 
795	 0.396869263943182 
796	 0.396780134965082 
797	 0.396665945724656 
798	 0.396552527336326 
799	 0.396440762864818 
800	 0.396337161822937 
801	 0.396206613404464 
802	 0.396052145386049 
803	 0.396083239066504 
804	 0.396005000193102 
805	 0.39585867450544 
806	 0.395871261600513 
807	 0.3958433193036 
808	 0.395732908312402 
809	 0.395570589589385 
810	 0.395455456168961 
811	 0.395485103937231 
812	 0.395422845531614 
813	 0.395137716706286 
814	 0.394977194408632 
815	 0.39489946954713 
816	 0.394860184024472 
817	 0.394808464854564 
818	 0.394737210684271 
819	 0.394633804044349 
820	 0.394511027084005 
821	 0.394398533733826 
822	 0.394255359850275 
823	 0.394116575335164 
824	 0.394001784353994 
825	 0.393886070137427 
826	 0.393829042678383 
827	 0.393749785995991 
828	 0.393600857499419 
829	 0.393578956509185 
830	 0.393421108577364 
831	 0.393264292768908 
832	 0.393352316933802 
833	 0.393300438223351 
834	 0.393135551559862 
835	 0.392921347221963 
836	 0.392740399220604 
837	 0.392834565816744 
838	 0.392934936455514 
839	 0.392842763416732 
840	 0.39262856337153 
841	 0.392496522516971 
842	 0.392392206453779 
843	 0.392241633897402 
844	 0.39217726139828 
845	 0.392063080579565 
846	 0.391950706488747 
847	 0.391936246865176 
848	 0.391831756007929 
849	 0.391712227069691 
850	 0.391656630542265 
851	 0.391705483767083 
852	 0.391628712908333 
853	 0.391526784793771 
854	 0.391442476560462 
855	 0.391267369916928 
856	 0.39131005687662 
857	 0.391409726703242 
858	 0.391354412975791 
859	 0.391075203170029 
860	 0.390990074161124 
861	 0.391066701189204 
862	 0.391105860366937 
863	 0.391023642412578 
864	 0.390913429250387 
865	 0.390897166547135 
866	 0.39103697974251 
867	 0.39093296195667 
868	 0.390736360123899 
869	 0.390642993134707 
870	 0.390796692986667 
871	 0.390832481270854 
872	 0.390841515718435 
873	 0.390879720876963 
874	 0.390822447451985 
875	 0.390638362353054 
876	 0.390505361637748 
877	 0.390545023605183 
878	 0.390598498709732 
879	 0.390656314467089 
880	 0.390670495322296 
881	 0.390628096259701 
882	 0.390673940618641 
883	 0.39075848346703 
884	 0.390806858153247 
885	 0.390774566574976 
886	 0.390868778452846 
887	 0.390915173119774 
888	 0.390902754709037 
889	 0.39096961869556 
890	 0.391037502285818 
891	 0.391137509021945 
892	 0.391205629799935 
893	 0.391070584749133 
894	 0.391055205708502 
895	 0.391160324190418 
896	 0.391323204108028 
897	 0.391497671798224 
898	 0.391494631167982 
899	 0.391530639701643 
900	 0.391742405030298 
901	 0.391759249924748 
902	 0.39174322418272 
903	 0.391800094094121 
904	 0.391963615083624 
905	 0.392074591685279 
906	 0.392151018782168 
907	 0.392195411287248 
908	 0.392227133961174 
909	 0.392368243360936 
910	 0.392514084590568 
911	 0.392660172608049 
912	 0.392852972300577 
913	 0.392958800537854 
914	 0.392992857890862 
915	 0.393042854468175 
916	 0.393232597937813 
917	 0.393583545184696 
918	 0.393683554755166 
919	 0.393508375898896 
920	 0.39352495550764 
921	 0.393797982578006 
922	 0.394109973151254 
923	 0.394319628308584 
924	 0.39448894946657 
925	 0.394576596118253 
926	 0.394662951189306 
927	 0.394833708571426 
928	 0.395133793474925 
929	 0.395195851802332 
930	 0.395298316524427 
931	 0.395622773664331 
932	 0.395731796762346 
933	 0.395971497109216 
934	 0.396199201534443 
935	 0.39625763960651 
936	 0.396352361454645 
937	 0.396547127697888 
938	 0.396821809844991 
939	 0.397136705525214 
940	 0.397553636583888 
941	 0.39773919842801 
942	 0.397842760957006 
943	 0.398086677526138 
944	 0.398130452306868 
945	 0.398199175762445 
946	 0.398492609937271 
947	 0.398989653274335 
948	 0.398859473440632 
949	 0.398850736692976 
950	 0.399146507034197 
951	 0.399540559253371 
952	 0.399726412319903 
953	 0.399941709638485 
954	 0.400185803748024 
955	 0.400329676746136 
956	 0.400410252216415 
957	 0.400627328857715 
958	 0.400908515250229 
959	 0.401061065232332 
960	 0.40125887363765 
961	 0.401600549239976 
962	 0.401976282122034 
963	 0.402187355847318 
964	 0.402334663529176 
965	 0.40260925272832 
966	 0.40292043058533 
967	 0.403077064578801 
968	 0.403529985764572 
969	 0.403887201117533 
970	 0.404090535347639 
971	 0.404349404460838 
972	 0.404722405277999 
973	 0.405089881153474 
974	 0.405324865975008 
975	 0.405414720656136 
976	 0.405893579829119 
977	 0.406370946884889 
978	 0.406625692620635 
979	 0.406678184342788 
980	 0.406871422432501 
981	 0.407092653672623 
982	 0.407325110554036 
983	 0.407646191447184 
984	 0.40820239506084 
985	 0.408701875541453 
986	 0.409041842855929 
987	 0.409280318855097 
988	 0.409528392447001 
989	 0.409828694000672 
990	 0.410123286544444 
991	 0.410341973799306 
992	 0.410602468996725 
993	 0.410856778324271 
994	 0.411146131602038 
995	 0.411495155888032 
996	 0.411689772618785 
997	 0.41200284658546 
998	 0.412481382775707 
999	 0.413023516830829 
1000	 0.413437882719982 
1001	 0.410819370668072 
1002	 0.411011983364808 
1003	 0.411217271800502 
1004	 0.411420097365126 
1005	 0.411637908941223 
1006	 0.411842571569193 
1007	 0.412038006792324 
1008	 0.412214327512488 
1009	 0.412441851944378 
1010	 0.412781923360697 
1011	 0.41295579669613 
1012	 0.413104994143637 
1013	 0.413316904510732 
1014	 0.413411027051531 
1015	 0.41363030424178 
1016	 0.413898226016628 
1017	 0.41409879887313 
1018	 0.414251085308429 
1019	 0.414457435073853 
1020	 0.41462393654844 
1021	 0.414810406384805 
1022	 0.415057956658644 
1023	 0.415196716593011 
1024	 0.415339364012686 
1025	 0.415538119112045 
1026	 0.415724013666494 
1027	 0.415948194242422 
1028	 0.416135272972876 
1029	 0.416322643696003 
1030	 0.41655565695704 
1031	 0.416755456118785 
1032	 0.416942457122564 
1033	 0.417173506836305 
1034	 0.417395743829665 
1035	 0.417563535611152 
1036	 0.417762329853505 
1037	 0.418002178533967 
1038	 0.418192034783961 
1039	 0.418369840092976 
1040	 0.418596073158121 
1041	 0.418746716834079 
1042	 0.418876348036905 
1043	 0.419044900345175 
1044	 0.419200643338863 
1045	 0.419317566087472 
1046	 0.419469394496063 
1047	 0.419705240783878 
1048	 0.419956459417361 
1049	 0.420169480023865 
1050	 0.420426447654618 
1051	 0.420665010854245 
1052	 0.4207809479216 
1053	 0.420972184366623 
1054	 0.421218591017675 
1055	 0.421375901471912 
1056	 0.421580613275606 
1057	 0.421788132679305 
1058	 0.421961236286943 
1059	 0.422154096286705 
1060	 0.422382979655359 
1061	 0.42261657062486 
1062	 0.422775363917745 
1063	 0.422924256363035 
1064	 0.423117431746442 
1065	 0.423336384309628 
1066	 0.423547370885845 
1067	 0.423747373550231 
1068	 0.423943122112661 
1069	 0.424088599705708 
1070	 0.424244501914074 
1071	 0.424413465103718 
1072	 0.424585627225652 
1073	 0.424738441411537 
1074	 0.424907001087135 
1075	 0.425091673769021 
1076	 0.425276493891679 
1077	 0.425445442943075 
1078	 0.425597833101686 
1079	 0.425753019455661 
1080	 0.425969799568821 
1081	 0.426189740674714 
1082	 0.426339249339249 
1083	 0.426489565135642 
1084	 0.426624559607499 
1085	 0.426741959276032 
1086	 0.426829831875955 
1087	 0.426941867850692 
1088	 0.427054114921258 
1089	 0.427151600398105 
1090	 0.42727762233595 
1091	 0.427435055778569 
1092	 0.427592391938036 
1093	 0.427707194232421 
1094	 0.427794058287143 
1095	 0.427868536376074 
1096	 0.427972614144975 
1097	 0.428096619917921 
1098	 0.428189353305845 
1099	 0.42827497322696 
1100	 0.428378076251076 
1101	 0.428466690328794 
1102	 0.428559003255029 
1103	 0.428672291287705 
1104	 0.428780570957086 
1105	 0.428890295579055 
1106	 0.428982281869646 
1107	 0.429063695775754 
1108	 0.42915862109786 
1109	 0.429215446800279 
1110	 0.42927837491353 
1111	 0.429377239221599 
1112	 0.429516264671644 
1113	 0.429624481425884 
1114	 0.429750215514421 
1115	 0.429844753012885 
1116	 0.429889188079795 
1117	 0.429991263571687 
1118	 0.430116881635063 
1119	 0.430230540433059 
1120	 0.430372407395397 
1121	 0.430487771434781 
1122	 0.430614670163349 
1123	 0.430779137638467 
1124	 0.430918638053319 
1125	 0.431092714577515 
1126	 0.431210410776365 
1127	 0.431278638056505 
1128	 0.431372265501839 
1129	 0.431457912392829 
1130	 0.431545265695732 
1131	 0.431630765884605 
1132	 0.431725149399874 
1133	 0.431819954339958 
1134	 0.431913992970868 
1135	 0.432003288916217 
1136	 0.432121160035331 
1137	 0.432231438326739 
1138	 0.432367727531453 
1139	 0.432463155324271 
1140	 0.432552587674423 
1141	 0.432629072415389 
1142	 0.432667083845604 
1143	 0.432733638284046 
1144	 0.432817684374446 
1145	 0.4328974109818 
1146	 0.432987518726892 
1147	 0.433047929493091 
1148	 0.433100802154918 
1149	 0.433145236140496 
1150	 0.433144448065334 
1151	 0.433185892452923 
1152	 0.43324977906844 
1153	 0.433295263314498 
1154	 0.433361125819572 
1155	 0.433447483093109 
1156	 0.433526752191934 
1157	 0.433619667881254 
1158	 0.433688502523734 
1159	 0.433752846969324 
1160	 0.433810992615129 
1161	 0.43383046020371 
1162	 0.433890155475284 
1163	 0.433974626320804 
1164	 0.434048919222588 
1165	 0.434144341452719 
1166	 0.434222286949102 
1167	 0.434281349880162 
1168	 0.434369728893838 
1169	 0.434456537107868 
1170	 0.434552478702712 
1171	 0.43464371099532 
1172	 0.434739433965806 
1173	 0.434835157322502 
1174	 0.434943235031623 
1175	 0.435023290390736 
1176	 0.435087539345693 
1177	 0.435159500620247 
1178	 0.435204022171668 
1179	 0.435273030756248 
1180	 0.435366236634192 
1181	 0.435453022147908 
1182	 0.43554219710209 
1183	 0.435634943910086 
1184	 0.435723943204567 
1185	 0.435813065137299 
1186	 0.435899629559564 
1187	 0.435982748567416 
1188	 0.436071911238114 
1189	 0.43617667015223 
1190	 0.436250919431024 
1191	 0.436305024292484 
1192	 0.43637273678826 
1193	 0.436406268482104 
1194	 0.436484031434071 
1195	 0.43661771244641 
1196	 0.436714614971633 
1197	 0.436817220824706 
1198	 0.436906336989217 
1199	 0.436981866809426 
1200	 0.437024295522268 
1201	 0.437096576979235 
1202	 0.437175795458332 
1203	 0.437253366383527 
1204	 0.437343910060707 
1205	 0.437414001770254 
1206	 0.437464969141884 
1207	 0.437537541618625 
1208	 0.437616178065345 
1209	 0.437686201152073 
1210	 0.437771594676296 
1211	 0.43784170659055 
1212	 0.437879106525203 
1213	 0.437941666766975 
1214	 0.438017084523931 
1215	 0.438090828910605 
1216	 0.438169411169459 
1217	 0.438263810422559 
1218	 0.438340609097115 
1219	 0.438403954491004 
1220	 0.438485843474133 
1221	 0.438573710062459 
1222	 0.438656888051347 
1223	 0.438772313846554 
1224	 0.438832453875297 
1225	 0.438843766865087 
1226	 0.438888508640519 
1227	 0.438910089428585 
1228	 0.438953844937124 
1229	 0.439036072341529 
1230	 0.439102791187444 
1231	 0.439149866045335 
1232	 0.43921879542317 
1233	 0.439297502771493 
1234	 0.439395739663479 
1235	 0.439461601972001 
1236	 0.439531890643327 
1237	 0.439589293999546 
1238	 0.43961561099638 
1239	 0.439660098077223 
1240	 0.43971866727944 
1241	 0.439762741229093 
1242	 0.43978248740787 
1243	 0.439832982383738 
1244	 0.439899425836267 
1245	 0.439956921147676 
1246	 0.440035995897154 
1247	 0.44010169022716 
1248	 0.440142773585663 
1249	 0.440199324342618 
1250	 0.440285028196068 
1251	 0.440335974895671 
1252	 0.440393709277242 
1253	 0.440451798868953 
1254	 0.440514583711039 
1255	 0.440559293211255 
1256	 0.440635316954338 
1257	 0.44074353314601 
1258	 0.440825619272641 
1259	 0.44090920246683 
1260	 0.440990885347082 
1261	 0.441057125087916 
1262	 0.441132059601053 
1263	 0.441237049082462 
1264	 0.44130180826249 
1265	 0.441323244046653 
1266	 0.441376889243791 
1267	 0.441434348888998 
1268	 0.44148091459746 
1269	 0.441523265017234 
1270	 0.441595289214681 
1271	 0.441618673831542 
1272	 0.441587481450133 
1273	 0.441602212331378 
1274	 0.441615624228859 
1275	 0.441649448703564 
1276	 0.441709924791153 
1277	 0.441763841688725 
1278	 0.441824136653253 
1279	 0.44188762105793 
1280	 0.441968631406229 
1281	 0.442025590029893 
1282	 0.44207791626076 
1283	 0.4421196846598 
1284	 0.442148348462462 
1285	 0.442154716594926 
1286	 0.442153156141862 
1287	 0.442209630508976 
1288	 0.4422655435199 
1289	 0.44233698565267 
1290	 0.442410595453215 
1291	 0.442502112318236 
1292	 0.442582276896926 
1293	 0.442666630876455 
1294	 0.442737650065279 
1295	 0.442809928443086 
1296	 0.442875823575586 
1297	 0.442916724879368 
1298	 0.442979494654542 
1299	 0.44306314837554 
1300	 0.443122917665411 
1301	 0.443183321541066 
1302	 0.443236759042433 
1303	 0.443277058193038 
1304	 0.443301923840738 
1305	 0.443348481636251 
1306	 0.443376996226096 
1307	 0.44338334142209 
1308	 0.443385213432521 
1309	 0.443382501066127 
1310	 0.443363979580493 
1311	 0.443347868009264 
1312	 0.443338192952996 
1313	 0.443308194054987 
1314	 0.443265838334891 
1315	 0.443218576623929 
1316	 0.443138841744773 
1317	 0.443098309430028 
1318	 0.443077451130903 
1319	 0.443046572204231 
1320	 0.443049812905353 
1321	 0.443019269468522 
1322	 0.442973958005091 
1323	 0.442897647110857 
1324	 0.442836782285965 
1325	 0.442782646821186 
1326	 0.442700290372542 
1327	 0.44263228500147 
1328	 0.442567346623018 
1329	 0.442494539390547 
1330	 0.442429684560034 
1331	 0.442371637871922 
1332	 0.442333994817236 
1333	 0.44230782894163 
1334	 0.442270181444834 
1335	 0.442255652945112 
1336	 0.442220503108345 
1337	 0.442156690835893 
1338	 0.442111249051698 
1339	 0.442088290863482 
1340	 0.442038091901172 
1341	 0.441986782328163 
1342	 0.441915683247046 
1343	 0.441816229132495 
1344	 0.441720199848886 
1345	 0.441641946172978 
1346	 0.441524396824228 
1347	 0.44140337572326 
1348	 0.441271394357341 
1349	 0.441077376852603 
1350	 0.440855334886051 
1351	 0.44063984874342 
1352	 0.440401286490143 
1353	 0.440162295552492 
1354	 0.43992828324812 
1355	 0.439675982496631 
1356	 0.439383692065415 
1357	 0.439138175630296 
1358	 0.438875369091732 
1359	 0.438681273877949 
1360	 0.438523264619049 
1361	 0.438398073628893 
1362	 0.438320144644692 
1363	 0.438267597310943 
1364	 0.438253507092665 
1365	 0.438261637202161 
1366	 0.438307408889909 
1367	 0.438360016843817 
1368	 0.438449047876931 
1369	 0.438501447094822 
1370	 0.43851442734686 
1371	 0.438507483555718 
1372	 0.438443160003371 
1373	 0.438318344324602 
1374	 0.438124186454059 
1375	 0.437899098694508 
1376	 0.437546802310072 
1377	 0.437088302823964 
1378	 0.436591658168151 
1379	 0.435946236418464 
1380	 0.435398465329882 
1381	 0.434817370888437 
1382	 0.43428895431987 
1383	 0.43385474427255 
1384	 0.433343837896048 
1385	 0.432900201935225 
1386	 0.432303173664126 
1387	 0.431658934973973 
1388	 0.430888862938825 
1389	 0.430029013116134 
1390	 0.429028155688266 
1391	 0.42787994206719 
1392	 0.426608890254404 
1393	 0.425188293260634 
1394	 0.423700449738744 
1395	 0.422178633574493 
1396	 0.420633054333092 
1397	 0.419146582738596 
1398	 0.417658329314832 
1399	 0.416199453798957 
1400	 0.41478020301029 
1401	 0.413380737346215 
1402	 0.411941726511514 
1403	 0.410655079776619 
1404	 0.409415570298935 
1405	 0.408292250420723 
1406	 0.407294644883816 
1407	 0.406341048473647 
1408	 0.405368835223672 
1409	 0.404653860511668 
1410	 0.403954526158728 
1411	 0.403617083947296 
1412	 0.403520514186956 
1413	 0.403707270301606 
1414	 0.404206191515278 
1415	 0.404918751325903 
1416	 0.4058487246773 
1417	 0.406953401179023 
1418	 0.408130102333617 
1419	 0.409326825483873 
1420	 0.410557179364253 
1421	 0.411706624386736 
1422	 0.412720209573756 
1423	 0.413640480421146 
1424	 0.414372359563121 
1425	 0.414905933669453 
1426	 0.415402497213194 
1427	 0.415732205244624 
1428	 0.416083305436281 
1429	 0.416374725252534 
1430	 0.416634678876207 
1431	 0.416888832542924 
1432	 0.417056752416357 
1433	 0.417143252870491 
1434	 0.417227830608087 
1435	 0.417225693498774 
1436	 0.417258943537196 
1437	 0.417318394608468 
1438	 0.417335166947455 
1439	 0.417331777577794 
1440	 0.417329304102542 
1441	 0.41728550149228 
1442	 0.417230310449498 
1443	 0.41717011912259 
1444	 0.417112993809655 
1445	 0.417097993820347 
1446	 0.417074874498459 
1447	 0.417044010546806 
1448	 0.417018395402019 
1449	 0.416921031633451 
1450	 0.416798958037233 
1451	 0.41671596347094 
1452	 0.41662855828509 
1453	 0.416561739693919 
1454	 0.416544198095447 
1455	 0.416476424482653 
1456	 0.416397653290664 
1457	 0.416301717688396 
1458	 0.416169443407187 
1459	 0.416059502831687 
1460	 0.415918573084407 
1461	 0.415845666845786 
1462	 0.415816743439847 
1463	 0.415777037369082 
1464	 0.415808930206013 
1465	 0.415775963294722 
1466	 0.415674497297919 
1467	 0.415625766814289 
1468	 0.415530370800483 
1469	 0.415516601814274 
1470	 0.415569332880959 
1471	 0.415655126175809 
1472	 0.415750622602141 
1473	 0.415864670244325 
1474	 0.415920073707601 
1475	 0.415981073778652 
1476	 0.416060056202997 
1477	 0.416160779636894 
1478	 0.416334106396504 
1479	 0.416515019817802 
1480	 0.41669127781795 
1481	 0.416860009020053 
1482	 0.416996391962606 
1483	 0.417093855741907 
1484	 0.417209544036931 
1485	 0.417308896181373 
1486	 0.417422063323058 
1487	 0.417538507749775 
1488	 0.417656214459955 
1489	 0.417795008027906 
1490	 0.417903732986945 
1491	 0.417997594553175 
1492	 0.418093009331654 
1493	 0.418154990964344 
1494	 0.418249456390299 
1495	 0.418372539770949 
1496	 0.418478037831046 
1497	 0.418612218583381 
1498	 0.418697171831012 
1499	 0.418747711800307 
1500	 0.418793921988016 
1501	 0.418801762747157 
1502	 0.418823674520439 
1503	 0.418843769004729 
1504	 0.418867195125499 
1505	 0.418897741002355 
1506	 0.41892434480942 
1507	 0.418970456112145 
1508	 0.41900896435113 
1509	 0.419016557411992 
1510	 0.419034100499567 
1511	 0.419061382816442 
1512	 0.41907429980651 
1513	 0.419115486446101 
1514	 0.419169419221999 
1515	 0.419195079793402 
1516	 0.419212874565778 
1517	 0.419216481559589 
1518	 0.419204756861117 
1519	 0.419190599738098 
1520	 0.419161932092124 
1521	 0.419143521221754 
1522	 0.419118409005711 
1523	 0.419105856909408 
1524	 0.419108327257645 
1525	 0.419086683995126 
1526	 0.419067990525345 
1527	 0.419032265922661 
1528	 0.418966601863435 
1529	 0.418922222083547 
1530	 0.418882493482066 
1531	 0.418840073015221 
1532	 0.41879868445928 
1533	 0.418761856156175 
1534	 0.418720142759607 
1535	 0.418689208032482 
1536	 0.418665585866335 
1537	 0.418648818339178 
1538	 0.418653443722746 
1539	 0.418637523058146 
1540	 0.418613782936391 
1541	 0.418594163506942 
1542	 0.418566907524625 
1543	 0.418534355611258 
1544	 0.418515740211269 
1545	 0.418478730549337 
1546	 0.418421063644659 
1547	 0.418358037709176 
1548	 0.418313373718089 
1549	 0.418266483605035 
1550	 0.418232238027564 
1551	 0.41820690246263 
1552	 0.418180436772364 
1553	 0.418149030462504 
1554	 0.418112924100133 
1555	 0.418075892602718 
1556	 0.418017358988449 
1557	 0.417956968611223 
1558	 0.417918499030576 
1559	 0.417885368836448 
1560	 0.417838679420038 
1561	 0.417801752924283 
1562	 0.417737498050129 
1563	 0.417640934004619 
1564	 0.41757279498025 
1565	 0.417513471493781 
1566	 0.417442757458685 
1567	 0.417373780776319 
1568	 0.417308770730262 
1569	 0.417236267949787 
1570	 0.417164028366664 
1571	 0.417109219282073 
1572	 0.41703059747566 
1573	 0.416913834973819 
1574	 0.416842131820183 
1575	 0.416779625260019 
1576	 0.4167313576261 
1577	 0.416726645238166 
1578	 0.416691733395779 
1579	 0.416647198668039 
1580	 0.416605740928346 
1581	 0.416565530945948 
1582	 0.41650614574229 
1583	 0.416435792644271 
1584	 0.416369636226573 
1585	 0.416288524505089 
1586	 0.416213243272384 
1587	 0.41615578143505 
1588	 0.416074624271687 
1589	 0.415972933934896 
1590	 0.415877624135722 
1591	 0.415768023050671 
1592	 0.415675959875196 
1593	 0.4155999649432 
1594	 0.415514103973864 
1595	 0.415430563122935 
1596	 0.415343049059819 
1597	 0.41525291732584 
1598	 0.415157002871702 
1599	 0.41506837964042 
1600	 0.41496187286873 
1601	 0.414830548815982 
1602	 0.414710733118634 
1603	 0.414576332429002 
1604	 0.414457487638265 
1605	 0.414347098080183 
1606	 0.41424728271086 
1607	 0.414161487698641 
1608	 0.414078766988714 
1609	 0.414012784214095 
1610	 0.413938640966896 
1611	 0.413849957768399 
1612	 0.413770320233724 
1613	 0.413665824139729 
1614	 0.413548488573968 
1615	 0.413427370654475 
1616	 0.413319190504624 
1617	 0.413221801927084 
1618	 0.413133940274779 
1619	 0.413057879667563 
1620	 0.412956559391999 
1621	 0.412858117941994 
1622	 0.412749768505106 
1623	 0.412654386562162 
1624	 0.41256211855863 
1625	 0.412467656333808 
1626	 0.412378205352409 
1627	 0.412286920385695 
1628	 0.412189441703667 
1629	 0.412097922528922 
1630	 0.412018709362819 
1631	 0.411915153727169 
1632	 0.411800347621125 
1633	 0.411687630521171 
1634	 0.411561464155014 
1635	 0.41144565213548 
1636	 0.411353351915377 
1637	 0.411207985850441 
1638	 0.41102057012506 
1639	 0.410884908057135 
1640	 0.410734415910138 
1641	 0.410611927252169 
1642	 0.410552955699671 
1643	 0.410434364274656 
1644	 0.410287224866817 
1645	 0.410148006010032 
1646	 0.409985418766067 
1647	 0.409856598733985 
1648	 0.409740800957238 
1649	 0.409627822218544 
1650	 0.40953913286105 
1651	 0.4094307807971 
1652	 0.409312815729878 
1653	 0.409200467659363 
1654	 0.409082340492256 
1655	 0.408975978391318 
1656	 0.408901444053316 
1657	 0.408763820260484 
1658	 0.408587755494071 
1659	 0.40844368103998 
1660	 0.408260977182382 
1661	 0.408123263810477 
1662	 0.40805211990836 
1663	 0.407922757863949 
1664	 0.407776744759743 
1665	 0.407621812277648 
1666	 0.407433222811078 
1667	 0.407272616241814 
1668	 0.407117092831941 
1669	 0.406963557164696 
1670	 0.4068108034549 
1671	 0.406681950113696 
1672	 0.406557123203183 
1673	 0.406453293855983 
1674	 0.40639656375571 
1675	 0.406300645426764 
1676	 0.406203916264458 
1677	 0.406089252037078 
1678	 0.405956361366177 
1679	 0.405812273548823 
1680	 0.40565233964765 
1681	 0.405491379090368 
1682	 0.405302517230707 
1683	 0.405145833351935 
1684	 0.405002667777565 
1685	 0.404861032170311 
1686	 0.40474436306896 
1687	 0.404601756455659 
1688	 0.404457035955771 
1689	 0.404290698697402 
1690	 0.404103009969594 
1691	 0.403917888472087 
1692	 0.403711450033128 
1693	 0.403523398939771 
1694	 0.403335783592486 
1695	 0.403162697922756 
1696	 0.402995798129156 
1697	 0.402845506851576 
1698	 0.402712177310865 
1699	 0.402583110968197 
1700	 0.402471870106684 
1701	 0.40235460215229 
1702	 0.402253080441411 
1703	 0.402124028150284 
1704	 0.401983600868875 
1705	 0.401835830518853 
1706	 0.401662487954088 
1707	 0.40150412647222 
1708	 0.401352605896685 
1709	 0.401194944989264 
1710	 0.401028144528769 
1711	 0.400876656407301 
1712	 0.400727851163888 
1713	 0.400584079507216 
1714	 0.400454790055156 
1715	 0.400324336108349 
1716	 0.400199886237512 
1717	 0.400060939401125 
1718	 0.399927238734672 
1719	 0.399767894251131 
1720	 0.399581698542 
1721	 0.399412175696405 
1722	 0.399248183380341 
1723	 0.399055656089101 
1724	 0.398851885223696 
1725	 0.398651613109795 
1726	 0.398414865268788 
1727	 0.398225674012452 
1728	 0.398065822536226 
1729	 0.397901409362685 
1730	 0.39774751046661 
1731	 0.397603621439846 
1732	 0.39747847686441 
1733	 0.397331532261225 
1734	 0.397187852554028 
1735	 0.397037535130025 
1736	 0.396880859913072 
1737	 0.396694787038491 
1738	 0.396498929276548 
1739	 0.396289978782241 
1740	 0.396037108387555 
1741	 0.395831592846302 
1742	 0.39563210312839 
1743	 0.395468344123903 
1744	 0.395325222229795 
1745	 0.395212160657189 
1746	 0.395154410391529 
1747	 0.395059891495348 
1748	 0.39493735303061 
1749	 0.39475881892326 
1750	 0.394556127695563 
1751	 0.394356305970758 
1752	 0.39414141144316 
1753	 0.393913657141838 
1754	 0.393729194896338 
1755	 0.393576092127704 
1756	 0.393408838999317 
1757	 0.393237667327053 
1758	 0.393057932958549 
1759	 0.392883331729254 
1760	 0.392716329243456 
1761	 0.392576395058706 
1762	 0.392468297285773 
1763	 0.392310080440388 
1764	 0.392147894631638 
1765	 0.392025664821525 
1766	 0.391879462792521 
1767	 0.391753767763914 
1768	 0.391643288649916 
1769	 0.391504858392977 
1770	 0.391365862844231 
1771	 0.391218342316389 
1772	 0.391078127277753 
1773	 0.390959211570856 
1774	 0.390824783461601 
1775	 0.390690951475624 
1776	 0.390566036881379 
1777	 0.390416426509172 
1778	 0.390267427966746 
1779	 0.390123508670106 
1780	 0.38993924928338 
1781	 0.389746639592813 
1782	 0.389626885234325 
1783	 0.389586138153258 
1784	 0.389501257982593 
1785	 0.389454709197104 
1786	 0.389363495751492 
1787	 0.389223722655618 
1788	 0.389087732308571 
1789	 0.388936302972962 
1790	 0.388792079198716 
1791	 0.388628349801131 
1792	 0.388476197466656 
1793	 0.388342430310848 
1794	 0.388208361320704 
1795	 0.388062054132889 
1796	 0.387927031584389 
1797	 0.387811299375009 
1798	 0.387700029181123 
1799	 0.387597597735293 
1800	 0.387486761757797 
1801	 0.380134603578385 
1802	 0.380496023439822 
1803	 0.380886084239296 
1804	 0.381274940898503 
1805	 0.381657760946653 
1806	 0.381985618164303 
1807	 0.382294430648136 
1808	 0.382544070116138 
1809	 0.382749222532309 
1810	 0.382903477051773 
1811	 0.383007962665103 
1812	 0.383089053314518 
1813	 0.38310773863806 
1814	 0.383090505292495 
1815	 0.383053208691209 
1816	 0.382996805294097 
1817	 0.382926437069295 
1818	 0.382804948326108 
1819	 0.382737146491965 
1820	 0.382679844393675 
1821	 0.382622369525743 
1822	 0.382595082442056 
1823	 0.382576893724622 
1824	 0.382536094344501 
1825	 0.382429908190797 
1826	 0.382279111441804 
1827	 0.382130830098795 
1828	 0.381959392159488 
1829	 0.381767524878167 
1830	 0.381549980217386 
1831	 0.38130419069417 
1832	 0.381053868656497 
1833	 0.380794547552039 
1834	 0.380515755519922 
1835	 0.3803160359033 
1836	 0.380139760996152 
1837	 0.37994372877919 
1838	 0.379797028065826 
1839	 0.379695921223732 
1840	 0.379642064950695 
1841	 0.379569638073865 
1842	 0.379517036623825 
1843	 0.379505670249682 
1844	 0.379432905897312 
1845	 0.379355049823134 
1846	 0.379376624950588 
1847	 0.379396399575262 
1848	 0.379374834340947 
1849	 0.379385211720727 
1850	 0.379394919365707 
1851	 0.379397605410054 
1852	 0.379359594563217 
1853	 0.379358628796565 
1854	 0.379347333875156 
1855	 0.379260667622034 
1856	 0.379186397937268 
1857	 0.379127952388592 
1858	 0.379051438467267 
1859	 0.3790084658939 
1860	 0.378898032436228 
1861	 0.378771979421548 
1862	 0.378565885583193 
1863	 0.378297025914258 
1864	 0.377922472988522 
1865	 0.37750130020052 
1866	 0.377000383983358 
1867	 0.376502252200983 
1868	 0.376000133773426 
1869	 0.375482466224227 
1870	 0.375051877193144 
1871	 0.374671392747632 
1872	 0.374328143158524 
1873	 0.374069087347419 
1874	 0.373848010181722 
1875	 0.373656759142434 
1876	 0.37344160339976 
1877	 0.373146369024446 
1878	 0.372784662253041 
1879	 0.372282773429205 
1880	 0.371649807102534 
1881	 0.370883432039563 
1882	 0.370024003548584 
1883	 0.369048950712607 
1884	 0.367944337344438 
1885	 0.366770638650218 
1886	 0.365480599201491 
1887	 0.364077227395914 
1888	 0.36262438789313 
1889	 0.361079393816954 
1890	 0.359487541949047 
1891	 0.357848125939087 
1892	 0.356133592712771 
1893	 0.354388314379729 
1894	 0.352606036004614 
1895	 0.350756356474777 
1896	 0.348858630221248 
1897	 0.346962010531476 
1898	 0.345041453175693 
1899	 0.343178472976967 
1900	 0.341436261085428 
1901	 0.339763166736478 
1902	 0.338180336776636 
1903	 0.336735592218336 
1904	 0.33532734313538 
1905	 0.333965203634432 
1906	 0.33269769766788 
1907	 0.331541202910963 
1908	 0.330434739249194 
1909	 0.329380754863482 
1910	 0.328367146836876 
1911	 0.327421028070945 
1912	 0.326511601753697 
1913	 0.325650961857118 
1914	 0.324848241911335 
1915	 0.324111103425827 
1916	 0.323422166515247 
1917	 0.322764346195336 
1918	 0.322207215153182 
1919	 0.321710222870144 
1920	 0.321266971637894 
1921	 0.320898927174406 
1922	 0.320572326184698 
1923	 0.320320044411576 
1924	 0.320096354769386 
1925	 0.319931630062454 
1926	 0.319777698029336 
1927	 0.319668402328064 
1928	 0.319556400411529 
1929	 0.319479276545072 
1930	 0.319418009688718 
1931	 0.319372279536461 
1932	 0.319348422951218 
1933	 0.319336095913967 
1934	 0.31932607808995 
1935	 0.319342798112547 
1936	 0.319367488752934 
1937	 0.319443436273861 
1938	 0.319552566213623 
1939	 0.319683896470868 
1940	 0.319865973997321 
1941	 0.320040298494602 
1942	 0.320229689534851 
1943	 0.32044646878813 
1944	 0.320676901904023 
1945	 0.320938365489541 
1946	 0.321192617621031 
1947	 0.321461548223005 
1948	 0.32171856196326 
1949	 0.3219700463467 
1950	 0.322230593249962 
1951	 0.322493030565169 
1952	 0.322758911798321 
1953	 0.323022455822594 
1954	 0.323304852691791 
1955	 0.323578725318852 
1956	 0.323871042657244 
1957	 0.324193836649022 
1958	 0.324542772840234 
1959	 0.324897468496719 
1960	 0.325306108493259 
1961	 0.32566736346781 
1962	 0.326017579155298 
1963	 0.326367012199579 
1964	 0.326707609692273 
1965	 0.327023922878604 
1966	 0.327335935795701 
1967	 0.327652708094332 
1968	 0.327962185988049 
1969	 0.328241372580006 
1970	 0.32854814593189 
1971	 0.328875426873101 
1972	 0.32919520749528 
1973	 0.329516217147317 
1974	 0.329840975073606 
1975	 0.330182595652284 
1976	 0.330487549335051 
1977	 0.330809824424888 
1978	 0.33115761052574 
1979	 0.331474191499852 
1980	 0.33180360428259 
1981	 0.33213293651848 
1982	 0.332456455934889 
1983	 0.332777478776722 
1984	 0.333100334034013 
1985	 0.333430877605292 
1986	 0.333779304620926 
1987	 0.334093119981311 
1988	 0.334385956752981 
1989	 0.33469985936583 
1990	 0.335014721868242 
1991	 0.335278675667853 
1992	 0.335561050810866 
1993	 0.335857067918034 
1994	 0.336153341899465 
1995	 0.336425050715054 
1996	 0.336725790320642 
1997	 0.337074430129493 
1998	 0.337380420624135 
1999	 0.33767190446826 
2000	 0.337962968045174 
2001	 0.338237394211504 
2002	 0.338501104551853 
2003	 0.338803907959775 
2004	 0.33909267481386 
2005	 0.339400747890754 
2006	 0.339730390479037 
2007	 0.340055741429903 
2008	 0.340391312836728 
2009	 0.340719360323952 
2010	 0.341057805754911 
2011	 0.341377219207617 
2012	 0.341672036483018 
2013	 0.341982939238725 
2014	 0.342294303180177 
2015	 0.342603533241624 
2016	 0.342938991591248 
2017	 0.343255320085265 
2018	 0.343553716540263 
2019	 0.343826661145439 
2020	 0.344121761660449 
2021	 0.344417673939378 
2022	 0.344701685927122 
2023	 0.344991357705147 
2024	 0.345276135877999 
2025	 0.345536621149671 
2026	 0.345808517431247 
2027	 0.346089872923161 
2028	 0.346381322852878 
2029	 0.346648482936947 
2030	 0.346908659641126 
2031	 0.347157324281228 
2032	 0.347390246468598 
2033	 0.3476229151452 
2034	 0.347849506188283 
2035	 0.348071295320723 
2036	 0.348287473012683 
2037	 0.348496451916786 
2038	 0.348699582718181 
2039	 0.348895353308641 
2040	 0.349081107817572 
2041	 0.349273414193756 
2042	 0.34942978830279 
2043	 0.349587515999573 
2044	 0.349734632935629 
2045	 0.349848669752199 
2046	 0.349998324874172 
2047	 0.350164561378673 
2048	 0.350319564857972 
2049	 0.350476699358206 
2050	 0.350644339928823 
2051	 0.350817327352908 
2052	 0.350983893917125 
2053	 0.351162632279949 
2054	 0.351332505238656 
2055	 0.351495051153125 
2056	 0.351649285920847 
2057	 0.351794494381951 
2058	 0.351946433720952 
2059	 0.352067349060881 
2060	 0.352166786649832 
2061	 0.352256287743649 
2062	 0.35230908459854 
2063	 0.35239242503783 
2064	 0.35248309233324 
2065	 0.35256265974384 
2066	 0.352625522595183 
2067	 0.35272867546273 
2068	 0.352852371471718 
2069	 0.352971345067277 
2070	 0.353080538765197 
2071	 0.353220365835581 
2072	 0.353332191556496 
2073	 0.353408824550008 
2074	 0.35350030896096 
2075	 0.353611566171207 
2076	 0.353701024998414 
2077	 0.353759161480535 
2078	 0.353839823894842 
2079	 0.353940502883355 
2080	 0.35401692842002 
2081	 0.354087049657257 
2082	 0.354155347195699 
2083	 0.354200798441818 
2084	 0.354256092925679 
2085	 0.354318465995841 
2086	 0.35439697204288 
2087	 0.354451798571187 
2088	 0.354511485998509 
2089	 0.354543280667311 
2090	 0.354529025634268 
2091	 0.354559968433152 
2092	 0.354600998357144 
2093	 0.354637718404519 
2094	 0.354707731868053 
2095	 0.354752610199259 
2096	 0.354761670332456 
2097	 0.354792270426129 
2098	 0.354816842578805 
2099	 0.354864660472259 
2100	 0.354917998512053 
2101	 0.354987178770755 
2102	 0.355055146873026 
2103	 0.35513330643971 
2104	 0.355205431462367 
2105	 0.355267415552677 
2106	 0.355357372375489 
2107	 0.355466928096567 
2108	 0.355565446302198 
2109	 0.355672044671808 
2110	 0.355784987464316 
2111	 0.355878315930609 
2112	 0.356001174108549 
2113	 0.356153889180065 
2114	 0.356313407496329 
2115	 0.356461478642329 
2116	 0.356616611729117 
2117	 0.356763717679666 
2118	 0.356909993938373 
2119	 0.357041977867994 
2120	 0.357173686835971 
2121	 0.357288323805693 
2122	 0.357368458544012 
2123	 0.357475390967679 
2124	 0.357599096465797 
2125	 0.35770181775416 
2126	 0.357817622306617 
2127	 0.357905125187767 
2128	 0.357963317590022 
2129	 0.358016653459624 
2130	 0.358055911068807 
2131	 0.358090521506035 
2132	 0.358111805880206 
2133	 0.358137651199612 
2134	 0.35810574054841 
2135	 0.35803007395852 
2136	 0.357973432717244 
2137	 0.35789185599257 
2138	 0.357802867302228 
2139	 0.357742986019638 
2140	 0.357627069191655 
2141	 0.357464682907995 
2142	 0.357289806416961 
2143	 0.357096325048886 
2144	 0.3568764507665 
2145	 0.356640037629866 
2146	 0.356366867808958 
2147	 0.356058965378592 
2148	 0.355724592373649 
2149	 0.355376257088397 
2150	 0.354987711875411 
2151	 0.35461896141846 
2152	 0.354248605432456 
2153	 0.353861113385676 
2154	 0.353486188509313 
2155	 0.353058912899209 
2156	 0.352613999785124 
2157	 0.352126621989371 
2158	 0.35158018274513 
2159	 0.35103951640603 
2160	 0.350469791797741 
2161	 0.349893436665667 
2162	 0.349319885829852 
2163	 0.34872151436045 
2164	 0.34809678237163 
2165	 0.347460175829796 
2166	 0.346824899154416 
2167	 0.346185435945732 
2168	 0.345519548369687 
2169	 0.344858868524621 
2170	 0.34414335800592 
2171	 0.343394854867504 
2172	 0.342611293618399 
2173	 0.341786485115486 
2174	 0.340944370561427 
2175	 0.340077453045048 
2176	 0.339170577414941 
2177	 0.338240172671255 
2178	 0.337264039733789 
2179	 0.336231169448851 
2180	 0.335183996685915 
2181	 0.33408642891713 
2182	 0.332994912202803 
2183	 0.331915054118299 
2184	 0.330770680256154 
2185	 0.329635273824545 
2186	 0.328472731364386 
2187	 0.327345327701433 
2188	 0.326202070015879 
2189	 0.325096550161586 
2190	 0.32397549621872 
2191	 0.322974311323094 
2192	 0.322006937240995 
2193	 0.32112717629356 
2194	 0.320344943475255 
2195	 0.319629946885442 
2196	 0.318955479487899 
2197	 0.318391707819467 
2198	 0.317950013057601 
2199	 0.317564256224859 
2200	 0.317249896360047 
2201	 0.317021023651119 
2202	 0.31688132779591 
2203	 0.316789732000983 
2204	 0.316817023800209 
2205	 0.316930554699353 
2206	 0.317165723442274 
2207	 0.317492961845893 
2208	 0.317964602363674 
2209	 0.318588262632569 
2210	 0.319273686013001 
2211	 0.320110878179458 
2212	 0.320953427680096 
2213	 0.321919453130397 
2214	 0.322810015820247 
2215	 0.323758815940386 
2216	 0.324616576075044 
2217	 0.32541939140688 
2218	 0.326183598984117 
2219	 0.326913174593796 
2220	 0.327586489295386 
2221	 0.328197907283559 
2222	 0.328784880540536 
2223	 0.329331809942327 
2224	 0.32980120680541 
2225	 0.330261749130402 
2226	 0.330704484505546 
2227	 0.331067200314099 
2228	 0.33137939783227 
2229	 0.331650771085944 
2230	 0.331835762343227 
2231	 0.332038108279906 
2232	 0.332246188751898 
2233	 0.332369637342108 
2234	 0.332443505738306 
2235	 0.33249371257138 
2236	 0.332473364661968 
2237	 0.332449507448751 
2238	 0.332403891096145 
2239	 0.332352473249005 
2240	 0.332261891538672 
2241	 0.332176547541421 
2242	 0.332090652317213 
2243	 0.33200454708348 
2244	 0.331928280734909 
2245	 0.331833138432645 
2246	 0.331694402195427 
2247	 0.331515502537758 
2248	 0.331344687261202 
2249	 0.33113459923088 
2250	 0.330932437495901 
2251	 0.33072338987276 
2252	 0.33054425130269 
2253	 0.330342428534027 
2254	 0.330178471519249 
2255	 0.330060860616383 
2256	 0.329952339329792 
2257	 0.3298392659464 
2258	 0.329768706300888 
2259	 0.329756214322342 
2260	 0.329716228960154 
2261	 0.329687880662643 
2262	 0.329658989620454 
2263	 0.329609396232206 
2264	 0.329596952505837 
2265	 0.329606513767612 
2266	 0.329618447904006 
2267	 0.329655812162024 
2268	 0.329690865812904 
2269	 0.329731316159907 
2270	 0.329777360334588 
2271	 0.329795222762316 
2272	 0.329838954739949 
2273	 0.329876493528396 
2274	 0.329945277091105 
2275	 0.329999101828196 
2276	 0.330063960873137 
2277	 0.330121335905006 
2278	 0.330156026432079 
2279	 0.330227787477826 
2280	 0.330315053139388 
2281	 0.330432049811768 
2282	 0.33060608012484 
2283	 0.330717289118683 
2284	 0.330863874855651 
2285	 0.330908936474241 
2286	 0.330855105039616 
2287	 0.330824635387254 
2288	 0.330719294554644 
2289	 0.330682437468472 
2290	 0.330688316840417 
2291	 0.330676381919139 
2292	 0.330684245427786 
2293	 0.330681436391006 
2294	 0.330670464240437 
2295	 0.330651667854193 
2296	 0.330641435178783 
2297	 0.330624773579441 
2298	 0.330516605034349 
2299	 0.330389826911894 
2300	 0.330304813880088 
2301	 0.330194042504214 
2302	 0.330149360349156 
2303	 0.330120565532537 
2304	 0.329995308404201 
2305	 0.329848055367512 
2306	 0.329637292766083 
2307	 0.329316252325687 
2308	 0.329089875445673 
2309	 0.328846646402799 
2310	 0.328643284751978 
2311	 0.32853551935163 
2312	 0.3283394943374 
2313	 0.32810933285472 
2314	 0.327879147492611 
2315	 0.327627337080494 
2316	 0.32734123087863 
2317	 0.3270228424376 
2318	 0.326719931732558 
2319	 0.326351796551916 
2320	 0.326069404909057 
2321	 0.325867565297681 
2322	 0.325637227605394 
2323	 0.32545007418001 
2324	 0.325213773005664 
2325	 0.324941435010326 
2326	 0.324664167757355 
2327	 0.324345752650816 
2328	 0.324068814000491 
2329	 0.323800360137092 
2330	 0.323473694638394 
2331	 0.323160398695546 
2332	 0.322825231131837 
2333	 0.322471547242738 
2334	 0.322150080185312 
2335	 0.321782553808872 
2336	 0.321374188410354 
2337	 0.320935374790167 
2338	 0.320494829339106 
2339	 0.320180738878576 
2340	 0.31992966444857 
2341	 0.319618857358047 
2342	 0.31934892923737 
2343	 0.319036889670083 
2344	 0.318684422416536 
2345	 0.318359884433726 
2346	 0.31807470671328 
2347	 0.317767586595792 
2348	 0.317404971370138 
2349	 0.317143209969275 
2350	 0.316948255359178 
2351	 0.316745761410197 
2352	 0.316620668462279 
2353	 0.316407852079164 
2354	 0.31614557237299 
2355	 0.315929697824663 
2356	 0.315670504468206 
2357	 0.315465269837219 
2358	 0.315325498167941 
2359	 0.315166723526092 
2360	 0.315049220648571 
2361	 0.314875227822879 
2362	 0.31467071964238 
2363	 0.314463615678517 
2364	 0.314205794432787 
2365	 0.31396220731282 
2366	 0.313768009811912 
2367	 0.313503221527387 
2368	 0.313202351927813 
2369	 0.312892887599613 
2370	 0.31253863420532 
2371	 0.312163739123348 
2372	 0.311837536458966 
2373	 0.311550173437404 
2374	 0.311262646862733 
2375	 0.310922947783201 
2376	 0.310569152333276 
2377	 0.310110617807752 
2378	 0.309682120877231 
2379	 0.309342737311621 
2380	 0.308886345590702 
2381	 0.308481691720945 
2382	 0.308086302008294 
2383	 0.307594503834948 
2384	 0.307165847107108 
2385	 0.306759759985906 
2386	 0.30635974421678 
2387	 0.305957564486704 
2388	 0.305640614550237 
2389	 0.30537291816913 
2390	 0.305089606413272 
2391	 0.304893707206058 
2392	 0.304571094750395 
2393	 0.304102126940927 
2394	 0.303639285092063 
2395	 0.30318979764437 
2396	 0.302805632027548 
2397	 0.302471652187978 
2398	 0.302074319789172 
2399	 0.30157097418932 
2400	 0.301068531714012 
2401	 0.300657641464555 
2402	 0.300235259578255 
2403	 0.299758308310297 
2404	 0.299245162823362 
2405	 0.298616437848547 
2406	 0.298050996609723 
2407	 0.297546092714789 
2408	 0.296944853590478 
2409	 0.296339632331024 
2410	 0.295768437053875 
2411	 0.295200859079061 
2412	 0.294671356811988 
2413	 0.294170859223053 
2414	 0.293534165495892 
2415	 0.292760581051996 
2416	 0.292157949545796 
2417	 0.291640955692246 
2418	 0.291081447655205 
2419	 0.290621752271839 
2420	 0.290115232644865 
2421	 0.289518548504645 
2422	 0.289008346302584 
2423	 0.288587233270889 
2424	 0.288083543291392 
2425	 0.287556270961889 
2426	 0.286985569777253 
2427	 0.286388515884442 
2428	 0.285747322405258 
2429	 0.285013432892268 
2430	 0.28438959361305 
2431	 0.283770406868302 
2432	 0.28319516516394 
2433	 0.282738698376293 
2434	 0.282254351070056 
2435	 0.281719619744216 
2436	 0.281218368586542 
2437	 0.280814501176291 
2438	 0.280310487458135 
2439	 0.279667848956052 
2440	 0.279196143099072 
2441	 0.278794478060605 
2442	 0.27838249321953 
2443	 0.278116020079359 
2444	 0.277816865157322 
2445	 0.27742730970462 
2446	 0.277039829619951 
2447	 0.276702695754655 
2448	 0.276357537211363 
2449	 0.276028794226698 
2450	 0.275606634598067 
2451	 0.27507520327541 
2452	 0.274663230354742 
2453	 0.274277327298846 
2454	 0.273945039724205 
2455	 0.273754106240803 
2456	 0.273438820180366 
2457	 0.273008099125035 
2458	 0.272600519522925 
2459	 0.27218769957489 
2460	 0.271870804764234 
2461	 0.271573472932949 
2462	 0.271244530628067 
2463	 0.270997819591484 
2464	 0.270684900763773 
2465	 0.270293970171282 
2466	 0.270041972003003 
2467	 0.269886983902843 
2468	 0.269516623676304 
2469	 0.269069017480761 
2470	 0.268637766942587 
2471	 0.268277789359967 
2472	 0.268088763804907 
2473	 0.267771445865756 
2474	 0.267414414856651 
2475	 0.267205076828718 
2476	 0.266924482973795 
2477	 0.266684620366094 
2478	 0.266492098076637 
2479	 0.266017711618287 
2480	 0.26554114617671 
2481	 0.265335876591191 
2482	 0.265175279477554 
2483	 0.264903185988914 
2484	 0.264646991156564 
2485	 0.264311210864656 
2486	 0.263776070113746 
2487	 0.263378597303506 
2488	 0.263054611413722 
2489	 0.262712820360692 
2490	 0.262581547521085 
2491	 0.262576839551019 
2492	 0.262379651679014 
2493	 0.261980671642085 
2494	 0.261580653350196 
2495	 0.261156118514525 
2496	 0.260938835681055 
2497	 0.260837297260078 
2498	 0.260531239162631 
2499	 0.260224425775067 
2500	 0.259851303190669 
