Wavelength	LMW_1000001.asd
350	 3.39322969544723E-02 
351	 4.50850739947634E-02 
352	 4.78122495348317E-02 
353	 3.50240840364576E-02 
354	 4.30090395526861E-02 
355	 4.47755020478681E-02 
356	 3.96564145781525E-02 
357	 3.45643116147966E-02 
358	 3.79592603311762E-02 
359	 3.90228946516474E-02 
360	 3.74851873146059E-02 
361	 3.93063955953894E-02 
362	 3.50591072625515E-02 
363	 0.03339144092971 
364	 3.75146701213637E-02 
365	 3.92897105742565E-02 
366	 3.70380434557082E-02 
367	 3.53488467549194E-02 
368	 3.76941675278295E-02 
369	 0.035258704022596 
370	 3.55417979502898E-02 
371	 3.93968987971502E-02 
372	 4.25166639152159E-02 
373	 4.00953433265737E-02 
374	 3.94782012284639E-02 
375	 0.043074933371811 
376	 0.042152442311624 
377	 4.11295445610855E-02 
378	 4.11101564044066E-02 
379	 4.18550668856254E-02 
380	 4.18290026030049E-02 
381	 3.93550980918493E-02 
382	 3.77588020811328E-02 
383	 4.28438058004335E-02 
384	 4.25049305550447E-02 
385	 4.01554366776243E-02 
386	 3.99782738204724E-02 
387	 0.043648743652004 
388	 4.38402750353142E-02 
389	 4.25029819592571E-02 
390	 4.33894726203223E-02 
391	 4.28513564207785E-02 
392	 4.34139936299573E-02 
393	 4.50936400505443E-02 
394	 4.56553032444933E-02 
395	 4.47575415607392E-02 
396	 4.32604550557152E-02 
397	 4.26879734966312E-02 
398	 4.59166648128167E-02 
399	 4.74013510294502E-02 
400	 4.71128293755836E-02 
401	 4.68800782417872E-02 
402	 4.58788180240034E-02 
403	 4.56231971599265E-02 
404	 4.60431328299469E-02 
405	 4.54680600241653E-02 
406	 4.64394415942678E-02 
407	 4.76381313546026E-02 
408	 4.76707627193221E-02 
409	 4.67202218797848E-02 
410	 4.63735533837818E-02 
411	 4.65689375842221E-02 
412	 0.04663923382957 
413	 0.048106392498509 
414	 4.86856778462739E-02 
415	 4.79233589590498E-02 
416	 4.80527361826903E-02 
417	 4.73423452266087E-02 
418	 0.046994023213754 
419	 4.80071341381453E-02 
420	 4.85588652328188E-02 
421	 4.80986499635721E-02 
422	 4.76231001862214E-02 
423	 4.87547382455832E-02 
424	 0.048617700189774 
425	 4.77732308151662E-02 
426	 4.71457202826329E-02 
427	 4.75240639400768E-02 
428	 4.75499849378567E-02 
429	 4.75260840989589E-02 
430	 4.79293095044118E-02 
431	 0.047253547717281 
432	 0.046358893224869 
433	 4.60770895802734E-02 
434	 4.70051050587192E-02 
435	 4.73765833073344E-02 
436	 4.71998803761517E-02 
437	 4.68470345827239E-02 
438	 4.65498358132946E-02 
439	 4.65408056359603E-02 
440	 0.046637874479786 
441	 4.65214823511938E-02 
442	 4.66676071014163E-02 
443	 4.69108861490242E-02 
444	 4.70081649382334E-02 
445	 4.66821908075336E-02 
446	 4.64816101839498E-02 
447	 4.65081515910245E-02 
448	 4.66505164973974E-02 
449	 4.64958325202506E-02 
450	 4.67259704113021E-02 
451	 4.72250507024007E-02 
452	 4.72167989360583E-02 
453	 4.70430865384619E-02 
454	 4.69838077488751E-02 
455	 4.71503445746137E-02 
456	 4.73480724056181E-02 
457	 4.69262264874376E-02 
458	 0.046461297290342 
459	 4.68767838280679E-02 
460	 4.70454049564762E-02 
461	 4.68064623170217E-02 
462	 4.64236069577093E-02 
463	 4.66082130077731E-02 
464	 4.68346660668177E-02 
465	 4.69820827480684E-02 
466	 0.047022444857316 
467	 0.046831403688466 
468	 4.66679595331707E-02 
469	 4.66094324199437E-02 
470	 4.65790203190281E-02 
471	 4.66559219347712E-02 
472	 4.66942143668068E-02 
473	 4.65959526294855E-02 
474	 4.64144151274527E-02 
475	 4.65488809692354E-02 
476	 4.66705477820121E-02 
477	 4.62943105144848E-02 
478	 4.63776278565275E-02 
479	 4.65775597339071E-02 
480	 4.65657352554075E-02 
481	 4.61848341114545E-02 
482	 4.61350210151461E-02 
483	 4.63113113112274E-02 
484	 4.64200031136583E-02 
485	 4.64642940867662E-02 
486	 4.63522991137774E-02 
487	 4.61841227241245E-02 
488	 4.62002000063358E-02 
489	 4.62211163495508E-02 
490	 4.62230709512398E-02 
491	 4.62444709868206E-02 
492	 4.64618544836015E-02 
493	 4.62827549642146E-02 
494	 0.045967598834725 
495	 4.60964847732538E-02 
496	 4.62946402925285E-02 
497	 4.62633800051781E-02 
498	 0.046055445599691 
499	 0.046231851221052 
500	 4.61813112856172E-02 
501	 4.60168038337354E-02 
502	 4.60073327643327E-02 
503	 4.61332701632291E-02 
504	 4.61076886108859E-02 
505	 0.045944130202903 
506	 4.59249307859977E-02 
507	 0.045896773740916 
508	 4.59507437421755E-02 
509	 4.60916724956842E-02 
510	 4.59638456870348E-02 
511	 4.59159301227643E-02 
512	 4.59923718971072E-02 
513	 0.046064747656306 
514	 4.60522763102463E-02 
515	 4.59567640131474E-02 
516	 4.58643399541558E-02 
517	 4.59999490184016E-02 
518	 4.59780906935618E-02 
519	 4.58858612498128E-02 
520	 0.045930890616505 
521	 4.60697388981464E-02 
522	 4.61587872142535E-02 
523	 4.61531408568463E-02 
524	 4.61175915027458E-02 
525	 4.61190822240463E-02 
526	 4.60928233507884E-02 
527	 0.046012719865534 
528	 4.60875320895877E-02 
529	 0.046109616146814 
530	 4.60550087713256E-02 
531	 4.60258004920906E-02 
532	 0.046056513668314 
533	 4.61582648280855E-02 
534	 4.62779865231256E-02 
535	 0.046232157961283 
536	 4.61894341889363E-02 
537	 4.62312341398553E-02 
538	 4.63654308791276E-02 
539	 4.63596510129176E-02 
540	 4.63484478945115E-02 
541	 0.046391489233974 
542	 4.64089215259453E-02 
543	 4.64537642658336E-02 
544	 4.65396870269068E-02 
545	 4.66545097873387E-02 
546	 4.67365528476553E-02 
547	 4.67867391939666E-02 
548	 4.68183928511123E-02 
549	 4.68540982752755E-02 
550	 4.69107407267082E-02 
551	 4.70080433787917E-02 
552	 4.71276251571023E-02 
553	 4.71459572889157E-02 
554	 4.72157896716112E-02 
555	 4.73448761433084E-02 
556	 4.74622362105884E-02 
557	 4.75294238583891E-02 
558	 4.76665027170628E-02 
559	 0.047901149105161 
560	 4.80778559423252E-02 
561	 4.81531279103281E-02 
562	 4.82883449443678E-02 
563	 4.86296047267916E-02 
564	 0.048805885646114 
565	 4.89436069189198E-02 
566	 4.91334240713892E-02 
567	 4.93908223737777E-02 
568	 4.97181313090958E-02 
569	 5.00726543250794E-02 
570	 5.04025501887254E-02 
571	 5.06616271180672E-02 
572	 5.09230717885649E-02 
573	 5.12539459220941E-02 
574	 5.16944754883285E-02 
575	 5.20353337861092E-02 
576	 5.23515632218516E-02 
577	 5.27216853601448E-02 
578	 5.31265217936782E-02 
579	 5.35739171789927E-02 
580	 5.40641578769723E-02 
581	 5.45975775635339E-02 
582	 5.52155630995909E-02 
583	 5.57630685010972E-02 
584	 5.62265175587817E-02 
585	 5.68170822080259E-02 
586	 5.73914444059322E-02 
587	 5.79512125986536E-02 
588	 5.85304589630042E-02 
589	 5.91328247050136E-02 
590	 5.96981722620176E-02 
591	 6.02537989397528E-02 
592	 6.09015970695027E-02 
593	 6.14846090443853E-02 
594	 6.20533843456557E-02 
595	 6.26750047466178E-02 
596	 6.33557454828181E-02 
597	 6.40243032317303E-02 
598	 6.46707412058491E-02 
599	 6.53190469891198E-02 
600	 6.59304305112628E-02 
601	 6.65370594960832E-02 
602	 6.71340128936824E-02 
603	 6.76334187055859E-02 
604	 6.81771725776583E-02 
605	 6.87458204679673E-02 
606	 6.92737199218464E-02 
607	 6.97866592272357E-02 
608	 7.02835112244098E-02 
609	 7.07703298286986E-02 
610	 7.12635287045056E-02 
611	 7.17653300398463E-02 
612	 7.22145935930597E-02 
613	 7.25755073535744E-02 
614	 7.29537077473812E-02 
615	 7.32927421490829E-02 
616	 7.36026006038019E-02 
617	 7.39325122123357E-02 
618	 7.42283714016355E-02 
619	 7.45201056434905E-02 
620	 7.48182482995227E-02 
621	 7.50631069476416E-02 
622	 7.52888032859113E-02 
623	 7.55077951838147E-02 
624	 7.57239300844985E-02 
625	 7.59323116304662E-02 
626	 7.61433660441706E-02 
627	 0.076347368849273 
628	 7.65056047823952E-02 
629	 7.66996178721531E-02 
630	 7.69122961056742E-02 
631	 7.70976849650648E-02 
632	 7.72013943261866E-02 
633	 7.73843003668934E-02 
634	 7.76236713208692E-02 
635	 7.77550998854796E-02 
636	 7.79285759871828E-02 
637	 7.81143760004187E-02 
638	 7.82706893871075E-02 
639	 7.83974172710643E-02 
640	 7.85571029176904E-02 
641	 7.87416509587819E-02 
642	 7.89104537923129E-02 
643	 7.90674983606086E-02 
644	 7.92313027033986E-02 
645	 7.94123904333551E-02 
646	 7.96082033125846E-02 
647	 7.97714862704106E-02 
648	 0.079946817417067 
649	 8.01809054579905E-02 
650	 8.04144481523041E-02 
651	 0.080599658953528 
652	 8.07631214323612E-02 
653	 8.09913173234767E-02 
654	 8.12462103000787E-02 
655	 0.081468302954162 
656	 8.16508963222435E-02 
657	 8.19312159344488E-02 
658	 8.22054237606834E-02 
659	 8.24552898999764E-02 
660	 8.27025216904427E-02 
661	 8.29505233782221E-02 
662	 8.31897831321801E-02 
663	 8.34446592930374E-02 
664	 8.37925318194379E-02 
665	 8.40929839148344E-02 
666	 8.43381364176808E-02 
667	 0.084572949628391 
668	 8.48712177798703E-02 
669	 8.52162317809163E-02 
670	 8.55578028869824E-02 
671	 8.58327482313367E-02 
672	 0.086213882467145 
673	 8.66026773726803E-02 
674	 8.69253645921859E-02 
675	 8.72799460482419E-02 
676	 8.76409978010799E-02 
677	 0.088008415061199 
678	 8.83931034943035E-02 
679	 8.88137749415772E-02 
680	 8.92393097638392E-02 
681	 8.96603322570346E-02 
682	 9.01021370047195E-02 
683	 9.05000945783914E-02 
684	 9.08949536115819E-02 
685	 9.13410932946882E-02 
686	 9.18386501585405E-02 
687	 9.23287648810885E-02 
688	 9.28011845137189E-02 
689	 9.32811361874473E-02 
690	 9.37662475130912E-02 
691	 9.42399110587769E-02 
692	 9.47103205123343E-02 
693	 9.52436305785409E-02 
694	 9.57671460149119E-02 
695	 9.62716119430073E-02 
696	 0.096782156486033 
697	 9.73775210400058E-02 
698	 0.097924963201426 
699	 9.84195861869648E-02 
700	 9.89990115588573E-02 
701	 9.95696082973785E-02 
702	 0.100125726625387 
703	 0.100681212876929 
704	 0.10125309825803 
705	 0.101807928659582 
706	 0.102375450270306 
707	 0.103002460512805 
708	 0.10359507533279 
709	 0.104181503542916 
710	 0.104776957166618 
711	 0.105361752222493 
712	 0.105946425885711 
713	 0.106508323182522 
714	 0.107037937972948 
715	 0.107598979316911 
716	 0.108182887960089 
717	 0.108773542046987 
718	 0.109347173890406 
719	 0.109862413768699 
720	 0.110371640809202 
721	 0.110892832651394 
722	 0.111345516353768 
723	 0.111838437814975 
724	 0.112365848506259 
725	 0.112880137133381 
726	 0.113350749582038 
727	 0.113775188962268 
728	 0.114172221366425 
729	 0.114574807985352 
730	 0.114947754254232 
731	 0.115315756640651 
732	 0.115691777445946 
733	 0.116041452004062 
734	 0.116327967126673 
735	 0.116575142794081 
736	 0.116823442450112 
737	 0.117026107565235 
738	 0.117236766987723 
739	 0.117455232226431 
740	 0.117617383709657 
741	 0.117762283944027 
742	 0.117858100056048 
743	 0.117891407690929 
744	 0.117933403157986 
745	 0.117970867471657 
746	 0.117998636680603 
747	 0.118006416271688 
748	 0.117939426874833 
749	 0.117830096782868 
750	 0.117714015600919 
751	 0.117618571392237 
752	 0.117512827047251 
753	 0.11738317760918 
754	 0.117222262402753 
755	 0.117029312026203 
756	 0.116790572457952 
757	 0.116536750688548 
758	 0.116312536227293 
759	 0.116084886804005 
760	 0.115814807726007 
761	 0.11550289800167 
762	 0.11519822912357 
763	 0.114904950265082 
764	 0.114590640645654 
765	 0.114242844388002 
766	 0.113942286014846 
767	 0.113582624771399 
768	 0.113183616310962 
769	 0.112821834193262 
770	 0.112478385045798 
771	 0.112116835264303 
772	 0.111723442447287 
773	 0.111314919003893 
774	 0.11093232019652 
775	 0.110549960532432 
776	 0.110143572191345 
777	 0.109737651004559 
778	 0.109349986059172 
779	 0.108960340872562 
780	 0.108540218329291 
781	 0.108133112290626 
782	 0.107746233768331 
783	 0.107363307310538 
784	 0.106949956329672 
785	 0.106547264773945 
786	 0.106149785864362 
787	 0.105754767279882 
788	 0.105388152040509 
789	 0.105037283544205 
790	 0.104665165271995 
791	 0.104242763558957 
792	 0.103826019448554 
793	 0.10346285797369 
794	 0.10313770102113 
795	 0.10278539200079 
796	 0.102426785890667 
797	 0.102055977043409 
798	 0.101685150151521 
799	 0.101365723811405 
800	 0.101030503858947 
801	 0.10068942758361 
802	 0.100367232050819 
803	 0.100047773775618 
804	 9.97323689636783E-02 
805	 9.94218542906708E-02 
806	 9.91185386079352E-02 
807	 9.88414122166397E-02 
808	 9.85498726290256E-02 
809	 0.098241282597092 
810	 9.79676938989865E-02 
811	 9.77073369688958E-02 
812	 9.74140629333708E-02 
813	 9.70895738411731E-02 
814	 9.68815351822672E-02 
815	 9.66524429982965E-02 
816	 9.63978662875882E-02 
817	 9.61644213892297E-02 
818	 9.59518280938658E-02 
819	 0.095710170195531 
820	 9.54594850630538E-02 
821	 9.52704325825785E-02 
822	 0.095037140218999 
823	 9.48018129977819E-02 
824	 9.46001325618718E-02 
825	 9.44202513022875E-02 
826	 9.42296311312531E-02 
827	 0.09403671261305 
828	 0.093860953810063 
829	 0.093717474306058 
830	 9.35491662492585E-02 
831	 9.33803365744827E-02 
832	 9.32646243803536E-02 
833	 9.31721086489812E-02 
834	 9.30360803023002E-02 
835	 9.28443122945113E-02 
836	 9.26470477770195E-02 
837	 9.25725608153843E-02 
838	 9.24986797304771E-02 
839	 9.23599333905288E-02 
840	 9.22607104544296E-02 
841	 9.21624030884003E-02 
842	 9.20797671492255E-02 
843	 0.092010573110596 
844	 9.18479443964622E-02 
845	 9.17916992479794E-02 
846	 9.17692748980678E-02 
847	 9.16298181048589E-02 
848	 9.15754999156617E-02 
849	 9.15379344285343E-02 
850	 9.14856962979215E-02 
851	 9.14341134398066E-02 
852	 9.13968701189375E-02 
853	 9.13573582341684E-02 
854	 9.13155605506892E-02 
855	 9.13009429390898E-02 
856	 9.13032697431788E-02 
857	 9.12979428633899E-02 
858	 9.12786633071412E-02 
859	 0.091296710104622 
860	 9.12945998071989E-02 
861	 9.12804847079437E-02 
862	 9.12833592674142E-02 
863	 9.13084641398843E-02 
864	 9.13452038119611E-02 
865	 9.13897468245566E-02 
866	 9.14385312462796E-02 
867	 9.14571067804989E-02 
868	 0.09146378202457 
869	 9.14911373615696E-02 
870	 9.15723650806096E-02 
871	 9.16326483995294E-02 
872	 9.17191145124609E-02 
873	 9.18226887557291E-02 
874	 9.18155997742601E-02 
875	 9.19269106553759E-02 
876	 9.20505585793409E-02 
877	 9.20947262017949E-02 
878	 9.22340538798177E-02 
879	 9.23813720312941E-02 
880	 9.24892253115956E-02 
881	 0.092556631151391 
882	 9.27055602127488E-02 
883	 9.29013736567601E-02 
884	 9.30529893137604E-02 
885	 9.30905832482659E-02 
886	 9.32405898030077E-02 
887	 9.34413158556761E-02 
888	 9.36387870371012E-02 
889	 9.38104681347296E-02 
890	 9.39823704864857E-02 
891	 9.41416418889762E-02 
892	 9.42967891946353E-02 
893	 9.44837154334076E-02 
894	 9.46438471981948E-02 
895	 9.48166372218073E-02 
896	 9.50326603274757E-02 
897	 9.52720086921694E-02 
898	 9.55136329838059E-02 
899	 9.57562248903208E-02 
900	 9.60069917463485E-02 
901	 9.62799919751544E-02 
902	 9.65108481798451E-02 
903	 9.67346380556574E-02 
904	 9.70046365034543E-02 
905	 9.73053204919083E-02 
906	 9.75660341689346E-02 
907	 9.77942889864138E-02 
908	 0.098047085547508 
909	 9.84016672530885E-02 
910	 9.87474458505647E-02 
911	 9.90618243054034E-02 
912	 9.93890679801133E-02 
913	 9.97427045618288E-02 
914	 0.100060790986164 
915	 0.100362195842326 
916	 0.100729387806327 
917	 0.101081761938468 
918	 0.10140637859785 
919	 0.101731261867742 
920	 0.102115530908953 
921	 0.102553600578666 
922	 0.102989883472009 
923	 0.103390149107058 
924	 0.103769880513215 
925	 0.104179821878603 
926	 0.104624762199035 
927	 0.105086408959917 
928	 0.105527107744288 
929	 0.106008529757343 
930	 0.106481565022585 
931	 0.106918730220177 
932	 0.107406833877208 
933	 0.107901633508229 
934	 0.108398122144617 
935	 0.108909502266477 
936	 0.109471645759595 
937	 0.110050341170424 
938	 0.110608124442783 
939	 0.111135057211529 
940	 0.111710027854726 
941	 0.112284969913909 
942	 0.112891806186748 
943	 0.113543144258177 
944	 0.114042498075366 
945	 0.114645294858551 
946	 0.115319507470384 
947	 0.115923938632255 
948	 0.11649435365334 
949	 0.117175279913466 
950	 0.117917433031367 
951	 0.118594463476702 
952	 0.119258812653717 
953	 0.119958665353189 
954	 0.120674804600321 
955	 0.121371441125655 
956	 0.122158346335033 
957	 0.122954095187016 
958	 0.123711627653656 
959	 0.124425039331999 
960	 0.125125226373057 
961	 0.125949427609545 
962	 0.126886506923865 
963	 0.127803850185805 
964	 0.128533265281791 
965	 0.129330406972529 
966	 0.130214548668304 
967	 0.1310497214341 
968	 0.131941679129964 
969	 0.132826395502821 
970	 0.133661407403985 
971	 0.134462300206997 
972	 0.135432448253627 
973	 0.136431506887172 
974	 0.13737219070407 
975	 0.138261816581703 
976	 0.139275580661624 
977	 0.140298248436147 
978	 0.14125775442772 
979	 0.142151866389234 
980	 0.143101560259037 
981	 0.144041636627187 
982	 0.144982305362137 
983	 0.146002680874918 
984	 0.147242056884127 
985	 0.148340326580245 
986	 0.149282561485631 
987	 0.150274487140737 
988	 0.151411798100415 
989	 0.152488689241772 
990	 0.153555740658626 
991	 0.154746471744845 
992	 0.155895587176636 
993	 0.156918983567387 
994	 0.157937061474097 
995	 0.159081593178346 
996	 0.160139530975246 
997	 0.161133943292722 
998	 0.162271034512934 
999	 0.163654627268875 
1000	 0.164809809787001 
1001	 0.163317244033262 
1002	 0.164282572666765 
1003	 0.165284602286294 
1004	 0.166307904024353 
1005	 0.167243450667916 
1006	 0.168271346129747 
1007	 0.16940654092118 
1008	 0.170515887629155 
1009	 0.171480348841168 
1010	 0.172530078598163 
1011	 0.173579675918445 
1012	 0.174554589615514 
1013	 0.175590839936386 
1014	 0.176633549874049 
1015	 0.177703836937096 
1016	 0.178774115981619 
1017	 0.179808928375151 
1018	 0.180853317785745 
1019	 0.181903983114465 
1020	 0.182847884519195 
1021	 0.183767850397254 
1022	 0.184769231430127 
1023	 0.185736531715769 
1024	 0.186666145297534 
1025	 0.187656922138485 
1026	 0.188617161945627 
1027	 0.189523201950474 
1028	 0.190482905997322 
1029	 0.191416347380317 
1030	 0.192337411690111 
1031	 0.193265661824817 
1032	 0.19420930675735 
1033	 0.195112464504067 
1034	 0.19604905291959 
1035	 0.196977177950571 
1036	 0.197905729720693 
1037	 0.198851709601076 
1038	 0.199735821025899 
1039	 0.200655598400472 
1040	 0.201569336660807 
1041	 0.202414890865435 
1042	 0.203282203834656 
1043	 0.204131368823924 
1044	 0.204992350968916 
1045	 0.205829676740964 
1046	 0.206735116460361 
1047	 0.207663968834748 
1048	 0.208595535228865 
1049	 0.209506800188894 
1050	 0.210400642860363 
1051	 0.211309110884428 
1052	 0.212167124878434 
1053	 0.213038390594501 
1054	 0.213937721830051 
1055	 0.214782725620086 
1056	 0.215657017891028 
1057	 0.216524138681711 
1058	 0.217367325757822 
1059	 0.218234450599137 
1060	 0.219125980302061 
1061	 0.219994242340553 
1062	 0.22083460468526 
1063	 0.221712246004361 
1064	 0.222617696909016 
1065	 0.223527670222202 
1066	 0.224438730603604 
1067	 0.22537861186155 
1068	 0.226289412485089 
1069	 0.227112774309721 
1070	 0.227958598737964 
1071	 0.228774306651268 
1072	 0.229637612228398 
1073	 0.230505444976757 
1074	 0.231407088265211 
1075	 0.232359932671325 
1076	 0.23328551221005 
1077	 0.234177532248982 
1078	 0.235054228590195 
1079	 0.235898885493375 
1080	 0.23677273619427 
1081	 0.237710425508644 
1082	 0.238614533083665 
1083	 0.239520976707549 
1084	 0.240438019387505 
1085	 0.241357679267826 
1086	 0.242278086997417 
1087	 0.243178162258187 
1088	 0.244070095029328 
1089	 0.244965344759559 
1090	 0.245853071700883 
1091	 0.246753359646571 
1092	 0.247711660585015 
1093	 0.248682879518819 
1094	 0.249636601455051 
1095	 0.250560233612478 
1096	 0.251503686036795 
1097	 0.252454874468161 
1098	 0.253381831250514 
1099	 0.254298556038347 
1100	 0.255233435623713 
1101	 0.256129849611117 
1102	 0.257081162959039 
1103	 0.258069978786146 
1104	 0.259077573342111 
1105	 0.260075393847683 
1106	 0.261086916952337 
1107	 0.262128019412365 
1108	 0.263164005177928 
1109	 0.264199135851328 
1110	 0.265237958475914 
1111	 0.266271982418855 
1112	 0.267286485298201 
1113	 0.268314322046305 
1114	 0.269349882583935 
1115	 0.270395594588741 
1116	 0.271437335091306 
1117	 0.272492152311013 
1118	 0.273561446934536 
1119	 0.274633728162141 
1120	 0.275723521516238 
1121	 0.276808750364064 
1122	 0.277904241017577 
1123	 0.279040354849563 
1124	 0.280165997263391 
1125	 0.281305927893963 
1126	 0.282428729791376 
1127	 0.283544927320739 
1128	 0.284658398050258 
1129	 0.285756227210972 
1130	 0.286867944512966 
1131	 0.287980420010554 
1132	 0.28910888251206 
1133	 0.290246470760297 
1134	 0.291389533720166 
1135	 0.292538854155689 
1136	 0.293703027343318 
1137	 0.294884602317197 
1138	 0.296033494060338 
1139	 0.297148705196168 
1140	 0.298224744457868 
1141	 0.299342012034357 
1142	 0.30044091311209 
1143	 0.301558279959435 
1144	 0.302724385829273 
1145	 0.303850643564769 
1146	 0.304948288033874 
1147	 0.306046758771213 
1148	 0.307151493912709 
1149	 0.308236471262424 
1150	 0.309281289441598 
1151	 0.310371322732703 
1152	 0.311447995832808 
1153	 0.312514070622299 
1154	 0.313612790793862 
1155	 0.31474587978405 
1156	 0.315846416563683 
1157	 0.316957723765163 
1158	 0.318051761918731 
1159	 0.319140921938739 
1160	 0.32020090012344 
1161	 0.321225339935892 
1162	 0.322278313580886 
1163	 0.323328804356302 
1164	 0.324374348436897 
1165	 0.325448283224993 
1166	 0.32650701281389 
1167	 0.327510800649335 
1168	 0.328505810113615 
1169	 0.329512180600059 
1170	 0.330503170884997 
1171	 0.331510348839378 
1172	 0.332553204647479 
1173	 0.333542716471613 
1174	 0.334503159721135 
1175	 0.335479681016968 
1176	 0.336446708290353 
1177	 0.337403123454117 
1178	 0.338373714135346 
1179	 0.339323085758708 
1180	 0.340249741201204 
1181	 0.341166660416298 
1182	 0.342075658764028 
1183	 0.342981424149653 
1184	 0.343868034534157 
1185	 0.344737559941254 
1186	 0.345601118517387 
1187	 0.34645045906841 
1188	 0.347302234626381 
1189	 0.348167797379868 
1190	 0.348984038275694 
1191	 0.349776571566298 
1192	 0.350566958007744 
1193	 0.351320585963215 
1194	 0.352079575983545 
1195	 0.352855207575912 
1196	 0.353603758003171 
1197	 0.354333971117452 
1198	 0.355050257718008 
1199	 0.355752612073062 
1200	 0.356434751384551 
1201	 0.357130475599914 
1202	 0.357825230016199 
1203	 0.358501442733554 
1204	 0.359182950463357 
1205	 0.359839374950444 
1206	 0.360476872363312 
1207	 0.361097232817456 
1208	 0.361696195531829 
1209	 0.362299201105083 
1210	 0.362896756823724 
1211	 0.363471894218471 
1212	 0.364042169241624 
1213	 0.364599995185499 
1214	 0.365116783263698 
1215	 0.365650564405598 
1216	 0.366188035538501 
1217	 0.366741705955649 
1218	 0.367259334580455 
1219	 0.367770295379183 
1220	 0.368270254925111 
1221	 0.368746781834975 
1222	 0.36922306962998 
1223	 0.369697264851913 
1224	 0.370165991628809 
1225	 0.370620568565632 
1226	 0.371077623216067 
1227	 0.371548696434111 
1228	 0.371994095531102 
1229	 0.372432290978684 
1230	 0.372852642725194 
1231	 0.373242639023159 
1232	 0.373637740246288 
1233	 0.374027600562815 
1234	 0.374405759189433 
1235	 0.374787783053 
1236	 0.375182073362147 
1237	 0.375546184768403 
1238	 0.37590634824202 
1239	 0.376238381700381 
1240	 0.376534777116226 
1241	 0.37684442997445 
1242	 0.377136448816971 
1243	 0.377438669049066 
1244	 0.377739063084018 
1245	 0.378051862957149 
1246	 0.378386920797184 
1247	 0.378700397153534 
1248	 0.379011651036602 
1249	 0.379328444250864 
1250	 0.379618988684332 
1251	 0.379875908496041 
1252	 0.380150708536157 
1253	 0.380428765243069 
1254	 0.380688393991192 
1255	 0.380940500063178 
1256	 0.381188984948677 
1257	 0.381419047468949 
1258	 0.381657674983524 
1259	 0.381895742509907 
1260	 0.382141051008981 
1261	 0.382404797464455 
1262	 0.382638470444223 
1263	 0.382856615336902 
1264	 0.383082473571806 
1265	 0.383290361873598 
1266	 0.383502013364511 
1267	 0.383728459361656 
1268	 0.383954166199509 
1269	 0.384154122051137 
1270	 0.384337413157733 
1271	 0.384514400591648 
1272	 0.384669510557368 
1273	 0.384841934718938 
1274	 0.385004895816401 
1275	 0.3851861222126 
1276	 0.385390530077676 
1277	 0.385572854651357 
1278	 0.385757693218031 
1279	 0.385932218942462 
1280	 0.386087684058902 
1281	 0.386249932507435 
1282	 0.386411857710779 
1283	 0.386571171662822 
1284	 0.386725803717701 
1285	 0.386883866652158 
1286	 0.387039708746165 
1287	 0.387212682807976 
1288	 0.387369045271985 
1289	 0.38753095022959 
1290	 0.387670539725103 
1291	 0.387785207466294 
1292	 0.387918371395436 
1293	 0.388055239944214 
1294	 0.388175679372202 
1295	 0.388306550183062 
1296	 0.388415921386734 
1297	 0.388502554377437 
1298	 0.38858493519198 
1299	 0.388653701221243 
1300	 0.388723051045242 
1301	 0.38878407430753 
1302	 0.388841854607581 
1303	 0.388907479317345 
1304	 0.388950342579421 
1305	 0.388994531216611 
1306	 0.389029649474506 
1307	 0.389055182620732 
1308	 0.389076723253374 
1309	 0.389078450396398 
1310	 0.38905049265839 
1311	 0.389049328645825 
1312	 0.389055921449124 
1313	 0.389039584649137 
1314	 0.389030995364936 
1315	 0.389005832142605 
1316	 0.388942588590713 
1317	 0.388905017895066 
1318	 0.388880118737349 
1319	 0.388845088145546 
1320	 0.388820969253732 
1321	 0.388778392542969 
1322	 0.388712252258843 
1323	 0.388660747662958 
1324	 0.388633582319775 
1325	 0.388591769102752 
1326	 0.388556707948408 
1327	 0.388523082316005 
1328	 0.388442379600397 
1329	 0.388359083144928 
1330	 0.388298328148673 
1331	 0.388237207872262 
1332	 0.388192721957104 
1333	 0.388186624496444 
1334	 0.388138727917208 
1335	 0.388081647970266 
1336	 0.388024640501607 
1337	 0.387934536366599 
1338	 0.387873731378085 
1339	 0.387850759521799 
1340	 0.387785920903808 
1341	 0.387699809684552 
1342	 0.387628504884734 
1343	 0.387546476475657 
1344	 0.387457643348177 
1345	 0.387403215166295 
1346	 0.38733327529949 
1347	 0.387217277314723 
1348	 0.387086307401865 
1349	 0.386919944275268 
1350	 0.386737397647103 
1351	 0.386558582199708 
1352	 0.386368717904599 
1353	 0.386178403384345 
1354	 0.385989960023793 
1355	 0.385788770188605 
1356	 0.385559255017844 
1357	 0.385370355425933 
1358	 0.385162318473697 
1359	 0.385014547493454 
1360	 0.384917868602875 
1361	 0.38483066189689 
1362	 0.384776392401363 
1363	 0.384735342677948 
1364	 0.384701087742156 
1365	 0.384697157110163 
1366	 0.384724108507946 
1367	 0.384767860367994 
1368	 0.38484530988493 
1369	 0.384881714144741 
1370	 0.384829302150094 
1371	 0.384753985487278 
1372	 0.384615211132095 
1373	 0.384390737706087 
1374	 0.384127203027168 
1375	 0.383849825338287 
1376	 0.383445277680013 
1377	 0.382960788947833 
1378	 0.382391865967893 
1379	 0.381674852745743 
1380	 0.381007246347539 
1381	 0.380266632670173 
1382	 0.379570903291164 
1383	 0.378937096870058 
1384	 0.378222758703393 
1385	 0.377536793100872 
1386	 0.376729450720364 
1387	 0.375843305644534 
1388	 0.374905119870227 
1389	 0.373912461130528 
1390	 0.372823422203034 
1391	 0.371651431380546 
1392	 0.370387676208479 
1393	 0.368998806520668 
1394	 0.367560437368881 
1395	 0.366102878286742 
1396	 0.364628781474338 
1397	 0.363157567190914 
1398	 0.361681648596161 
1399	 0.360184145856075 
1400	 0.358663160175627 
1401	 0.357162361117022 
1402	 0.355628164299438 
1403	 0.35416667359455 
1404	 0.352707400586234 
1405	 0.35134171208833 
1406	 0.350066427510963 
1407	 0.348772121648178 
1408	 0.347507659158235 
1409	 0.346292757044517 
1410	 0.345045932726903 
1411	 0.343925893550728 
1412	 0.342893061428158 
1413	 0.341929909638523 
1414	 0.341049005284556 
1415	 0.340207881494917 
1416	 0.339387709001743 
1417	 0.338628865258241 
1418	 0.337909273585616 
1419	 0.337217449964577 
1420	 0.336617960655076 
1421	 0.336071069285386 
1422	 0.33556019597298 
1423	 0.335086585702745 
1424	 0.334598854053565 
1425	 0.334107384046453 
1426	 0.333659228748861 
1427	 0.333202627503646 
1428	 0.332828839978467 
1429	 0.332519186389013 
1430	 0.332221004190849 
1431	 0.331984162610165 
1432	 0.33173178886478 
1433	 0.331475394742549 
1434	 0.331258611855879 
1435	 0.331042508907693 
1436	 0.330880769142262 
1437	 0.330798545984616 
1438	 0.33068137645749 
1439	 0.330581018040151 
1440	 0.330481189254135 
1441	 0.330345666448932 
1442	 0.330220133383686 
1443	 0.330151618187016 
1444	 0.330088038444238 
1445	 0.330056578439318 
1446	 0.330046953444666 
1447	 0.330006555335316 
1448	 0.329985808348214 
1449	 0.329944211955028 
1450	 0.329888151669289 
1451	 0.32987589670944 
1452	 0.329870405774373 
1453	 0.329901817923693 
1454	 0.329985469459132 
1455	 0.330045877559165 
1456	 0.330131728223145 
1457	 0.330177936460416 
1458	 0.330178459316983 
1459	 0.330240160673948 
1460	 0.330288499742842 
1461	 0.330393816807457 
1462	 0.330573367134613 
1463	 0.330734230406243 
1464	 0.330915683200251 
1465	 0.331098835946111 
1466	 0.33126149395116 
1467	 0.331470481269685 
1468	 0.331678426435746 
1469	 0.331948860643796 
1470	 0.332281514420478 
1471	 0.332639101444691 
1472	 0.333004508907557 
1473	 0.33338317588461 
1474	 0.333714354793786 
1475	 0.334064297875813 
1476	 0.334427217486456 
1477	 0.334792688849949 
1478	 0.335226775294348 
1479	 0.335674947857769 
1480	 0.336144566145985 
1481	 0.336644199518659 
1482	 0.337115569393595 
1483	 0.337581823577867 
1484	 0.338039743130384 
1485	 0.338472895015452 
1486	 0.338941552793188 
1487	 0.339416363228768 
1488	 0.339898270102648 
1489	 0.340422074724926 
1490	 0.340903770653537 
1491	 0.341370646383951 
1492	 0.341830251113408 
1493	 0.34225867959592 
1494	 0.342707901829725 
1495	 0.343162543659162 
1496	 0.34361441269902 
1497	 0.344084061703867 
1498	 0.34453103758297 
1499	 0.344972067568907 
1500	 0.345396663860478 
1501	 0.345791924395036 
1502	 0.346197453609016 
1503	 0.346597342635054 
1504	 0.346995541908952 
1505	 0.347396013884024 
1506	 0.347807586356794 
1507	 0.348211475407246 
1508	 0.348601172844754 
1509	 0.348976742097211 
1510	 0.349348717280358 
1511	 0.349711707981706 
1512	 0.350064562604296 
1513	 0.350439950122859 
1514	 0.350816653419155 
1515	 0.351190618124402 
1516	 0.351562447207686 
1517	 0.3519071766152 
1518	 0.352227066916445 
1519	 0.352553903792779 
1520	 0.352860719371085 
1521	 0.353185940594272 
1522	 0.353520513805875 
1523	 0.353847044252153 
1524	 0.354177513317153 
1525	 0.354501343530876 
1526	 0.3548146061019 
1527	 0.355136941000869 
1528	 0.35546828283634 
1529	 0.355781293061908 
1530	 0.356094248793226 
1531	 0.356397220312366 
1532	 0.356690991812357 
1533	 0.356970834578525 
1534	 0.357233978522591 
1535	 0.357502934635118 
1536	 0.357751675674687 
1537	 0.358015584664051 
1538	 0.358294971256443 
1539	 0.35856675684892 
1540	 0.358843042942546 
1541	 0.359110887833122 
1542	 0.359381880333165 
1543	 0.359637306447744 
1544	 0.359870895801806 
1545	 0.360115755985584 
1546	 0.360360507330179 
1547	 0.360595900338345 
1548	 0.360842057859209 
1549	 0.361088259444733 
1550	 0.361316403715871 
1551	 0.36154030743064 
1552	 0.361751523109176 
1553	 0.361950342603793 
1554	 0.36216132138205 
1555	 0.362362333030531 
1556	 0.36254583613194 
1557	 0.362743810359819 
1558	 0.362934823870385 
1559	 0.363107458114631 
1560	 0.363290980070187 
1561	 0.363487236495481 
1562	 0.363662928950357 
1563	 0.363821219558768 
1564	 0.364008100269473 
1565	 0.364198261605949 
1566	 0.364392626551613 
1567	 0.364614512081501 
1568	 0.364796506680541 
1569	 0.364970381457216 
1570	 0.36512191058607 
1571	 0.36523990723882 
1572	 0.365382418042188 
1573	 0.365518368894445 
1574	 0.365651059449614 
1575	 0.365792602782423 
1576	 0.365925268415656 
1577	 0.366045054206101 
1578	 0.366171501925205 
1579	 0.366305319756261 
1580	 0.366434476952718 
1581	 0.36655636678159 
1582	 0.36668155017591 
1583	 0.366813276277154 
1584	 0.366932562348824 
1585	 0.367035477524 
1586	 0.367161770337595 
1587	 0.367304097057629 
1588	 0.367426767833918 
1589	 0.36754731917591 
1590	 0.36767345708241 
1591	 0.367798359558681 
1592	 0.367905336552909 
1593	 0.368029741132339 
1594	 0.368120750311624 
1595	 0.368153701382534 
1596	 0.368219833153112 
1597	 0.368289892967849 
1598	 0.368360021700168 
1599	 0.368455963379228 
1600	 0.368529163893128 
1601	 0.368559975024172 
1602	 0.368635211517242 
1603	 0.36872917251491 
1604	 0.368820531239584 
1605	 0.368949494746383 
1606	 0.369063168831132 
1607	 0.369172371987199 
1608	 0.369262683499893 
1609	 0.3693580871884 
1610	 0.369426014253675 
1611	 0.369463819080881 
1612	 0.369499367110782 
1613	 0.369531773239154 
1614	 0.36957117383294 
1615	 0.369617380849045 
1616	 0.369668498199984 
1617	 0.369738203633197 
1618	 0.369798766445393 
1619	 0.36985557392476 
1620	 0.369919973877094 
1621	 0.369963812671482 
1622	 0.369986321113413 
1623	 0.370023307621586 
1624	 0.370054836836867 
1625	 0.370100607655915 
1626	 0.370157147595212 
1627	 0.370206243767851 
1628	 0.370257237552149 
1629	 0.37031137928529 
1630	 0.370365659284463 
1631	 0.370415962474763 
1632	 0.370477237387526 
1633	 0.370514977468525 
1634	 0.37053668257206 
1635	 0.370560474238048 
1636	 0.370576495915618 
1637	 0.370587887682068 
1638	 0.370590509719269 
1639	 0.370603307747958 
1640	 0.370605531380342 
1641	 0.370633797072942 
1642	 0.370687628872218 
1643	 0.370720507182502 
1644	 0.370761872902655 
1645	 0.370786615966562 
1646	 0.370798193750227 
1647	 0.370803103981235 
1648	 0.370788149293385 
1649	 0.370800907407395 
1650	 0.370823913978652 
1651	 0.37083067498085 
1652	 0.370847230314409 
1653	 0.37085933004017 
1654	 0.370854560526072 
1655	 0.370851489774579 
1656	 0.370861896296933 
1657	 0.370856384630191 
1658	 0.37082239974294 
1659	 0.37081627832152 
1660	 0.370823455941355 
1661	 0.370826952533812 
1662	 0.370835433490676 
1663	 0.37084922213811 
1664	 0.370882330627035 
1665	 0.370875192527216 
1666	 0.37086289580371 
1667	 0.370829283295123 
1668	 0.370752371893098 
1669	 0.370691935586379 
1670	 0.37062069955923 
1671	 0.370571908290049 
1672	 0.370519638331141 
1673	 0.37049463275244 
1674	 0.370508884025855 
1675	 0.370496647646507 
1676	 0.370496245371651 
1677	 0.370471144452671 
1678	 0.370422065414227 
1679	 0.370380871991003 
1680	 0.370332216398286 
1681	 0.370282768465367 
1682	 0.37023541664485 
1683	 0.37018086658805 
1684	 0.370103396643646 
1685	 0.370060991943273 
1686	 0.370032629573973 
1687	 0.370006563891778 
1688	 0.37001841018525 
1689	 0.369990788004715 
1690	 0.369937721949448 
1691	 0.36989568333295 
1692	 0.369858630351909 
1693	 0.369790117401677 
1694	 0.369704984592311 
1695	 0.369629923303303 
1696	 0.369518738054047 
1697	 0.369445179466934 
1698	 0.369406087725287 
1699	 0.369351442651306 
1700	 0.369305408912795 
1701	 0.369245503797416 
1702	 0.369179684986115 
1703	 0.369113655945059 
1704	 0.369041580932604 
1705	 0.368963012959822 
1706	 0.368881289806629 
1707	 0.368798980066106 
1708	 0.368700239566082 
1709	 0.368623172307247 
1710	 0.36855901141697 
1711	 0.368492083602987 
1712	 0.368446244137435 
1713	 0.368368977774808 
1714	 0.36826765447369 
1715	 0.368184397885731 
1716	 0.368096743333221 
1717	 0.368004210685867 
1718	 0.367930061350164 
1719	 0.36782597150743 
1720	 0.3676966106252 
1721	 0.367571754327929 
1722	 0.367450733017363 
1723	 0.367298485430225 
1724	 0.367117197384975 
1725	 0.366959677224 
1726	 0.366786877521207 
1727	 0.366629333033733 
1728	 0.366497897034889 
1729	 0.366343332700385 
1730	 0.36617122847412 
1731	 0.366019130682978 
1732	 0.365869113014977 
1733	 0.365730861877203 
1734	 0.365630376652052 
1735	 0.365461230303437 
1736	 0.365268720651198 
1737	 0.36507315070161 
1738	 0.364821899906151 
1739	 0.364617849951891 
1740	 0.364441129007806 
1741	 0.364244460195271 
1742	 0.364045290529517 
1743	 0.363851688259054 
1744	 0.363662414078842 
1745	 0.363469541598942 
1746	 0.363273706229389 
1747	 0.363109502756197 
1748	 0.362915272237593 
1749	 0.362709872433405 
1750	 0.362512105350264 
1751	 0.362288576991123 
1752	 0.362063006024575 
1753	 0.36184985594669 
1754	 0.361642770878207 
1755	 0.361442665589803 
1756	 0.361224426068656 
1757	 0.360993884668977 
1758	 0.360781845492342 
1759	 0.360602876898074 
1760	 0.360415426452924 
1761	 0.360229300749029 
1762	 0.360071544768963 
1763	 0.359863255528037 
1764	 0.359650510399206 
1765	 0.359449627507184 
1766	 0.359228839054713 
1767	 0.359035335579615 
1768	 0.358864431580729 
1769	 0.358742106721229 
1770	 0.358615103178294 
1771	 0.358460502671413 
1772	 0.358301693760495 
1773	 0.358117283312627 
1774	 0.357950356219139 
1775	 0.357790437785869 
1776	 0.357611898114195 
1777	 0.357430871010883 
1778	 0.35725427346544 
1779	 0.357079187436173 
1780	 0.356921440277999 
1781	 0.356768888252286 
1782	 0.35660466972546 
1783	 0.356496707565145 
1784	 0.356401664079093 
1785	 0.356354382846825 
1786	 0.356281534540032 
1787	 0.356207699666717 
1788	 0.356122400427646 
1789	 0.356025147670276 
1790	 0.355919161472103 
1791	 0.355788899289192 
1792	 0.355682849455806 
1793	 0.355565895954068 
1794	 0.355498866140619 
1795	 0.355479073414265 
1796	 0.355443050076603 
1797	 0.355428807743004 
1798	 0.355397026807221 
1799	 0.355360132506292 
1800	 0.355302101095743 
1801	 0.346062703758713 
1802	 0.346427084691188 
1803	 0.346867638372484 
1804	 0.347322276502247 
1805	 0.34775306042977 
1806	 0.348157052041021 
1807	 0.348537134763094 
1808	 0.348830023422273 
1809	 0.34904170560406 
1810	 0.349219188955948 
1811	 0.349337477443802 
1812	 0.34943362445799 
1813	 0.349475234639025 
1814	 0.34953658748463 
1815	 0.349634754925175 
1816	 0.349676878067641 
1817	 0.349689646085901 
1818	 0.349671674414422 
1819	 0.349652801408793 
1820	 0.349601784603242 
1821	 0.349552119504977 
1822	 0.34948237469137 
1823	 0.349449547742351 
1824	 0.349422872652547 
1825	 0.349348897588005 
1826	 0.349287650034375 
1827	 0.349211046962481 
1828	 0.349099746601308 
1829	 0.348940376249801 
1830	 0.348790884485058 
1831	 0.348631404017146 
1832	 0.348459646819523 
1833	 0.348256772286879 
1834	 0.34804142807027 
1835	 0.347843627290011 
1836	 0.347676328622819 
1837	 0.347561125034732 
1838	 0.34746522115712 
1839	 0.347365830557993 
1840	 0.34728301784977 
1841	 0.347190152998826 
1842	 0.347113547824572 
1843	 0.347043508114455 
1844	 0.346966189408365 
1845	 0.346854995553857 
1846	 0.346723663850246 
1847	 0.346586471798432 
1848	 0.346396530676599 
1849	 0.346204153146186 
1850	 0.345973436210789 
1851	 0.345710495227548 
1852	 0.345390397640689 
1853	 0.345066296397463 
1854	 0.344684978478417 
1855	 0.344270008504317 
1856	 0.343833970548722 
1857	 0.343355726809742 
1858	 0.342856279244717 
1859	 0.342297750703523 
1860	 0.341629347251673 
1861	 0.340880088553722 
1862	 0.340043441338362 
1863	 0.339091416378043 
1864	 0.338028153070196 
1865	 0.336895138976311 
1866	 0.335628827797613 
1867	 0.334303169596468 
1868	 0.332940140233321 
1869	 0.331508585834289 
1870	 0.330055807208567 
1871	 0.328549629730374 
1872	 0.32699980111311 
1873	 0.325420020285454 
1874	 0.323786395684294 
1875	 0.322103196705955 
1876	 0.320369178151136 
1877	 0.318524704893572 
1878	 0.316544070770529 
1879	 0.314405999054947 
1880	 0.312085259410698 
1881	 0.309551827923918 
1882	 0.306917904139801 
1883	 0.30413530638581 
1884	 0.301180779845472 
1885	 0.298135520582134 
1886	 0.294987619669134 
1887	 0.291710361944804 
1888	 0.288384587680411 
1889	 0.284972566808188 
1890	 0.281529551159027 
1891	 0.278088979609753 
1892	 0.274550485199446 
1893	 0.271097438753683 
1894	 0.267656837065354 
1895	 0.264268219592317 
1896	 0.260884248156129 
1897	 0.257593812819242 
1898	 0.254354561827438 
1899	 0.251220942954158 
1900	 0.248267729915859 
1901	 0.245450625074363 
1902	 0.242827452534144 
1903	 0.240440795356032 
1904	 0.238140235442253 
1905	 0.235959824630667 
1906	 0.233986216894487 
1907	 0.232159446003171 
1908	 0.230423256902606 
1909	 0.228856032307595 
1910	 0.227400905027498 
1911	 0.226018724572533 
1912	 0.224731837048528 
1913	 0.223538779594479 
1914	 0.222437280561796 
1915	 0.221426024872609 
1916	 0.22051023124456 
1917	 0.21968449963952 
1918	 0.218928874365524 
1919	 0.218266824229892 
1920	 0.217714698553854 
1921	 0.217229901820454 
1922	 0.216826002783633 
1923	 0.216509886498296 
1924	 0.216214111523055 
1925	 0.215968679974916 
1926	 0.215761360072576 
1927	 0.215600998954323 
1928	 0.215457456111514 
1929	 0.215377521123729 
1930	 0.215329264578675 
1931	 0.215318706208489 
1932	 0.215378613138104 
1933	 0.215464460150244 
1934	 0.215565548689257 
1935	 0.215713108961452 
1936	 0.215889968677723 
1937	 0.216112304933355 
1938	 0.216386936215685 
1939	 0.216686994986424 
1940	 0.217027098102169 
1941	 0.21738815012268 
1942	 0.217783472277529 
1943	 0.218219222886405 
1944	 0.21867595627762 
1945	 0.21914955724491 
1946	 0.219627386555422 
1947	 0.220116029652361 
1948	 0.220608178653833 
1949	 0.221102470945304 
1950	 0.221617796913393 
1951	 0.222147562589706 
1952	 0.222670960958466 
1953	 0.223234707817509 
1954	 0.223844525391664 
1955	 0.224450891944478 
1956	 0.225105919880059 
1957	 0.225767084047634 
1958	 0.226433947137188 
1959	 0.227135830872829 
1960	 0.227890013518167 
1961	 0.228616510636989 
1962	 0.229367332509167 
1963	 0.230101824372852 
1964	 0.230810968512705 
1965	 0.231531708261353 
1966	 0.232273130533415 
1967	 0.233024992531034 
1968	 0.233772099195919 
1969	 0.23452555712059 
1970	 0.23528083631729 
1971	 0.236032789102206 
1972	 0.23679478610908 
1973	 0.237575055389946 
1974	 0.23834380647831 
1975	 0.239115723929815 
1976	 0.239871478365935 
1977	 0.240632149489071 
1978	 0.241409791864499 
1979	 0.242189401027767 
1980	 0.242993443808184 
1981	 0.243775403970376 
1982	 0.244545699412735 
1983	 0.245334810252609 
1984	 0.246138337408089 
1985	 0.246910354693871 
1986	 0.24767634457945 
1987	 0.248445672767405 
1988	 0.24918583903636 
1989	 0.249938235143407 
1990	 0.250726332785729 
1991	 0.251517985010061 
1992	 0.252305996632151 
1993	 0.253105023236548 
1994	 0.253891244665967 
1995	 0.254665208644606 
1996	 0.25545116526821 
1997	 0.256261677956856 
1998	 0.257028152148262 
1999	 0.257770207915025 
2000	 0.258527353618006 
2001	 0.259275926190857 
2002	 0.259992871815032 
2003	 0.260745710565327 
2004	 0.261494158547248 
2005	 0.262239554580721 
2006	 0.262977738657102 
2007	 0.26371540127742 
2008	 0.264451827546623 
2009	 0.265193835016122 
2010	 0.265934753229144 
2011	 0.266668758485979 
2012	 0.267411852739654 
2013	 0.268144003869001 
2014	 0.268860387886077 
2015	 0.269577532284376 
2016	 0.270297996975536 
2017	 0.271018452226152 
2018	 0.271745291883576 
2019	 0.272491058042859 
2020	 0.273201061861522 
2021	 0.273908408436648 
2022	 0.274595621475296 
2023	 0.27524503588726 
2024	 0.275907843014292 
2025	 0.276559714407351 
2026	 0.277221229567808 
2027	 0.277889064766572 
2028	 0.278557466383732 
2029	 0.27921409120664 
2030	 0.279880875235698 
2031	 0.280514451837885 
2032	 0.28112810385308 
2033	 0.281733710222641 
2034	 0.282312765610091 
2035	 0.282902154973539 
2036	 0.283489765263014 
2037	 0.284068553576713 
2038	 0.284639786614458 
2039	 0.285214911291609 
2040	 0.285776875441928 
2041	 0.286351835136069 
2042	 0.286942470776492 
2043	 0.287519966263366 
2044	 0.288083059879103 
2045	 0.288639717388979 
2046	 0.289188531592203 
2047	 0.289717844802176 
2048	 0.290254849903005 
2049	 0.290811211275589 
2050	 0.291323616557202 
2051	 0.291797664554813 
2052	 0.292292314569398 
2053	 0.292751800823669 
2054	 0.293246095767519 
2055	 0.293789138946985 
2056	 0.294308258183251 
2057	 0.294817379427542 
2058	 0.295332636085345 
2059	 0.295825013408922 
2060	 0.296289175584108 
2061	 0.296765705416035 
2062	 0.297242438344508 
2063	 0.297709490387692 
2064	 0.298166756159233 
2065	 0.298629770464566 
2066	 0.299094553160816 
2067	 0.299549153856262 
2068	 0.300000116115114 
2069	 0.300450577000102 
2070	 0.30089948104013 
2071	 0.301346695560593 
2072	 0.301771704451166 
2073	 0.302187999724935 
2074	 0.302606552148891 
2075	 0.302988325435537 
2076	 0.30341415088644 
2077	 0.303870618597126 
2078	 0.304316673205103 
2079	 0.304784687358658 
2080	 0.305231678042972 
2081	 0.305663810958376 
2082	 0.306102724808676 
2083	 0.306535880949984 
2084	 0.306975080405491 
2085	 0.307398537244012 
2086	 0.307829606428364 
2087	 0.308226959203478 
2088	 0.308587770586101 
2089	 0.308977457243668 
2090	 0.309359794364345 
2091	 0.309748898801099 
2092	 0.310167883777319 
2093	 0.310552279507691 
2094	 0.310901916533771 
2095	 0.31127877621405 
2096	 0.311651898417794 
2097	 0.312034036455247 
2098	 0.312444954533461 
2099	 0.312841473135845 
2100	 0.313232190508901 
2101	 0.313619184577247 
2102	 0.313994983778518 
2103	 0.314354792329267 
2104	 0.314732590735849 
2105	 0.315101196853932 
2106	 0.315487965654529 
2107	 0.315897159697639 
2108	 0.316297603081166 
2109	 0.316694693614701 
2110	 0.317105938166329 
2111	 0.317528817152145 
2112	 0.317945899328957 
2113	 0.318388337630685 
2114	 0.318805038490578 
2115	 0.319195416065948 
2116	 0.319572220104926 
2117	 0.31991993916576 
2118	 0.320220658065732 
2119	 0.320554864766403 
2120	 0.320883710352372 
2121	 0.321210353617171 
2122	 0.321554374791168 
2123	 0.321875804705729 
2124	 0.322172208600311 
2125	 0.322480253847073 
2126	 0.322799668614342 
2127	 0.323094958889886 
2128	 0.323380778453009 
2129	 0.32366070556907 
2130	 0.323924216443241 
2131	 0.324181174701913 
2132	 0.324426471412506 
2133	 0.324672296120637 
2134	 0.324892216867469 
2135	 0.325098745565454 
2136	 0.325277036880562 
2137	 0.325436907806164 
2138	 0.325576267344556 
2139	 0.325689543155086 
2140	 0.32578289840207 
2141	 0.325851291510178 
2142	 0.325910494202096 
2143	 0.325940871764666 
2144	 0.325970906848608 
2145	 0.325989707302227 
2146	 0.32600706963603 
2147	 0.326016032132188 
2148	 0.326026366773856 
2149	 0.326023764860662 
2150	 0.326018583375366 
2151	 0.326004999489055 
2152	 0.325987671584924 
2153	 0.325945667690581 
2154	 0.325901187021312 
2155	 0.325823811854916 
2156	 0.325702945989341 
2157	 0.325595111968987 
2158	 0.32548409200336 
2159	 0.325350600176136 
2160	 0.325204297464288 
2161	 0.325055116584677 
2162	 0.32489110831534 
2163	 0.324714968018721 
2164	 0.324524658183997 
2165	 0.324342769342774 
2166	 0.324152155461453 
2167	 0.323936635886138 
2168	 0.323750004849886 
2169	 0.323585725050305 
2170	 0.323396861119018 
2171	 0.32320724126658 
2172	 0.32301024396605 
2173	 0.322787402034973 
2174	 0.322590421564441 
2175	 0.322405155500708 
2176	 0.322218529156381 
2177	 0.322045642151216 
2178	 0.321864058697967 
2179	 0.321678098702037 
2180	 0.321492463211758 
2181	 0.321305954299934 
2182	 0.321118422344419 
2183	 0.320951746155934 
2184	 0.320742997805688 
2185	 0.320535553880662 
2186	 0.32032438578593 
2187	 0.320094856726925 
2188	 0.319844569390115 
2189	 0.319593147803305 
2190	 0.319306513116552 
2191	 0.319074508458383 
2192	 0.318856397788684 
2193	 0.318648098870227 
2194	 0.318467443858652 
2195	 0.318297836893865 
2196	 0.318124379510289 
2197	 0.317982028339156 
2198	 0.317879118806755 
2199	 0.317779042330369 
2200	 0.317691313168992 
2201	 0.317619130095804 
2202	 0.317579568790974 
2203	 0.31751830165732 
2204	 0.317469939342115 
2205	 0.317440579081431 
2206	 0.317379165834145 
2207	 0.317292642782592 
2208	 0.317241657328482 
2209	 0.317176575036315 
2210	 0.317153817172506 
2211	 0.317192852945647 
2212	 0.317184926626882 
2213	 0.317187492378569 
2214	 0.317160192923801 
2215	 0.317093374063327 
2216	 0.317037583162718 
2217	 0.316978147820953 
2218	 0.316910568736944 
2219	 0.316844252775503 
2220	 0.316764647716106 
2221	 0.316670327988106 
2222	 0.316563025455166 
2223	 0.316485950781164 
2224	 0.316410614475523 
2225	 0.316316440931106 
2226	 0.316229129384069 
2227	 0.316129382845575 
2228	 0.315989433038696 
2229	 0.315900990913619 
2230	 0.315839964537806 
2231	 0.315775092203244 
2232	 0.31574953026453 
2233	 0.315666625571186 
2234	 0.315554590941964 
2235	 0.315451859362942 
2236	 0.315330199656668 
2237	 0.315202862581289 
2238	 0.315079181097333 
2239	 0.31494444092278 
2240	 0.314767869868336 
2241	 0.314627853283108 
2242	 0.314504058739721 
2243	 0.314385926174649 
2244	 0.314282261780982 
2245	 0.314195716012513 
2246	 0.314082951045034 
2247	 0.313997397570698 
2248	 0.313898327289827 
2249	 0.31379634199612 
2250	 0.313701513309649 
2251	 0.3136035276991 
2252	 0.313515158279042 
2253	 0.313434073687373 
2254	 0.313349952146574 
2255	 0.313285745392574 
2256	 0.31318791295717 
2257	 0.313047869741533 
2258	 0.312965801914723 
2259	 0.312908325978363 
2260	 0.312826682537469 
2261	 0.312772317116602 
2262	 0.312705930244744 
2263	 0.312576613627898 
2264	 0.312505287213632 
2265	 0.312491821624629 
2266	 0.312455467135394 
2267	 0.312450691574987 
2268	 0.312418090527044 
2269	 0.312386667872622 
2270	 0.312304010215824 
2271	 0.312219767723067 
2272	 0.312065948601796 
2273	 0.31189424999265 
2274	 0.311771701923361 
2275	 0.311665405072795 
2276	 0.311600853549363 
2277	 0.311482715417836 
2278	 0.311355460436658 
2279	 0.311243080756547 
2280	 0.311089213917709 
2281	 0.310983683140482 
2282	 0.310949207924456 
2283	 0.31085822567994 
2284	 0.310736493938859 
2285	 0.310642794649992 
2286	 0.310535499002676 
2287	 0.310439665189183 
2288	 0.310380613448838 
2289	 0.310300281896398 
2290	 0.310208538934749 
2291	 0.310119481649304 
2292	 0.310033450915467 
2293	 0.309933046911336 
2294	 0.309826460401901 
2295	 0.30971220737353 
2296	 0.309579822029776 
2297	 0.309451659238493 
2298	 0.309321047548149 
2299	 0.309180893314654 
2300	 0.309062317455007 
2301	 0.308936227514404 
2302	 0.3088120698512 
2303	 0.308686003105883 
2304	 0.30854722769167 
2305	 0.308385553118814 
2306	 0.30818705170536 
2307	 0.307939200374439 
2308	 0.307738381280081 
2309	 0.307511200168637 
2310	 0.307329920790042 
2311	 0.307216071258117 
2312	 0.307051083452666 
2313	 0.306885064866869 
2314	 0.306676892759572 
2315	 0.306412337598601 
2316	 0.306186547515427 
2317	 0.305964243470772 
2318	 0.30574578501355 
2319	 0.305543079919466 
2320	 0.305349560512076 
2321	 0.305129052729998 
2322	 0.304936997495467 
2323	 0.304788471278314 
2324	 0.304626311009847 
2325	 0.304477392932537 
2326	 0.304321020426648 
2327	 0.304165383940194 
2328	 0.303994839402315 
2329	 0.303815239340507 
2330	 0.303668995094048 
2331	 0.30351721540928 
2332	 0.303336397542591 
2333	 0.303141042606371 
2334	 0.302931255323095 
2335	 0.302694762534816 
2336	 0.302432676773288 
2337	 0.302226242733372 
2338	 0.301999396759502 
2339	 0.301744364410548 
2340	 0.301536894970498 
2341	 0.301269747826068 
2342	 0.300968838513725 
2343	 0.300715146042655 
2344	 0.300409494725905 
2345	 0.300113486945854 
2346	 0.299839983674011 
2347	 0.299540131329336 
2348	 0.299196973943802 
2349	 0.298892025420454 
2350	 0.298596984404203 
2351	 0.298268206247629 
2352	 0.297976618485918 
2353	 0.297607614243229 
2354	 0.297141545760376 
2355	 0.29674460272168 
2356	 0.296372582917929 
2357	 0.295942759040266 
2358	 0.295505683628953 
2359	 0.295094391947947 
2360	 0.294618501264521 
2361	 0.2941769114578 
2362	 0.293815572796596 
2363	 0.293403245272738 
2364	 0.292950049460371 
2365	 0.292516360875786 
2366	 0.292067915027051 
2367	 0.291652849841834 
2368	 0.291270317694013 
2369	 0.290860500940299 
2370	 0.290469683682485 
2371	 0.290054033337373 
2372	 0.289585714998667 
2373	 0.289157866690882 
2374	 0.288758103071394 
2375	 0.288327548257274 
2376	 0.287812032122777 
2377	 0.287288454091237 
2378	 0.286847135962584 
2379	 0.286382489696828 
2380	 0.285928459182056 
2381	 0.28548212988615 
2382	 0.284849924709785 
2383	 0.284215457811807 
2384	 0.283731967852636 
2385	 0.283237331796919 
2386	 0.282781832014895 
2387	 0.282324880795174 
2388	 0.281828821587274 
2389	 0.281429293332992 
2390	 0.281040800503151 
2391	 0.280645706666918 
2392	 0.280198656885011 
2393	 0.279641674129558 
2394	 0.279138660317415 
2395	 0.278592178108217 
2396	 0.27800951985156 
2397	 0.277552593970221 
2398	 0.277052228926496 
2399	 0.27649059780709 
2400	 0.275975380457389 
2401	 0.275411734286948 
2402	 0.27482812033397 
2403	 0.274361998143957 
2404	 0.273905007495911 
2405	 0.27340986428845 
2406	 0.272937940937409 
2407	 0.272439101445447 
2408	 0.271906703363843 
2409	 0.271349960922635 
2410	 0.270789624919792 
2411	 0.270176676044873 
2412	 0.269544313858225 
2413	 0.268959512672732 
2414	 0.268408400581064 
2415	 0.267844044039464 
2416	 0.267239417117934 
2417	 0.266621932476296 
2418	 0.266081392868901 
2419	 0.265491318228379 
2420	 0.264982155718584 
2421	 0.264617457944638 
2422	 0.264112780926226 
2423	 0.263567700514241 
2424	 0.263041407988482 
2425	 0.262490209209241 
2426	 0.261905077774242 
2427	 0.261317005244799 
2428	 0.260723386115185 
2429	 0.260065802401371 
2430	 0.259485688745022 
2431	 0.258926583790447 
2432	 0.25835836652145 
2433	 0.257858499006979 
2434	 0.257321105945825 
2435	 0.256761072091559 
2436	 0.256196588162554 
2437	 0.25558472405029 
2438	 0.255006458194694 
2439	 0.254457908703513 
2440	 0.253903505401497 
2441	 0.253376391929276 
2442	 0.252850966971695 
2443	 0.252295376701178 
2444	 0.251802311849335 
2445	 0.251359857856962 
2446	 0.250846749737176 
2447	 0.25036160827215 
2448	 0.249852244329297 
2449	 0.249334238155849 
2450	 0.248702355327922 
2451	 0.247939171434103 
2452	 0.247245141830171 
2453	 0.246503622904763 
2454	 0.245883187735116 
2455	 0.245367118615197 
2456	 0.24485522642182 
2457	 0.244440465321525 
2458	 0.243857070195073 
2459	 0.243155344447773 
2460	 0.242523204446071 
2461	 0.241789886345099 
2462	 0.241219640981716 
2463	 0.240841058787962 
2464	 0.240425460547576 
2465	 0.240092700646455 
2466	 0.239504390980208 
2467	 0.238765071119298 
2468	 0.238161565931898 
2469	 0.237527372480852 
2470	 0.236977310839666 
2471	 0.236351196204701 
2472	 0.235865921041711 
2473	 0.235277144381281 
2474	 0.234760046711475 
2475	 0.234492440313118 
2476	 0.234054409201268 
2477	 0.233474819415884 
2478	 0.232932223176961 
2479	 0.23225369032334 
2480	 0.23153687405495 
2481	 0.230963004195267 
2482	 0.230505731406562 
2483	 0.23010344144343 
2484	 0.229786416110443 
2485	 0.229505442853443 
2486	 0.229200552749836 
2487	 0.228904826687577 
2488	 0.228426766235771 
2489	 0.228067227132995 
2490	 0.227849536849835 
2491	 0.227389972278037 
2492	 0.227024991113106 
2493	 0.226624139865303 
2494	 0.226124769515552 
2495	 0.225889648774844 
2496	 0.225832035298681 
2497	 0.22556091906262 
2498	 0.225128349215031 
2499	 0.224740435624902 
2500	 0.224403582040872 
