Wavelength	LMW_1100009.asd
350	 3.29678235528509E-02 
351	 4.00332286437082E-02 
352	 4.20102267203988E-02 
353	 3.29123762233847E-02 
354	 2.84641435731601E-02 
355	 3.19503931980612E-02 
356	 3.81659206487584E-02 
357	 4.14562357101437E-02 
358	 4.52950386806566E-02 
359	 4.32407150695604E-02 
360	 3.55824317779514E-02 
361	 2.79058239788365E-02 
362	 2.99150671341969E-02 
363	 3.56087922459858E-02 
364	 3.85336574206528E-02 
365	 3.45318272128923E-02 
366	 0.035438807085206 
367	 3.74359364399039E-02 
368	 3.54069619787149E-02 
369	 3.74719202487864E-02 
370	 3.93223808643883E-02 
371	 3.90383180292726E-02 
372	 3.69815142994631E-02 
373	 0.037998619226423 
374	 3.97232209825405E-02 
375	 3.99741921463903E-02 
376	 3.84721648841572E-02 
377	 3.78569038050187E-02 
378	 3.84704008679801E-02 
379	 3.98644222159838E-02 
380	 4.23876293232644E-02 
381	 4.13611047139532E-02 
382	 3.88164873888067E-02 
383	 4.11827108294149E-02 
384	 4.15570107312154E-02 
385	 4.14832416416972E-02 
386	 0.042094671079461 
387	 4.12362105477283E-02 
388	 4.22483615155748E-02 
389	 4.33257318319084E-02 
390	 4.23112797594286E-02 
391	 4.37648360748039E-02 
392	 4.45183071991079E-02 
393	 4.41402563676081E-02 
394	 4.47099790543847E-02 
395	 4.58073640136039E-02 
396	 4.68386460040531E-02 
397	 4.73890946623673E-02 
398	 4.73955947993949E-02 
399	 0.048048200094128 
400	 4.91213349497516E-02 
401	 4.96443529522775E-02 
402	 4.77516797262211E-02 
403	 4.71440068543605E-02 
404	 4.80946724308941E-02 
405	 4.72808431391582E-02 
406	 4.83195200251371E-02 
407	 4.96700206096172E-02 
408	 4.96124445606096E-02 
409	 0.048255311776206 
410	 4.82696571341664E-02 
411	 4.90630350499055E-02 
412	 4.88313299607779E-02 
413	 4.95055453806283E-02 
414	 4.97256561345022E-02 
415	 4.91358075199775E-02 
416	 4.89846423880013E-02 
417	 4.85738462346707E-02 
418	 4.88525765896544E-02 
419	 5.02211771561751E-02 
420	 5.01392869092528E-02 
421	 4.92817192749187E-02 
422	 4.86883223829351E-02 
423	 4.93461545219602E-02 
424	 0.049501894918524 
425	 4.91117898582668E-02 
426	 4.86372104880458E-02 
427	 4.90673148702119E-02 
428	 4.88942769842292E-02 
429	 4.85471695144936E-02 
430	 4.88273928629155E-02 
431	 4.91284841590676E-02 
432	 4.88598877246289E-02 
433	 0.048364820649914 
434	 4.87900365179542E-02 
435	 0.049036205513875 
436	 4.88650508575112E-02 
437	 4.84348970361211E-02 
438	 4.84330662580056E-02 
439	 4.85936206383718E-02 
440	 4.87501943290192E-02 
441	 4.88044390039943E-02 
442	 4.88565345504391E-02 
443	 4.88377470462272E-02 
444	 4.87226621839907E-02 
445	 4.85537011929848E-02 
446	 4.87144676917173E-02 
447	 4.90568554280371E-02 
448	 4.92989905008007E-02 
449	 4.93466697601126E-02 
450	 4.94352820400865E-02 
451	 4.95384090001041E-02 
452	 4.94303514374225E-02 
453	 0.049635122951499 
454	 4.97214104691189E-02 
455	 4.94977252510606E-02 
456	 4.98255504924193E-02 
457	 4.96989900261671E-02 
458	 4.93820965179888E-02 
459	 4.96072663114894E-02 
460	 4.99618739516371E-02 
461	 4.98394707196515E-02 
462	 4.93501441844847E-02 
463	 4.96060524800177E-02 
464	 0.049825582524129 
465	 4.97902665768405E-02 
466	 4.95584358792382E-02 
467	 4.96382478943963E-02 
468	 4.97227052205637E-02 
469	 4.96310269898734E-02 
470	 0.049347947739959 
471	 4.95615820958869E-02 
472	 4.96944859680512E-02 
473	 4.93947909178491E-02 
474	 4.93264247256119E-02 
475	 4.94398264672859E-02 
476	 4.95942919102455E-02 
477	 4.96055936952825E-02 
478	 4.94646752210905E-02 
479	 4.93462457709716E-02 
480	 4.93579440619355E-02 
481	 4.94970910088414E-02 
482	 4.95656876716303E-02 
483	 4.96143699186431E-02 
484	 4.97260994976282E-02 
485	 4.98392857709417E-02 
486	 4.96332247672893E-02 
487	 0.049281132006044 
488	 4.93348419712911E-02 
489	 4.94996726971264E-02 
490	 4.96389769083573E-02 
491	 4.96602159115267E-02 
492	 4.94985570422672E-02 
493	 4.92996065032607E-02 
494	 0.049204786098289 
495	 4.93063818712887E-02 
496	 4.93807941025168E-02 
497	 4.93881668313299E-02 
498	 4.93716826038839E-02 
499	 0.049468531215997 
500	 0.049481446663554 
501	 4.95025219691696E-02 
502	 4.96159740558964E-02 
503	 4.94664118189452E-02 
504	 4.93969918115157E-02 
505	 4.94881773774777E-02 
506	 0.049558747931329 
507	 0.049517314458363 
508	 0.049468418463427 
509	 4.94957557088287E-02 
510	 4.95121874235096E-02 
511	 0.049551191816808 
512	 4.95735584358657E-02 
513	 4.95162033065158E-02 
514	 4.94473203975445E-02 
515	 4.94573453150496E-02 
516	 4.95471673459647E-02 
517	 0.049573412243947 
518	 4.95251673378634E-02 
519	 4.94913827634369E-02 
520	 4.95648579719544E-02 
521	 4.96652476756207E-02 
522	 4.96905152257625E-02 
523	 4.96572689552451E-02 
524	 4.97025396162401E-02 
525	 4.97300258907279E-02 
526	 0.049748900444124 
527	 4.97650085642162E-02 
528	 4.96873410532861E-02 
529	 4.96657824013591E-02 
530	 0.049748337672055 
531	 4.98981395910115E-02 
532	 4.99647985354766E-02 
533	 4.99598372180841E-02 
534	 4.99239335068821E-02 
535	 4.98890620056533E-02 
536	 4.99284277995488E-02 
537	 5.00227841317359E-02 
538	 0.050106154688738 
539	 5.01014494261232E-02 
540	 5.01280713475987E-02 
541	 5.02150476598261E-02 
542	 5.02514626014044E-02 
543	 5.03155999154151E-02 
544	 5.04098244199492E-02 
545	 5.05097488171525E-02 
546	 5.05703000613615E-02 
547	 5.06227799934604E-02 
548	 5.07245808078777E-02 
549	 0.050937142493365 
550	 5.09787240044526E-02 
551	 5.10255960682416E-02 
552	 0.051205936759818 
553	 5.12952569762941E-02 
554	 5.13912947397589E-02 
555	 5.15000245932099E-02 
556	 5.15892410072157E-02 
557	 5.17128581312199E-02 
558	 5.18691806633971E-02 
559	 5.20507634642334E-02 
560	 5.22548946345251E-02 
561	 5.24462720515372E-02 
562	 0.052671283778321 
563	 5.29800379852831E-02 
564	 5.32812981570855E-02 
565	 5.35571606915007E-02 
566	 5.38471946688185E-02 
567	 5.42463485503131E-02 
568	 5.46458894636481E-02 
569	 5.49685043494248E-02 
570	 5.51847452703647E-02 
571	 0.055366186628063 
572	 5.56530092859067E-02 
573	 5.60623724935969E-02 
574	 5.65121061238536E-02 
575	 5.69038672282169E-02 
576	 5.72984882068259E-02 
577	 5.77442716852257E-02 
578	 5.81963448053584E-02 
579	 5.87012255985085E-02 
580	 5.92544278948633E-02 
581	 5.98350812248445E-02 
582	 6.04854704385624E-02 
583	 6.11034541151125E-02 
584	 6.16526205176149E-02 
585	 6.22073185818754E-02 
586	 6.27714105367201E-02 
587	 6.33541611504055E-02 
588	 0.063967959059043 
589	 6.46635993874572E-02 
590	 6.53009195336453E-02 
591	 6.58579621191004E-02 
592	 6.64270106850473E-02 
593	 6.69659593365795E-02 
594	 6.75135279459572E-02 
595	 6.81084903991142E-02 
596	 6.87509745055474E-02 
597	 6.94662352712258E-02 
598	 7.01981053192254E-02 
599	 7.08663293115843E-02 
600	 7.15979525804485E-02 
601	 0.072286709490502 
602	 7.28721704809862E-02 
603	 7.34224748222251E-02 
604	 7.39853336928585E-02 
605	 7.45506028657243E-02 
606	 7.50870627474219E-02 
607	 7.55918115389511E-02 
608	 7.60838707245604E-02 
609	 7.65717565529749E-02 
610	 7.70515727811518E-02 
611	 7.75135259556278E-02 
612	 7.79817084312095E-02 
613	 7.84512466505823E-02 
614	 7.87937344545399E-02 
615	 7.91496374837722E-02 
616	 7.95031020481672E-02 
617	 7.97466547829564E-02 
618	 8.01284881172067E-02 
619	 8.04500687189467E-02 
620	 8.06189117012481E-02 
621	 8.09173854723358E-02 
622	 0.081180105411685 
623	 8.13956624947901E-02 
624	 0.081611621102569 
625	 8.18604261648401E-02 
626	 8.20759272855084E-02 
627	 8.22500854615928E-02 
628	 8.24599168936872E-02 
629	 8.26975769505069E-02 
630	 8.29137697522547E-02 
631	 0.08307571237786 
632	 0.083263675492642 
633	 8.34492191626916E-02 
634	 8.36179738880031E-02 
635	 0.083772996292519 
636	 0.083975099142127 
637	 8.41716338118675E-02 
638	 8.43303224929943E-02 
639	 8.45226585251045E-02 
640	 8.46938589996854E-02 
641	 0.084852768524482 
642	 8.50328954965412E-02 
643	 8.52185799420618E-02 
644	 0.085399709495428 
645	 8.55823045509007E-02 
646	 8.57956392823023E-02 
647	 8.59900804782385E-02 
648	 0.086163612688906 
649	 0.086339160359182 
650	 8.65801996569354E-02 
651	 8.68002135868252E-02 
652	 8.69779048620474E-02 
653	 8.71565362242903E-02 
654	 8.74064742981318E-02 
655	 8.76498127529795E-02 
656	 8.78429827524904E-02 
657	 8.81016569192706E-02 
658	 0.088350245258365 
659	 8.85891649175065E-02 
660	 8.88479119047861E-02 
661	 8.90939237411861E-02 
662	 8.93348853204467E-02 
663	 8.95969347323528E-02 
664	 8.99285058533691E-02 
665	 9.02350502182448E-02 
666	 9.05075684658046E-02 
667	 9.07752027262069E-02 
668	 9.11031585537861E-02 
669	 9.14487920510924E-02 
670	 9.17895012078804E-02 
671	 9.21226400345407E-02 
672	 0.092454004343374 
673	 9.28068548195607E-02 
674	 9.31803251169018E-02 
675	 9.35064118624201E-02 
676	 9.38641935907737E-02 
677	 9.42506609682357E-02 
678	 0.094630824036697 
679	 9.50136705771853E-02 
680	 9.54196118108872E-02 
681	 9.58505707516541E-02 
682	 0.09628419186472 
683	 9.66839029000666E-02 
684	 9.71086321430871E-02 
685	 9.76037935542481E-02 
686	 9.80745120600979E-02 
687	 9.85293500383254E-02 
688	 0.098981660989131 
689	 9.94471363181894E-02 
690	 9.99329536481775E-02 
691	 0.100416135959826 
692	 0.100900500045462 
693	 0.101462020643412 
694	 0.101957694954856 
695	 0.10242889315382 
696	 0.102965179153016 
697	 0.103509209494858 
698	 0.10405351650536 
699	 0.104604302805585 
700	 0.105178559962137 
701	 0.105727033922719 
702	 0.106271612793535 
703	 0.106840580847429 
704	 0.107438578109835 
705	 0.108015133448352 
706	 0.108564393952102 
707	 0.109109242750659 
708	 0.109691594230468 
709	 0.110274500082702 
710	 0.11084516280329 
711	 0.111441651556149 
712	 0.112026284409589 
713	 0.112597153888498 
714	 0.113160071470391 
715	 0.113700802666225 
716	 0.114252975465556 
717	 0.11482419341552 
718	 0.115397869010953 
719	 0.115936096795289 
720	 0.116464796965963 
721	 0.116990709552125 
722	 0.117461061500019 
723	 0.117947790349967 
724	 0.118452991355899 
725	 0.118951208037035 
726	 0.119418277309977 
727	 0.119847305260858 
728	 0.120249880327667 
729	 0.120651652633504 
730	 0.121052592812342 
731	 0.121405494708443 
732	 0.121704334772954 
733	 0.1220661419264 
734	 0.122372591321823 
735	 0.122636319107591 
736	 0.122910358648512 
737	 0.123138624053967 
738	 0.123338093931931 
739	 0.123529342626538 
740	 0.123728236583609 
741	 0.123848437928122 
742	 0.123927542460178 
743	 0.124002794642618 
744	 0.124030183317725 
745	 0.124041388066059 
746	 0.124065764425108 
747	 0.124111842881316 
748	 0.124067100935568 
749	 0.123957841870646 
750	 0.123843721362452 
751	 0.123803884425653 
752	 0.123714175516601 
753	 0.123578884125684 
754	 0.123420675673695 
755	 0.123214508495662 
756	 0.12302834612366 
757	 0.122839493441335 
758	 0.122590798149881 
759	 0.122356273044504 
760	 0.122077796975413 
761	 0.121765387039842 
762	 0.121524919805308 
763	 0.121232315466839 
764	 0.120893364589139 
765	 0.12054956468355 
766	 0.120251953254883 
767	 0.119937231650455 
768	 0.119597388414414 
769	 0.119249989756878 
770	 0.118875549195055 
771	 0.118499393897905 
772	 0.118126676917698 
773	 0.11773443965667 
774	 0.117339427370314 
775	 0.11694266754116 
776	 0.116549565801552 
777	 0.1161944683785 
778	 0.115803403112237 
779	 0.115401254543887 
780	 0.115041616777739 
781	 0.114641872168164 
782	 0.114243642514925 
783	 0.11386124778796 
784	 0.113471042402735 
785	 0.113069328701701 
786	 0.112677039163578 
787	 0.112309053764039 
788	 0.111957605460465 
789	 0.111584146925515 
790	 0.111194115048785 
791	 0.110807209361199 
792	 0.110408246438834 
793	 0.110050654569741 
794	 0.109739539105021 
795	 0.109432028142318 
796	 0.109052027423793 
797	 0.108671934792013 
798	 0.108334536819901 
799	 0.107982195473596 
800	 0.107639724757466 
801	 0.107316583492182 
802	 0.107011547200945 
803	 0.106702820153007 
804	 0.106386304569866 
805	 0.106067481681184 
806	 0.105758485797101 
807	 0.10546978000921 
808	 0.105178187521766 
809	 0.104884834918018 
810	 0.104624647260078 
811	 0.104366500219151 
812	 0.104087036014754 
813	 0.103794463305513 
814	 0.103579658915211 
815	 0.103327710846442 
816	 0.103063843339178 
817	 0.102851018131409 
818	 0.102613092399262 
819	 0.10236990368046 
820	 0.102139369953945 
821	 0.101930537526331 
822	 0.101719285496635 
823	 0.101508586284917 
824	 0.10130264127429 
825	 0.101100499635112 
826	 0.10090956558913 
827	 0.100733474678811 
828	 0.100571739424872 
829	 0.100421864556306 
830	 0.100213188879072 
831	 0.100011336168899 
832	 0.099915521347244 
833	 9.97902423812675E-02 
834	 0.099634272179251 
835	 9.94738205262524E-02 
836	 9.93497660459535E-02 
837	 9.92630566153027E-02 
838	 9.91866368167788E-02 
839	 9.90925644611401E-02 
840	 9.89607734314534E-02 
841	 9.88396186311897E-02 
842	 9.87422332510147E-02 
843	 9.86609313493414E-02 
844	 9.85589535818718E-02 
845	 9.84823488318124E-02 
846	 9.84092117855871E-02 
847	 9.82990760328736E-02 
848	 9.81929795653042E-02 
849	 9.81428959793652E-02 
850	 9.81438494826968E-02 
851	 9.81405849714539E-02 
852	 9.81089279574313E-02 
853	 0.098048279371616 
854	 9.79775999033912E-02 
855	 9.79346391407058E-02 
856	 9.79719670782025E-02 
857	 9.80071038833663E-02 
858	 9.79738962208884E-02 
859	 9.79312804758291E-02 
860	 9.78916722285012E-02 
861	 9.78953797941398E-02 
862	 9.79605892482813E-02 
863	 9.79906090049401E-02 
864	 9.79916325604908E-02 
865	 9.80061315831602E-02 
866	 0.098078145605235 
867	 0.098109937060511 
868	 9.81318819325909E-02 
869	 0.098162526046189 
870	 9.81972013291592E-02 
871	 9.82494162658296E-02 
872	 9.83576883218922E-02 
873	 9.84975003297283E-02 
874	 9.85439310544278E-02 
875	 9.85692270234914E-02 
876	 9.86108753727891E-02 
877	 9.86903766314356E-02 
878	 0.098809505086048 
879	 0.098958708812072 
880	 9.90856253249226E-02 
881	 9.91622780150459E-02 
882	 9.93119274114959E-02 
883	 9.94903787629649E-02 
884	 9.96382580982173E-02 
885	 9.97170714254836E-02 
886	 9.98383778481646E-02 
887	 0.100025901467259 
888	 0.10023429816918 
889	 0.100381499551099 
890	 0.100563507648527 
891	 0.100759309429476 
892	 0.100929303226848 
893	 0.101038234992184 
894	 0.101204437834956 
895	 0.101410552300361 
896	 0.10163333871237 
897	 0.101892580186681 
898	 0.102110865278912 
899	 0.102297811888824 
900	 0.102495319786854 
901	 0.102758265934873 
902	 0.103037326822 
903	 0.103292088638778 
904	 0.103515933089309 
905	 0.103816099240068 
906	 0.104051532974378 
907	 0.104281708676026 
908	 0.104621994827804 
909	 0.104931391635248 
910	 0.105271952535955 
911	 0.105623586659488 
912	 0.10592136886412 
913	 0.106216942148796 
914	 0.106559491381594 
915	 0.106931850599785 
916	 0.107265862430644 
917	 0.107585671255898 
918	 0.107931402457226 
919	 0.108300782104427 
920	 0.108646011185831 
921	 0.109035458911491 
922	 0.109440313977354 
923	 0.109844756590288 
924	 0.110276773366266 
925	 0.110703453627664 
926	 0.111171128557605 
927	 0.111657435100976 
928	 0.11199114544592 
929	 0.112378151302515 
930	 0.112866269385591 
931	 0.11341179551694 
932	 0.113869399844701 
933	 0.114417825950973 
934	 0.114937982325864 
935	 0.115344404590649 
936	 0.115906291046546 
937	 0.116444897228455 
938	 0.116952108371997 
939	 0.117491158616874 
940	 0.118166041496511 
941	 0.118780983652199 
942	 0.119357134701747 
943	 0.119978836021917 
944	 0.120590910310873 
945	 0.121165037089716 
946	 0.121759559099629 
947	 0.122424190912125 
948	 0.122987748002078 
949	 0.123611481538745 
950	 0.124294165515877 
951	 0.124964081601518 
952	 0.125686242500173 
953	 0.126411828592468 
954	 0.12712885432909 
955	 0.127848575613866 
956	 0.128572602633427 
957	 0.129319221461756 
958	 0.130048642974223 
959	 0.130723800266439 
960	 0.131525787602916 
961	 0.132357918924825 
962	 0.133187024892767 
963	 0.134018710540929 
964	 0.134744590597396 
965	 0.135652644793484 
966	 0.136621342775307 
967	 0.137342971755381 
968	 0.138251577085311 
969	 0.139059213775147 
970	 0.139830282438881 
971	 0.140823516174795 
972	 0.141764885053043 
973	 0.14266293836484 
974	 0.14356256103819 
975	 0.144511485406522 
976	 0.145467519053896 
977	 0.14654515268829 
978	 0.147577972084665 
979	 0.148332809099607 
980	 0.149292850207742 
981	 0.150254622106929 
982	 0.151192903288287 
983	 0.152209907274892 
984	 0.153283330601948 
985	 0.154502170999908 
986	 0.155693183740941 
987	 0.156632981909974 
988	 0.157610947581847 
989	 0.15862484886534 
990	 0.159719275766882 
991	 0.16090925518599 
992	 0.162003978196761 
993	 0.162930734135783 
994	 0.163948450227915 
995	 0.165278366872086 
996	 0.166413007519623 
997	 0.16741556722546 
998	 0.168460531695583 
999	 0.169678930521505 
1000	 0.170900812324216 
1001	 0.17009239604345 
1002	 0.171077882581501 
1003	 0.172042847611618 
1004	 0.17307212678555 
1005	 0.174178581109875 
1006	 0.175217339182746 
1007	 0.176258476082076 
1008	 0.177268598183037 
1009	 0.178276468487985 
1010	 0.179287948540791 
1011	 0.180285022803448 
1012	 0.181335645925708 
1013	 0.182354351017056 
1014	 0.18335755399224 
1015	 0.18441954513125 
1016	 0.185446261113859 
1017	 0.186456495061493 
1018	 0.187464582053085 
1019	 0.188458083023745 
1020	 0.189395406281071 
1021	 0.190345329755469 
1022	 0.191301982815157 
1023	 0.192209070652025 
1024	 0.193079712341641 
1025	 0.193965533363069 
1026	 0.194870222465917 
1027	 0.19578902050676 
1028	 0.196746556950294 
1029	 0.197713493946722 
1030	 0.198704124199764 
1031	 0.199649262300766 
1032	 0.200592259441361 
1033	 0.201459150250856 
1034	 0.202333641612262 
1035	 0.203181718477375 
1036	 0.204048350174489 
1037	 0.205001206097778 
1038	 0.205913449657815 
1039	 0.206809962383271 
1040	 0.207670521240875 
1041	 0.208498895789485 
1042	 0.209346648893725 
1043	 0.210153134383582 
1044	 0.210989374890739 
1045	 0.211831849663361 
1046	 0.212690980433509 
1047	 0.21353857612886 
1048	 0.214442946014958 
1049	 0.21536273246238 
1050	 0.216221373924851 
1051	 0.217045127309447 
1052	 0.217861912556721 
1053	 0.218640141895966 
1054	 0.219442806609775 
1055	 0.220318226191134 
1056	 0.221168567730228 
1057	 0.222030245445896 
1058	 0.222908539823755 
1059	 0.22378292640309 
1060	 0.224657093499794 
1061	 0.225537632390112 
1062	 0.226391393332408 
1063	 0.227211027170026 
1064	 0.228009133491369 
1065	 0.228857022962331 
1066	 0.2297696347795 
1067	 0.230651744116964 
1068	 0.231510795038428 
1069	 0.232352062141733 
1070	 0.233192728801003 
1071	 0.233954490657493 
1072	 0.234807019204792 
1073	 0.235742081602438 
1074	 0.236622845089219 
1075	 0.23749152770916 
1076	 0.238370394741839 
1077	 0.239254450168253 
1078	 0.240083100844759 
1079	 0.240917447657329 
1080	 0.241839387692918 
1081	 0.242747994418405 
1082	 0.243618188109859 
1083	 0.244503885847299 
1084	 0.245412669402507 
1085	 0.246272066714143 
1086	 0.247084181180168 
1087	 0.247941054095569 
1088	 0.248784780654371 
1089	 0.24966255359376 
1090	 0.250566277871508 
1091	 0.251479382463822 
1092	 0.252402666924413 
1093	 0.253316207195989 
1094	 0.254246371886831 
1095	 0.255177194719921 
1096	 0.25608114428735 
1097	 0.256971390564806 
1098	 0.257860152087498 
1099	 0.258705097135354 
1100	 0.259612915858453 
1101	 0.260561880889745 
1102	 0.261488081904793 
1103	 0.26243907788971 
1104	 0.263366699214371 
1105	 0.264282806165705 
1106	 0.265193769356883 
1107	 0.26611538695665 
1108	 0.267061365795488 
1109	 0.267965912945765 
1110	 0.268882314543089 
1111	 0.269814485169768 
1112	 0.270747138757559 
1113	 0.271675288656805 
1114	 0.272626292368686 
1115	 0.273565221390018 
1116	 0.27449102745197 
1117	 0.275427937624438 
1118	 0.276372775640798 
1119	 0.277314301961953 
1120	 0.278245263277796 
1121	 0.279164069606269 
1122	 0.280112174113791 
1123	 0.281074833814436 
1124	 0.282038214980428 
1125	 0.28302720577907 
1126	 0.283991952446205 
1127	 0.284942756386188 
1128	 0.285899431179235 
1129	 0.286846396773346 
1130	 0.287808268089934 
1131	 0.288771357360442 
1132	 0.289746464531574 
1133	 0.290756735565032 
1134	 0.291733071688786 
1135	 0.292702883516438 
1136	 0.293650533429179 
1137	 0.294616312237824 
1138	 0.295566368534864 
1139	 0.296508100065357 
1140	 0.29746062740506 
1141	 0.298397361994458 
1142	 0.299315463691332 
1143	 0.300225087615772 
1144	 0.301123673761475 
1145	 0.302035906367509 
1146	 0.3029298733148 
1147	 0.303833882254564 
1148	 0.304794204988344 
1149	 0.305690933610581 
1150	 0.306536291754135 
1151	 0.30740775822471 
1152	 0.308251542928418 
1153	 0.309066914073668 
1154	 0.309941871966562 
1155	 0.310863162530231 
1156	 0.311741477951698 
1157	 0.312639440215612 
1158	 0.313510514116892 
1159	 0.314348310515177 
1160	 0.315200422291396 
1161	 0.316052638861868 
1162	 0.31690193818719 
1163	 0.317762052930041 
1164	 0.318598208084791 
1165	 0.31942165635585 
1166	 0.320245990622895 
1167	 0.321050274399142 
1168	 0.321860870587646 
1169	 0.322671616403586 
1170	 0.323498202047928 
1171	 0.324292813944079 
1172	 0.3250748831324 
1173	 0.325852574000598 
1174	 0.326614627946626 
1175	 0.327373524217528 
1176	 0.328138495325254 
1177	 0.328884761874676 
1178	 0.329610814870882 
1179	 0.330341184488222 
1180	 0.331069620204744 
1181	 0.331786080011076 
1182	 0.332515267380046 
1183	 0.333208997434076 
1184	 0.33389237814873 
1185	 0.334561204872155 
1186	 0.335218844131235 
1187	 0.335857902207174 
1188	 0.336493843805733 
1189	 0.337132508522114 
1190	 0.337737190817645 
1191	 0.338315107228209 
1192	 0.338897299012494 
1193	 0.339450513252215 
1194	 0.340019002972986 
1195	 0.340607940629548 
1196	 0.341174408503446 
1197	 0.34174984740987 
1198	 0.34229183932261 
1199	 0.342812340234692 
1200	 0.343302445336098 
1201	 0.343810824359755 
1202	 0.344308916353436 
1203	 0.344795958103474 
1204	 0.345284992047893 
1205	 0.345767251653383 
1206	 0.346229588912681 
1207	 0.346696183994641 
1208	 0.347177921003711 
1209	 0.347637470668127 
1210	 0.348082752205567 
1211	 0.348519280367094 
1212	 0.348955517222444 
1213	 0.349368247448088 
1214	 0.349753078272146 
1215	 0.350142333314198 
1216	 0.35052462341542 
1217	 0.350893561632077 
1218	 0.3512598550154 
1219	 0.351630196749979 
1220	 0.351983671553492 
1221	 0.352307053025728 
1222	 0.352663961313777 
1223	 0.353044934991058 
1224	 0.353393543018096 
1225	 0.353745876877559 
1226	 0.354086794248414 
1227	 0.354403979086301 
1228	 0.354716673732228 
1229	 0.355033537233443 
1230	 0.355338138667727 
1231	 0.355613451662271 
1232	 0.35590035472913 
1233	 0.356189209094041 
1234	 0.356491140795359 
1235	 0.356757307079479 
1236	 0.357013819320329 
1237	 0.357265660803616 
1238	 0.357487775397325 
1239	 0.357727574041982 
1240	 0.357988666803676 
1241	 0.358219179757055 
1242	 0.358428440329963 
1243	 0.358647982772142 
1244	 0.35885308816754 
1245	 0.359066177365694 
1246	 0.359288630109964 
1247	 0.359512584589482 
1248	 0.359743752678404 
1249	 0.35996700446237 
1250	 0.360185286331292 
1251	 0.360384553973297 
1252	 0.360590260899025 
1253	 0.360784488443267 
1254	 0.360977361635855 
1255	 0.361176696587328 
1256	 0.361363997898888 
1257	 0.361535370995772 
1258	 0.361710787651171 
1259	 0.361894822768697 
1260	 0.362058964280003 
1261	 0.36220667119783 
1262	 0.362359788149263 
1263	 0.362496792743011 
1264	 0.362644959096175 
1265	 0.362817102831043 
1266	 0.362963385863686 
1267	 0.363092173621454 
1268	 0.363228996361122 
1269	 0.363360339384704 
1270	 0.363472224528556 
1271	 0.363601281676324 
1272	 0.36374410421587 
1273	 0.363878611527596 
1274	 0.364012011876363 
1275	 0.364140583496604 
1276	 0.364273364447131 
1277	 0.36439098556921 
1278	 0.364486631406261 
1279	 0.364604766535049 
1280	 0.36473562667273 
1281	 0.364845381818575 
1282	 0.36496290893065 
1283	 0.365065055372405 
1284	 0.365133417836507 
1285	 0.365216925924701 
1286	 0.365300540077019 
1287	 0.365395345222503 
1288	 0.365495133136175 
1289	 0.365603453997544 
1290	 0.365706492741661 
1291	 0.365816096550551 
1292	 0.3659182175135 
1293	 0.366013386515296 
1294	 0.366113290965017 
1295	 0.366213663418369 
1296	 0.366315117109287 
1297	 0.366412563948092 
1298	 0.366522110164779 
1299	 0.366647388607856 
1300	 0.366756959241667 
1301	 0.366873109042254 
1302	 0.366974657459027 
1303	 0.367055978292751 
1304	 0.367139633739968 
1305	 0.367232544519249 
1306	 0.367301124236733 
1307	 0.367370100560288 
1308	 0.367433144822254 
1309	 0.367487722154349 
1310	 0.367524848058174 
1311	 0.367579266952627 
1312	 0.367649889727366 
1313	 0.367683150424829 
1314	 0.367708014216589 
1315	 0.367720859857276 
1316	 0.36769016632482 
1317	 0.367689563566454 
1318	 0.367704696211553 
1319	 0.367711928552254 
1320	 0.367743816378688 
1321	 0.36773838044421 
1322	 0.36770503438938 
1323	 0.367675206655723 
1324	 0.367645527832786 
1325	 0.367585357879307 
1326	 0.367555211210446 
1327	 0.367504249682889 
1328	 0.367433085989512 
1329	 0.367380816529716 
1330	 0.367331372937594 
1331	 0.367289664770497 
1332	 0.367242558332543 
1333	 0.367205992434386 
1334	 0.367147201107001 
1335	 0.367077298510684 
1336	 0.367009517258766 
1337	 0.366923019663234 
1338	 0.366854538998095 
1339	 0.366817078580938 
1340	 0.366731622872284 
1341	 0.366634128713386 
1342	 0.366529523140004 
1343	 0.3664033602418 
1344	 0.36624910158503 
1345	 0.366124772813975 
1346	 0.365993002130827 
1347	 0.365823928356778 
1348	 0.365660125107736 
1349	 0.365469811527011 
1350	 0.365247457561886 
1351	 0.365043671534791 
1352	 0.364833301951296 
1353	 0.364629872551461 
1354	 0.3644446068178 
1355	 0.364227050087918 
1356	 0.363978297570146 
1357	 0.36377118505503 
1358	 0.363538792565015 
1359	 0.363366478317064 
1360	 0.36324113257244 
1361	 0.363130669954515 
1362	 0.363054622453133 
1363	 0.362986381765998 
1364	 0.362930294924511 
1365	 0.36290001357769 
1366	 0.362888100103063 
1367	 0.362899546900451 
1368	 0.362936295255046 
1369	 0.36296085638533 
1370	 0.362946749228937 
1371	 0.362903701837161 
1372	 0.362794286790293 
1373	 0.362632026992884 
1374	 0.36241921093149 
1375	 0.362164442930775 
1376	 0.361821827094216 
1377	 0.361416386868283 
1378	 0.360955590330745 
1379	 0.360368251283764 
1380	 0.359855189343521 
1381	 0.359298782542777 
1382	 0.358795059187756 
1383	 0.358377343431374 
1384	 0.357876573320937 
1385	 0.357404644294497 
1386	 0.356841034702556 
1387	 0.356226404162735 
1388	 0.355541596594008 
1389	 0.354813085343294 
1390	 0.353988357507413 
1391	 0.353065976799235 
1392	 0.352084950215255 
1393	 0.350992462070195 
1394	 0.349852416995679 
1395	 0.348677744479752 
1396	 0.347448324918696 
1397	 0.346226405448198 
1398	 0.344984006593716 
1399	 0.343723036985272 
1400	 0.342448764886107 
1401	 0.341160207091731 
1402	 0.339834075167563 
1403	 0.33853697797495 
1404	 0.3372173301521 
1405	 0.335953242777909 
1406	 0.334717909097149 
1407	 0.333494478861489 
1408	 0.332288440798862 
1409	 0.33112338192886 
1410	 0.329949984722688 
1411	 0.328867820829107 
1412	 0.327833228548739 
1413	 0.326876779625049 
1414	 0.326013504829827 
1415	 0.325157696023528 
1416	 0.324343800197053 
1417	 0.323581050444734 
1418	 0.322831775756543 
1419	 0.322136435471608 
1420	 0.321517480955749 
1421	 0.32094009366341 
1422	 0.32040023276396 
1423	 0.319878064438537 
1424	 0.319369139149668 
1425	 0.318866298776861 
1426	 0.318410081064661 
1427	 0.317965310877733 
1428	 0.317588273177638 
1429	 0.31726394450648 
1430	 0.31696578185173 
1431	 0.316728029637397 
1432	 0.316487236911114 
1433	 0.316264461789459 
1434	 0.316062397554726 
1435	 0.315860847832591 
1436	 0.315709818453224 
1437	 0.315614978920356 
1438	 0.31550877989987 
1439	 0.315430177170814 
1440	 0.315357700256281 
1441	 0.315248413603128 
1442	 0.315149270923109 
1443	 0.315080890143048 
1444	 0.315033410317577 
1445	 0.315039753333293 
1446	 0.315065716357595 
1447	 0.315082584454542 
1448	 0.315103712003621 
1449	 0.315088157645156 
1450	 0.315054686316651 
1451	 0.31505195684442 
1452	 0.315045080775195 
1453	 0.31506035216353 
1454	 0.3151135109655 
1455	 0.315147235091275 
1456	 0.315181861872208 
1457	 0.315204635043224 
1458	 0.315212378340681 
1459	 0.315241966583997 
1460	 0.315248292563283 
1461	 0.3153156894143 
1462	 0.315432029102379 
1463	 0.315535292797787 
1464	 0.31568345572117 
1465	 0.315802858234879 
1466	 0.315880108450572 
1467	 0.316006822445214 
1468	 0.316123881488502 
1469	 0.316295740376618 
1470	 0.316523602585246 
1471	 0.316763513832789 
1472	 0.317033982796529 
1473	 0.317308363334879 
1474	 0.317539942649969 
1475	 0.317809204944833 
1476	 0.318074774608034 
1477	 0.318338447730539 
1478	 0.318675426082857 
1479	 0.319019319362816 
1480	 0.319368676443216 
1481	 0.319739619015663 
1482	 0.320079426569748 
1483	 0.320399386456269 
1484	 0.320730373291935 
1485	 0.321040344192796 
1486	 0.321379051070334 
1487	 0.321742311309707 
1488	 0.322086156793737 
1489	 0.322444100194958 
1490	 0.322787539807532 
1491	 0.323114812033914 
1492	 0.323439762025655 
1493	 0.323748143521287 
1494	 0.324075266176674 
1495	 0.324409045680761 
1496	 0.32473600086807 
1497	 0.325079995233251 
1498	 0.325409961076943 
1499	 0.325733505660049 
1500	 0.326040467632625 
1501	 0.326329786140176 
1502	 0.326626104124728 
1503	 0.326911126584427 
1504	 0.327196298182814 
1505	 0.327491856297251 
1506	 0.327774482928717 
1507	 0.328052840455722 
1508	 0.328319860184462 
1509	 0.328573131390728 
1510	 0.32883628452136 
1511	 0.329093814746886 
1512	 0.329341567001996 
1513	 0.329604234411414 
1514	 0.329862926945343 
1515	 0.33012364940866 
1516	 0.330391142856474 
1517	 0.330627587493274 
1518	 0.330845235847594 
1519	 0.331079145066688 
1520	 0.331293682550848 
1521	 0.331518665760107 
1522	 0.331768373787221 
1523	 0.331998070980712 
1524	 0.332206971026893 
1525	 0.332431313188919 
1526	 0.332667305448717 
1527	 0.332883102325373 
1528	 0.33309542935924 
1529	 0.333300696757151 
1530	 0.333494294415002 
1531	 0.333686027961533 
1532	 0.333881389290452 
1533	 0.334058382854838 
1534	 0.334213523757088 
1535	 0.334377500434841 
1536	 0.334517404171847 
1537	 0.334688448209896 
1538	 0.334887259587638 
1539	 0.335075356986737 
1540	 0.335280906514671 
1541	 0.335473381948824 
1542	 0.335656091412708 
1543	 0.335832674729122 
1544	 0.336007816886933 
1545	 0.336173032540545 
1546	 0.336323839477113 
1547	 0.336473690582108 
1548	 0.336631328351831 
1549	 0.336786212806581 
1550	 0.336949516007958 
1551	 0.337112799654377 
1552	 0.337275904156996 
1553	 0.337430557045677 
1554	 0.337575631237198 
1555	 0.337707502186008 
1556	 0.337790898607717 
1557	 0.337888991368932 
1558	 0.338010910304434 
1559	 0.338126883997218 
1560	 0.338244409994445 
1561	 0.338388484316614 
1562	 0.338501754121061 
1563	 0.338583904243627 
1564	 0.338694899331442 
1565	 0.338817066735828 
1566	 0.338931914387674 
1567	 0.339052902221531 
1568	 0.339166335500408 
1569	 0.33928358874085 
1570	 0.339377659489871 
1571	 0.339469068186002 
1572	 0.339534472532944 
1573	 0.339566221367206 
1574	 0.339608199694985 
1575	 0.339619838745255 
1576	 0.33967588160437 
1577	 0.339752963901657 
1578	 0.339831575989238 
1579	 0.339944574037886 
1580	 0.340034093057518 
1581	 0.340107769863649 
1582	 0.340193304866423 
1583	 0.340281272684799 
1584	 0.340364400027743 
1585	 0.340454192789825 
1586	 0.340538407486759 
1587	 0.340618647329284 
1588	 0.340691418512074 
1589	 0.340766432578708 
1590	 0.340824940367663 
1591	 0.340870246197946 
1592	 0.340909752288163 
1593	 0.340935497498634 
1594	 0.340961066990885 
1595	 0.340969630822526 
1596	 0.340995355330395 
1597	 0.341034237735185 
1598	 0.341061905192507 
1599	 0.341098137314512 
1600	 0.341122780881854 
1601	 0.341120176340912 
1602	 0.341141733549151 
1603	 0.341175537645621 
1604	 0.341206936812798 
1605	 0.341249147677313 
1606	 0.341290002911611 
1607	 0.341332594989247 
1608	 0.341366468471762 
1609	 0.341406748762356 
1610	 0.341439073863494 
1611	 0.341469827843723 
1612	 0.341504715419763 
1613	 0.341540631418872 
1614	 0.341584848647287 
1615	 0.341584044586522 
1616	 0.341579399054158 
1617	 0.341583655322282 
1618	 0.341579132694089 
1619	 0.34159227145337 
1620	 0.341603233968314 
1621	 0.341618419666584 
1622	 0.341624073308634 
1623	 0.341640967813053 
1624	 0.341675920424435 
1625	 0.34169100278611 
1626	 0.341701216365266 
1627	 0.341700009606413 
1628	 0.341691954585263 
1629	 0.341674124264598 
1630	 0.341636941999024 
1631	 0.341618920359233 
1632	 0.341601502155082 
1633	 0.341585418299704 
1634	 0.34157383524829 
1635	 0.341572250285239 
1636	 0.341581055120546 
1637	 0.341566318010425 
1638	 0.341558011983072 
1639	 0.341530937097152 
1640	 0.341469685403127 
1641	 0.341436957222341 
1642	 0.341417805323799 
1643	 0.341383544548629 
1644	 0.341341210693278 
1645	 0.341314480242227 
1646	 0.341276531532018 
1647	 0.341272749501999 
1648	 0.341312529662962 
1649	 0.341309569341713 
1650	 0.341308993382416 
1651	 0.341290795726354 
1652	 0.341243576362328 
1653	 0.341202755880045 
1654	 0.341157115759493 
1655	 0.341117344226331 
1656	 0.341072449848719 
1657	 0.341029243000789 
1658	 0.340998023466724 
1659	 0.340951195193006 
1660	 0.340893553405106 
1661	 0.340835715162275 
1662	 0.340763369976405 
1663	 0.340713391349987 
1664	 0.34068091567138 
1665	 0.340624716243105 
1666	 0.340572352929551 
1667	 0.340510756264861 
1668	 0.340424431573848 
1669	 0.340350073247689 
1670	 0.340280123712516 
1671	 0.340215192254654 
1672	 0.340144991339119 
1673	 0.340088043430974 
1674	 0.340045214961968 
1675	 0.340001799388982 
1676	 0.339974632731253 
1677	 0.339921623501935 
1678	 0.339874825396991 
1679	 0.339791311522558 
1680	 0.339656817865356 
1681	 0.339562511637682 
1682	 0.339463686177171 
1683	 0.339375619940131 
1684	 0.339315553391519 
1685	 0.339240631180845 
1686	 0.339176145929478 
1687	 0.339069992204287 
1688	 0.338923089659206 
1689	 0.338822492979383 
1690	 0.338713442786288 
1691	 0.338612772095358 
1692	 0.338568297517818 
1693	 0.338472123180517 
1694	 0.338324410279506 
1695	 0.338215604015743 
1696	 0.33810785388177 
1697	 0.338014614563493 
1698	 0.337949914772854 
1699	 0.337862782782383 
1700	 0.337764962372804 
1701	 0.337685115645757 
1702	 0.337607977116242 
1703	 0.337530687872626 
1704	 0.337478949338985 
1705	 0.337393446733597 
1706	 0.33727641600109 
1707	 0.33718122071755 
1708	 0.337092718332005 
1709	 0.336986505536053 
1710	 0.336880043877197 
1711	 0.336773952331246 
1712	 0.336648459536847 
1713	 0.336530759027691 
1714	 0.336434014734919 
1715	 0.336307229355455 
1716	 0.336150913399141 
1717	 0.336022134831947 
1718	 0.335901003772353 
1719	 0.335766808264599 
1720	 0.335641593851697 
1721	 0.335505335864394 
1722	 0.335350223117164 
1723	 0.335194284960467 
1724	 0.335053286885395 
1725	 0.334883827914306 
1726	 0.334686955610273 
1727	 0.334498987590831 
1728	 0.334294394899022 
1729	 0.334105504668621 
1730	 0.333924325184302 
1731	 0.333741741232662 
1732	 0.333559297878871 
1733	 0.333389144030808 
1734	 0.33323894828253 
1735	 0.333059995185543 
1736	 0.332875635737751 
1737	 0.332690991965412 
1738	 0.332483330306679 
1739	 0.332275124793173 
1740	 0.332073077728099 
1741	 0.331882656752522 
1742	 0.331666107914901 
1743	 0.331507658989707 
1744	 0.331403453400901 
1745	 0.331257456174122 
1746	 0.331128971064494 
1747	 0.330964157133155 
1748	 0.330767165515536 
1749	 0.33055245481947 
1750	 0.330338758597584 
1751	 0.330086196703174 
1752	 0.329814588209639 
1753	 0.329605107495938 
1754	 0.329402835199263 
1755	 0.329221181404812 
1756	 0.329076171327277 
1757	 0.328879355240612 
1758	 0.328666594708363 
1759	 0.328470766005887 
1760	 0.328282051557989 
1761	 0.328117074830453 
1762	 0.327944060205718 
1763	 0.327725607667551 
1764	 0.327497328936989 
1765	 0.327289204755267 
1766	 0.327092545405058 
1767	 0.326928436586609 
1768	 0.326777745948618 
1769	 0.32661748633394 
1770	 0.326462616518819 
1771	 0.326317255862555 
1772	 0.326169514094645 
1773	 0.326027579760571 
1774	 0.325863513616974 
1775	 0.325689187497955 
1776	 0.325539972130391 
1777	 0.325362680548733 
1778	 0.325192424518261 
1779	 0.325040684145765 
1780	 0.324881245971246 
1781	 0.324750377291569 
1782	 0.324627042139004 
1783	 0.324553352390792 
1784	 0.324440522827312 
1785	 0.324318504647454 
1786	 0.324183451903225 
1787	 0.323986141067277 
1788	 0.323845556592614 
1789	 0.323733673305309 
1790	 0.323635660584799 
1791	 0.323573288038362 
1792	 0.323508578690105 
1793	 0.323455585189042 
1794	 0.323376466978404 
1795	 0.323300912476345 
1796	 0.323217347828832 
1797	 0.323111463542767 
1798	 0.323027174680304 
1799	 0.322946909845473 
1800	 0.322848761915249 
1801	 0.317171710969983 
1802	 0.317518509458894 
1803	 0.317920522816359 
1804	 0.318335853494637 
1805	 0.318714622918533 
1806	 0.319077533612216 
1807	 0.319436595451818 
1808	 0.319722948206382 
1809	 0.319970641218192 
1810	 0.3201503002682 
1811	 0.320270790470148 
1812	 0.320366443390223 
1813	 0.320365296733515 
1814	 0.320355960229015 
1815	 0.320378913920216 
1816	 0.320382818265253 
1817	 0.320386786672687 
1818	 0.320406932459672 
1819	 0.320406567258777 
1820	 0.320399622493694 
1821	 0.320354757469096 
1822	 0.320324600373964 
1823	 0.320327666106235 
1824	 0.320293092278051 
1825	 0.320230167878003 
1826	 0.32017613954378 
1827	 0.320118858478462 
1828	 0.320028139733419 
1829	 0.319933055417455 
1830	 0.319814446050996 
1831	 0.319664272996622 
1832	 0.319481538344203 
1833	 0.319314133354494 
1834	 0.31916446841469 
1835	 0.319073821053151 
1836	 0.318970097477496 
1837	 0.318846969003693 
1838	 0.318756508269365 
1839	 0.318671837229227 
1840	 0.318571931036567 
1841	 0.318496712608655 
1842	 0.318468348400542 
1843	 0.318442754824195 
1844	 0.318404503914284 
1845	 0.318337569322611 
1846	 0.318259834720915 
1847	 0.318161670853067 
1848	 0.318034048315827 
1849	 0.317927042161006 
1850	 0.317811295545775 
1851	 0.317710983341352 
1852	 0.317563655345154 
1853	 0.31737410242364 
1854	 0.317147504225143 
1855	 0.316853139203472 
1856	 0.316538226481376 
1857	 0.316248632422463 
1858	 0.315901342412019 
1859	 0.315508175860542 
1860	 0.315055632742062 
1861	 0.314566599812651 
1862	 0.313977134683133 
1863	 0.313301656440294 
1864	 0.312523588999747 
1865	 0.311665768510896 
1866	 0.310705003158023 
1867	 0.309706771451559 
1868	 0.308684817819674 
1869	 0.307631361825725 
1870	 0.306589743524792 
1871	 0.305530873042469 
1872	 0.304462351467641 
1873	 0.303412193915826 
1874	 0.302342279994968 
1875	 0.301238268395599 
1876	 0.300056149005677 
1877	 0.298780459508865 
1878	 0.297372307989814 
1879	 0.295794341670034 
1880	 0.294080665242439 
1881	 0.292206658456443 
1882	 0.290226158533583 
1883	 0.288115800966954 
1884	 0.285859587406934 
1885	 0.283497155956498 
1886	 0.281028393857465 
1887	 0.278415821259929 
1888	 0.27570643540862 
1889	 0.272885307273684 
1890	 0.269978064615922 
1891	 0.267050504718025 
1892	 0.264011930754989 
1893	 0.261001244905147 
1894	 0.257975815727476 
1895	 0.254933428707422 
1896	 0.251842721821104 
1897	 0.248777812415949 
1898	 0.245668004470778 
1899	 0.242603985122854 
1900	 0.239690313794275 
1901	 0.23687707499158 
1902	 0.234194363722657 
1903	 0.231676838045288 
1904	 0.229254341821239 
1905	 0.226925559992709 
1906	 0.224743374745631 
1907	 0.222683331152096 
1908	 0.220744841348556 
1909	 0.218921395060066 
1910	 0.217166334528493 
1911	 0.215542755917769 
1912	 0.214060151014859 
1913	 0.212652039913449 
1914	 0.21134949745891 
1915	 0.210135710613614 
1916	 0.209015318960282 
1917	 0.207961316744544 
1918	 0.207044013655509 
1919	 0.206214755567653 
1920	 0.205469238744752 
1921	 0.204821594774824 
1922	 0.20424016612796 
1923	 0.203755780715598 
1924	 0.203334841630003 
1925	 0.20302281338432 
1926	 0.202734986455799 
1927	 0.202510410045989 
1928	 0.20231368728627 
1929	 0.202165062373145 
1930	 0.202040908364948 
1931	 0.201963498585344 
1932	 0.201945813762727 
1933	 0.201981519540872 
1934	 0.202071923846602 
1935	 0.20218315980858 
1936	 0.202343005332607 
1937	 0.202509214083195 
1938	 0.202687358203414 
1939	 0.2029063089166 
1940	 0.20315096680376 
1941	 0.203431094364242 
1942	 0.203739968835217 
1943	 0.204098694085552 
1944	 0.204461243155257 
1945	 0.204845250799594 
1946	 0.205247875244541 
1947	 0.205687351845325 
1948	 0.206102129544105 
1949	 0.206506316022959 
1950	 0.206944475472299 
1951	 0.207386808602037 
1952	 0.207847135371923 
1953	 0.208324273232342 
1954	 0.208846372289449 
1955	 0.209367870296443 
1956	 0.209868389836521 
1957	 0.210408352524586 
1958	 0.210967446306635 
1959	 0.21155434715204 
1960	 0.212181437352238 
1961	 0.212799080706316 
1962	 0.213436907195746 
1963	 0.214076043225615 
1964	 0.214716207504214 
1965	 0.21535732816106 
1966	 0.216011665543732 
1967	 0.216663381817316 
1968	 0.217317259411913 
1969	 0.217963481284716 
1970	 0.218619909108887 
1971	 0.219294779996986 
1972	 0.219957439415778 
1973	 0.220603855804086 
1974	 0.221273040018966 
1975	 0.22196030372847 
1976	 0.222622091587971 
1977	 0.223316335403638 
1978	 0.224014406731018 
1979	 0.224693868537973 
1980	 0.225388273125402 
1981	 0.226069505873492 
1982	 0.226729100162379 
1983	 0.227420778532108 
1984	 0.228120408671899 
1985	 0.228826543994819 
1986	 0.229584629993721 
1987	 0.230287643289668 
1988	 0.230956403959846 
1989	 0.231639111460938 
1990	 0.232293085423033 
1991	 0.232940837753747 
1992	 0.233621488263373 
1993	 0.234342705938049 
1994	 0.235011775118551 
1995	 0.235673756739963 
1996	 0.23633119854579 
1997	 0.236950454112481 
1998	 0.2376001671403 
1999	 0.238269209016782 
2000	 0.238931167496699 
2001	 0.239598708005931 
2002	 0.240258255499193 
2003	 0.240925787096437 
2004	 0.241598677454319 
2005	 0.242258624426805 
2006	 0.242919568004063 
2007	 0.243574917745561 
2008	 0.244223324910529 
2009	 0.24486213854885 
2010	 0.245500303750118 
2011	 0.246127262394673 
2012	 0.246732097735943 
2013	 0.24734118853327 
2014	 0.247943546079963 
2015	 0.248562879778183 
2016	 0.24913889690452 
2017	 0.24973642750488 
2018	 0.250338310769166 
2019	 0.250943133735384 
2020	 0.251533790055696 
2021	 0.252137098005854 
2022	 0.252724052240093 
2023	 0.253284117405883 
2024	 0.253858876641926 
2025	 0.254438753451293 
2026	 0.255017529011314 
2027	 0.255599309883105 
2028	 0.256177750430342 
2029	 0.256748007626256 
2030	 0.257319240873076 
2031	 0.257871834058379 
2032	 0.258423533664531 
2033	 0.258940968208272 
2034	 0.259421935729808 
2035	 0.259922960059733 
2036	 0.260403974695669 
2037	 0.260895657353789 
2038	 0.261421124659519 
2039	 0.261908666249857 
2040	 0.262371590036597 
2041	 0.262834417014847 
2042	 0.263270329421963 
2043	 0.263724817893028 
2044	 0.264167833220738 
2045	 0.264601565708289 
2046	 0.265048087100167 
2047	 0.265507247128523 
2048	 0.26594415894077 
2049	 0.266384121129271 
2050	 0.26681525915677 
2051	 0.267225565377483 
2052	 0.26763418227605 
2053	 0.268036784342586 
2054	 0.268445037053034 
2055	 0.268859747561712 
2056	 0.269249918780318 
2057	 0.269647137917199 
2058	 0.270056310849608 
2059	 0.270443864943701 
2060	 0.270815693137318 
2061	 0.27118486962874 
2062	 0.271536119536594 
2063	 0.271904248041198 
2064	 0.272280558577928 
2065	 0.272644358115549 
2066	 0.273005727305554 
2067	 0.273372786974627 
2068	 0.273723523181559 
2069	 0.274090909485673 
2070	 0.274461854325196 
2071	 0.274855882531862 
2072	 0.275220330287022 
2073	 0.275570955522745 
2074	 0.275929213692759 
2075	 0.27628683098891 
2076	 0.276632333648189 
2077	 0.27697817785995 
2078	 0.277316697237412 
2079	 0.277633118484903 
2080	 0.277960346245592 
2081	 0.278298378448089 
2082	 0.278625884928486 
2083	 0.27895018525885 
2084	 0.279271055989649 
2085	 0.279584255223834 
2086	 0.279888077544354 
2087	 0.280190971653798 
2088	 0.280492682481555 
2089	 0.280784959453711 
2090	 0.28106328994556 
2091	 0.281351067000383 
2092	 0.281625674695422 
2093	 0.281923029289935 
2094	 0.282241886919299 
2095	 0.282551950547698 
2096	 0.282874186919847 
2097	 0.283186751538091 
2098	 0.283491254867672 
2099	 0.283793087620513 
2100	 0.284097280650387 
2101	 0.284402348123315 
2102	 0.284707281027209 
2103	 0.285010284458753 
2104	 0.285317193775778 
2105	 0.285632111750446 
2106	 0.285931611328819 
2107	 0.286226428294868 
2108	 0.286519555929404 
2109	 0.286789981271152 
2110	 0.287084593026928 
2111	 0.287394286797449 
2112	 0.287701806957049 
2113	 0.288026528314019 
2114	 0.288336443515218 
2115	 0.288654715170811 
2116	 0.288979806409721 
2117	 0.289281179432935 
2118	 0.289578983236711 
2119	 0.289869208956953 
2120	 0.29013546331858 
2121	 0.290411745353229 
2122	 0.290712143186481 
2123	 0.290966323162543 
2124	 0.291192160739898 
2125	 0.291419457624082 
2126	 0.291616070562355 
2127	 0.291820721959429 
2128	 0.292033546919784 
2129	 0.292237399974604 
2130	 0.292448652175499 
2131	 0.292628741829076 
2132	 0.292798407991955 
2133	 0.292946625059754 
2134	 0.293114123920416 
2135	 0.293278638473437 
2136	 0.293425380887886 
2137	 0.293592943815953 
2138	 0.293718044083615 
2139	 0.293814653947591 
2140	 0.293887942112259 
2141	 0.293931548033217 
2142	 0.293968904411419 
2143	 0.293967022313365 
2144	 0.293976870369393 
2145	 0.29399536768763 
2146	 0.293999001829506 
2147	 0.293994476690232 
2148	 0.293986661090227 
2149	 0.293959000932473 
2150	 0.293913479231711 
2151	 0.293868875055531 
2152	 0.293811938834786 
2153	 0.29375248330319 
2154	 0.293700624463662 
2155	 0.293618470660226 
2156	 0.293530984022059 
2157	 0.293409898498022 
2158	 0.293231644245893 
2159	 0.293090281931164 
2160	 0.292954826243612 
2161	 0.292800144711711 
2162	 0.292653229640809 
2163	 0.292501701203801 
2164	 0.29232846957399 
2165	 0.292158848327799 
2166	 0.291966851226759 
2167	 0.291775250796293 
2168	 0.291573122435539 
2169	 0.291336575244001 
2170	 0.291123441530415 
2171	 0.290931502729993 
2172	 0.290714678248101 
2173	 0.290469828880255 
2174	 0.290259237932644 
2175	 0.29003611153292 
2176	 0.289852385810853 
2177	 0.289732973800247 
2178	 0.28957123889978 
2179	 0.289420777376728 
2180	 0.28924926757051 
2181	 0.289055382691046 
2182	 0.288844344963199 
2183	 0.288615610621699 
2184	 0.288375762112934 
2185	 0.288140790536492 
2186	 0.287876412267446 
2187	 0.287652686780699 
2188	 0.287448540826996 
2189	 0.287248827749218 
2190	 0.287056609172505 
2191	 0.286886271017263 
2192	 0.286741998120368 
2193	 0.286583390501517 
2194	 0.286443377659902 
2195	 0.286288219916458 
2196	 0.286092714279178 
2197	 0.285945631935282 
2198	 0.285816749919895 
2199	 0.285702397655019 
2200	 0.285623176882906 
2201	 0.285546853141959 
2202	 0.285487636636351 
2203	 0.285414529065837 
2204	 0.285369848079687 
2205	 0.285350241250834 
2206	 0.28530942884352 
2207	 0.28527158814774 
2208	 0.285240230403648 
2209	 0.28519587124516 
2210	 0.285172945172908 
2211	 0.285171381513346 
2212	 0.28516191686534 
2213	 0.285169994044715 
2214	 0.285152710821613 
2215	 0.285105509539896 
2216	 0.2850948270893 
2217	 0.285086897722502 
2218	 0.285080215033671 
2219	 0.285128344656745 
2220	 0.285127999559747 
2221	 0.285097197584098 
2222	 0.28505090352172 
2223	 0.285028567191199 
2224	 0.28497213460851 
2225	 0.284918157383217 
2226	 0.284869183602969 
2227	 0.284813219125195 
2228	 0.284723999281318 
2229	 0.284674798354896 
2230	 0.284655599979279 
2231	 0.284615360779583 
2232	 0.284599272917755 
2233	 0.284537149897732 
2234	 0.284435062481443 
2235	 0.284350109447084 
2236	 0.284241328771894 
2237	 0.284148462584692 
2238	 0.284068751264205 
2239	 0.283992538355592 
2240	 0.283913735623419 
2241	 0.2838477062953 
2242	 0.283793077975589 
2243	 0.283740329246189 
2244	 0.283712210080572 
2245	 0.283673205797986 
2246	 0.283553391539164 
2247	 0.28344696931964 
2248	 0.283323657552679 
2249	 0.283139778196317 
2250	 0.283007569557754 
2251	 0.282899107543563 
2252	 0.282795899149655 
2253	 0.282685518239491 
2254	 0.282609385120005 
2255	 0.282596050371117 
2256	 0.28251105143421 
2257	 0.282399087371009 
2258	 0.282310367978562 
2259	 0.282192107950346 
2260	 0.282089678257173 
2261	 0.282020729183501 
2262	 0.281939480953878 
2263	 0.281821793249793 
2264	 0.281742096628758 
2265	 0.281705696219363 
2266	 0.281642474728524 
2267	 0.281593449193995 
2268	 0.281530122971442 
2269	 0.281456066447304 
2270	 0.281354525867422 
2271	 0.281259984617054 
2272	 0.281163042823656 
2273	 0.281072703775273 
2274	 0.281003549798558 
2275	 0.280927319235895 
2276	 0.280867015637774 
2277	 0.280788160326326 
2278	 0.280694664503525 
2279	 0.280613781957321 
2280	 0.280508176852914 
2281	 0.280457834115466 
2282	 0.280472083748725 
2283	 0.280422985258118 
2284	 0.280390701457099 
2285	 0.280319791695788 
2286	 0.280152171447164 
2287	 0.280058720008091 
2288	 0.280023066531478 
2289	 0.279940483327769 
2290	 0.279864771763859 
2291	 0.279779625449353 
2292	 0.279630070499242 
2293	 0.279525809465487 
2294	 0.279469421437988 
2295	 0.279381384755718 
2296	 0.27929053403644 
2297	 0.279205594896224 
2298	 0.279080959088358 
2299	 0.278978099346759 
2300	 0.278897269178493 
2301	 0.278814612335613 
2302	 0.278735976446647 
2303	 0.278631037227281 
2304	 0.278499770407971 
2305	 0.278378013543477 
2306	 0.278225136611737 
2307	 0.278060068484669 
2308	 0.277869794957069 
2309	 0.27762876620258 
2310	 0.2774399714113 
2311	 0.277273902026824 
2312	 0.277073019413102 
2313	 0.276876917242904 
2314	 0.276667117843641 
2315	 0.276405411179395 
2316	 0.276188869532134 
2317	 0.276003653395954 
2318	 0.27581568835326 
2319	 0.275651383589777 
2320	 0.275460817223588 
2321	 0.275238520822267 
2322	 0.275059252933278 
2323	 0.274888713251214 
2324	 0.274722469191192 
2325	 0.274612197478342 
2326	 0.274455830639496 
2327	 0.274282633448158 
2328	 0.274075953655641 
2329	 0.273852178383875 
2330	 0.273656844938066 
2331	 0.273470175851361 
2332	 0.27328313717496 
2333	 0.273102085392604 
2334	 0.272901583976113 
2335	 0.272691721730574 
2336	 0.272468383790157 
2337	 0.272245751470014 
2338	 0.271979860609701 
2339	 0.271668732528445 
2340	 0.271408939482295 
2341	 0.271128045547965 
2342	 0.270892023277218 
2343	 0.2707304524027 
2344	 0.270547804873754 
2345	 0.270319346583037 
2346	 0.270082916223454 
2347	 0.269807015678591 
2348	 0.269477381188774 
2349	 0.26913686099689 
2350	 0.268781606207738 
2351	 0.268410744784793 
2352	 0.267963707166858 
2353	 0.267600604718038 
2354	 0.267282182306946 
2355	 0.266942618695983 
2356	 0.266668392438357 
2357	 0.266320298350121 
2358	 0.265885831148065 
2359	 0.265527755416506 
2360	 0.265163005878586 
2361	 0.264809519689632 
2362	 0.264519953767771 
2363	 0.264189734187905 
2364	 0.263864402678278 
2365	 0.263507600598184 
2366	 0.263130717714953 
2367	 0.262743208764194 
2368	 0.262294724542674 
2369	 0.261873218535222 
2370	 0.261481016190015 
2371	 0.261043884423889 
2372	 0.260579122954493 
2373	 0.260167939940431 
2374	 0.259812317738084 
2375	 0.259427360676634 
2376	 0.25901319397262 
2377	 0.258630354400143 
2378	 0.258204613690256 
2379	 0.257749749812101 
2380	 0.257318242524613 
2381	 0.256907928498409 
2382	 0.256453731832971 
2383	 0.255963627976414 
2384	 0.255460238459713 
2385	 0.254892665172102 
2386	 0.254353497438698 
2387	 0.25383415505916 
2388	 0.253412507175973 
2389	 0.253100872794947 
2390	 0.252708914341109 
2391	 0.252317097305663 
2392	 0.251916612868272 
2393	 0.251408606523057 
2394	 0.250895897505313 
2395	 0.250426350972465 
2396	 0.249872317031368 
2397	 0.249329617441557 
2398	 0.248830082842757 
2399	 0.248295253133727 
2400	 0.24787050146024 
2401	 0.247372920491537 
2402	 0.246866376088979 
2403	 0.246497827736495 
2404	 0.245934862364809 
2405	 0.245378098705132 
2406	 0.244975950771332 
2407	 0.244434422487086 
2408	 0.243910361397265 
2409	 0.243537810712641 
2410	 0.243093526851187 
2411	 0.242556946328989 
2412	 0.242057055302948 
2413	 0.241500680421167 
2414	 0.240968723695466 
2415	 0.240458249194798 
2416	 0.239896196854069 
2417	 0.239347958772181 
2418	 0.238806895989439 
2419	 0.238159282879008 
2420	 0.237652964050951 
2421	 0.237237093439971 
2422	 0.236791463155154 
2423	 0.236444441955198 
2424	 0.235974045780913 
2425	 0.235509179680375 
2426	 0.234914432823081 
2427	 0.234131224606702 
2428	 0.233479667488438 
2429	 0.232732815387201 
2430	 0.232167442191265 
2431	 0.231801949062147 
2432	 0.231342771636639 
2433	 0.230962834203616 
2434	 0.230470475992454 
2435	 0.229894242291898 
2436	 0.229296592894806 
2437	 0.228582533426388 
2438	 0.228058053957972 
2439	 0.227586488269157 
2440	 0.227159142852878 
2441	 0.226947192744933 
2442	 0.226526637274205 
2443	 0.225990038423781 
2444	 0.225491926424625 
2445	 0.224922397699929 
2446	 0.224383589968456 
2447	 0.223898573070592 
2448	 0.223346512513725 
2449	 0.222730954459397 
2450	 0.222164666268275 
2451	 0.221587439808795 
2452	 0.221005817939712 
2453	 0.220433316752814 
2454	 0.219880452023403 
2455	 0.219371050384855 
2456	 0.218857310644072 
2457	 0.218370782761248 
2458	 0.217911720617926 
2459	 0.217350933728899 
2460	 0.216872909500004 
2461	 0.216562785397315 
2462	 0.216031997701251 
2463	 0.215442190054924 
2464	 0.214957217443957 
2465	 0.214340627432997 
2466	 0.213866186671744 
2467	 0.213547404345242 
2468	 0.213048206587997 
2469	 0.212548317495936 
2470	 0.211955408538281 
2471	 0.211469899621823 
2472	 0.211194745253948 
2473	 0.210743147032408 
2474	 0.210352038798764 
2475	 0.210048969130321 
2476	 0.209549714401966 
2477	 0.208901305866985 
2478	 0.208349909459481 
2479	 0.207891108516041 
2480	 0.207503663921098 
2481	 0.207263824904578 
2482	 0.206876676533073 
2483	 0.206405213694561 
2484	 0.205980187344599 
2485	 0.205386013657417 
2486	 0.204969319707438 
2487	 0.204680860387528 
2488	 0.204204568543251 
2489	 0.203942268939999 
2490	 0.203717712076314 
2491	 0.203211511562454 
2492	 0.202740618283866 
2493	 0.202274849098281 
2494	 0.201847452456601 
2495	 0.201600624075845 
2496	 0.201230822625766 
2497	 0.200831386070306 
2498	 0.200673689131723 
2499	 0.200426263378217 
2500	 0.200149977767168 
