Wavelength	LMW_1400000.asd
350	 7.06971636980813E-02 
351	 7.49196442958361E-02 
352	 7.38245949174525E-02 
353	 6.24113037855397E-02 
354	 6.94886342148192E-02 
355	 7.28056886413841E-02 
356	 7.22506145264548E-02 
357	 7.28619122002522E-02 
358	 7.69856959252081E-02 
359	 7.53606451370903E-02 
360	 7.07104791327004E-02 
361	 0.07248416811594 
362	 7.24184070132904E-02 
363	 0.070153781662935 
364	 6.75108135062674E-02 
365	 6.79652896082074E-02 
366	 6.90733607056263E-02 
367	 6.80577921016604E-02 
368	 0.064674431201065 
369	 6.88483786355813E-02 
370	 6.95095406838118E-02 
371	 6.68650693898356E-02 
372	 6.85884056649566E-02 
373	 0.070690341945883 
374	 0.071244507499697 
375	 7.09955227839484E-02 
376	 7.52525165669553E-02 
377	 7.25223504444789E-02 
378	 6.84880652394614E-02 
379	 7.08750485294142E-02 
380	 7.29810091795697E-02 
381	 7.12592576963183E-02 
382	 6.81233331659362E-02 
383	 6.97518917197084E-02 
384	 7.07985212083126E-02 
385	 6.96641772425305E-02 
386	 6.75977305273774E-02 
387	 7.02976674946345E-02 
388	 7.18711829285134E-02 
389	 7.12409064997631E-02 
390	 6.94318118524919E-02 
391	 6.90733920588288E-02 
392	 6.95767317001319E-02 
393	 7.06463262608387E-02 
394	 7.22980740717872E-02 
395	 7.31098112574119E-02 
396	 7.23976094957277E-02 
397	 0.07094476822624 
398	 7.24431382896066E-02 
399	 7.27523960537226E-02 
400	 7.26254420403157E-02 
401	 7.38059633098959E-02 
402	 7.29081016902194E-02 
403	 7.14204442580267E-02 
404	 7.09531351346379E-02 
405	 7.27370979852389E-02 
406	 0.073426046271656 
407	 7.28933157486199E-02 
408	 7.19717377708115E-02 
409	 7.20647880425207E-02 
410	 0.07177376088409 
411	 7.14064172680751E-02 
412	 7.18205390688704E-02 
413	 7.16417478830038E-02 
414	 7.16661622256694E-02 
415	 7.22428128107979E-02 
416	 7.29541947252584E-02 
417	 7.23045122245829E-02 
418	 7.18000391305833E-02 
419	 7.27058103643413E-02 
420	 7.30158776776481E-02 
421	 0.072611387874489 
422	 7.22034186379242E-02 
423	 7.28424766292876E-02 
424	 7.33838576124448E-02 
425	 7.35308751145882E-02 
426	 7.33469410824492E-02 
427	 7.33015390594965E-02 
428	 7.29629591726202E-02 
429	 7.29405827717869E-02 
430	 7.37197864792618E-02 
431	 7.35383777786725E-02 
432	 7.33219700146245E-02 
433	 7.35862965922372E-02 
434	 7.42854281914426E-02 
435	 0.074461465447868 
436	 7.44396607257759E-02 
437	 7.45032517951552E-02 
438	 7.39828504335148E-02 
439	 7.41903319676796E-02 
440	 7.48966057166246E-02 
441	 0.075154779703798 
442	 7.51055676315092E-02 
443	 7.52677626230416E-02 
444	 7.56377086433971E-02 
445	 7.53557540260554E-02 
446	 7.55533958526682E-02 
447	 7.59245433368235E-02 
448	 7.59474910106374E-02 
449	 7.60292422037577E-02 
450	 7.63729535100691E-02 
451	 0.076849251036003 
452	 7.70751841975843E-02 
453	 7.72489109841393E-02 
454	 7.72895277545955E-02 
455	 0.077250573974798 
456	 7.76670495395174E-02 
457	 7.77951201946005E-02 
458	 7.77062610826568E-02 
459	 7.78527760709538E-02 
460	 0.078485419841478 
461	 7.88254038352481E-02 
462	 7.87438098974005E-02 
463	 7.91363468099127E-02 
464	 7.93951467805121E-02 
465	 7.94520811982127E-02 
466	 7.94396579555769E-02 
467	 7.96517949848669E-02 
468	 8.00299885462611E-02 
469	 8.03338334566564E-02 
470	 8.02503824575263E-02 
471	 8.06163531485132E-02 
472	 8.10265811382632E-02 
473	 8.11593246467437E-02 
474	 8.13837769586746E-02 
475	 8.17013814478488E-02 
476	 8.19671989905045E-02 
477	 8.20334838777708E-02 
478	 8.23148612345506E-02 
479	 8.25674294952681E-02 
480	 8.27046327271501E-02 
481	 8.29313286621332E-02 
482	 8.33225155593839E-02 
483	 0.083669209690754 
484	 8.38106502492218E-02 
485	 8.41409892465291E-02 
486	 8.43896109878434E-02 
487	 8.44774135669227E-02 
488	 8.45162728072219E-02 
489	 8.48209939116782E-02 
490	 8.51992638222808E-02 
491	 8.54386400905249E-02 
492	 8.55010336266146E-02 
493	 8.55482699947603E-02 
494	 8.57109224929733E-02 
495	 8.60565989497007E-02 
496	 8.63632263273885E-02 
497	 8.64924267222641E-02 
498	 0.086528060502525 
499	 8.68623990443327E-02 
500	 8.71721379665563E-02 
501	 8.73198874488681E-02 
502	 8.73047491448895E-02 
503	 8.74516963595797E-02 
504	 8.75875237349399E-02 
505	 8.76716215289727E-02 
506	 8.77980862824475E-02 
507	 8.79537747621112E-02 
508	 0.088124387630164 
509	 8.82690448453921E-02 
510	 8.82539097512432E-02 
511	 8.83985601540703E-02 
512	 8.86430003077675E-02 
513	 8.87519532046354E-02 
514	 8.89402860082368E-02 
515	 8.90711441780764E-02 
516	 8.91228388369776E-02 
517	 8.93449392521312E-02 
518	 8.94278834128468E-02 
519	 8.94308827514695E-02 
520	 8.95118243222616E-02 
521	 8.96590435004091E-02 
522	 8.97866619400334E-02 
523	 8.98746017150454E-02 
524	 8.99749438214811E-02 
525	 8.99604678499034E-02 
526	 8.99983461550276E-02 
527	 9.01926240553394E-02 
528	 9.02425634829451E-02 
529	 9.03005217891968E-02 
530	 9.04014124817538E-02 
531	 9.05019828055758E-02 
532	 9.06100841615044E-02 
533	 9.07458153502527E-02 
534	 9.08879857005666E-02 
535	 9.09159020971354E-02 
536	 9.09703426735082E-02 
537	 9.10547575011912E-02 
538	 9.11281792890791E-02 
539	 9.12494578337262E-02 
540	 9.13336891860983E-02 
541	 9.13788311980896E-02 
542	 9.15061085181377E-02 
543	 0.091583322698706 
544	 9.16570034657411E-02 
545	 9.17795118245375E-02 
546	 9.18184437461685E-02 
547	 9.18820672064404E-02 
548	 9.20144431671525E-02 
549	 0.092190019465683 
550	 9.22088535803522E-02 
551	 9.22438090598181E-02 
552	 9.24233756135101E-02 
553	 9.25948913243833E-02 
554	 9.26503596998747E-02 
555	 9.26501781980256E-02 
556	 9.27320894461975E-02 
557	 0.092789447905129 
558	 0.092858923621537 
559	 9.29649803918264E-02 
560	 9.30894104989949E-02 
561	 9.31715955118339E-02 
562	 9.32328603529518E-02 
563	 9.33177690387051E-02 
564	 9.34184848117667E-02 
565	 9.34772493080239E-02 
566	 9.35158548733731E-02 
567	 9.36448721175568E-02 
568	 9.37774128690891E-02 
569	 9.38900537527957E-02 
570	 9.39629105873686E-02 
571	 9.39204340758233E-02 
572	 9.39440400001066E-02 
573	 0.094045250509692 
574	 9.41114935925991E-02 
575	 9.41275573236252E-02 
576	 9.41247945122591E-02 
577	 9.41549100685519E-02 
578	 9.43115757923458E-02 
579	 9.43961310100757E-02 
580	 9.44219429141052E-02 
581	 0.094486647749345 
582	 9.45701049833441E-02 
583	 9.45859124414474E-02 
584	 9.45230388073407E-02 
585	 0.094479181941883 
586	 9.45650222822159E-02 
587	 9.46504864829961E-02 
588	 9.46129067715833E-02 
589	 9.47151377452955E-02 
590	 9.47704912045414E-02 
591	 0.094748769452697 
592	 9.47691125384158E-02 
593	 9.47187138039574E-02 
594	 9.46295171510012E-02 
595	 9.45685984287251E-02 
596	 9.46232439245351E-02 
597	 9.47111560732961E-02 
598	 0.094787588894288 
599	 9.48344068138852E-02 
600	 9.48762958370894E-02 
601	 9.49380133337815E-02 
602	 9.50127322085281E-02 
603	 9.50376668301472E-02 
604	 9.50522903108317E-02 
605	 9.50938795932647E-02 
606	 9.51865848662033E-02 
607	 9.52896362565936E-02 
608	 9.53597158174566E-02 
609	 9.54005287977803E-02 
610	 9.54675882082641E-02 
611	 9.54740155992595E-02 
612	 9.54660706676519E-02 
613	 9.54951949011578E-02 
614	 9.55154463732227E-02 
615	 0.095547809927302 
616	 0.095581403242832 
617	 9.55882032231085E-02 
618	 0.095624100831905 
619	 9.56494312449434E-02 
620	 9.56435337906056E-02 
621	 9.56543754530018E-02 
622	 9.56859637326107E-02 
623	 9.57283679701718E-02 
624	 9.57701224397252E-02 
625	 9.58582409787982E-02 
626	 9.58678235756038E-02 
627	 9.58161916581809E-02 
628	 9.59226689878319E-02 
629	 9.59917449912632E-02 
630	 9.60121084658506E-02 
631	 9.60258073952441E-02 
632	 0.096074137190008 
633	 9.61311064265257E-02 
634	 9.61818416993426E-02 
635	 9.62248390869789E-02 
636	 9.63003174246853E-02 
637	 9.63841253389306E-02 
638	 9.64393052132671E-02 
639	 9.64172479416274E-02 
640	 9.64286821701989E-02 
641	 9.65086076270843E-02 
642	 9.66366094918841E-02 
643	 9.66971213726851E-02 
644	 9.67077593121981E-02 
645	 9.67206906842385E-02 
646	 9.68184150861891E-02 
647	 9.68576567103753E-02 
648	 9.68793377460511E-02 
649	 0.096955793470481 
650	 9.70460159081914E-02 
651	 9.71439632631118E-02 
652	 9.72282116717108E-02 
653	 9.72700533948374E-02 
654	 9.73595515744518E-02 
655	 9.74278467240694E-02 
656	 9.74411800303086E-02 
657	 9.75306193329985E-02 
658	 9.76020968051407E-02 
659	 9.76473932675717E-02 
660	 0.09769875582815 
661	 9.77704150305563E-02 
662	 9.78320448834797E-02 
663	 9.78826426047257E-02 
664	 9.79705010735266E-02 
665	 9.80452901168614E-02 
666	 9.80954848311473E-02 
667	 9.81281984899837E-02 
668	 9.81701200215697E-02 
669	 9.82431524789151E-02 
670	 9.83246205584091E-02 
671	 9.83601576138691E-02 
672	 9.84011271353622E-02 
673	 9.84868397310646E-02 
674	 0.098606589733196 
675	 9.86370175053239E-02 
676	 9.86609254175275E-02 
677	 9.87117608645761E-02 
678	 9.87931893442887E-02 
679	 9.88528110303664E-02 
680	 0.098910439391878 
681	 9.89827862089867E-02 
682	 9.90747765614704E-02 
683	 9.90793013478537E-02 
684	 9.91095811507022E-02 
685	 9.92473828242432E-02 
686	 9.92389852471039E-02 
687	 9.92570040028331E-02 
688	 9.93345715767957E-02 
689	 0.099398981838828 
690	 9.94246349731386E-02 
691	 9.94370981894652E-02 
692	 9.94687870665409E-02 
693	 9.95577254061033E-02 
694	 9.95648085752116E-02 
695	 9.95530614854114E-02 
696	 9.96269989702539E-02 
697	 0.099671000420728 
698	 0.099681195153712 
699	 9.96931396760526E-02 
700	 9.97721578204903E-02 
701	 9.98317392066035E-02 
702	 0.099855379850488 
703	 9.98514705910787E-02 
704	 9.98465540114529E-02 
705	 9.98548818865573E-02 
706	 9.98914307826125E-02 
707	 9.99579125478678E-02 
708	 9.99626940370576E-02 
709	 9.99778326227964E-02 
710	 0.10003256676231 
711	 0.100070134781747 
712	 0.100086613792373 
713	 0.100077502687077 
714	 0.100050297736594 
715	 0.100043261397777 
716	 0.100070082793785 
717	 0.100092832733472 
718	 0.100048205082747 
719	 0.100037978716628 
720	 0.100053879992416 
721	 0.100062757306269 
722	 0.100010543724734 
723	 0.100014836476296 
724	 0.1000406135933 
725	 0.100018573076967 
726	 0.100000583563566 
727	 9.99752282393122E-02 
728	 9.99427490963713E-02 
729	 9.99159407744263E-02 
730	 9.98856804115801E-02 
731	 9.98792851118207E-02 
732	 9.98934089183388E-02 
733	 9.98348018158541E-02 
734	 9.97813469407462E-02 
735	 9.97392625480876E-02 
736	 9.96928114280519E-02 
737	 9.96824600392725E-02 
738	 9.96717871411628E-02 
739	 9.96380142321126E-02 
740	 9.95808921397575E-02 
741	 9.95274592268656E-02 
742	 9.94861713193811E-02 
743	 0.099448176642428 
744	 9.93682861668907E-02 
745	 9.93004694806772E-02 
746	 0.099281200248592 
747	 9.93113022849617E-02 
748	 0.099224893663693 
749	 9.91300015963328E-02 
750	 0.09908797505146 
751	 9.90716595756321E-02 
752	 9.90286558974914E-02 
753	 9.89782033996263E-02 
754	 9.89399700324691E-02 
755	 9.88777318363987E-02 
756	 9.88165093698785E-02 
757	 9.87636614002034E-02 
758	 9.87163754963249E-02 
759	 9.86733959595423E-02 
760	 0.098604217932857 
761	 9.85308917495196E-02 
762	 9.85402746777423E-02 
763	 0.098497446592033 
764	 9.84362067787264E-02 
765	 9.84018734829433E-02 
766	 9.83499654162228E-02 
767	 9.82870761924673E-02 
768	 9.82136663596166E-02 
769	 9.81335583214675E-02 
770	 9.80891633185273E-02 
771	 9.80498200328039E-02 
772	 9.79917507143594E-02 
773	 9.79097210468807E-02 
774	 9.78666043980378E-02 
775	 9.78389452512383E-02 
776	 9.77919269984928E-02 
777	 9.77147040984071E-02 
778	 0.097653039016466 
779	 9.76223245814298E-02 
780	 9.76083750488537E-02 
781	 9.75182214628475E-02 
782	 9.74637279922929E-02 
783	 9.74499052726428E-02 
784	 0.097358381493479 
785	 9.72771650126245E-02 
786	 9.72082639767021E-02 
787	 9.71463589062353E-02 
788	 9.71106071847106E-02 
789	 9.70777436627142E-02 
790	 0.09702281690872 
791	 9.69326565010427E-02 
792	 9.68485330346641E-02 
793	 9.67936122275032E-02 
794	 9.67608886326345E-02 
795	 9.67174563814342E-02 
796	 9.66364582828892E-02 
797	 9.65700652995494E-02 
798	 9.65347750320159E-02 
799	 0.096457218962859 
800	 9.64125922148755E-02 
801	 9.63628471290384E-02 
802	 9.62666114329165E-02 
803	 9.62071924202718E-02 
804	 9.61488337739645E-02 
805	 9.60815350572514E-02 
806	 9.60163532386294E-02 
807	 0.095987717988277 
808	 9.59262583201979E-02 
809	 9.58255892586558E-02 
810	 9.57728544157102E-02 
811	 9.57353001181105E-02 
812	 9.56877868456938E-02 
813	 9.56175291153304E-02 
814	 9.55364812964186E-02 
815	 9.55014776519162E-02 
816	 9.54709870598326E-02 
817	 9.53871544468195E-02 
818	 9.53539502775775E-02 
819	 9.52994539221595E-02 
820	 9.52156527174485E-02 
821	 9.51540443466928E-02 
822	 9.50944890096822E-02 
823	 9.50126431894294E-02 
824	 9.49215351810375E-02 
825	 0.094895571037822 
826	 9.48581317495919E-02 
827	 9.47891864471576E-02 
828	 9.47048081116848E-02 
829	 9.46822554441982E-02 
830	 9.46391154325642E-02 
831	 9.45766592573487E-02 
832	 9.45344608238456E-02 
833	 9.45113622826316E-02 
834	 9.44473311789418E-02 
835	 9.43394207974515E-02 
836	 9.42480085115419E-02 
837	 9.42781758736412E-02 
838	 9.43120242848908E-02 
839	 9.42534303199771E-02 
840	 9.41091045249968E-02 
841	 9.40263857737538E-02 
842	 9.39868720008511E-02 
843	 9.39402266527332E-02 
844	 0.093904292682687 
845	 9.38903968957573E-02 
846	 9.38512783535136E-02 
847	 9.37444433420449E-02 
848	 9.37066945866245E-02 
849	 9.37077432490658E-02 
850	 9.36822605856218E-02 
851	 9.35658140739514E-02 
852	 9.35249290883344E-02 
853	 9.34921780336595E-02 
854	 9.34263170161597E-02 
855	 9.33739560913018E-02 
856	 9.33637947090364E-02 
857	 9.33482575724353E-02 
858	 9.32937935170246E-02 
859	 9.32520259115077E-02 
860	 9.32024545424249E-02 
861	 9.31609589929738E-02 
862	 9.31388010923053E-02 
863	 9.30725460460543E-02 
864	 9.30353540817114E-02 
865	 9.30239423493675E-02 
866	 9.29894392498579E-02 
867	 0.092946602971135 
868	 9.28903549471065E-02 
869	 9.28374299082774E-02 
870	 9.28201141682307E-02 
871	 9.27561382489334E-02 
872	 0.092733464908811 
873	 9.27551978002497E-02 
874	 9.26493331914578E-02 
875	 9.26245730303305E-02 
876	 9.25991872495999E-02 
877	 9.25062003390272E-02 
878	 9.25102958131226E-02 
879	 9.25403807744476E-02 
880	 9.25279910497364E-02 
881	 9.24451126761123E-02 
882	 9.24225009747756E-02 
883	 9.24135286676768E-02 
884	 9.23770819168024E-02 
885	 0.092302422648823 
886	 9.23243186838313E-02 
887	 9.23185367716493E-02 
888	 0.092262310495913 
889	 9.22361324817834E-02 
890	 9.22770989542584E-02 
891	 0.092251689472767 
892	 9.21321043642561E-02 
893	 0.092047754536347 
894	 9.20066895383982E-02 
895	 9.20126940187441E-02 
896	 9.20513770056118E-02 
897	 9.20880848346625E-02 
898	 9.20410730583826E-02 
899	 9.19892364252338E-02 
900	 9.20032496469211E-02 
901	 9.20201896186792E-02 
902	 9.19308269008332E-02 
903	 9.18557970516057E-02 
904	 9.19154463033202E-02 
905	 9.19058693248486E-02 
906	 9.18890321844392E-02 
907	 9.18533860012129E-02 
908	 9.17812096783244E-02 
909	 9.18059514941585E-02 
910	 9.17879793820351E-02 
911	 0.091758042364362 
912	 9.18332556114423E-02 
913	 0.091845796746653 
914	 9.18234830275024E-02 
915	 9.17774403025012E-02 
916	 9.17001508615787E-02 
917	 9.16838545667713E-02 
918	 9.17157472135335E-02 
919	 9.17253161483493E-02 
920	 9.16159203267698E-02 
921	 9.15789232521474E-02 
922	 9.15922656508393E-02 
923	 9.16120755811097E-02 
924	 9.16209166010422E-02 
925	 9.15796488462138E-02 
926	 9.15781155938396E-02 
927	 9.16232118073051E-02 
928	 9.15255481869232E-02 
929	 9.15500962647024E-02 
930	 9.15624786312362E-02 
931	 0.091473961301125 
932	 9.15395946393317E-02 
933	 9.15481351816204E-02 
934	 9.15133773290525E-02 
935	 9.15082936988394E-02 
936	 9.15918056277684E-02 
937	 0.091468922741596 
938	 9.13542992888878E-02 
939	 9.14832680444394E-02 
940	 9.15404045333053E-02 
941	 9.14962844140073E-02 
942	 9.14786466068881E-02 
943	 9.15854870940716E-02 
944	 9.15349572801426E-02 
945	 9.13872172959296E-02 
946	 9.13385309485412E-02 
947	 9.14988446796885E-02 
948	 9.13496799446222E-02 
949	 9.12914105537971E-02 
950	 9.13442772056792E-02 
951	 9.13398773548725E-02 
952	 9.13220325269668E-02 
953	 9.13684071394208E-02 
954	 9.14007239337991E-02 
955	 0.091315532088257 
956	 9.13726703957074E-02 
957	 9.14162807155604E-02 
958	 9.13916677164388E-02 
959	 9.13271377385439E-02 
960	 9.12217851877856E-02 
961	 9.12569649447221E-02 
962	 9.13566761774385E-02 
963	 9.13232502182646E-02 
964	 9.13480698098967E-02 
965	 9.13338348886047E-02 
966	 9.12946867397901E-02 
967	 0.091309683071093 
968	 9.12957882966724E-02 
969	 9.13065555134739E-02 
970	 0.09126641365859 
971	 9.10799559402647E-02 
972	 9.10778910213692E-02 
973	 9.11515231044749E-02 
974	 9.11495503775151E-02 
975	 9.10057543483012E-02 
976	 9.11418516728981E-02 
977	 9.12585764501197E-02 
978	 9.12644975262017E-02 
979	 9.12354726579514E-02 
980	 9.11216952334572E-02 
981	 0.09111215823461 
982	 0.091154981100418 
983	 9.10928389042815E-02 
984	 9.11213569242491E-02 
985	 9.10913671324995E-02 
986	 9.10787669844904E-02 
987	 9.11998161612569E-02 
988	 9.10614349843292E-02 
989	 0.090990841361628 
990	 9.10411008462576E-02 
991	 9.10976988192445E-02 
992	 0.091113091954691 
993	 9.10994858673284E-02 
994	 9.10574640583223E-02 
995	 9.10079765592866E-02 
996	 9.10754572663156E-02 
997	 9.10330495269268E-02 
998	 9.10377019507207E-02 
999	 9.12366818165132E-02 
1000	 9.11832861896771E-02 
1001	 0.087656409165856 
1002	 8.76553710385662E-02 
1003	 8.76277240044004E-02 
1004	 8.76204104572109E-02 
1005	 8.76452803853032E-02 
1006	 8.76133540358711E-02 
1007	 0.087539769643426 
1008	 8.75487750163799E-02 
1009	 8.75203787397449E-02 
1010	 8.74701808897254E-02 
1011	 8.75131497596297E-02 
1012	 8.75463259186401E-02 
1013	 8.75116825082315E-02 
1014	 8.75350502746428E-02 
1015	 8.75419372362165E-02 
1016	 8.74659022673071E-02 
1017	 8.73995610385325E-02 
1018	 8.73096782377356E-02 
1019	 8.72516330819901E-02 
1020	 8.72172814170741E-02 
1021	 8.72086111018439E-02 
1022	 8.72279571268654E-02 
1023	 8.72530260044357E-02 
1024	 0.087301839588063 
1025	 8.73067294610265E-02 
1026	 8.72840721681789E-02 
1027	 8.72766076315264E-02 
1028	 8.71848623391387E-02 
1029	 8.71134076516832E-02 
1030	 8.70859036962035E-02 
1031	 8.70576745915873E-02 
1032	 8.70304673264636E-02 
1033	 8.70665908756223E-02 
1034	 8.70601473669103E-02 
1035	 8.69998747993876E-02 
1036	 8.69540004210254E-02 
1037	 8.68881326343778E-02 
1038	 8.68558812261562E-02 
1039	 0.08685841126562 
1040	 8.68629290175099E-02 
1041	 8.68749867855601E-02 
1042	 8.68487087482425E-02 
1043	 0.086832285409938 
1044	 8.68292843565381E-02 
1045	 8.68423526066325E-02 
1046	 0.0868164916082 
1047	 8.68063613704143E-02 
1048	 8.68280596045534E-02 
1049	 8.68199601136316E-02 
1050	 8.67767122617656E-02 
1051	 8.67570683469786E-02 
1052	 8.67621498267251E-02 
1053	 8.67453482368528E-02 
1054	 8.67377489931244E-02 
1055	 8.67542399353721E-02 
1056	 8.67357400789994E-02 
1057	 8.67351273955085E-02 
1058	 8.67693643879571E-02 
1059	 8.67758002909693E-02 
1060	 8.67703605294641E-02 
1061	 8.67604051918952E-02 
1062	 8.67575956065477E-02 
1063	 8.67020515499192E-02 
1064	 8.67270471539696E-02 
1065	 8.67612031620289E-02 
1066	 8.67676764148418E-02 
1067	 8.68137907832304E-02 
1068	 8.68051727939866E-02 
1069	 8.67747699130273E-02 
1070	 0.086785945216964 
1071	 8.68167066369059E-02 
1072	 8.68340613239398E-02 
1073	 8.68899214394556E-02 
1074	 8.69022204888867E-02 
1075	 8.68781347158287E-02 
1076	 8.68552654703002E-02 
1077	 8.68531827507024E-02 
1078	 0.086865854606582 
1079	 8.68661455294142E-02 
1080	 0.086841719201056 
1081	 8.68437154751067E-02 
1082	 0.086862805003305 
1083	 8.68587673475126E-02 
1084	 8.68753538462797E-02 
1085	 8.68688656440126E-02 
1086	 8.68063868441589E-02 
1087	 8.67863295625774E-02 
1088	 8.67750700802946E-02 
1089	 8.68071253227502E-02 
1090	 8.68056316128465E-02 
1091	 8.68255822837609E-02 
1092	 8.68536384395128E-02 
1093	 8.68227787578365E-02 
1094	 8.67871863739568E-02 
1095	 0.086763443779085 
1096	 8.67534570534059E-02 
1097	 8.67528779009795E-02 
1098	 8.67437585307549E-02 
1099	 8.67540033727029E-02 
1100	 8.67480979349598E-02 
1101	 8.67079667607367E-02 
1102	 8.67083439072854E-02 
1103	 8.67359772123315E-02 
1104	 8.67588988720859E-02 
1105	 8.67783006997451E-02 
1106	 8.67453874704766E-02 
1107	 8.66977216442998E-02 
1108	 8.66775608938953E-02 
1109	 8.66390937641478E-02 
1110	 8.66429133662428E-02 
1111	 8.66352482960107E-02 
1112	 8.66211833034259E-02 
1113	 8.66091068701161E-02 
1114	 8.66127008104077E-02 
1115	 8.65968425062229E-02 
1116	 8.65691062160356E-02 
1117	 8.65600947307715E-02 
1118	 8.65494483287673E-02 
1119	 8.65381061420848E-02 
1120	 8.65579696142473E-02 
1121	 8.65678041102063E-02 
1122	 8.65650316237118E-02 
1123	 8.65587949966924E-02 
1124	 8.65547298653239E-02 
1125	 8.65410081390701E-02 
1126	 8.65287290864743E-02 
1127	 8.65203530975797E-02 
1128	 8.65175372382061E-02 
1129	 8.65104578040845E-02 
1130	 0.086511921182965 
1131	 0.086540293805828 
1132	 8.65291678353761E-02 
1133	 8.64850657890052E-02 
1134	 8.64641458328782E-02 
1135	 8.64133774878017E-02 
1136	 0.086412726242459 
1137	 8.64356055029168E-02 
1138	 8.64700616849035E-02 
1139	 8.64835200871528E-02 
1140	 8.64974239524977E-02 
1141	 8.64932387431651E-02 
1142	 8.64666920524236E-02 
1143	 8.64610962543024E-02 
1144	 8.64569217301424E-02 
1145	 8.64577825097699E-02 
1146	 8.64793387711711E-02 
1147	 8.64770807323109E-02 
1148	 8.64542894678436E-02 
1149	 8.64479672667567E-02 
1150	 8.64475832786022E-02 
1151	 8.64231367781407E-02 
1152	 8.64363702924069E-02 
1153	 8.64712367172855E-02 
1154	 8.64785217644521E-02 
1155	 8.64838210481473E-02 
1156	 8.64872731053303E-02 
1157	 8.64758749218326E-02 
1158	 8.64692384627732E-02 
1159	 8.64648486507982E-02 
1160	 8.64674754073747E-02 
1161	 0.08646597645453 
1162	 8.64695117554915E-02 
1163	 8.64903553590111E-02 
1164	 8.64995366718574E-02 
1165	 8.65048121870288E-02 
1166	 8.65001424699703E-02 
1167	 8.65153438909629E-02 
1168	 8.65271842782563E-02 
1169	 8.65317348651869E-02 
1170	 8.65355684504474E-02 
1171	 8.65473491170695E-02 
1172	 8.65448074519305E-02 
1173	 8.65650394892118E-02 
1174	 8.66196079515417E-02 
1175	 8.66415634333854E-02 
1176	 8.66523079008692E-02 
1177	 8.66696166359423E-02 
1178	 8.66718158266436E-02 
1179	 8.66813031487348E-02 
1180	 0.086697424296061 
1181	 8.67191180126129E-02 
1182	 8.67342674632466E-02 
1183	 8.67686356261981E-02 
1184	 8.67972611718816E-02 
1185	 8.68367512160797E-02 
1186	 8.68662489415073E-02 
1187	 8.68934454990764E-02 
1188	 8.69138182138921E-02 
1189	 8.69248976698806E-02 
1190	 8.69484756060335E-02 
1191	 8.69708776597708E-02 
1192	 8.69970584838546E-02 
1193	 8.70409669974384E-02 
1194	 0.087067995879876 
1195	 8.70800152662089E-02 
1196	 8.71012589835397E-02 
1197	 8.71194263676668E-02 
1198	 8.71415481108474E-02 
1199	 8.71671459291243E-02 
1200	 8.71961217962565E-02 
1201	 8.72347729518873E-02 
1202	 8.72846690561852E-02 
1203	 8.73188649673155E-02 
1204	 8.73535350992482E-02 
1205	 8.73897696772967E-02 
1206	 0.087418745069479 
1207	 8.74463387162132E-02 
1208	 8.74843613410344E-02 
1209	 8.75102593894883E-02 
1210	 8.75145941450463E-02 
1211	 8.75338964495409E-02 
1212	 8.75576124939953E-02 
1213	 8.75828553581687E-02 
1214	 8.76112365246829E-02 
1215	 8.76443518248332E-02 
1216	 0.087680718904752 
1217	 8.77161242176683E-02 
1218	 8.77638360132537E-02 
1219	 8.78355284173361E-02 
1220	 8.78685437190219E-02 
1221	 8.78860121254173E-02 
1222	 0.087915390378145 
1223	 8.79244901532608E-02 
1224	 8.79478690741244E-02 
1225	 8.79923339807105E-02 
1226	 8.80266854979615E-02 
1227	 8.80495075016402E-02 
1228	 8.80807594171893E-02 
1229	 0.088127190689718 
1230	 0.088159157315107 
1231	 8.81722695783835E-02 
1232	 0.088203835465678 
1233	 8.82404690893074E-02 
1234	 8.82783830168162E-02 
1235	 8.83137703620084E-02 
1236	 8.83688706808093E-02 
1237	 8.83975509298607E-02 
1238	 8.83964535580313E-02 
1239	 8.84250847812878E-02 
1240	 8.84588148083787E-02 
1241	 8.84963085837365E-02 
1242	 8.85562863189698E-02 
1243	 8.85976489945485E-02 
1244	 8.86188668379548E-02 
1245	 8.86605491549128E-02 
1246	 8.87174623242596E-02 
1247	 8.87597305066512E-02 
1248	 8.88072471370015E-02 
1249	 8.88502685747497E-02 
1250	 8.88867836301601E-02 
1251	 8.89100779551406E-02 
1252	 8.89408299465067E-02 
1253	 8.89756788198957E-02 
1254	 8.90139340172103E-02 
1255	 8.90546926125891E-02 
1256	 8.90873259199506E-02 
1257	 8.91190199148396E-02 
1258	 8.91550488584676E-02 
1259	 8.91793287941385E-02 
1260	 8.92167208559984E-02 
1261	 8.92828259268603E-02 
1262	 8.93204271655045E-02 
1263	 8.93441608359957E-02 
1264	 8.93698939181493E-02 
1265	 8.93783241339129E-02 
1266	 8.93944522550831E-02 
1267	 8.94141296053935E-02 
1268	 8.94370574392576E-02 
1269	 8.94627644501833E-02 
1270	 8.94845868058706E-02 
1271	 8.95208860929076E-02 
1272	 8.95685046795971E-02 
1273	 8.96154213080918E-02 
1274	 8.96761351565857E-02 
1275	 0.089720753886813 
1276	 8.97531899123539E-02 
1277	 8.98001137734931E-02 
1278	 8.98397130502537E-02 
1279	 8.98960467807301E-02 
1280	 8.99811392242975E-02 
1281	 9.00459631209799E-02 
1282	 9.01056640343278E-02 
1283	 0.090165381416233 
1284	 9.02048638663939E-02 
1285	 9.02687678680922E-02 
1286	 9.03399647989428E-02 
1287	 9.04100512200261E-02 
1288	 9.04905107327667E-02 
1289	 0.090586777158356 
1290	 9.06664209481548E-02 
1291	 0.09074380888875 
1292	 9.08248276020149E-02 
1293	 9.09034003712927E-02 
1294	 9.09794615897785E-02 
1295	 9.10629705681535E-02 
1296	 9.11321756631875E-02 
1297	 9.11790109947066E-02 
1298	 9.12475108736776E-02 
1299	 9.13318150055786E-02 
1300	 0.091399071446649 
1301	 0.091472053255239 
1302	 9.15350685557274E-02 
1303	 9.15883758274967E-02 
1304	 9.16140945838738E-02 
1305	 9.16652421540523E-02 
1306	 0.091731373715246 
1307	 9.17851165284505E-02 
1308	 9.18392303574216E-02 
1309	 9.18780437742577E-02 
1310	 9.18937252486047E-02 
1311	 9.19359851107801E-02 
1312	 9.19787478185324E-02 
1313	 9.20328425558573E-02 
1314	 9.21220880914934E-02 
1315	 9.21657679897445E-02 
1316	 9.21874576285136E-02 
1317	 9.22158206329019E-02 
1318	 0.09222662190866 
1319	 0.092241427139656 
1320	 9.22582870870172E-02 
1321	 9.22787751956955E-02 
1322	 9.22895408266119E-02 
1323	 9.23099726386838E-02 
1324	 0.092351834550909 
1325	 9.23903766537584E-02 
1326	 9.24228181021798E-02 
1327	 9.24521127133584E-02 
1328	 9.24820382306337E-02 
1329	 9.25076056818894E-02 
1330	 9.25332603055745E-02 
1331	 9.25605208779634E-02 
1332	 9.25873569737668E-02 
1333	 9.26104888997485E-02 
1334	 9.26359918491938E-02 
1335	 9.26676294333987E-02 
1336	 9.26913998282688E-02 
1337	 9.27122233666013E-02 
1338	 9.27292425094193E-02 
1339	 9.27277100658628E-02 
1340	 9.27493003718089E-02 
1341	 9.27927891970806E-02 
1342	 9.28175021843599E-02 
1343	 9.28449416940785E-02 
1344	 9.28719146027146E-02 
1345	 9.28850010018751E-02 
1346	 9.28875031578971E-02 
1347	 9.28833173378723E-02 
1348	 9.28841564889218E-02 
1349	 9.28826242812773E-02 
1350	 9.28675403626162E-02 
1351	 9.28610954081199E-02 
1352	 9.28639155926126E-02 
1353	 9.28579018485515E-02 
1354	 9.28466040170561E-02 
1355	 9.28368174189696E-02 
1356	 9.28274511174869E-02 
1357	 9.28177121223227E-02 
1358	 9.27982609111042E-02 
1359	 0.092794373931617 
1360	 9.27887465991876E-02 
1361	 9.28006893884552E-02 
1362	 9.28358784759665E-02 
1363	 9.28656712321149E-02 
1364	 9.28978881884327E-02 
1365	 9.29384229525995E-02 
1366	 9.29837361305483E-02 
1367	 9.30275400656832E-02 
1368	 9.30851126073865E-02 
1369	 9.31526704391063E-02 
1370	 9.32145372103887E-02 
1371	 9.32644014265495E-02 
1372	 9.33030094540948E-02 
1373	 9.33494555284113E-02 
1374	 9.33831328027058E-02 
1375	 9.34187293638865E-02 
1376	 9.34213827682605E-02 
1377	 0.093400532146514 
1378	 9.33866863369719E-02 
1379	 9.33399417620644E-02 
1380	 0.093327148759945 
1381	 9.33265844465479E-02 
1382	 9.33408990313296E-02 
1383	 9.33717305471152E-02 
1384	 9.34044609664215E-02 
1385	 9.34573936330238E-02 
1386	 9.35000985797063E-02 
1387	 9.35532007003932E-02 
1388	 9.35869107367282E-02 
1389	 9.36079731283691E-02 
1390	 9.36324950681026E-02 
1391	 9.36358863692164E-02 
1392	 9.36282437593769E-02 
1393	 9.36354502037436E-02 
1394	 0.093628434227215 
1395	 0.093634383079136 
1396	 9.36532652432783E-02 
1397	 0.093667092036307 
1398	 0.093687857489345 
1399	 9.37055708029479E-02 
1400	 0.09371965265081 
1401	 9.37340809269076E-02 
1402	 9.37464855989751E-02 
1403	 9.37695658329613E-02 
1404	 9.37955832367802E-02 
1405	 0.093823200580225 
1406	 9.38593937206744E-02 
1407	 9.38921534167397E-02 
1408	 9.39276229018349E-02 
1409	 9.39556508151679E-02 
1410	 9.39767897942186E-02 
1411	 9.40072528458235E-02 
1412	 9.40333555760901E-02 
1413	 9.40643720632582E-02 
1414	 9.41159564904223E-02 
1415	 9.41732981531784E-02 
1416	 9.42104947051897E-02 
1417	 9.42394229132266E-02 
1418	 0.094269215661155 
1419	 9.42968163617933E-02 
1420	 9.43291077022857E-02 
1421	 9.43784660340748E-02 
1422	 9.44457449635074E-02 
1423	 9.45034324544163E-02 
1424	 9.45460365992906E-02 
1425	 9.45903781125648E-02 
1426	 9.46225356949948E-02 
1427	 9.46207868121414E-02 
1428	 9.46528654516873E-02 
1429	 9.47021520676446E-02 
1430	 9.47486595889344E-02 
1431	 9.48052053488804E-02 
1432	 0.094855119990319 
1433	 9.49086488994493E-02 
1434	 9.49519431535226E-02 
1435	 9.49886241767667E-02 
1436	 9.50248728043393E-02 
1437	 9.50485761669818E-02 
1438	 9.50805983239113E-02 
1439	 9.51184013676383E-02 
1440	 9.51560851162963E-02 
1441	 9.51851548568644E-02 
1442	 9.52243875905163E-02 
1443	 9.52612172203181E-02 
1444	 9.52933661815786E-02 
1445	 9.53334438742382E-02 
1446	 9.53674546961523E-02 
1447	 9.53977995901539E-02 
1448	 9.54369773551065E-02 
1449	 9.54578968267275E-02 
1450	 9.54850822084949E-02 
1451	 9.55152760897505E-02 
1452	 9.55347536352333E-02 
1453	 9.55689967955343E-02 
1454	 9.56243996220453E-02 
1455	 9.56614279370494E-02 
1456	 9.56955650022831E-02 
1457	 9.57294117910148E-02 
1458	 9.57547094413023E-02 
1459	 9.57837227782389E-02 
1460	 9.58097681759913E-02 
1461	 9.58456930281115E-02 
1462	 9.58897597510568E-02 
1463	 9.59265013488227E-02 
1464	 9.59765374016748E-02 
1465	 9.60097624878705E-02 
1466	 9.60227678847294E-02 
1467	 9.60441813401094E-02 
1468	 9.60599904772713E-02 
1469	 9.60796282771007E-02 
1470	 9.60984844230605E-02 
1471	 9.61288587200398E-02 
1472	 9.61757621809538E-02 
1473	 9.62059483174969E-02 
1474	 9.62277441404475E-02 
1475	 9.62618788077022E-02 
1476	 9.62742512821625E-02 
1477	 9.62960439388863E-02 
1478	 9.63430875443952E-02 
1479	 9.63789878198993E-02 
1480	 9.64216532970892E-02 
1481	 0.096459086900484 
1482	 9.64819696630761E-02 
1483	 9.64884828196806E-02 
1484	 9.65114032949345E-02 
1485	 9.65266390785543E-02 
1486	 9.65529966391225E-02 
1487	 9.65919868312027E-02 
1488	 0.096625748489474 
1489	 9.66628336723445E-02 
1490	 9.66954148804208E-02 
1491	 9.67334316933913E-02 
1492	 9.67598032518164E-02 
1493	 9.67682153679959E-02 
1494	 9.67931899517581E-02 
1495	 9.68215685562665E-02 
1496	 9.68494746781537E-02 
1497	 9.68932134651471E-02 
1498	 9.69226625724706E-02 
1499	 9.69415710309594E-02 
1500	 9.69577544146786E-02 
1501	 9.69632551990337E-02 
1502	 9.69759601818389E-02 
1503	 9.69879112860676E-02 
1504	 9.70042809213624E-02 
1505	 9.70214446584431E-02 
1506	 0.097040306376942 
1507	 9.70427353542173E-02 
1508	 9.70485362789286E-02 
1509	 9.70602016190427E-02 
1510	 9.70646810592855E-02 
1511	 9.70858517149841E-02 
1512	 9.71153939351403E-02 
1513	 9.71387021402512E-02 
1514	 9.71635572214725E-02 
1515	 9.71803200001515E-02 
1516	 9.71952231411091E-02 
1517	 9.72052420121743E-02 
1518	 9.72059044472841E-02 
1519	 0.097219616651388 
1520	 9.72341773386222E-02 
1521	 0.097252009480642 
1522	 9.72804039763227E-02 
1523	 9.73008015395228E-02 
1524	 9.73202077809128E-02 
1525	 9.73325199495507E-02 
1526	 9.73363262448353E-02 
1527	 9.73539521992294E-02 
1528	 9.73750541035121E-02 
1529	 9.73932229667394E-02 
1530	 9.74225113147123E-02 
1531	 9.74372071329729E-02 
1532	 9.74391840339576E-02 
1533	 0.097443074218269 
1534	 9.74420530492741E-02 
1535	 9.74478488296367E-02 
1536	 0.097451321269609 
1537	 9.74611212890467E-02 
1538	 9.74741704283121E-02 
1539	 9.74909270371271E-02 
1540	 9.75254611911958E-02 
1541	 0.097540447751737 
1542	 9.75425044449214E-02 
1543	 9.75563235908784E-02 
1544	 9.75638862239704E-02 
1545	 0.097570697405051 
1546	 9.75867013664941E-02 
1547	 9.76011442297282E-02 
1548	 9.76047578791975E-02 
1549	 9.76129710948999E-02 
1550	 9.76303757283954E-02 
1551	 9.76541993846447E-02 
1552	 9.76775948719724E-02 
1553	 9.76945528633006E-02 
1554	 9.77155174752609E-02 
1555	 9.77229983953063E-02 
1556	 9.77190659030621E-02 
1557	 9.77312491386283E-02 
1558	 9.77425956533773E-02 
1559	 9.77526530609078E-02 
1560	 9.77557357227418E-02 
1561	 9.77550362186828E-02 
1562	 9.77638913610748E-02 
1563	 0.097771036032868 
1564	 9.77750125373729E-02 
1565	 9.77903240438149E-02 
1566	 9.77953251567012E-02 
1567	 9.77788649134154E-02 
1568	 9.77896292998476E-02 
1569	 0.097823658554589 
1570	 9.78331222235969E-02 
1571	 9.78488705464684E-02 
1572	 9.78420646491102E-02 
1573	 9.77944266461867E-02 
1574	 0.097787970989422 
1575	 9.77955377841894E-02 
1576	 9.77979815403449E-02 
1577	 9.78201978179638E-02 
1578	 9.78331706216837E-02 
1579	 9.78369361600191E-02 
1580	 9.78369031590517E-02 
1581	 9.78360503494316E-02 
1582	 9.78397253775226E-02 
1583	 9.78343899815439E-02 
1584	 9.78382089726902E-02 
1585	 9.78617108806282E-02 
1586	 9.78675327114547E-02 
1587	 9.78629408311991E-02 
1588	 9.78615861920093E-02 
1589	 9.78496935246442E-02 
1590	 9.78480250025141E-02 
1591	 9.78591093807678E-02 
1592	 9.78582248803252E-02 
1593	 0.09784933355924 
1594	 0.09785084814753 
1595	 9.78477321644839E-02 
1596	 9.78525123469958E-02 
1597	 9.78798098882186E-02 
1598	 9.78901480790789E-02 
1599	 9.78927676754066E-02 
1600	 9.78960146693509E-02 
1601	 9.78855004818787E-02 
1602	 9.78849769993282E-02 
1603	 9.78909423589664E-02 
1604	 9.78946882030614E-02 
1605	 9.79084805956524E-02 
1606	 9.79131870795654E-02 
1607	 9.79130827599465E-02 
1608	 0.0979053080362 
1609	 9.79074945505834E-02 
1610	 9.79137135413217E-02 
1611	 9.79233080765283E-02 
1612	 9.79415048136311E-02 
1613	 9.79587931202146E-02 
1614	 9.79551294238671E-02 
1615	 9.79552875414768E-02 
1616	 0.097953283912887 
1617	 9.79388541045177E-02 
1618	 9.79382861284143E-02 
1619	 9.79205727153332E-02 
1620	 9.79198202883481E-02 
1621	 0.097933953581094 
1622	 9.79665415687148E-02 
1623	 9.79664615992303E-02 
1624	 9.79714927389152E-02 
1625	 9.79637801302876E-02 
1626	 9.79211810949981E-02 
1627	 9.79143555935739E-02 
1628	 9.79270489914644E-02 
1629	 0.097932635980064 
1630	 9.79416394776962E-02 
1631	 9.79487210686551E-02 
1632	 9.79601863606884E-02 
1633	 9.79646512875408E-02 
1634	 9.79636150999044E-02 
1635	 0.097968262368365 
1636	 9.79742177579802E-02 
1637	 9.79741208060674E-02 
1638	 9.79714229984869E-02 
1639	 9.79771201964798E-02 
1640	 9.79820093010581E-02 
1641	 9.79852860182177E-02 
1642	 9.80004624429846E-02 
1643	 9.80001671002592E-02 
1644	 9.79851031475747E-02 
1645	 9.79790456298336E-02 
1646	 9.79668848004757E-02 
1647	 9.79708607664775E-02 
1648	 9.79860918545598E-02 
1649	 9.79955070131308E-02 
1650	 0.098022095523503 
1651	 9.80194865991752E-02 
1652	 9.79946361781553E-02 
1653	 9.79836670937592E-02 
1654	 9.79599106093989E-02 
1655	 9.79535824248232E-02 
1656	 9.79651518820192E-02 
1657	 9.79650903168567E-02 
1658	 9.79637439370801E-02 
1659	 9.79647174670091E-02 
1660	 0.097963395527353 
1661	 9.79651636373279E-02 
1662	 9.79747512126961E-02 
1663	 9.79737438333232E-02 
1664	 9.79659122610509E-02 
1665	 9.79627993126602E-02 
1666	 9.79600094987483E-02 
1667	 9.79507623382162E-02 
1668	 0.097932215133337 
1669	 9.79333775310017E-02 
1670	 9.79438974533987E-02 
1671	 9.79425125244327E-02 
1672	 9.79487820062683E-02 
1673	 9.79547178909353E-02 
1674	 9.79440470630662E-02 
1675	 9.79475842135223E-02 
1676	 9.79727223484429E-02 
1677	 9.79811315753113E-02 
1678	 9.79833851555805E-02 
1679	 9.79821834366987E-02 
1680	 9.79756615169795E-02 
1681	 9.79692512922494E-02 
1682	 9.79506717925337E-02 
1683	 9.79499459881324E-02 
1684	 9.79636582182022E-02 
1685	 9.79638395432061E-02 
1686	 9.79585300081798E-02 
1687	 9.79707759882904E-02 
1688	 9.79914474947164E-02 
1689	 9.79957371437772E-02 
1690	 9.80109994348731E-02 
1691	 9.80147355743611E-02 
1692	 9.79853598533239E-02 
1693	 9.79844507429172E-02 
1694	 0.098004285321725 
1695	 9.80135586347905E-02 
1696	 9.80363294027248E-02 
1697	 9.80324582662717E-02 
1698	 9.80037800786622E-02 
1699	 9.79954570620074E-02 
1700	 9.79748033741094E-02 
1701	 9.79742595210449E-02 
1702	 0.098003238125147 
1703	 9.80127090284668E-02 
1704	 9.80154121884785E-02 
1705	 9.80235860583271E-02 
1706	 9.80367256600156E-02 
1707	 0.098035009446457 
1708	 0.098026020690885 
1709	 9.80231670119645E-02 
1710	 9.80096398951653E-02 
1711	 9.80046223965473E-02 
1712	 9.80070532723594E-02 
1713	 9.80160283349026E-02 
1714	 9.80311425780242E-02 
1715	 0.098036779843717 
1716	 9.80456326208373E-02 
1717	 9.80561319263312E-02 
1718	 9.80602478462104E-02 
1719	 9.80622045046157E-02 
1720	 9.80808854323373E-02 
1721	 9.80719805556678E-02 
1722	 0.098036105733279 
1723	 9.80176666114147E-02 
1724	 9.79930462665174E-02 
1725	 9.79721558364137E-02 
1726	 9.79572791855792E-02 
1727	 0.097945260637519 
1728	 9.79316607946852E-02 
1729	 9.79260237524968E-02 
1730	 9.79287942599072E-02 
1731	 9.79318295683568E-02 
1732	 9.79418004482336E-02 
1733	 9.79435164707431E-02 
1734	 9.79470751494836E-02 
1735	 9.79375699114141E-02 
1736	 9.79130768636843E-02 
1737	 9.79059152972705E-02 
1738	 9.79030797925215E-02 
1739	 9.78949806922369E-02 
1740	 9.78942753336017E-02 
1741	 9.78809047543175E-02 
1742	 9.78485519449885E-02 
1743	 9.78435014590871E-02 
1744	 9.78533676567165E-02 
1745	 9.78480605782555E-02 
1746	 9.78510795820094E-02 
1747	 9.78421168408269E-02 
1748	 9.78055398756857E-02 
1749	 0.097802837249888 
1750	 9.78268240390031E-02 
1751	 9.78170293383511E-02 
1752	 9.78222443517559E-02 
1753	 9.78234844064743E-02 
1754	 9.77772709415546E-02 
1755	 9.77626974537282E-02 
1756	 9.77746550720886E-02 
1757	 9.77563735762823E-02 
1758	 9.77361505215914E-02 
1759	 9.77190274969281E-02 
1760	 9.76877572953973E-02 
1761	 9.76891818131196E-02 
1762	 9.77221976662488E-02 
1763	 9.77372790895054E-02 
1764	 9.77519609963302E-02 
1765	 9.77568174297322E-02 
1766	 0.097740916249959 
1767	 9.77362442727483E-02 
1768	 9.77358219471586E-02 
1769	 9.77459891422895E-02 
1770	 9.77609516548472E-02 
1771	 9.77611823245549E-02 
1772	 9.77594287769875E-02 
1773	 9.77596199439138E-02 
1774	 9.77464512508878E-02 
1775	 0.097725987975677 
1776	 9.77289095592824E-02 
1777	 9.77178078956615E-02 
1778	 9.76907070842622E-02 
1779	 9.76905390253241E-02 
1780	 9.76788112452405E-02 
1781	 9.76612124567821E-02 
1782	 9.76741859725923E-02 
1783	 9.77070403392252E-02 
1784	 9.77281273402271E-02 
1785	 9.77730730832764E-02 
1786	 0.097781046996541 
1787	 9.77510355285113E-02 
1788	 9.77316063212144E-02 
1789	 9.76893027431532E-02 
1790	 9.76750603428407E-02 
1791	 9.76895931428615E-02 
1792	 9.76899389981031E-02 
1793	 9.76888504898122E-02 
1794	 9.76929822962908E-02 
1795	 9.76944812856007E-02 
1796	 9.76887712299167E-02 
1797	 9.76989150979863E-02 
1798	 9.76905823892324E-02 
1799	 9.76557167344855E-02 
1800	 9.76343085404301E-02 
1801	 0.094909106756768 
1802	 9.50044663262685E-02 
1803	 9.51159080270716E-02 
1804	 0.095208304995186 
1805	 9.53002644167194E-02 
1806	 9.53955716056652E-02 
1807	 9.54992401769321E-02 
1808	 9.55795721709709E-02 
1809	 9.56511122536936E-02 
1810	 0.095703056827956 
1811	 9.57468269506736E-02 
1812	 0.095762394929789 
1813	 9.57495882824177E-02 
1814	 0.095751964419657 
1815	 9.57608636507027E-02 
1816	 9.57833595349293E-02 
1817	 0.095800560272821 
1818	 9.58325447031683E-02 
1819	 9.58452153657025E-02 
1820	 9.58470314997131E-02 
1821	 9.58403303678925E-02 
1822	 9.58499639284249E-02 
1823	 9.58987744178731E-02 
1824	 9.59355540451168E-02 
1825	 0.09595405293102 
1826	 0.095965676461814 
1827	 9.59628386632163E-02 
1828	 9.59524769473259E-02 
1829	 9.59278372424163E-02 
1830	 9.59087598182574E-02 
1831	 9.58781266234945E-02 
1832	 9.58578632398252E-02 
1833	 9.58532489528342E-02 
1834	 9.58590816811486E-02 
1835	 9.58799986784337E-02 
1836	 9.58818287062842E-02 
1837	 9.58641678066133E-02 
1838	 9.58742499315985E-02 
1839	 9.58900243449533E-02 
1840	 0.095912730046949 
1841	 9.59352223436029E-02 
1842	 9.59855046318784E-02 
1843	 9.60238687696482E-02 
1844	 0.096044820721188 
1845	 9.60720284591029E-02 
1846	 9.61106976670808E-02 
1847	 9.61459951936093E-02 
1848	 9.61680990812005E-02 
1849	 0.096199910775249 
1850	 9.62268951142358E-02 
1851	 9.62370665736803E-02 
1852	 9.62504552658067E-02 
1853	 9.62870108416126E-02 
1854	 9.63262481109573E-02 
1855	 9.63718259920828E-02 
1856	 9.64009196872095E-02 
1857	 9.64333664120372E-02 
1858	 9.64750005276908E-02 
1859	 9.64966384994791E-02 
1860	 9.65148961735926E-02 
1861	 9.65360122073468E-02 
1862	 9.65501667602822E-02 
1863	 9.65379538545048E-02 
1864	 0.096511948297147 
1865	 9.64669673234341E-02 
1866	 9.63989212098087E-02 
1867	 0.096343457869262 
1868	 9.63010058757437E-02 
1869	 9.62651839286082E-02 
1870	 9.62473556958746E-02 
1871	 9.62519173323105E-02 
1872	 9.62715529072381E-02 
1873	 9.63095802785661E-02 
1874	 9.63515387543111E-02 
1875	 0.096406571697435 
1876	 9.64560830697914E-02 
1877	 9.65049577453166E-02 
1878	 9.65576795539758E-02 
1879	 9.66046482454029E-02 
1880	 9.66382598446625E-02 
1881	 9.66653871283156E-02 
1882	 9.66688397744244E-02 
1883	 0.09665366625529 
1884	 0.096629363349894 
1885	 9.66134315444526E-02 
1886	 9.65802671333236E-02 
1887	 0.096559516013872 
1888	 9.65385786537338E-02 
1889	 9.64994911512683E-02 
1890	 0.09648036700704 
1891	 9.64455334267736E-02 
1892	 9.64154023938375E-02 
1893	 9.63701384797963E-02 
1894	 9.63185889372507E-02 
1895	 9.62379982307136E-02 
1896	 9.61634029106907E-02 
1897	 0.096052456254328 
1898	 9.59436408073037E-02 
1899	 0.095837846598289 
1900	 9.57407643133155E-02 
1901	 9.56800754949863E-02 
1902	 9.56150632064594E-02 
1903	 9.55678808107035E-02 
1904	 0.095521710755666 
1905	 9.54829268964859E-02 
1906	 9.54240246405418E-02 
1907	 9.54011786076361E-02 
1908	 0.09538832138488 
1909	 9.53478156362356E-02 
1910	 9.53180336024228E-02 
1911	 9.52710752775849E-02 
1912	 9.52076665762459E-02 
1913	 9.51637255514958E-02 
1914	 9.51358492085734E-02 
1915	 9.50968755891958E-02 
1916	 9.50604213918367E-02 
1917	 9.50202584427073E-02 
1918	 9.49763019699291E-02 
1919	 0.094960110561681 
1920	 0.094956077368945 
1921	 9.49551343957152E-02 
1922	 9.49570440840008E-02 
1923	 9.49521567873552E-02 
1924	 9.49580544249855E-02 
1925	 9.49788309759135E-02 
1926	 9.49848922092285E-02 
1927	 9.49952911857446E-02 
1928	 9.49952969427351E-02 
1929	 0.09497230559371 
1930	 9.49481382310631E-02 
1931	 9.49529436527313E-02 
1932	 0.094959440048953 
1933	 9.49678867694563E-02 
1934	 9.49761712673687E-02 
1935	 9.49816160653859E-02 
1936	 9.49733490556492E-02 
1937	 9.49769141542368E-02 
1938	 9.49909672707625E-02 
1939	 9.50004766964709E-02 
1940	 9.50103860020948E-02 
1941	 9.50118214911616E-02 
1942	 9.50233568366864E-02 
1943	 9.50521775309292E-02 
1944	 9.50626502148312E-02 
1945	 9.50814360648454E-02 
1946	 9.51068695666657E-02 
1947	 9.51370167032738E-02 
1948	 9.51490019495866E-02 
1949	 9.51637763023129E-02 
1950	 9.51800908023967E-02 
1951	 9.51838408999252E-02 
1952	 9.51770679091237E-02 
1953	 9.52121764803215E-02 
1954	 9.52458904023971E-02 
1955	 9.52614414974585E-02 
1956	 9.53006838263561E-02 
1957	 9.53320948716243E-02 
1958	 9.53531242699976E-02 
1959	 9.53917518424821E-02 
1960	 9.54484499930107E-02 
1961	 9.54913968384427E-02 
1962	 9.55286172350843E-02 
1963	 9.55763842513953E-02 
1964	 0.095629669978882 
1965	 9.56803192743274E-02 
1966	 9.57084948064633E-02 
1967	 9.57415159928283E-02 
1968	 9.57896316713316E-02 
1969	 9.58311134124599E-02 
1970	 9.58713472167343E-02 
1971	 9.59452483748288E-02 
1972	 9.59860743003581E-02 
1973	 9.59787572955054E-02 
1974	 9.60103298267696E-02 
1975	 9.60570408608293E-02 
1976	 9.61024884595819E-02 
1977	 9.61577169735413E-02 
1978	 9.62038412825141E-02 
1979	 9.62249089173284E-02 
1980	 0.096247433488579 
1981	 9.62837428876582E-02 
1982	 9.63227316813428E-02 
1983	 9.63640565607703E-02 
1984	 0.096428112731866 
1985	 9.64741762716636E-02 
1986	 9.65101516543269E-02 
1987	 9.65463377995146E-02 
1988	 9.65837001204999E-02 
1989	 9.66002334615175E-02 
1990	 9.66278143336615E-02 
1991	 9.66677750309149E-02 
1992	 9.67040607978712E-02 
1993	 9.67438668564142E-02 
1994	 9.67880058007113E-02 
1995	 9.68373871668158E-02 
1996	 9.68759770115968E-02 
1997	 9.69172464869483E-02 
1998	 9.69547106139025E-02 
1999	 9.69735556177993E-02 
2000	 9.70105256723928E-02 
2001	 0.097068371325094 
2002	 9.71035561315209E-02 
2003	 9.71455576795622E-02 
2004	 9.71992720470305E-02 
2005	 9.72484358092609E-02 
2006	 9.72960983501914E-02 
2007	 9.73494743237778E-02 
2008	 9.74093750528779E-02 
2009	 9.74613253181079E-02 
2010	 0.097510770503436 
2011	 9.75605526110043E-02 
2012	 9.76021364664613E-02 
2013	 9.76545499395758E-02 
2014	 9.77126353885897E-02 
2015	 9.77760102463243E-02 
2016	 9.78390361758553E-02 
2017	 9.78891051627561E-02 
2018	 9.79456005626244E-02 
2019	 9.80000333317299E-02 
2020	 0.098051509808796 
2021	 9.81038174770261E-02 
2022	 9.81547701292905E-02 
2023	 9.82007369897073E-02 
2024	 9.82485820215296E-02 
2025	 9.83010809776689E-02 
2026	 9.83485122571549E-02 
2027	 9.83888689582681E-02 
2028	 0.098431988058239 
2029	 9.84793326568389E-02 
2030	 9.85265164934769E-02 
2031	 9.85730207184342E-02 
2032	 9.86289420511169E-02 
2033	 9.86693748842615E-02 
2034	 9.87057497493037E-02 
2035	 9.87341163098578E-02 
2036	 9.87384794061699E-02 
2037	 9.87665388949528E-02 
2038	 9.87977779756704E-02 
2039	 9.88338395444828E-02 
2040	 9.88794046852823E-02 
2041	 9.89406751121034E-02 
2042	 9.89977625360285E-02 
2043	 0.099034937127952 
2044	 9.90782920064179E-02 
2045	 9.91199127930872E-02 
2046	 9.91654948543954E-02 
2047	 9.92164014313729E-02 
2048	 9.92532167716718E-02 
2049	 9.92860117009276E-02 
2050	 9.93176387226269E-02 
2051	 9.93371161661143E-02 
2052	 9.93597803529673E-02 
2053	 9.93792545966473E-02 
2054	 0.099408529221521 
2055	 9.94352478559219E-02 
2056	 9.94690037570809E-02 
2057	 9.95126056707064E-02 
2058	 9.95800223666596E-02 
2059	 9.96173939459477E-02 
2060	 9.96437619013216E-02 
2061	 0.099680094825165 
2062	 9.97145457848499E-02 
2063	 9.97389849750036E-02 
2064	 9.97712263544992E-02 
2065	 0.099789671435942 
2066	 9.97683049519441E-02 
2067	 9.97804868907335E-02 
2068	 9.98145104145339E-02 
2069	 9.98395405459235E-02 
2070	 9.98698499670076E-02 
2071	 9.99183342255311E-02 
2072	 9.99475397047271E-02 
2073	 9.99593924396685E-02 
2074	 0.099993545228172 
2075	 0.100034328878845 
2076	 0.100073243331628 
2077	 0.100124097375734 
2078	 0.100167556725466 
2079	 0.100206778253611 
2080	 0.100244447817861 
2081	 0.100279558614426 
2082	 0.100317812552635 
2083	 0.100363937153473 
2084	 0.100396140060171 
2085	 0.100420612763718 
2086	 0.10043693449872 
2087	 0.100466525035325 
2088	 0.100487323660767 
2089	 0.100517272618747 
2090	 0.100564700550703 
2091	 0.100604479176058 
2092	 0.100648993951947 
2093	 0.10067371729505 
2094	 0.100679445218632 
2095	 0.10070545727424 
2096	 0.100723838675542 
2097	 0.100747410397918 
2098	 0.100797975255608 
2099	 0.100838970726495 
2100	 0.100867991501425 
2101	 0.100875301768679 
2102	 0.100908829775312 
2103	 0.100939716462204 
2104	 0.10099150466988 
2105	 0.101077834809282 
2106	 0.101130473548551 
2107	 0.101176679074355 
2108	 0.101226858223572 
2109	 0.101256764042861 
2110	 0.101299825503678 
2111	 0.101354425437915 
2112	 0.101411835850445 
2113	 0.101472876473075 
2114	 0.101538525460525 
2115	 0.10158675692993 
2116	 0.101633872575979 
2117	 0.101680257750518 
2118	 0.101716155407177 
2119	 0.10174676568849 
2120	 0.101776974252451 
2121	 0.101809677391203 
2122	 0.101814382103005 
2123	 0.101855854109431 
2124	 0.10194483638238 
2125	 0.101993226708662 
2126	 0.10204363385851 
2127	 0.10207788394203 
2128	 0.102066667506767 
2129	 0.102079580781505 
2130	 0.102094116234588 
2131	 0.102124548568066 
2132	 0.102147845172786 
2133	 0.102187963093635 
2134	 0.10219942289275 
2135	 0.102193074178877 
2136	 0.102194613995517 
2137	 0.102194907794468 
2138	 0.102179405094574 
2139	 0.102159724488981 
2140	 0.10213624227248 
2141	 0.102087060332908 
2142	 0.102053128937422 
2143	 0.102037241176186 
2144	 0.102004621513079 
2145	 0.101957005193022 
2146	 0.101921075864853 
2147	 0.101881628814489 
2148	 0.101849892206081 
2149	 0.101808371408784 
2150	 0.101775249708114 
2151	 0.101730211225159 
2152	 0.101665364900588 
2153	 0.101617721896494 
2154	 0.101585382434164 
2155	 0.10153330505029 
2156	 0.101467854616431 
2157	 0.101417505732475 
2158	 0.101378415705868 
2159	 0.10131546407427 
2160	 0.101256511980899 
2161	 0.101183108513571 
2162	 0.101063854015486 
2163	 0.100971025515423 
2164	 0.100878287565459 
2165	 0.100810996116132 
2166	 0.100743385494523 
2167	 0.100694078557888 
2168	 0.100625753301758 
2169	 0.100560212752513 
2170	 0.100484966754864 
2171	 0.100390829279434 
2172	 0.100313607036591 
2173	 0.100246087679867 
2174	 0.100166948853414 
2175	 0.100080528988563 
2176	 0.100009076955477 
2177	 9.99364476599854E-02 
2178	 9.98680987771569E-02 
2179	 9.98240396692406E-02 
2180	 9.97618068355142E-02 
2181	 9.96741443997193E-02 
2182	 0.099606962312381 
2183	 9.95354313183286E-02 
2184	 9.94916699166546E-02 
2185	 9.94335742154947E-02 
2186	 9.93836156268728E-02 
2187	 9.93372201702163E-02 
2188	 9.92823251529151E-02 
2189	 9.92431500948707E-02 
2190	 9.92402117660002E-02 
2191	 9.91910950786982E-02 
2192	 9.91201095881408E-02 
2193	 9.90558023959975E-02 
2194	 9.89597497692415E-02 
2195	 9.88918612896379E-02 
2196	 0.09883567326569 
2197	 9.87919698661102E-02 
2198	 9.87704482798529E-02 
2199	 0.098737615682056 
2200	 9.87138407291636E-02 
2201	 9.86862846233655E-02 
2202	 9.86406466776309E-02 
2203	 9.86074810005737E-02 
2204	 0.098592097811175 
2205	 9.85929477440626E-02 
2206	 9.85875462475725E-02 
2207	 9.85943692228656E-02 
2208	 0.098596740887671 
2209	 9.85969246486424E-02 
2210	 9.85947018699124E-02 
2211	 9.86011476069444E-02 
2212	 9.85952234962443E-02 
2213	 9.85759689209624E-02 
2214	 9.85623417647444E-02 
2215	 9.85451270686947E-02 
2216	 9.85307669560495E-02 
2217	 9.85165319088563E-02 
2218	 9.85036702506141E-02 
2219	 0.098487071121026 
2220	 9.84828223862033E-02 
2221	 9.84854170832177E-02 
2222	 9.84921787294394E-02 
2223	 9.85116809968639E-02 
2224	 9.85133959351771E-02 
2225	 9.85204500830918E-02 
2226	 9.85160642360689E-02 
2227	 9.85365607108083E-02 
2228	 9.85729850041227E-02 
2229	 9.85986901719753E-02 
2230	 9.86372483503605E-02 
2231	 9.86591965694468E-02 
2232	 9.86700286263004E-02 
2233	 9.86758030818422E-02 
2234	 9.86693932328753E-02 
2235	 9.86752364614521E-02 
2236	 9.86796947124197E-02 
2237	 9.86867139149268E-02 
2238	 0.09870741319434 
2239	 9.87155518153497E-02 
2240	 9.87011888435509E-02 
2241	 9.87101693660796E-02 
2242	 9.87345512795188E-02 
2243	 9.87522388781389E-02 
2244	 9.87846537352658E-02 
2245	 9.88054138203614E-02 
2246	 9.88297200145042E-02 
2247	 9.88479213258032E-02 
2248	 9.88698000539621E-02 
2249	 0.098904895795667 
2250	 9.89204563359814E-02 
2251	 0.098912740292805 
2252	 9.89394076158441E-02 
2253	 9.89738592369617E-02 
2254	 9.90122787817872E-02 
2255	 9.90818745140262E-02 
2256	 9.91162889011794E-02 
2257	 9.91343354809582E-02 
2258	 9.91582912135967E-02 
2259	 9.91706057790977E-02 
2260	 9.91860343416223E-02 
2261	 9.92166582919173E-02 
2262	 9.92194268087978E-02 
2263	 9.91743892303831E-02 
2264	 9.91852515420664E-02 
2265	 9.92193891631843E-02 
2266	 9.92392354416974E-02 
2267	 9.93047357406074E-02 
2268	 9.93412967447338E-02 
2269	 9.93628155334353E-02 
2270	 9.93374768550079E-02 
2271	 9.93401890563355E-02 
2272	 9.93674573569124E-02 
2273	 9.93773889958853E-02 
2274	 9.94218341134118E-02 
2275	 9.94500441516474E-02 
2276	 9.94801992699793E-02 
2277	 0.099495609825195 
2278	 9.95024790041195E-02 
2279	 9.95181477877772E-02 
2280	 9.95255174732016E-02 
2281	 0.099548299116629 
2282	 9.95958444135912E-02 
2283	 9.96064323424077E-02 
2284	 0.099596768968702 
2285	 9.96075197382931E-02 
2286	 9.95964785561411E-02 
2287	 9.96184211371084E-02 
2288	 9.96824809995935E-02 
2289	 9.97182643249565E-02 
2290	 9.97558548535599E-02 
2291	 9.97831292537429E-02 
2292	 0.099791380045361 
2293	 9.98091113916205E-02 
2294	 9.98163864164832E-02 
2295	 9.98455730592444E-02 
2296	 9.98834586716167E-02 
2297	 9.99430627508605E-02 
2298	 0.100005782815536 
2299	 0.100022649414589 
2300	 0.100055945349952 
2301	 0.100086058368284 
2302	 0.100108832070575 
2303	 0.100159077945974 
2304	 0.100185202122417 
2305	 0.100182562604741 
2306	 0.100169944196624 
2307	 0.10012871298937 
2308	 0.100125982092555 
2309	 0.100123583100381 
2310	 0.100132627064107 
2311	 0.10017341137382 
2312	 0.100182215646539 
2313	 0.100162858524201 
2314	 0.100167652818651 
2315	 0.100192741266605 
2316	 0.100197756839479 
2317	 0.100185561825151 
2318	 0.10021357648254 
2319	 0.100247320824871 
2320	 0.100284418409389 
2321	 0.100366020415856 
2322	 0.100415212156696 
2323	 0.100429295128385 
2324	 0.10046783151753 
2325	 0.100517644592519 
2326	 0.100569008043891 
2327	 0.100634108995249 
2328	 0.100685098519178 
2329	 0.100738018676899 
2330	 0.100808536295372 
2331	 0.100849637626266 
2332	 0.100864148469312 
2333	 0.100847982119849 
2334	 0.100824081454414 
2335	 0.100853605144598 
2336	 0.100883023624115 
2337	 0.100917722022754 
2338	 0.100993292278581 
2339	 0.101057883756279 
2340	 0.101112078845571 
2341	 0.101180295413516 
2342	 0.101226969980046 
2343	 0.10124631246546 
2344	 0.101256893039026 
2345	 0.101253574750715 
2346	 0.101217765614902 
2347	 0.101242167406765 
2348	 0.101284455005072 
2349	 0.101313843074621 
2350	 0.101402733321753 
2351	 0.101435673121657 
2352	 0.101409728017108 
2353	 0.101404612607754 
2354	 0.101399753202588 
2355	 0.101384359300551 
2356	 0.101336915064159 
2357	 0.101343102227345 
2358	 0.101392196681466 
2359	 0.101414031997574 
2360	 0.101454018246946 
2361	 0.101481730836524 
2362	 0.101493984860649 
2363	 0.101481629054052 
2364	 0.101442806293654 
2365	 0.101429224757778 
2366	 0.101395528684474 
2367	 0.101385175163307 
2368	 0.101411074260146 
2369	 0.101448144818405 
2370	 0.101507294862252 
2371	 0.10152658602768 
2372	 0.10157388974893 
2373	 0.101646644234389 
2374	 0.101658400871473 
2375	 0.101666372848347 
2376	 0.101710683708442 
2377	 0.101691318953031 
2378	 0.101660875876731 
2379	 0.101682809779522 
2380	 0.101652735953255 
2381	 0.10161254288065 
2382	 0.101592662549794 
2383	 0.101538526534053 
2384	 0.10146267047594 
2385	 0.101402398138753 
2386	 0.101347276772932 
2387	 0.10131418636588 
2388	 0.101433891832879 
2389	 0.101546995383844 
2390	 0.101553956884939 
2391	 0.101646461431487 
2392	 0.10165868225642 
2393	 0.101602866659067 
2394	 0.101679506615651 
2395	 0.10172729058133 
2396	 0.101757974071622 
2397	 0.101788069731219 
2398	 0.101727536267898 
2399	 0.101650984872166 
2400	 0.101546459737828 
2401	 0.101447824680735 
2402	 0.101486900902726 
2403	 0.101544404034785 
2404	 0.101545775474034 
2405	 0.101582333685591 
2406	 0.101574261427889 
2407	 0.101554523585665 
2408	 0.10160379497966 
2409	 0.101630779850769 
2410	 0.101592719552593 
2411	 0.101494468758208 
2412	 0.10142594131877 
2413	 0.101383219093798 
2414	 0.101321489543834 
2415	 0.10131216297141 
2416	 0.101312184715162 
2417	 0.101275691034173 
2418	 0.101315366351175 
2419	 0.101455943382243 
2420	 0.101524604489216 
2421	 0.101681960692438 
2422	 0.10164249537997 
2423	 0.101430888610685 
2424	 0.101299000239157 
2425	 0.101024853415193 
2426	 0.100889134776215 
2427	 0.100848747448722 
2428	 0.100801890373443 
2429	 0.100835368577088 
2430	 0.100813813569826 
2431	 0.100833526530233 
2432	 0.100831809814995 
2433	 0.100778637954153 
2434	 0.100744395125933 
2435	 0.100612879359937 
2436	 0.100588874835742 
2437	 0.100700886038085 
2438	 0.100692182944932 
2439	 0.100704446062535 
2440	 0.100715948770052 
2441	 0.100586803242153 
2442	 0.100569104655098 
2443	 0.100727841426848 
2444	 0.1007548664967 
2445	 0.100710147272125 
2446	 0.100707949720307 
2447	 0.100626153621717 
2448	 0.100568806135003 
2449	 0.10060100270085 
2450	 0.100555097580008 
2451	 0.100333037947743 
2452	 0.100308899515584 
2453	 0.100516158165038 
2454	 0.100545921208568 
2455	 0.100625124523033 
2456	 0.100678936987762 
2457	 0.100483523713427 
2458	 0.100424022806987 
2459	 0.100506885468234 
2460	 0.100523603969632 
2461	 0.100499479181854 
2462	 0.100503120266029 
2463	 0.100559779623309 
2464	 0.100489627171128 
2465	 0.10040252997213 
2466	 0.100308966632611 
2467	 0.10003421490728 
2468	 9.99702216336899E-02 
2469	 9.99912289391757E-02 
2470	 0.100030953758733 
2471	 0.100303515418984 
2472	 0.100515672153333 
2473	 0.100610305396048 
2474	 0.100571008408182 
2475	 0.10024459301028 
2476	 9.98686617150061E-02 
2477	 9.97509372391898E-02 
2478	 9.97928727381378E-02 
2479	 9.98638640575291E-02 
2480	 9.99717779068729E-02 
2481	 9.99950254575911E-02 
2482	 9.99997143779431E-02 
2483	 9.99723405788818E-02 
2484	 9.99297587576333E-02 
2485	 9.99476694247384E-02 
2486	 9.99044191461045E-02 
2487	 0.100013703412254 
2488	 0.100271358957078 
2489	 0.10021365619382 
2490	 0.100011961436777 
2491	 9.99275768112771E-02 
2492	 0.099778005547458 
2493	 9.96508149929261E-02 
2494	 9.98510122648671E-02 
2495	 0.100141869991103 
2496	 0.10006988861366 
2497	 0.100109240902286 
2498	 0.10014110961355 
2499	 9.99744467622616E-02 
2500	 0.100092482588426 
