Wavelength	LMW_1000003.asd
350	 3.40017523108833E-02 
351	 4.00481833516854E-02 
352	 4.42458093471667E-02 
353	 0.04043282714737 
354	 3.91811732972655E-02 
355	 3.96388421370064E-02 
356	 3.99475213217496E-02 
357	 3.92331665119788E-02 
358	 4.25098785195394E-02 
359	 4.15979692473905E-02 
360	 0.038769822182523 
361	 4.19727484775008E-02 
362	 4.11941205050339E-02 
363	 4.00377453202284E-02 
364	 4.04382815722049E-02 
365	 3.88551644093799E-02 
366	 4.07318835747967E-02 
367	 4.19449469982109E-02 
368	 3.86446642659828E-02 
369	 3.83419528463691E-02 
370	 3.87563544680771E-02 
371	 3.93708031439456E-02 
372	 4.07636958688561E-02 
373	 3.97058065412559E-02 
374	 3.96697801539596E-02 
375	 4.26005614048205E-02 
376	 4.68092659055534E-02 
377	 4.60105031814038E-02 
378	 4.32474685829625E-02 
379	 4.30432176442458E-02 
380	 4.24720674350968E-02 
381	 0.041104438577787 
382	 4.14865409660527E-02 
383	 4.71899617917592E-02 
384	 4.64353596302294E-02 
385	 4.39860509781328E-02 
386	 4.40768860259763E-02 
387	 4.53415412717975E-02 
388	 4.69147236846989E-02 
389	 4.72221448516546E-02 
390	 4.55324128845947E-02 
391	 4.54615107749404E-02 
392	 4.60170905200549E-02 
393	 0.046922668053812 
394	 4.85756879050125E-02 
395	 4.91097867370189E-02 
396	 4.81863945805114E-02 
397	 4.69611169920621E-02 
398	 4.94627202649167E-02 
399	 4.98153477197471E-02 
400	 4.90919288359975E-02 
401	 5.00530638920029E-02 
402	 4.91081422728776E-02 
403	 4.92802576195243E-02 
404	 5.05416518394601E-02 
405	 4.96152672378336E-02 
406	 5.01580394157485E-02 
407	 5.09629855733016E-02 
408	 5.07301188147807E-02 
409	 5.02447411165442E-02 
410	 5.07028462179415E-02 
411	 5.08790414517685E-02 
412	 0.049192065695907 
413	 5.03946897377889E-02 
414	 5.13779323314127E-02 
415	 5.09546697185418E-02 
416	 5.12433061328336E-02 
417	 5.13766689357904E-02 
418	 5.14796150458106E-02 
419	 5.16777629382782E-02 
420	 5.13071062278292E-02 
421	 5.11779638964824E-02 
422	 5.15260000144265E-02 
423	 0.052076886416693 
424	 5.14070069741426E-02 
425	 5.09820372320158E-02 
426	 5.14412635004749E-02 
427	 0.051287180164554 
428	 5.12751496749807E-02 
429	 5.12326281074945E-02 
430	 5.08406721312501E-02 
431	 5.04549775124108E-02 
432	 5.01129734109912E-02 
433	 5.00101923068994E-02 
434	 5.04731038514761E-02 
435	 5.08377956375978E-02 
436	 5.08775230831949E-02 
437	 5.05904577719089E-02 
438	 5.01998894985469E-02 
439	 5.01973246734624E-02 
440	 5.03528752744329E-02 
441	 5.01803203243253E-02 
442	 5.04481203909278E-02 
443	 0.050559889052773 
444	 5.03138917133368E-02 
445	 5.02805586410114E-02 
446	 5.03117361418218E-02 
447	 0.050402296433351 
448	 5.05252686893743E-02 
449	 5.04074928975789E-02 
450	 0.050585041349179 
451	 5.09851792542469E-02 
452	 5.10194813618946E-02 
453	 5.07127945532543E-02 
454	 5.04622342641637E-02 
455	 5.05313404973723E-02 
456	 5.07555677518339E-02 
457	 5.06055872980246E-02 
458	 5.03204075776132E-02 
459	 5.04249067399833E-02 
460	 5.06185531191448E-02 
461	 5.04225008141842E-02 
462	 4.99909562587713E-02 
463	 0.050370724376601 
464	 5.05913785176051E-02 
465	 5.05744743624136E-02 
466	 5.05061823607741E-02 
467	 5.05807676194134E-02 
468	 5.05790045522479E-02 
469	 5.03842956912542E-02 
470	 5.00133730045623E-02 
471	 5.00789338117483E-02 
472	 5.01529941994465E-02 
473	 4.99612097789843E-02 
474	 5.00386249056184E-02 
475	 5.00072424253297E-02 
476	 4.98828801243971E-02 
477	 4.98292338410861E-02 
478	 4.97460008775267E-02 
479	 4.97403880479337E-02 
480	 4.98471885942431E-02 
481	 4.99843478832218E-02 
482	 0.050077652933315 
483	 0.050089120349422 
484	 5.00291381649912E-02 
485	 5.00264538203441E-02 
486	 4.99884393209872E-02 
487	 4.99135959557532E-02 
488	 0.049884321987646 
489	 5.00424262264758E-02 
490	 5.00672122067708E-02 
491	 4.98275261399962E-02 
492	 4.98561828791098E-02 
493	 4.97931607445111E-02 
494	 4.96838229783012E-02 
495	 4.97240711738107E-02 
496	 4.97541789612176E-02 
497	 4.96745238036479E-02 
498	 4.95704202076387E-02 
499	 4.98008617504251E-02 
500	 4.97748568035459E-02 
501	 4.96931154194274E-02 
502	 4.98431854383347E-02 
503	 4.97984162521541E-02 
504	 4.97066247511027E-02 
505	 4.96649840963765E-02 
506	 4.97005952513015E-02 
507	 4.97633452781938E-02 
508	 4.97523778069746E-02 
509	 0.049643133490634 
510	 4.96243461758577E-02 
511	 4.96487478848692E-02 
512	 4.96472662770571E-02 
513	 4.95655203327358E-02 
514	 4.96209816166573E-02 
515	 4.96865863873353E-02 
516	 4.96822598583774E-02 
517	 4.96708015451733E-02 
518	 4.96857390636409E-02 
519	 4.96802184944205E-02 
520	 0.049619919414222 
521	 4.96918687602724E-02 
522	 4.97486175630225E-02 
523	 4.97491366905579E-02 
524	 4.97813199004967E-02 
525	 4.97777444107229E-02 
526	 4.97709834569635E-02 
527	 0.049778911534024 
528	 4.96823806178549E-02 
529	 4.97278185325553E-02 
530	 4.98526628338622E-02 
531	 4.98095943552104E-02 
532	 4.97498124822084E-02 
533	 4.97675132457232E-02 
534	 4.98644725612383E-02 
535	 4.98731858341009E-02 
536	 4.98572748525657E-02 
537	 4.98650590730711E-02 
538	 4.99293507675274E-02 
539	 5.00019654971129E-02 
540	 5.00017361924976E-02 
541	 4.99732559910383E-02 
542	 5.01295638545002E-02 
543	 5.02132181123046E-02 
544	 5.02244051098494E-02 
545	 5.02356867329248E-02 
546	 5.02997373728013E-02 
547	 5.03642948656885E-02 
548	 5.04211097145047E-02 
549	 5.04987161429438E-02 
550	 5.05236117882079E-02 
551	 5.05767701362471E-02 
552	 5.07129777499034E-02 
553	 5.08602978852188E-02 
554	 5.09245043857545E-02 
555	 5.09724991566537E-02 
556	 5.11347564334488E-02 
557	 5.12489932502916E-02 
558	 5.13258663246398E-02 
559	 0.051418196814476 
560	 5.16209069273674E-02 
561	 0.051827134794141 
562	 5.19934967808029E-02 
563	 5.21269375908716E-02 
564	 5.23791839149494E-02 
565	 5.25883959685919E-02 
566	 5.27492480795022E-02 
567	 5.30470977902597E-02 
568	 5.33315861519569E-02 
569	 5.36112616817965E-02 
570	 5.39153106741882E-02 
571	 5.42098346485286E-02 
572	 5.45374176194811E-02 
573	 5.49097892956317E-02 
574	 5.53056497387982E-02 
575	 5.55933708434465E-02 
576	 5.59225217152794E-02 
577	 5.63663488683182E-02 
578	 0.056720667432101 
579	 0.05718311484106 
580	 5.77327742239414E-02 
581	 5.82695185595977E-02 
582	 5.88590141208224E-02 
583	 5.94057757615746E-02 
584	 5.98914196766075E-02 
585	 6.04248012999453E-02 
586	 6.10028399774425E-02 
587	 6.15644171563187E-02 
588	 6.20687075422446E-02 
589	 0.062655815080849 
590	 6.32547462149471E-02 
591	 6.38379960796213E-02 
592	 6.44273080905615E-02 
593	 6.50264717436944E-02 
594	 6.56408647203106E-02 
595	 6.62720671144645E-02 
596	 6.69149582071937E-02 
597	 6.75657931005561E-02 
598	 6.82076466560465E-02 
599	 6.88273588844897E-02 
600	 6.94914472426495E-02 
601	 0.070122974645874 
602	 7.06842488088344E-02 
603	 7.12403156915004E-02 
604	 7.17854451750201E-02 
605	 0.072319249234238 
606	 7.28493117634655E-02 
607	 7.34304048159559E-02 
608	 7.39701979550912E-02 
609	 7.44420813795812E-02 
610	 7.49051321594735E-02 
611	 7.53579684580536E-02 
612	 7.58241426713871E-02 
613	 0.076299489547595 
614	 7.66875482948375E-02 
615	 7.70035845649415E-02 
616	 7.72908791704296E-02 
617	 7.76063700162778E-02 
618	 7.79422144378747E-02 
619	 7.82212804645451E-02 
620	 7.84319784223602E-02 
621	 7.87307109023615E-02 
622	 0.078983085569624 
623	 0.079185515710167 
624	 7.93882106108119E-02 
625	 7.96256739636957E-02 
626	 7.98476369755043E-02 
627	 8.00433674706631E-02 
628	 8.02629478634065E-02 
629	 8.04534383381033E-02 
630	 8.06434583275953E-02 
631	 8.08565233248885E-02 
632	 8.10013316573541E-02 
633	 8.11727066494521E-02 
634	 8.13766935457724E-02 
635	 8.15453144307099E-02 
636	 8.16851797672545E-02 
637	 8.18334801517366E-02 
638	 8.20110695024778E-02 
639	 8.21880263824763E-02 
640	 8.23565043965581E-02 
641	 8.25179974692951E-02 
642	 8.26841352122442E-02 
643	 0.082900387799544 
644	 8.30825080005492E-02 
645	 8.32155524927464E-02 
646	 0.083400822260497 
647	 8.36083696786824E-02 
648	 8.38014928737653E-02 
649	 8.39680876437449E-02 
650	 8.42198935751398E-02 
651	 8.44387933282262E-02 
652	 8.46168613512749E-02 
653	 0.084843950354165 
654	 0.085079110309994 
655	 8.52992095241395E-02 
656	 8.54984566457449E-02 
657	 8.56991739656746E-02 
658	 8.59525246365561E-02 
659	 8.62499447636869E-02 
660	 0.086544187083875 
661	 8.67593719577141E-02 
662	 8.69931628025245E-02 
663	 8.72870641969955E-02 
664	 8.75774184713012E-02 
665	 8.78609859082131E-02 
666	 8.81434205314956E-02 
667	 8.84331257188929E-02 
668	 8.87231065746589E-02 
669	 8.90623097966009E-02 
670	 8.94171249784261E-02 
671	 8.96962266166976E-02 
672	 9.00615281255072E-02 
673	 9.04533370244006E-02 
674	 9.08123679956261E-02 
675	 9.11772810331333E-02 
676	 9.15114623448867E-02 
677	 9.18508465543294E-02 
678	 9.22505865443968E-02 
679	 0.092652421566476 
680	 9.30889084402212E-02 
681	 0.093546043981803 
682	 9.39412467946862E-02 
683	 9.43505954790526E-02 
684	 9.48001426722105E-02 
685	 9.52884394852096E-02 
686	 9.57717757104196E-02 
687	 9.62391687295341E-02 
688	 9.67039911229548E-02 
689	 9.71934921604663E-02 
690	 9.76851342417825E-02 
691	 9.81693930886487E-02 
692	 9.86520020323977E-02 
693	 0.099166268132958 
694	 0.099688411959792 
695	 0.100203428606553 
696	 0.100710730134034 
697	 0.101265113043392 
698	 0.101847018644525 
699	 0.102429839863902 
700	 0.102988019870795 
701	 0.103577202491506 
702	 0.104147749909798 
703	 0.104669218801972 
704	 0.105224942299995 
705	 0.105786482831961 
706	 0.106363989770493 
707	 0.106977977342536 
708	 0.107585068186422 
709	 0.108169522976287 
710	 0.108734897082337 
711	 0.109309343981436 
712	 0.109897763597322 
713	 0.110482145072032 
714	 0.111048870773057 
715	 0.111624978059344 
716	 0.112195617558636 
717	 0.112756459076397 
718	 0.113309255376572 
719	 0.113838828562689 
720	 0.114339381032234 
721	 0.114824935569611 
722	 0.115344942584911 
723	 0.115860434067837 
724	 0.116380586106831 
725	 0.116909171393115 
726	 0.117343809511817 
727	 0.11775033543992 
728	 0.118165725777525 
729	 0.118587655164131 
730	 0.118958550863591 
731	 0.119320388718393 
732	 0.119702593491205 
733	 0.120066620019445 
734	 0.120362668350886 
735	 0.120608408123487 
736	 0.120847650167021 
737	 0.121069048194747 
738	 0.121308318845272 
739	 0.121530090563067 
740	 0.121626505323753 
741	 0.121786106935086 
742	 0.121923216623123 
743	 0.121958021242315 
744	 0.121991120562525 
745	 0.121988193934587 
746	 0.121974904202228 
747	 0.121989454531632 
748	 0.121966435379291 
749	 0.121863213581246 
750	 0.121713529046364 
751	 0.121635619428594 
752	 0.12153510573669 
753	 0.121404290506033 
754	 0.12124920313059 
755	 0.121057909215917 
756	 0.120819484879137 
757	 0.120567838124374 
758	 0.120349771581272 
759	 0.120127315987387 
760	 0.119840367013061 
761	 0.119502938117723 
762	 0.11921993467521 
763	 0.11892506678396 
764	 0.118614424953556 
765	 0.118295959078084 
766	 0.117974259007488 
767	 0.117608709275806 
768	 0.117214549712729 
769	 0.116832584443451 
770	 0.116460083688905 
771	 0.116086226219595 
772	 0.115692668887615 
773	 0.115256538688204 
774	 0.114889833228205 
775	 0.114520000671206 
776	 0.114090575655892 
777	 0.113713346520391 
778	 0.113311022575164 
779	 0.112886965672508 
780	 0.112480367992043 
781	 0.112104984486719 
782	 0.111731565817553 
783	 0.11133752678297 
784	 0.110915604184086 
785	 0.11052997827632 
786	 0.110133650044558 
787	 0.10970379934279 
788	 0.109328448941304 
789	 0.108962772863348 
790	 0.108587619908668 
791	 0.108196285446058 
792	 0.107799992062132 
793	 0.107425389915855 
794	 0.107073914163881 
795	 0.106724378113625 
796	 0.106347470724966 
797	 0.105981705647255 
798	 0.105643960068384 
799	 0.10529096040798 
800	 0.104947027545753 
801	 0.104615642660382 
802	 0.104291811118319 
803	 0.103964921903916 
804	 0.10362922958099 
805	 0.103304901552562 
806	 0.103019109891382 
807	 0.102715036061715 
808	 0.102402936764684 
809	 0.102107544421103 
810	 0.101858314419042 
811	 0.101582510192623 
812	 0.101293512408122 
813	 0.101018934990311 
814	 0.100768476442018 
815	 0.100507739609898 
816	 0.100254160988508 
817	 0.100031905656726 
818	 9.97719036915647E-02 
819	 9.95348775912122E-02 
820	 9.93332953633007E-02 
821	 9.91310202562252E-02 
822	 0.098906139490915 
823	 9.86756993127819E-02 
824	 9.84669632192276E-02 
825	 9.83125480974456E-02 
826	 9.81331244423959E-02 
827	 9.79182570324117E-02 
828	 9.76951749954123E-02 
829	 9.75389714865575E-02 
830	 9.73764180959504E-02 
831	 9.72105208812483E-02 
832	 0.097081720327167 
833	 9.70192784488699E-02 
834	 9.68743157908552E-02 
835	 9.66634776410355E-02 
836	 9.65563867894611E-02 
837	 9.64364301881677E-02 
838	 9.63230453757304E-02 
839	 9.62209642264894E-02 
840	 9.60740696992139E-02 
841	 9.59670949444468E-02 
842	 0.095881328020848 
843	 9.57827185865361E-02 
844	 9.56835217767479E-02 
845	 0.095625576518771 
846	 9.55643963089835E-02 
847	 9.54462855512065E-02 
848	 9.54152211816962E-02 
849	 9.53554951762528E-02 
850	 9.52616733405887E-02 
851	 9.52263798851225E-02 
852	 9.51860394659947E-02 
853	 9.51591177000492E-02 
854	 9.51457897214289E-02 
855	 9.51060566342347E-02 
856	 9.50896826408716E-02 
857	 9.51084581522457E-02 
858	 9.51359431590355E-02 
859	 9.50694043273532E-02 
860	 9.50398038326383E-02 
861	 9.50536160834118E-02 
862	 9.50757493233654E-02 
863	 9.51078103621278E-02 
864	 9.51591649981748E-02 
865	 9.52083043642224E-02 
866	 9.52216758887093E-02 
867	 9.52181540958081E-02 
868	 9.52397233906328E-02 
869	 0.095299233045355 
870	 9.53763808088892E-02 
871	 9.54578072603675E-02 
872	 9.55581457016607E-02 
873	 9.56573105624924E-02 
874	 9.56745065607896E-02 
875	 9.57532728414202E-02 
876	 9.58230316758407E-02 
877	 9.58426611066368E-02 
878	 9.59949212589692E-02 
879	 9.61488303992502E-02 
880	 9.62655600282048E-02 
881	 9.63580545627633E-02 
882	 9.65051297280299E-02 
883	 9.66468841340473E-02 
884	 0.096774121308817 
885	 9.69074950091804E-02 
886	 9.70450939869027E-02 
887	 9.72034187728231E-02 
888	 9.73917304517299E-02 
889	 9.76049479414516E-02 
890	 9.77821576811198E-02 
891	 0.097933872345224 
892	 9.80933876457906E-02 
893	 9.83008937613446E-02 
894	 9.84526582751387E-02 
895	 9.86129204753846E-02 
896	 9.88349096223701E-02 
897	 9.90919733673095E-02 
898	 9.92988648345841E-02 
899	 9.95176427223718E-02 
900	 9.97952216769345E-02 
901	 0.100028616044792 
902	 0.100224073177087 
903	 0.100466088476981 
904	 0.100801631037442 
905	 0.101032430207234 
906	 0.101284914886406 
907	 0.101577496097255 
908	 0.101885679243814 
909	 0.102277659180507 
910	 0.102586238064851 
911	 0.102837451051229 
912	 0.103172649632384 
913	 0.103514737292472 
914	 0.103856592450197 
915	 0.104182349630002 
916	 0.10448058241629 
917	 0.104882606279761 
918	 0.105260840871457 
919	 0.105582237225849 
920	 0.105955964346686 
921	 0.10636156137987 
922	 0.106791088581489 
923	 0.107211829058948 
924	 0.10756585529447 
925	 0.108004428209876 
926	 0.108477290019199 
927	 0.108912804311594 
928	 0.109286314595216 
929	 0.109734435614612 
930	 0.110245550732882 
931	 0.110757969909109 
932	 0.11119555052579 
933	 0.111719413337424 
934	 0.112266681824902 
935	 0.112759235416469 
936	 0.113279312731361 
937	 0.113828712290106 
938	 0.114408669158185 
939	 0.115002013513845 
940	 0.115538922593899 
941	 0.116132794965216 
942	 0.116775204357087 
943	 0.117406309730623 
944	 0.117988331922976 
945	 0.118508121638459 
946	 0.119061657549155 
947	 0.119732827234738 
948	 0.120328440788337 
949	 0.121023626392784 
950	 0.121742887062238 
951	 0.12235324610635 
952	 0.123138888840752 
953	 0.123878462669501 
954	 0.124564776098724 
955	 0.125304346827336 
956	 0.126035051819722 
957	 0.126800768912581 
958	 0.127548773239012 
959	 0.128209706060138 
960	 0.12896467265745 
961	 0.129848428616946 
962	 0.1307943203001 
963	 0.131671245375553 
964	 0.132357048912728 
965	 0.133194690811664 
966	 0.134123027443519 
967	 0.134873407437466 
968	 0.135816149121348 
969	 0.136763400828341 
970	 0.13760297830293 
971	 0.13837057778407 
972	 0.13945602269739 
973	 0.140473480491477 
974	 0.141333986052649 
975	 0.142208958461897 
976	 0.143227088070623 
977	 0.1442064546147 
978	 0.145117828935775 
979	 0.146048069432974 
980	 0.147030559030797 
981	 0.148001921717881 
982	 0.148982801068909 
983	 0.150045447829545 
984	 0.151214148293106 
985	 0.152293787002049 
986	 0.153268476226986 
987	 0.154247924493457 
988	 0.155321248714388 
989	 0.156482873046669 
990	 0.15763868434995 
991	 0.158694352927579 
992	 0.159742438604737 
993	 0.160821111034544 
994	 0.162008552096001 
995	 0.163278629496737 
996	 0.164162651436929 
997	 0.165204203031478 
998	 0.16643048362282 
999	 0.167656591448764 
1000	 0.168822940478505 
1001	 0.166683918389128 
1002	 0.167752387763235 
1003	 0.168818990638845 
1004	 0.169896596493079 
1005	 0.171022877724441 
1006	 0.172091204927816 
1007	 0.173124693113883 
1008	 0.174182378423803 
1009	 0.175216191012006 
1010	 0.176237709884564 
1011	 0.177226598423041 
1012	 0.178203028157487 
1013	 0.179224764270139 
1014	 0.180232022678519 
1015	 0.181280496250107 
1016	 0.182357005934946 
1017	 0.183385079373149 
1018	 0.184366134199479 
1019	 0.185364475892141 
1020	 0.186385127223448 
1021	 0.187362678478286 
1022	 0.188346479350958 
1023	 0.189386465129389 
1024	 0.190367379321161 
1025	 0.191299794243088 
1026	 0.192230447669672 
1027	 0.193108406192872 
1028	 0.194000533974201 
1029	 0.194989149678878 
1030	 0.196049619267368 
1031	 0.197025382996627 
1032	 0.19799578605854 
1033	 0.198926729041613 
1034	 0.199856571346527 
1035	 0.200720555450775 
1036	 0.201601822864656 
1037	 0.202520855524832 
1038	 0.203366693695766 
1039	 0.204202961541539 
1040	 0.205110647393677 
1041	 0.206041575992236 
1042	 0.206976601081246 
1043	 0.207877863185006 
1044	 0.208786162988272 
1045	 0.209670977937854 
1046	 0.210597692437647 
1047	 0.211502957535819 
1048	 0.212416283091921 
1049	 0.213322109366937 
1050	 0.21417896580352 
1051	 0.21507559813444 
1052	 0.215949204807321 
1053	 0.216827133203992 
1054	 0.217720219376601 
1055	 0.218589232781049 
1056	 0.219514161013824 
1057	 0.220406646472839 
1058	 0.221285279241725 
1059	 0.222167626128655 
1060	 0.223050134857138 
1061	 0.223902212494055 
1062	 0.224739910583702 
1063	 0.225625167733849 
1064	 0.226492164478241 
1065	 0.227335546336372 
1066	 0.228233190604242 
1067	 0.229119563268236 
1068	 0.230000783418133 
1069	 0.230909091288022 
1070	 0.231789275593333 
1071	 0.2326316312185 
1072	 0.233516147452635 
1073	 0.234417470466167 
1074	 0.23529810702836 
1075	 0.23617111335637 
1076	 0.237081021907608 
1077	 0.237967802606238 
1078	 0.238833263228912 
1079	 0.239765810237594 
1080	 0.240696122957521 
1081	 0.241629236146929 
1082	 0.2425804985494 
1083	 0.24350227565068 
1084	 0.244422396702262 
1085	 0.245318784693577 
1086	 0.246169069453223 
1087	 0.247038478673641 
1088	 0.247874928866774 
1089	 0.248768168103001 
1090	 0.24971644795836 
1091	 0.250629338814917 
1092	 0.251589502534101 
1093	 0.25254061657355 
1094	 0.253434602797632 
1095	 0.254382937148001 
1096	 0.255349119113282 
1097	 0.25631128952288 
1098	 0.257264799838579 
1099	 0.258210081913945 
1100	 0.259186062412347 
1101	 0.260165467704769 
1102	 0.261145566187605 
1103	 0.262160695186322 
1104	 0.263159029100789 
1105	 0.264094549640722 
1106	 0.265069990871285 
1107	 0.266094587027326 
1108	 0.267145005705345 
1109	 0.268248143313003 
1110	 0.269363935769381 
1111	 0.270436788148804 
1112	 0.27148491359755 
1113	 0.272528139258619 
1114	 0.273539442066875 
1115	 0.274586412668758 
1116	 0.275635538753859 
1117	 0.276700922049726 
1118	 0.277797498413152 
1119	 0.278865576520836 
1120	 0.279963427841477 
1121	 0.281076085391125 
1122	 0.282171551166762 
1123	 0.283303486725239 
1124	 0.284434606149554 
1125	 0.285571779062537 
1126	 0.286693170287771 
1127	 0.287808755087354 
1128	 0.288949768598693 
1129	 0.290085548771747 
1130	 0.291226786045956 
1131	 0.292403103023403 
1132	 0.293559971369107 
1133	 0.294713125668371 
1134	 0.295851650072324 
1135	 0.296976738289292 
1136	 0.298095703108277 
1137	 0.299251804929902 
1138	 0.300378363753818 
1139	 0.301514626348233 
1140	 0.30268221371304 
1141	 0.303821373454283 
1142	 0.304932376454647 
1143	 0.306056157489696 
1144	 0.307186242470997 
1145	 0.308308331551883 
1146	 0.309422654543244 
1147	 0.31053464752824 
1148	 0.311647278235176 
1149	 0.31275603131087 
1150	 0.313851398428201 
1151	 0.314966122390697 
1152	 0.316072233554588 
1153	 0.317144122773682 
1154	 0.318243736717153 
1155	 0.319340924217268 
1156	 0.320453222073479 
1157	 0.32160000441269 
1158	 0.322707969604421 
1159	 0.323820422522367 
1160	 0.324899218620291 
1161	 0.325937101399234 
1162	 0.326989636557135 
1163	 0.328017190307063 
1164	 0.329070442682579 
1165	 0.330148157077345 
1166	 0.331222299127132 
1167	 0.332265697819425 
1168	 0.333322227652751 
1169	 0.334363914938896 
1170	 0.335385220833407 
1171	 0.336403380188514 
1172	 0.337434562919264 
1173	 0.338436586783037 
1174	 0.33940323816043 
1175	 0.34038988318333 
1176	 0.341385940792796 
1177	 0.342362268729337 
1178	 0.343343580768258 
1179	 0.344304982270958 
1180	 0.345251656403744 
1181	 0.346181979253525 
1182	 0.347110529922079 
1183	 0.348006373425752 
1184	 0.348890265156767 
1185	 0.349749529254134 
1186	 0.350618412598982 
1187	 0.351471861403513 
1188	 0.352335323713347 
1189	 0.353220614266641 
1190	 0.354063521735819 
1191	 0.354899126372743 
1192	 0.355707779011923 
1193	 0.356480447694275 
1194	 0.357253805654941 
1195	 0.358017830525644 
1196	 0.358767396793843 
1197	 0.359504238186597 
1198	 0.360231203047936 
1199	 0.360947054864289 
1200	 0.361640861540762 
1201	 0.362355939019825 
1202	 0.363084977914553 
1203	 0.363777589695716 
1204	 0.36447650264679 
1205	 0.365136593971744 
1206	 0.365750870176704 
1207	 0.366377069918067 
1208	 0.366995991199724 
1209	 0.367603814785623 
1210	 0.368211699197338 
1211	 0.368797561147056 
1212	 0.36935855163014 
1213	 0.369921825868056 
1214	 0.370478557700566 
1215	 0.371023464280542 
1216	 0.371560967130595 
1217	 0.372093702871853 
1218	 0.372623668327758 
1219	 0.373148328677351 
1220	 0.373657548212661 
1221	 0.374162947021285 
1222	 0.374660141045586 
1223	 0.375142263931292 
1224	 0.375618027206944 
1225	 0.376101015883196 
1226	 0.376558206150531 
1227	 0.376990316198719 
1228	 0.377422097558555 
1229	 0.377845619114487 
1230	 0.378258399277433 
1231	 0.378659017836417 
1232	 0.379058245192086 
1233	 0.37945149371437 
1234	 0.379835116826748 
1235	 0.380215455855888 
1236	 0.380595596340294 
1237	 0.38096966610056 
1238	 0.381336955541193 
1239	 0.381698025737036 
1240	 0.382071949603559 
1241	 0.382406122704435 
1242	 0.382694085177388 
1243	 0.383018384644181 
1244	 0.3833431650631 
1245	 0.383659261738374 
1246	 0.384001650624036 
1247	 0.384323526571469 
1248	 0.384630967146639 
1249	 0.384914384176725 
1250	 0.385196830615208 
1251	 0.385485484734994 
1252	 0.38576217391701 
1253	 0.386022945261186 
1254	 0.386288856268886 
1255	 0.386559978745649 
1256	 0.386816686165084 
1257	 0.387062799272261 
1258	 0.38731053807757 
1259	 0.387561564068542 
1260	 0.387791992504893 
1261	 0.387999692260377 
1262	 0.388227073208644 
1263	 0.388455016172914 
1264	 0.388674500558774 
1265	 0.388904414760786 
1266	 0.389129362103071 
1267	 0.389345110701258 
1268	 0.389549354658539 
1269	 0.389756351017693 
1270	 0.389976421839591 
1271	 0.390165462330268 
1272	 0.390328726567311 
1273	 0.390506759611918 
1274	 0.390674242201968 
1275	 0.390851338544481 
1276	 0.391026291534445 
1277	 0.391222678664458 
1278	 0.391438903166958 
1279	 0.391639133994457 
1280	 0.391868262569432 
1281	 0.392057560473668 
1282	 0.392211304909117 
1283	 0.392366648807241 
1284	 0.39250284264544 
1285	 0.392636020490517 
1286	 0.392776945694151 
1287	 0.392940907559313 
1288	 0.393090020789628 
1289	 0.39324871787072 
1290	 0.393391145460044 
1291	 0.393519619183778 
1292	 0.39364825417599 
1293	 0.393781981928436 
1294	 0.393890508974055 
1295	 0.393980945546579 
1296	 0.394076969705348 
1297	 0.394158219030466 
1298	 0.394242451996205 
1299	 0.394339846347922 
1300	 0.394414885909751 
1301	 0.39447441779327 
1302	 0.394531357528287 
1303	 0.39457044118321 
1304	 0.394617204646047 
1305	 0.394672694635229 
1306	 0.394714130842842 
1307	 0.394748874458773 
1308	 0.394742742957358 
1309	 0.394743308030481 
1310	 0.394723204289217 
1311	 0.394709625401245 
1312	 0.394705465047408 
1313	 0.394677816367848 
1314	 0.394626089631081 
1315	 0.394589097205226 
1316	 0.394542359591434 
1317	 0.394504377587968 
1318	 0.394484085874409 
1319	 0.394447278798486 
1320	 0.394417613542598 
1321	 0.394361773030596 
1322	 0.39427794391791 
1323	 0.394206407289492 
1324	 0.394134876173747 
1325	 0.394060917838557 
1326	 0.394028974956205 
1327	 0.394005586953783 
1328	 0.393948887616168 
1329	 0.393891593104316 
1330	 0.393838966779598 
1331	 0.393762457424343 
1332	 0.393719666212317 
1333	 0.393723115882657 
1334	 0.393673230075661 
1335	 0.393603833341016 
1336	 0.393550435783209 
1337	 0.393463860607914 
1338	 0.393401871965751 
1339	 0.393387837038744 
1340	 0.393336364071342 
1341	 0.393272902720645 
1342	 0.393206268121205 
1343	 0.393141197136156 
1344	 0.393025876551354 
1345	 0.392956835831463 
1346	 0.392861663108437 
1347	 0.392741848797446 
1348	 0.392638307848339 
1349	 0.392466596626561 
1350	 0.392283206333394 
1351	 0.392117400118622 
1352	 0.391943199613712 
1353	 0.39177013428712 
1354	 0.391626425864489 
1355	 0.391434848282368 
1356	 0.391194805548351 
1357	 0.391001670556677 
1358	 0.390772759805368 
1359	 0.390616257110297 
1360	 0.390514212111044 
1361	 0.390424090847149 
1362	 0.390380307162946 
1363	 0.390335643495021 
1364	 0.390286673355282 
1365	 0.390279115980932 
1366	 0.390300107407375 
1367	 0.390337803904095 
1368	 0.390413170230096 
1369	 0.390468863838326 
1370	 0.390427019312558 
1371	 0.390340396697473 
1372	 0.390211613925224 
1373	 0.390008351152769 
1374	 0.389753186562997 
1375	 0.389492371816714 
1376	 0.38908137540579 
1377	 0.388567448167959 
1378	 0.387986931264037 
1379	 0.387254827324115 
1380	 0.386581000548673 
1381	 0.385847609795367 
1382	 0.385144553741744 
1383	 0.384497903886308 
1384	 0.383769810943951 
1385	 0.383064733514192 
1386	 0.382245509013885 
1387	 0.381358718102089 
1388	 0.380406507522609 
1389	 0.379405540013341 
1390	 0.378276595348877 
1391	 0.377069417571212 
1392	 0.375777057137713 
1393	 0.374350791418442 
1394	 0.372885378186549 
1395	 0.371399419297974 
1396	 0.369883154139159 
1397	 0.368384859484114 
1398	 0.366892917136534 
1399	 0.365371851329708 
1400	 0.363838092772252 
1401	 0.36229632874878 
1402	 0.36069462573143 
1403	 0.359198397514648 
1404	 0.35770459959951 
1405	 0.356308873781291 
1406	 0.35502481895835 
1407	 0.353714182282656 
1408	 0.3524303541391 
1409	 0.351187263737475 
1410	 0.349915070151059 
1411	 0.348765535193518 
1412	 0.347682315128818 
1413	 0.346683388135963 
1414	 0.345796838496482 
1415	 0.344940634271232 
1416	 0.344123950828793 
1417	 0.343365148644269 
1418	 0.342598627146589 
1419	 0.341890038838672 
1420	 0.341274198632715 
1421	 0.34069426735445 
1422	 0.340184754460179 
1423	 0.339705934036416 
1424	 0.339211088407186 
1425	 0.338709780372444 
1426	 0.338260717059272 
1427	 0.337801446435687 
1428	 0.337431533779452 
1429	 0.337131113927797 
1430	 0.336844659746475 
1431	 0.336633555508424 
1432	 0.336389253969124 
1433	 0.336143812292663 
1434	 0.335926003953301 
1435	 0.33568087303068 
1436	 0.335506644464398 
1437	 0.335417983074208 
1438	 0.335290101288618 
1439	 0.335169826987614 
1440	 0.335074751650234 
1441	 0.334950983132145 
1442	 0.334835441131749 
1443	 0.334776190666509 
1444	 0.334725140638395 
1445	 0.334718629204052 
1446	 0.334714491372967 
1447	 0.334685867453034 
1448	 0.334685412692696 
1449	 0.334653400377462 
1450	 0.334608461290719 
1451	 0.334608652576533 
1452	 0.334631269983391 
1453	 0.334664792814338 
1454	 0.334731985153805 
1455	 0.334785948127856 
1456	 0.33484595582711 
1457	 0.334898735137784 
1458	 0.33493648137692 
1459	 0.335012842620744 
1460	 0.335080883171947 
1461	 0.335203550106952 
1462	 0.335377834652611 
1463	 0.335549063878871 
1464	 0.335764602854072 
1465	 0.335958717675452 
1466	 0.336127428417498 
1467	 0.336344284614276 
1468	 0.336550216344074 
1469	 0.336815445099528 
1470	 0.337142171597636 
1471	 0.337484504529995 
1472	 0.337849259148636 
1473	 0.338227873584278 
1474	 0.338565221744625 
1475	 0.338922944704898 
1476	 0.339289164859077 
1477	 0.339670122826845 
1478	 0.340122790041936 
1479	 0.340595213683023 
1480	 0.341078476021828 
1481	 0.341579523935602 
1482	 0.342051891277436 
1483	 0.342506384255519 
1484	 0.342971983764965 
1485	 0.343412329551898 
1486	 0.343904025969254 
1487	 0.344435484531407 
1488	 0.344933212090273 
1489	 0.345464216285717 
1490	 0.345947571380925 
1491	 0.346378662251774 
1492	 0.346839251546711 
1493	 0.347284575037223 
1494	 0.347748670755357 
1495	 0.348238234899299 
1496	 0.348709767535271 
1497	 0.349199896938545 
1498	 0.34965508584767 
1499	 0.350087874118189 
1500	 0.350508943690962 
1501	 0.350898452914552 
1502	 0.351298677851794 
1503	 0.351696668591867 
1504	 0.352079448218262 
1505	 0.352487963293733 
1506	 0.352892341199598 
1507	 0.353295050350093 
1508	 0.353719295836667 
1509	 0.354123490695379 
1510	 0.354505518949441 
1511	 0.354887653402812 
1512	 0.355255880236364 
1513	 0.355618887492809 
1514	 0.355984855404789 
1515	 0.356363637895563 
1516	 0.356731567264485 
1517	 0.357086167391133 
1518	 0.357444042248501 
1519	 0.357785798666053 
1520	 0.35809598977568 
1521	 0.35843224909565 
1522	 0.358772206539351 
1523	 0.359107644345916 
1524	 0.359461393522576 
1525	 0.359785823869914 
1526	 0.36008918469364 
1527	 0.360403744471533 
1528	 0.360700829752205 
1529	 0.361012254773833 
1530	 0.361349989182993 
1531	 0.361660116646118 
1532	 0.361959289397336 
1533	 0.362258722550662 
1534	 0.362542034769039 
1535	 0.362826373824691 
1536	 0.363125404522179 
1537	 0.363397759932263 
1538	 0.363640584998952 
1539	 0.363900402023389 
1540	 0.364155118192456 
1541	 0.364408798625761 
1542	 0.364676113876827 
1543	 0.364932457989026 
1544	 0.365174977196931 
1545	 0.365420310907237 
1546	 0.365665697348305 
1547	 0.365910880215744 
1548	 0.366150543590323 
1549	 0.366364705610478 
1550	 0.366563616474803 
1551	 0.366772895041357 
1552	 0.366984807404661 
1553	 0.367205990621887 
1554	 0.367426555981976 
1555	 0.36764159157202 
1556	 0.367856919901848 
1557	 0.368062006949529 
1558	 0.368268580101716 
1559	 0.368470132937978 
1560	 0.368652376517739 
1561	 0.368814199444145 
1562	 0.368982574250996 
1563	 0.369128471745061 
1564	 0.369317221808267 
1565	 0.369527919016637 
1566	 0.369727890248639 
1567	 0.369960665587044 
1568	 0.370147883846093 
1569	 0.370309233376202 
1570	 0.370467209559776 
1571	 0.370608474708268 
1572	 0.370746955093527 
1573	 0.370872550439558 
1574	 0.37100614931543 
1575	 0.371135047749032 
1576	 0.371262985129937 
1577	 0.371392606928753 
1578	 0.371519914691822 
1579	 0.371641243044112 
1580	 0.371774327520626 
1581	 0.371921769644748 
1582	 0.372052878467726 
1583	 0.372165863724262 
1584	 0.372302911269306 
1585	 0.372454990211409 
1586	 0.372586401411657 
1587	 0.372734185676811 
1588	 0.37286431579336 
1589	 0.372965708328329 
1590	 0.373065821936464 
1591	 0.373166222807265 
1592	 0.373259212755188 
1593	 0.373334698336281 
1594	 0.373413606054381 
1595	 0.373503603885878 
1596	 0.37357191318873 
1597	 0.373605779874017 
1598	 0.373671779660332 
1599	 0.37374398775352 
1600	 0.373817364507131 
1601	 0.373911358374753 
1602	 0.374007487495127 
1603	 0.374101858558373 
1604	 0.374194505822448 
1605	 0.374302806960943 
1606	 0.374399559861467 
1607	 0.374491496673473 
1608	 0.374564840538268 
1609	 0.37465420615182 
1610	 0.374729982315901 
1611	 0.374785754177018 
1612	 0.37485290716646 
1613	 0.374898325339004 
1614	 0.374930586859085 
1615	 0.374974267278649 
1616	 0.375020460435835 
1617	 0.375083508880597 
1618	 0.375157630463376 
1619	 0.375218660001255 
1620	 0.375276809924029 
1621	 0.375332264881415 
1622	 0.375378575517517 
1623	 0.375420632219484 
1624	 0.375464757443642 
1625	 0.375498347772095 
1626	 0.375509607689247 
1627	 0.375554031061872 
1628	 0.375609395189824 
1629	 0.375666227325184 
1630	 0.375742568241692 
1631	 0.375798760711746 
1632	 0.375849634642368 
1633	 0.375895323525262 
1634	 0.375942091641562 
1635	 0.375964476112384 
1636	 0.375969580837028 
1637	 0.375978334636548 
1638	 0.375967414554172 
1639	 0.375973539666419 
1640	 0.375985815729209 
1641	 0.376001209750501 
1642	 0.376019745125058 
1643	 0.376040745762107 
1644	 0.376073443783458 
1645	 0.376092301872137 
1646	 0.376107472748678 
1647	 0.376118885547347 
1648	 0.376114671896284 
1649	 0.376130801072666 
1650	 0.376159837646957 
1651	 0.376174516749039 
1652	 0.376191955203761 
1653	 0.376208662258875 
1654	 0.376220305290466 
1655	 0.376222344836377 
1656	 0.376238242663865 
1657	 0.376217055661591 
1658	 0.376150049705948 
1659	 0.376122212221453 
1660	 0.376075515463108 
1661	 0.376078880235168 
1662	 0.376145454540065 
1663	 0.37615739563909 
1664	 0.376179063843294 
1665	 0.376170109477049 
1666	 0.376126435504008 
1667	 0.376074792201795 
1668	 0.375995916503439 
1669	 0.375944916742025 
1670	 0.375883043897608 
1671	 0.375836564789212 
1672	 0.375821835564741 
1673	 0.37579009052425 
1674	 0.375738666844162 
1675	 0.375715352276477 
1676	 0.375726711879998 
1677	 0.375692824872457 
1678	 0.375645711435009 
1679	 0.375604587516825 
1680	 0.375523388001861 
1681	 0.375485274067722 
1682	 0.375491594746872 
1683	 0.375465785313311 
1684	 0.375443050005629 
1685	 0.375403507266697 
1686	 0.37533196193747 
1687	 0.375290703633207 
1688	 0.375255062618057 
1689	 0.375224314210639 
1690	 0.375230904825738 
1691	 0.375185695216529 
1692	 0.375118257177088 
1693	 0.375043099248837 
1694	 0.374925520786738 
1695	 0.374842606627325 
1696	 0.374764630546129 
1697	 0.374697190993228 
1698	 0.374655696978713 
1699	 0.374590376203069 
1700	 0.374511701693725 
1701	 0.374456262720946 
1702	 0.374405180940676 
1703	 0.374346718260456 
1704	 0.374308117074273 
1705	 0.374245962429898 
1706	 0.374157560975053 
1707	 0.374083889338341 
1708	 0.374015369962022 
1709	 0.373944441346553 
1710	 0.373877483823278 
1711	 0.373797794154365 
1712	 0.373709359320022 
1713	 0.373620238846078 
1714	 0.37352325402973 
1715	 0.373429154218092 
1716	 0.373328525103362 
1717	 0.373247050023759 
1718	 0.373189810612681 
1719	 0.373086878734886 
1720	 0.372983776711267 
1721	 0.372857545357426 
1722	 0.37267990140073 
1723	 0.372534391810137 
1724	 0.372417757740002 
1725	 0.372240671085405 
1726	 0.372023796963746 
1727	 0.371842688079298 
1728	 0.371627549007092 
1729	 0.371466768014402 
1730	 0.371366144522403 
1731	 0.37123308036367 
1732	 0.371108812165871 
1733	 0.370954243151432 
1734	 0.370788822424677 
1735	 0.370603208774017 
1736	 0.370388088574507 
1737	 0.370184159239396 
1738	 0.369963450556886 
1739	 0.369780536325974 
1740	 0.36962645943318 
1741	 0.369424314735078 
1742	 0.369219829312733 
1743	 0.369013345798798 
1744	 0.36876513765393 
1745	 0.368567997706049 
1746	 0.368413204888048 
1747	 0.368204304181467 
1748	 0.368003830155454 
1749	 0.367778443936717 
1750	 0.367555489150003 
1751	 0.367346552053921 
1752	 0.367117223130939 
1753	 0.36691323931232 
1754	 0.366726251026513 
1755	 0.366515302351802 
1756	 0.36631943673045 
1757	 0.366117195166596 
1758	 0.365891383094424 
1759	 0.365683656320746 
1760	 0.365482928162252 
1761	 0.365264798260895 
1762	 0.365057591019933 
1763	 0.36484877902027 
1764	 0.364648467680359 
1765	 0.364472659350968 
1766	 0.364271176869536 
1767	 0.364105993609959 
1768	 0.363952110396526 
1769	 0.363766887497064 
1770	 0.363617901992668 
1771	 0.36345021237063 
1772	 0.363271545200275 
1773	 0.363124317626279 
1774	 0.362975102937469 
1775	 0.362823800549267 
1776	 0.3626487751652 
1777	 0.362452807853547 
1778	 0.362265573512879 
1779	 0.362093746829421 
1780	 0.36193888775188 
1781	 0.361799832915973 
1782	 0.361673520439418 
1783	 0.361579477895432 
1784	 0.361489427399444 
1785	 0.361435842395226 
1786	 0.361345532789319 
1787	 0.361231649880121 
1788	 0.361115867490523 
1789	 0.360976729295778 
1790	 0.360873002631445 
1791	 0.360784861747931 
1792	 0.360699653078334 
1793	 0.360635428110181 
1794	 0.360562790211307 
1795	 0.360473155939225 
1796	 0.360416683799482 
1797	 0.360366726530955 
1798	 0.36033868472769 
1799	 0.36037433454174 
1800	 0.360342424985425 
1801	 0.351178661082998 
1802	 0.351568540159873 
1803	 0.351998420250335 
1804	 0.352496822112688 
1805	 0.352961967929961 
1806	 0.353334484766754 
1807	 0.35368645010671 
1808	 0.353968981107389 
1809	 0.354170707140797 
1810	 0.354345493487495 
1811	 0.354482397745064 
1812	 0.354582882694936 
1813	 0.354627892000183 
1814	 0.354659114550511 
1815	 0.354709756631245 
1816	 0.354751794301891 
1817	 0.354764558010318 
1818	 0.354761066661882 
1819	 0.354740890312957 
1820	 0.354698096824723 
1821	 0.354639336869842 
1822	 0.354567630843798 
1823	 0.354518148486536 
1824	 0.354509826448998 
1825	 0.354449971741324 
1826	 0.35438814303625 
1827	 0.35432686656053 
1828	 0.35422056725009 
1829	 0.354077366460553 
1830	 0.353923204410763 
1831	 0.353743984831341 
1832	 0.353542419275499 
1833	 0.353323041835894 
1834	 0.353083461543061 
1835	 0.352886880599897 
1836	 0.352711225349796 
1837	 0.352577633884426 
1838	 0.352455419782327 
1839	 0.352344336983193 
1840	 0.352251349958167 
1841	 0.352170074364542 
1842	 0.352071903280532 
1843	 0.35199709927476 
1844	 0.351912059910165 
1845	 0.351788150195626 
1846	 0.351679414079515 
1847	 0.351526392915296 
1848	 0.351320178760317 
1849	 0.351126811723203 
1850	 0.350902773874255 
1851	 0.350653157473592 
1852	 0.350370744695023 
1853	 0.350077524924666 
1854	 0.349724842454291 
1855	 0.349304138555374 
1856	 0.348858958707795 
1857	 0.34837915066968 
1858	 0.347846913772012 
1859	 0.347271219979566 
1860	 0.346587179131833 
1861	 0.345826200465738 
1862	 0.344978426339907 
1863	 0.344018242292048 
1864	 0.342931599570472 
1865	 0.341795773371438 
1866	 0.340503461481914 
1867	 0.339146942279427 
1868	 0.337719564512779 
1869	 0.336197651730954 
1870	 0.334705880576468 
1871	 0.333148707227557 
1872	 0.331537877787922 
1873	 0.329931501747122 
1874	 0.32830737622132 
1875	 0.326568169030839 
1876	 0.324761113816935 
1877	 0.322864704584313 
1878	 0.320787015453973 
1879	 0.318535531877296 
1880	 0.316137472954884 
1881	 0.313557635455833 
1882	 0.310859127751277 
1883	 0.308022504566543 
1884	 0.305006925116574 
1885	 0.301889016793339 
1886	 0.298660130442448 
1887	 0.295281152798646 
1888	 0.291858072614827 
1889	 0.288341764925725 
1890	 0.284764176967619 
1891	 0.281209975389102 
1892	 0.277567543612976 
1893	 0.274016544951092 
1894	 0.270488223608732 
1895	 0.266996604087313 
1896	 0.263546792478917 
1897	 0.260172118561987 
1898	 0.256824756629424 
1899	 0.253617046871507 
1900	 0.250562283114903 
1901	 0.247654917553059 
1902	 0.244958534476686 
1903	 0.242516473517859 
1904	 0.240163264177499 
1905	 0.237956884636137 
1906	 0.235933542243722 
1907	 0.234030209602655 
1908	 0.232247974581083 
1909	 0.23062055132165 
1910	 0.229120968533811 
1911	 0.227736162287278 
1912	 0.226439353698599 
1913	 0.225231787243597 
1914	 0.22412219081738 
1915	 0.22309693955058 
1916	 0.222161594905942 
1917	 0.221298662229579 
1918	 0.220552537102597 
1919	 0.219877389383895 
1920	 0.219277007173059 
1921	 0.218799319921142 
1922	 0.218376492929303 
1923	 0.218034336059752 
1924	 0.2177391734701 
1925	 0.217527769065547 
1926	 0.217330533089929 
1927	 0.217183285677308 
1928	 0.217054207160999 
1929	 0.216970721192969 
1930	 0.216929578832566 
1931	 0.216918899670088 
1932	 0.216962653950105 
1933	 0.217062021334216 
1934	 0.217198972227736 
1935	 0.217362740712805 
1936	 0.217567831480206 
1937	 0.217813756109043 
1938	 0.218079751910615 
1939	 0.218393974143434 
1940	 0.218765875872423 
1941	 0.21916979376451 
1942	 0.21958541430476 
1943	 0.220045110515885 
1944	 0.220507433629621 
1945	 0.220975340914071 
1946	 0.22147730762622 
1947	 0.222007016385169 
1948	 0.22253457363469 
1949	 0.223083068501806 
1950	 0.22364700136875 
1951	 0.224213152498546 
1952	 0.224792640037376 
1953	 0.225414611324742 
1954	 0.226061463936516 
1955	 0.226707949745432 
1956	 0.227380249610591 
1957	 0.228077041091047 
1958	 0.228803593878352 
1959	 0.229525316781945 
1960	 0.230288242941268 
1961	 0.231020342060327 
1962	 0.231725798835865 
1963	 0.23245749336568 
1964	 0.233192250463277 
1965	 0.233926656471701 
1966	 0.234694957392344 
1967	 0.235472563309743 
1968	 0.236257472398336 
1969	 0.237065456739344 
1970	 0.237853823532879 
1971	 0.238644884646832 
1972	 0.239433418679333 
1973	 0.24020045499551 
1974	 0.240988884351544 
1975	 0.241811352414653 
1976	 0.242594578799603 
1977	 0.243353202756614 
1978	 0.244143186777028 
1979	 0.244895204826915 
1980	 0.245685521150818 
1981	 0.246486774481127 
1982	 0.247310748982701 
1983	 0.248138841187398 
1984	 0.248989560581853 
1985	 0.249823933868481 
1986	 0.250692095225046 
1987	 0.251514890675589 
1988	 0.252298445654255 
1989	 0.253091310335086 
1990	 0.253883926333368 
1991	 0.254645872082743 
1992	 0.255441365177523 
1993	 0.25626652907555 
1994	 0.257070798519314 
1995	 0.257881849735426 
1996	 0.258675024077623 
1997	 0.259456878349281 
1998	 0.260235010505934 
1999	 0.260986876750721 
2000	 0.261760543842968 
2001	 0.262548005444235 
2002	 0.263328954117319 
2003	 0.264108703349979 
2004	 0.264902400713562 
2005	 0.2656694373378 
2006	 0.266410058233053 
2007	 0.267173850252312 
2008	 0.267926523167854 
2009	 0.268703158378614 
2010	 0.269522964623821 
2011	 0.270299788996681 
2012	 0.271070102853517 
2013	 0.27182829181215 
2014	 0.272557144436195 
2015	 0.273295283742638 
2016	 0.274004930924241 
2017	 0.274719143014137 
2018	 0.275431118487857 
2019	 0.276122314023703 
2020	 0.276828402703225 
2021	 0.277560902824025 
2022	 0.278256981437869 
2023	 0.278935622737001 
2024	 0.279615528118541 
2025	 0.280273722286536 
2026	 0.280942797946138 
2027	 0.281617877346391 
2028	 0.282294452896121 
2029	 0.282954671359795 
2030	 0.283607751046539 
2031	 0.284254546637393 
2032	 0.284905140195345 
2033	 0.285516356167333 
2034	 0.286095490914626 
2035	 0.286691723657495 
2036	 0.287252035305136 
2037	 0.287842517032158 
2038	 0.288476795018679 
2039	 0.289079333136266 
2040	 0.289669043981285 
2041	 0.290265978487591 
2042	 0.290830966561903 
2043	 0.291391056736629 
2044	 0.291954160164329 
2045	 0.292505584111069 
2046	 0.293069432608763 
2047	 0.293652607833794 
2048	 0.294204982026972 
2049	 0.294760969890448 
2050	 0.295290497289134 
2051	 0.295786883424551 
2052	 0.296286133670617 
2053	 0.296743346732545 
2054	 0.297243080981979 
2055	 0.297777262189894 
2056	 0.298286645980583 
2057	 0.298802207815896 
2058	 0.299347798433684 
2059	 0.299863573778856 
2060	 0.300353170561933 
2061	 0.300849876717109 
2062	 0.301352751398215 
2063	 0.301840279432733 
2064	 0.30231897316209 
2065	 0.302786913916647 
2066	 0.303226083145091 
2067	 0.30368969213305 
2068	 0.304144081768737 
2069	 0.304628476664764 
2070	 0.305096856107658 
2071	 0.30559446033908 
2072	 0.306039780600569 
2073	 0.306447032980797 
2074	 0.306874175708361 
2075	 0.307273323608809 
2076	 0.307711728263103 
2077	 0.308180018021761 
2078	 0.308635596274662 
2079	 0.309107215007914 
2080	 0.309565430797524 
2081	 0.310026308973511 
2082	 0.310466684059428 
2083	 0.310894654489404 
2084	 0.311316012596505 
2085	 0.311728250952471 
2086	 0.312117492207888 
2087	 0.312518100000596 
2088	 0.312921735025974 
2089	 0.313317508379468 
2090	 0.313709735233507 
2091	 0.314096889138591 
2092	 0.31447795979036 
2093	 0.31485842438157 
2094	 0.315226416156989 
2095	 0.315606783286592 
2096	 0.315986253707882 
2097	 0.316376138651542 
2098	 0.316783338500188 
2099	 0.317189260931728 
2100	 0.317580035977876 
2101	 0.317969499417414 
2102	 0.318355034220789 
2103	 0.318723080516054 
2104	 0.31910430719086 
2105	 0.319485432508704 
2106	 0.319880883267296 
2107	 0.320286206793096 
2108	 0.320689064404565 
2109	 0.321107714908508 
2110	 0.321516986597372 
2111	 0.321911700913172 
2112	 0.322320190211507 
2113	 0.322756121392501 
2114	 0.323157354622785 
2115	 0.323557033667347 
2116	 0.323968692944628 
2117	 0.324332314302076 
2118	 0.324656039130869 
2119	 0.324997399157628 
2120	 0.325311596906724 
2121	 0.325647046764667 
2122	 0.326005850173732 
2123	 0.326340173752821 
2124	 0.32667787670196 
2125	 0.326991540381367 
2126	 0.3272840174573 
2127	 0.327569964597332 
2128	 0.327827188399535 
2129	 0.328097030852204 
2130	 0.32838225295084 
2131	 0.32863917544851 
2132	 0.328892988602953 
2133	 0.329158658838263 
2134	 0.329382429486304 
2135	 0.329582037466759 
2136	 0.329758887313376 
2137	 0.329912255940557 
2138	 0.330043244180302 
2139	 0.33014903624312 
2140	 0.330238600025999 
2141	 0.330308450077707 
2142	 0.330354690091281 
2143	 0.330356077907439 
2144	 0.330375980255927 
2145	 0.330393652218496 
2146	 0.330396616528819 
2147	 0.330404013130521 
2148	 0.330394747450399 
2149	 0.330389039018686 
2150	 0.330364989885133 
2151	 0.330349386230229 
2152	 0.330357702615503 
2153	 0.330323501019283 
2154	 0.330271620210886 
2155	 0.330200100180179 
2156	 0.330091353150033 
2157	 0.329995385584971 
2158	 0.329899449288636 
2159	 0.329784824348323 
2160	 0.329669246520056 
2161	 0.329537010177557 
2162	 0.329374521237912 
2163	 0.329214178220019 
2164	 0.329059696631801 
2165	 0.32887707431737 
2166	 0.32869679258069 
2167	 0.328513129602664 
2168	 0.328316992314558 
2169	 0.328106760614639 
2170	 0.327898431492663 
2171	 0.327672412433006 
2172	 0.327467556790684 
2173	 0.327274678644904 
2174	 0.327071984594967 
2175	 0.326869704029357 
2176	 0.326676389647729 
2177	 0.326483787267083 
2178	 0.326288359978604 
2179	 0.326098306761515 
2180	 0.325911297659265 
2181	 0.325723913540174 
2182	 0.325530849073838 
2183	 0.325356340390024 
2184	 0.325163809379873 
2185	 0.324944305484748 
2186	 0.324693528666622 
2187	 0.324462023602262 
2188	 0.324204531879842 
2189	 0.323984356769803 
2190	 0.323791078035457 
2191	 0.323584708603472 
2192	 0.32339091445567 
2193	 0.32318690673566 
2194	 0.322957232807683 
2195	 0.322764886678364 
2196	 0.322561151737994 
2197	 0.322411067807881 
2198	 0.322322545954124 
2199	 0.322222528552514 
2200	 0.322154310502275 
2201	 0.322084718134475 
2202	 0.322024684829445 
2203	 0.321945174356866 
2204	 0.321872366527825 
2205	 0.321812637422369 
2206	 0.321733191387693 
2207	 0.321627115061124 
2208	 0.321556150883501 
2209	 0.321481230504764 
2210	 0.321441556076751 
2211	 0.321445483581542 
2212	 0.321425846975023 
2213	 0.321436154605736 
2214	 0.321404170301146 
2215	 0.321341384049223 
2216	 0.321282393172536 
2217	 0.32120382260363 
2218	 0.321126649244528 
2219	 0.321032251513169 
2220	 0.320963409888869 
2221	 0.32090506643685 
2222	 0.320851661275147 
2223	 0.320803099355181 
2224	 0.320745717028843 
2225	 0.32066781357697 
2226	 0.320555807152615 
2227	 0.320474819802928 
2228	 0.32040734651468 
2229	 0.320315246931225 
2230	 0.320207538158197 
2231	 0.320124297615809 
2232	 0.320038937863154 
2233	 0.319951315992 
2234	 0.319896185874416 
2235	 0.319810803333083 
2236	 0.319710015048308 
2237	 0.319587848248758 
2238	 0.319444981253375 
2239	 0.319301664430345 
2240	 0.319120663010233 
2241	 0.318966898206176 
2242	 0.318822396141962 
2243	 0.318689997458209 
2244	 0.318588540025071 
2245	 0.318456467222007 
2246	 0.318336532348481 
2247	 0.318232577271359 
2248	 0.318121252997311 
2249	 0.318013432192932 
2250	 0.317898480025366 
2251	 0.317766652521394 
2252	 0.317676378479076 
2253	 0.317595492950769 
2254	 0.317521326777083 
2255	 0.317491651697141 
2256	 0.317416505824345 
2257	 0.317333631380712 
2258	 0.317231246597695 
2259	 0.317088695138971 
2260	 0.316983057342821 
2261	 0.316874963782582 
2262	 0.316768614850901 
2263	 0.316652139561064 
2264	 0.316592468564421 
2265	 0.316579854794652 
2266	 0.316542771291932 
2267	 0.31655680967283 
2268	 0.316537078708169 
2269	 0.31649532233792 
2270	 0.316412787619409 
2271	 0.31634567040749 
2272	 0.316235544024394 
2273	 0.316105839012734 
2274	 0.31595961266905 
2275	 0.315802082177476 
2276	 0.315605835614394 
2277	 0.315476160460446 
2278	 0.315362343232216 
2279	 0.315256378717659 
2280	 0.3151982553127 
2281	 0.315107347639417 
2282	 0.315004909653373 
2283	 0.31488796800754 
2284	 0.314754896705483 
2285	 0.314653888365297 
2286	 0.314535374977344 
2287	 0.314447704687467 
2288	 0.314437917296926 
2289	 0.314349035885412 
2290	 0.314222319593735 
2291	 0.314106926342407 
2292	 0.313947849405382 
2293	 0.313811834597986 
2294	 0.31368147715751 
2295	 0.313577388195957 
2296	 0.313519358388946 
2297	 0.313405420379809 
2298	 0.313291825771246 
2299	 0.313185119579132 
2300	 0.313014730066161 
2301	 0.312838729624951 
2302	 0.312698990387452 
2303	 0.312566348800211 
2304	 0.312442769243071 
2305	 0.312314541572275 
2306	 0.312131188696652 
2307	 0.311892759380162 
2308	 0.31170651996261 
2309	 0.311497876386154 
2310	 0.311313303411762 
2311	 0.31118200342798 
2312	 0.311011804065253 
2313	 0.310830511118389 
2314	 0.310621948084934 
2315	 0.310383142423304 
2316	 0.310162504743116 
2317	 0.309924765910477 
2318	 0.309692670765951 
2319	 0.3094674756474 
2320	 0.309269077779008 
2321	 0.309049474586575 
2322	 0.308876752756664 
2323	 0.308795550060198 
2324	 0.308650161728584 
2325	 0.308493690363385 
2326	 0.30832713772269 
2327	 0.30812214271703 
2328	 0.307915287789437 
2329	 0.307776576846416 
2330	 0.307635549987507 
2331	 0.307475888010978 
2332	 0.307277685247761 
2333	 0.306981770618659 
2334	 0.306716791386247 
2335	 0.3064605589881 
2336	 0.306136696495148 
2337	 0.305885780754425 
2338	 0.305591870407185 
2339	 0.305310029522369 
2340	 0.305153300442646 
2341	 0.30491196888642 
2342	 0.30465943210784 
2343	 0.304427199231121 
2344	 0.304120722159762 
2345	 0.303819836691208 
2346	 0.303524659199627 
2347	 0.303212015260741 
2348	 0.302846300926874 
2349	 0.302522289368406 
2350	 0.302227864401732 
2351	 0.301898629717846 
2352	 0.301595746848157 
2353	 0.301232210800345 
2354	 0.300797621537128 
2355	 0.300392971375984 
2356	 0.299962758437043 
2357	 0.299547429259309 
2358	 0.299174373096198 
2359	 0.2987700658521 
2360	 0.298343060101046 
2361	 0.297893488266292 
2362	 0.297399886218104 
2363	 0.296941434906658 
2364	 0.296483943654404 
2365	 0.29604893398448 
2366	 0.29564940994987 
2367	 0.295232083971822 
2368	 0.294821653331901 
2369	 0.294392254321468 
2370	 0.293947255449805 
2371	 0.293520617175611 
2372	 0.293048338460876 
2373	 0.292602516778626 
2374	 0.292198114817668 
2375	 0.291770527568647 
2376	 0.291340446223458 
2377	 0.290884819880797 
2378	 0.290412281804016 
2379	 0.289868079310619 
2380	 0.289319451568374 
2381	 0.288783288442185 
2382	 0.288222547251657 
2383	 0.287727546317566 
2384	 0.28720612815808 
2385	 0.286709208851693 
2386	 0.286229268798857 
2387	 0.285715959671385 
2388	 0.285260263581722 
2389	 0.284825377276204 
2390	 0.284392744387984 
2391	 0.283929496892291 
2392	 0.283463537530959 
2393	 0.282981826210565 
2394	 0.282431090742903 
2395	 0.281888635452407 
2396	 0.281383397762748 
2397	 0.280839788380362 
2398	 0.280287665681544 
2399	 0.27975057200142 
2400	 0.279169461720599 
2401	 0.278621364104834 
2402	 0.278097308158546 
2403	 0.277562107371145 
2404	 0.277044426662706 
2405	 0.276462733217655 
2406	 0.27588061911792 
2407	 0.275354971671878 
2408	 0.274810104954486 
2409	 0.274220944009036 
2410	 0.27363580726984 
2411	 0.273075890661193 
2412	 0.272509534502047 
2413	 0.272020908889133 
2414	 0.271532910878173 
2415	 0.270976681741373 
2416	 0.270418200106648 
2417	 0.269832397879257 
2418	 0.269243100720044 
2419	 0.268631686222903 
2420	 0.268009975509123 
2421	 0.267347138644788 
2422	 0.266778611783168 
2423	 0.266259294219342 
2424	 0.265709314587275 
2425	 0.265193564697515 
2426	 0.264655522950153 
2427	 0.264111220450609 
2428	 0.263521485119012 
2429	 0.262987667487183 
2430	 0.262343351792076 
2431	 0.261513194458796 
2432	 0.260836597864484 
2433	 0.260177275048201 
2434	 0.259552321113948 
2435	 0.259014752286798 
2436	 0.258441006981653 
2437	 0.257857187079273 
2438	 0.257286695959408 
2439	 0.256697042511323 
2440	 0.256184964902704 
2441	 0.255770497209008 
2442	 0.25526168358508 
2443	 0.254793005184729 
2444	 0.254272157586261 
2445	 0.253676760551618 
2446	 0.253041097878577 
2447	 0.252299546892757 
2448	 0.251677114347134 
2449	 0.251056192256802 
2450	 0.250447450455214 
2451	 0.250013317485085 
2452	 0.249385142561735 
2453	 0.248578536412871 
2454	 0.248018068461342 
2455	 0.247464519804313 
2456	 0.246956944208558 
2457	 0.246671569993697 
2458	 0.246141099479368 
2459	 0.245455227392276 
2460	 0.244841976220087 
2461	 0.244213815350946 
2462	 0.243563746981171 
2463	 0.242847171240729 
2464	 0.242337018336935 
2465	 0.241919344682994 
2466	 0.241493414826106 
2467	 0.241267696643984 
2468	 0.240811133306241 
2469	 0.240191194926019 
2470	 0.239477288425592 
2471	 0.238914488082411 
2472	 0.23854692078387 
2473	 0.238069719276969 
2474	 0.237563467698445 
2475	 0.237043678077075 
2476	 0.236365325164554 
2477	 0.23571603143401 
2478	 0.235164028322512 
2479	 0.234600381097667 
2480	 0.234024436276757 
2481	 0.233577531664362 
2482	 0.233173416299173 
2483	 0.232716668788025 
2484	 0.232216447746084 
2485	 0.231768464168878 
2486	 0.231454462112746 
2487	 0.231064638262858 
2488	 0.230727962080249 
2489	 0.230328739206789 
2490	 0.229779619100107 
2491	 0.229288000637681 
2492	 0.22877839324235 
2493	 0.228380503802243 
2494	 0.228119419100572 
2495	 0.227897272846473 
2496	 0.227648488914497 
2497	 0.227397506219549 
2498	 0.22702421829008 
2499	 0.226443780579965 
2500	 0.22597097578369 
