Wavelength	LMW_2100004.asd
350	 9.51513815799922E-02 
351	 9.31995163253241E-02 
352	 9.17277106299814E-02 
353	 9.67378979126828E-02 
354	 0.101074038161334 
355	 9.39395606411448E-02 
356	 0.093039632848559 
357	 0.109771504679801 
358	 0.104590611778065 
359	 0.101854215224591 
360	 0.105384779927202 
361	 0.10524836446009 
362	 0.106216774509748 
363	 0.109104857393861 
364	 0.113136224003464 
365	 0.116344554490825 
366	 0.114305004135725 
367	 0.112489003367618 
368	 0.116123216773125 
369	 0.118464585347129 
370	 0.120220113457778 
371	 0.122102043372507 
372	 0.124550849163805 
373	 0.125295559417162 
374	 0.128172518080882 
375	 0.13337806406614 
376	 0.133602271122431 
377	 0.132384599582846 
378	 0.133479330913062 
379	 0.138213682388742 
380	 0.137874196744567 
381	 0.137576879781029 
382	 0.139544826131451 
383	 0.143036805176514 
384	 0.143938467337231 
385	 0.145356977894418 
386	 0.14896337258576 
387	 0.151893410084912 
388	 0.154071611541258 
389	 0.155034550007432 
390	 0.154977953348683 
391	 0.157280017271134 
392	 0.158860730889102 
393	 0.15992022732792 
394	 0.163338501159888 
395	 0.164919955468456 
396	 0.164906488125118 
397	 0.164907308610187 
398	 0.167954683349746 
399	 0.170571575030115 
400	 0.171776992551293 
401	 0.171795982927994 
402	 0.171288029039875 
403	 0.173011837735344 
404	 0.175996092375967 
405	 0.175750766161954 
406	 0.177689079053277 
407	 0.179858229293652 
408	 0.179993305079866 
409	 0.178434286358292 
410	 0.178306744704591 
411	 0.179415230352902 
412	 0.180211286240537 
413	 0.182523287810587 
414	 0.183475143797263 
415	 0.182313221248863 
416	 0.181303757208364 
417	 0.182232038430421 
418	 0.183659066969185 
419	 0.183916265829311 
420	 0.183650303133365 
421	 0.182960421706949 
422	 0.182565463033479 
423	 0.183280144075939 
424	 0.182560787067021 
425	 0.181587809534575 
426	 0.181313533724836 
427	 0.181477467717282 
428	 0.181084583303197 
429	 0.180583571725742 
430	 0.180625069262492 
431	 0.180187268462528 
432	 0.18017913719585 
433	 0.18059478371091 
434	 0.180514737708027 
435	 0.18024119495943 
436	 0.180433303595792 
437	 0.181378625895754 
438	 0.182143722635459 
439	 0.184028208865385 
440	 0.186605973991657 
441	 0.18865572623022 
442	 0.190219241388851 
443	 0.191558165137337 
444	 0.192806618545569 
445	 0.193865281181626 
446	 0.194490385158203 
447	 0.195025046436525 
448	 0.195755016192191 
449	 0.195901065476631 
450	 0.196427341841979 
451	 0.197230341945351 
452	 0.197343646269892 
453	 0.197859369524 
454	 0.198335037796618 
455	 0.198423699744767 
456	 0.19863889496173 
457	 0.199036726208631 
458	 0.199353375355377 
459	 0.199283201041212 
460	 0.199521542449127 
461	 0.199613822708603 
462	 0.199506772000275 
463	 0.199849644198682 
464	 0.200057031705917 
465	 0.200140584552411 
466	 0.200249927954057 
467	 0.200363791095925 
468	 0.200687964544928 
469	 0.201009297141118 
470	 0.200835967391671 
471	 0.200870808417462 
472	 0.200955579114995 
473	 0.200948070628189 
474	 0.201130605105741 
475	 0.201082949269283 
476	 0.200984821239142 
477	 0.201175130379783 
478	 0.201035758706008 
479	 0.201055265418399 
480	 0.201333309839681 
481	 0.201310289502667 
482	 0.201304847932658 
483	 0.201343314058085 
484	 0.201379421980391 
485	 0.201419012906386 
486	 0.20122679017426 
487	 0.200983953276149 
488	 0.201171898893719 
489	 0.201230188301294 
490	 0.201264857817439 
491	 0.20135789886698 
492	 0.201235032357306 
493	 0.201037102735147 
494	 0.200901751769707 
495	 0.2009277401251 
496	 0.200907596750617 
497	 0.200847851786672 
498	 0.200799241294615 
499	 0.200854288143447 
500	 0.200692161133743 
501	 0.200454856220653 
502	 0.200347990900088 
503	 0.200192439012647 
504	 0.200021719807564 
505	 0.199937675330694 
506	 0.200072302342263 
507	 0.199921485664951 
508	 0.199753653814129 
509	 0.199763830052466 
510	 0.199514048974398 
511	 0.199352460179552 
512	 0.199286711871724 
513	 0.199154348523762 
514	 0.198999667717931 
515	 0.198974326307991 
516	 0.199020115188663 
517	 0.198687588215094 
518	 0.198478773985167 
519	 0.198327765323389 
520	 0.198069682621106 
521	 0.198059945214766 
522	 0.198031098669363 
523	 0.197856862543218 
524	 0.197596782164625 
525	 0.197390102003921 
526	 0.197234774126603 
527	 0.197106577907613 
528	 0.197049309232413 
529	 0.196933739675216 
530	 0.196751251622571 
531	 0.196569911418841 
532	 0.196309508084147 
533	 0.196195166193656 
534	 0.196246455040195 
535	 0.195957050628345 
536	 0.195756128245765 
537	 0.195639980456443 
538	 0.195458086773775 
539	 0.195278735950097 
540	 0.195083948033407 
541	 0.194906037712335 
542	 0.194853668729591 
543	 0.194757328742198 
544	 0.194606474279413 
545	 0.194436603502242 
546	 0.194278758511737 
547	 0.194028847823583 
548	 0.193766276990885 
549	 0.193707554217456 
550	 0.193575203685601 
551	 0.193374500799319 
552	 0.193187591508909 
553	 0.193170863417032 
554	 0.19305489088756 
555	 0.192864385068499 
556	 0.192761459421714 
557	 0.192602638034075 
558	 0.19248350967999 
559	 0.192438653910794 
560	 0.192357452380466 
561	 0.19221078479583 
562	 0.192096632686412 
563	 0.192105978528616 
564	 0.19202628896376 
565	 0.191871436996271 
566	 0.19167507910462 
567	 0.191476860597058 
568	 0.191360458630514 
569	 0.191246635373764 
570	 0.191040911502024 
571	 0.190719442061372 
572	 0.190509138787025 
573	 0.190395815329003 
574	 0.190204982731222 
575	 0.190115653956508 
576	 0.190021872729611 
577	 0.189849624101706 
578	 0.189687483659502 
579	 0.189524350031121 
580	 0.1893064668805 
581	 0.18899703549719 
582	 0.188824411853655 
583	 0.188663612020995 
584	 0.188493272126881 
585	 0.188483986584997 
586	 0.188512912392998 
587	 0.188516893290906 
588	 0.188472208899678 
589	 0.188452961044281 
590	 0.188400554529314 
591	 0.188287032184127 
592	 0.18812309644296 
593	 0.188050920748375 
594	 0.188023040684549 
595	 0.187984452014011 
596	 0.187990446443719 
597	 0.187877716006817 
598	 0.187677071971006 
599	 0.187517400496301 
600	 0.187345604486866 
601	 0.187224212514459 
602	 0.187163102223255 
603	 0.187057278126801 
604	 0.186968098127723 
605	 0.186907377629601 
606	 0.186849905458201 
607	 0.186657384650523 
608	 0.186504244308893 
609	 0.186445723292536 
610	 0.186380664721101 
611	 0.186252374193929 
612	 0.18611875995982 
613	 0.186030946277208 
614	 0.185895475608745 
615	 0.185842591362698 
616	 0.185821280222127 
617	 0.1856735604134 
618	 0.185602012249014 
619	 0.185501540322322 
620	 0.185333564613386 
621	 0.185311746573681 
622	 0.185243084595831 
623	 0.185148264651031 
624	 0.185111647108743 
625	 0.185044057015354 
626	 0.184920709627245 
627	 0.18477610181972 
628	 0.184713387823078 
629	 0.184682193346291 
630	 0.18466703995092 
631	 0.184638876958605 
632	 0.184480002219784 
633	 0.18435260021579 
634	 0.184290144222847 
635	 0.184216661416942 
636	 0.184160228911308 
637	 0.184131372693194 
638	 0.184102025829684 
639	 0.183941809165751 
640	 0.18384836082224 
641	 0.183802394966967 
642	 0.183701939824318 
643	 0.183666675269641 
644	 0.183598611557531 
645	 0.183475222965199 
646	 0.183410499079224 
647	 0.183364121076552 
648	 0.183315704738341 
649	 0.18325014813649 
650	 0.183155148303098 
651	 0.183089403827268 
652	 0.183045287697137 
653	 0.182959401118493 
654	 0.182868965849052 
655	 0.182788871734748 
656	 0.182725182023395 
657	 0.182676543143797 
658	 0.182606126518096 
659	 0.182521145566991 
660	 0.18244631820641 
661	 0.182347368215522 
662	 0.182281596552275 
663	 0.182271133058179 
664	 0.182280535411485 
665	 0.182173936121701 
666	 0.182003654533914 
667	 0.181872431941184 
668	 0.181827735392908 
669	 0.181771217498707 
670	 0.181682180109137 
671	 0.181606720190105 
672	 0.181506790485432 
673	 0.181421789945656 
674	 0.181376846404849 
675	 0.181337280655659 
676	 0.181290739698241 
677	 0.181210173178063 
678	 0.181080714797069 
679	 0.180994768283293 
680	 0.180937454142135 
681	 0.180876696321096 
682	 0.180772288885883 
683	 0.180647325407648 
684	 0.180555730070844 
685	 0.180515546449356 
686	 0.180383947796008 
687	 0.180294054147839 
688	 0.1802589421689 
689	 0.180201516323973 
690	 0.180091231657319 
691	 0.179963078369268 
692	 0.179848667986035 
693	 0.179746706631519 
694	 0.17970126609133 
695	 0.179658652412523 
696	 0.179553994078131 
697	 0.17948135517623 
698	 0.17939021123622 
699	 0.179280676924512 
700	 0.179212044158226 
701	 0.179153820143579 
702	 0.179064485264834 
703	 0.178936211214365 
704	 0.178858108336982 
705	 0.178807236564692 
706	 0.178720125311006 
707	 0.178539333743833 
708	 0.178440048364596 
709	 0.178362687633928 
710	 0.178267380326398 
711	 0.178178919815803 
712	 0.178131510604814 
713	 0.178073895517518 
714	 0.177967113099441 
715	 0.177919362385657 
716	 0.177852698653173 
717	 0.177738863642518 
718	 0.177596440452651 
719	 0.177501130895621 
720	 0.177440705103326 
721	 0.177378159787453 
722	 0.177253320646291 
723	 0.177164970667704 
724	 0.177087627838111 
725	 0.176967695187935 
726	 0.17683677535795 
727	 0.176760844620224 
728	 0.17671643754557 
729	 0.176604019215159 
730	 0.176523267317617 
731	 0.176470134029221 
732	 0.176411371024495 
733	 0.176283130348257 
734	 0.176199348931176 
735	 0.176141259268478 
736	 0.176045111739101 
737	 0.175946823395966 
738	 0.175849617021705 
739	 0.175759003831373 
740	 0.175684155373924 
741	 0.175607266196917 
742	 0.175524809315958 
743	 0.175434954424361 
744	 0.175327631928482 
745	 0.175230183515302 
746	 0.175168100884122 
747	 0.175147768664094 
748	 0.175065855341552 
749	 0.174967101600425 
750	 0.174893029577106 
751	 0.174861785806809 
752	 0.174739795484013 
753	 0.174606301577637 
754	 0.174541215341227 
755	 0.174473579900564 
756	 0.174400023725043 
757	 0.174327110896679 
758	 0.174264865721577 
759	 0.174202505651049 
760	 0.174091968015431 
761	 0.173958284193738 
762	 0.173917002513901 
763	 0.173837712893768 
764	 0.173745972800017 
765	 0.173677537324317 
766	 0.173580388420924 
767	 0.173521926428175 
768	 0.173491069792879 
769	 0.17342910256143 
770	 0.173249621709482 
771	 0.173140135913326 
772	 0.173133868021737 
773	 0.173055227434078 
774	 0.173022706669052 
775	 0.172960339088057 
776	 0.172826879791217 
777	 0.17279484730597 
778	 0.172707719751832 
779	 0.172610621136307 
780	 0.172602964389673 
781	 0.172498393017238 
782	 0.17241825518128 
783	 0.172384651382323 
784	 0.172295545710071 
785	 0.172228261561394 
786	 0.172183827209159 
787	 0.172132369011115 
788	 0.171995233720346 
789	 0.171929968167203 
790	 0.171902832875475 
791	 0.171828892274077 
792	 0.171783298829044 
793	 0.171713262886483 
794	 0.171631782594572 
795	 0.171604064534091 
796	 0.171535746221784 
797	 0.171454278126855 
798	 0.171385538290556 
799	 0.171316545527209 
800	 0.171235689615508 
801	 0.171164178495836 
802	 0.171116778933288 
803	 0.171041160849458 
804	 0.170984565164654 
805	 0.17093756473985 
806	 0.170857265974525 
807	 0.170746968988393 
808	 0.170683579628284 
809	 0.170669299528671 
810	 0.170602988645889 
811	 0.170587091462127 
812	 0.170558353688504 
813	 0.170470573871491 
814	 0.170426425298272 
815	 0.170349755855256 
816	 0.170252321495265 
817	 0.170186775346882 
818	 0.170220308006223 
819	 0.170191074931639 
820	 0.170084578072325 
821	 0.170019278582774 
822	 0.169964312715911 
823	 0.169925747280855 
824	 0.169881521625089 
825	 0.169757705088606 
826	 0.169712405692271 
827	 0.16969926657491 
828	 0.169640842017058 
829	 0.169550552444953 
830	 0.169498000206974 
831	 0.169464039097658 
832	 0.169393608216352 
833	 0.169317911297411 
834	 0.169237725652245 
835	 0.169171588701135 
836	 0.169150492301674 
837	 0.169131061124874 
838	 0.169108580110992 
839	 0.169066368399655 
840	 0.168955303436891 
841	 0.168896252597236 
842	 0.168884906059091 
843	 0.168869606473686 
844	 0.168767853908131 
845	 0.168738852404455 
846	 0.168719932294557 
847	 0.168595026062928 
848	 0.168591841389236 
849	 0.168567280126732 
850	 0.168485128622543 
851	 0.168419939769187 
852	 0.168394135685973 
853	 0.168345534444637 
854	 0.168254666002834 
855	 0.168181670560408 
856	 0.168109186137221 
857	 0.168106652534989 
858	 0.168162596567014 
859	 0.168004480395059 
860	 0.167932313362735 
861	 0.167909197027146 
862	 0.167819397698127 
863	 0.167773818004866 
864	 0.167716174578577 
865	 0.167647900862615 
866	 0.167603551365655 
867	 0.167559264052723 
868	 0.167544935522749 
869	 0.167556098977737 
870	 0.1675483037547 
871	 0.167485483009464 
872	 0.167383086462986 
873	 0.167282320862273 
874	 0.1672447728301 
875	 0.167187177194408 
876	 0.167153632069234 
877	 0.167159651387864 
878	 0.167057402480435 
879	 0.166995656787138 
880	 0.166988640816484 
881	 0.166992306715351 
882	 0.166945782669408 
883	 0.166894578745864 
884	 0.166835259081157 
885	 0.166746980446291 
886	 0.166683874277778 
887	 0.16664326391915 
888	 0.166613084237571 
889	 0.166579626662416 
890	 0.166567599072069 
891	 0.166502564870442 
892	 0.166386840479856 
893	 0.166327877664313 
894	 0.166315938551059 
895	 0.166285369784022 
896	 0.16622053453497 
897	 0.166215797959363 
898	 0.166194127182624 
899	 0.166134410868398 
900	 0.166063767520152 
901	 0.166099093457103 
902	 0.166089299538731 
903	 0.166005445507029 
904	 0.165890048619329 
905	 0.165863255006101 
906	 0.165837172555455 
907	 0.165810653570498 
908	 0.165812356713152 
909	 0.165794206184212 
910	 0.165721499962618 
911	 0.165655515222647 
912	 0.165679189920067 
913	 0.165573134179504 
914	 0.165503665683098 
915	 0.165523545004326 
916	 0.165546406742684 
917	 0.165487111392994 
918	 0.165407898774566 
919	 0.165340202320248 
920	 0.165258615217875 
921	 0.165216656181882 
922	 0.165174529859267 
923	 0.165129336559067 
924	 0.165148234838917 
925	 0.165079915850954 
926	 0.165030402678084 
927	 0.165032770371643 
928	 0.164888965490478 
929	 0.164900178583813 
930	 0.164956376733088 
931	 0.1649131119653 
932	 0.164799159513053 
933	 0.164766126835341 
934	 0.164769737602452 
935	 0.164731641400673 
936	 0.164672600186939 
937	 0.16453933199814 
938	 0.164435869778964 
939	 0.164457139408235 
940	 0.164488560302302 
941	 0.164476038840293 
942	 0.164475637075373 
943	 0.164526305642104 
944	 0.164414162369008 
945	 0.164255754875875 
946	 0.164188188255089 
947	 0.164275482676925 
948	 0.164275282374855 
949	 0.164192494221946 
950	 0.16411089606467 
951	 0.164120389088369 
952	 0.164148068069497 
953	 0.164116560783149 
954	 0.164073154942643 
955	 0.164093486419751 
956	 0.163991170169288 
957	 0.163945192493679 
958	 0.163928814823253 
959	 0.163817376891045 
960	 0.16376477788774 
961	 0.163727137872734 
962	 0.163714267971547 
963	 0.163738302323908 
964	 0.163565250118361 
965	 0.163544101645576 
966	 0.163669790149552 
967	 0.1636930546892 
968	 0.163640559495773 
969	 0.163604629858518 
970	 0.163527909105822 
971	 0.163315672733617 
972	 0.163298416315681 
973	 0.163296595940411 
974	 0.163267826888771 
975	 0.163273223590806 
976	 0.163241089323191 
977	 0.163218275309947 
978	 0.163199770825717 
979	 0.163151747669889 
980	 0.163116098596484 
981	 0.163023146396635 
982	 0.162938887978297 
983	 0.162967364339017 
984	 0.162936510184415 
985	 0.162894264905874 
986	 0.162890972218512 
987	 0.162934602776533 
988	 0.162876995767694 
989	 0.162771761581947 
990	 0.162604230986427 
991	 0.162408586203037 
992	 0.162605135668724 
993	 0.162632175745812 
994	 0.162587551648086 
995	 0.162716839919001 
996	 0.162451416941104 
997	 0.162468782418133 
998	 0.1625906454727 
999	 0.162463634421168 
1000	 0.162448408081338 
1001	 0.157962862068139 
1002	 0.157934654587961 
1003	 0.157875999652884 
1004	 0.157841530744769 
1005	 0.157845153236842 
1006	 0.157817303901522 
1007	 0.157783624298149 
1008	 0.15771856886494 
1009	 0.157656314606972 
1010	 0.157550406717521 
1011	 0.157469327608434 
1012	 0.157468894182804 
1013	 0.157506120098129 
1014	 0.157474266974455 
1015	 0.157426282411676 
1016	 0.157398248258951 
1017	 0.157355803330995 
1018	 0.157284827932415 
1019	 0.15725349815122 
1020	 0.157276928085024 
1021	 0.1572099805547 
1022	 0.157124489496012 
1023	 0.157114759343524 
1024	 0.157029391251514 
1025	 0.157011803233983 
1026	 0.157061970802768 
1027	 0.156993010105357 
1028	 0.156945751627251 
1029	 0.15693460568842 
1030	 0.156870993540727 
1031	 0.156806474653747 
1032	 0.156747063436836 
1033	 0.156705563412104 
1034	 0.156632193608823 
1035	 0.156580244290197 
1036	 0.156587693095026 
1037	 0.156565713127371 
1038	 0.156545469191644 
1039	 0.156561680071691 
1040	 0.156567627089616 
1041	 0.156518671481035 
1042	 0.156438585664874 
1043	 0.15637324570191 
1044	 0.156311447159233 
1045	 0.156234869588164 
1046	 0.156192019546432 
1047	 0.156179392118503 
1048	 0.156132875281693 
1049	 0.156041155071893 
1050	 0.155958556917256 
1051	 0.155905104967988 
1052	 0.155841028923227 
1053	 0.155791204763531 
1054	 0.155764477429766 
1055	 0.155725812256186 
1056	 0.155704938482512 
1057	 0.155674169167083 
1058	 0.155672936100758 
1059	 0.155616337574642 
1060	 0.155522179042533 
1061	 0.155442907623401 
1062	 0.155347520760543 
1063	 0.155272981295244 
1064	 0.155240914849391 
1065	 0.155172271041399 
1066	 0.155116954047723 
1067	 0.155086666798084 
1068	 0.155057584131221 
1069	 0.155063590193953 
1070	 0.155031187565577 
1071	 0.15497832105159 
1072	 0.154916747645604 
1073	 0.154821582379946 
1074	 0.154743653360111 
1075	 0.154647025061645 
1076	 0.154614438920414 
1077	 0.154565037373094 
1078	 0.154562067754878 
1079	 0.154576831803646 
1080	 0.154532620650638 
1081	 0.154494570111938 
1082	 0.15444678886193 
1083	 0.154401269987935 
1084	 0.154359303612207 
1085	 0.154291424471145 
1086	 0.154203739162345 
1087	 0.154132473366622 
1088	 0.154030718522324 
1089	 0.15395959119451 
1090	 0.15396608887517 
1091	 0.1539623377424 
1092	 0.153935435734667 
1093	 0.153912401193648 
1094	 0.153861840816879 
1095	 0.153821231292531 
1096	 0.153788237602587 
1097	 0.153735193158639 
1098	 0.153705871482139 
1099	 0.153689841388691 
1100	 0.153655135698063 
1101	 0.153639106429771 
1102	 0.15360324939411 
1103	 0.153549331305956 
1104	 0.153465718451563 
1105	 0.153431775316272 
1106	 0.153384487603548 
1107	 0.153329904200452 
1108	 0.153307539374956 
1109	 0.153269419890156 
1110	 0.153228734898474 
1111	 0.15318682641613 
1112	 0.153144616935752 
1113	 0.153108291687756 
1114	 0.153077221144998 
1115	 0.15303355272667 
1116	 0.152983743253567 
1117	 0.152949247739219 
1118	 0.152923332089473 
1119	 0.152869228943258 
1120	 0.152832814941131 
1121	 0.152806662617038 
1122	 0.152753070729463 
1123	 0.152705987298275 
1124	 0.152661975962498 
1125	 0.152620645592176 
1126	 0.152586622579454 
1127	 0.152565494971633 
1128	 0.152522312498847 
1129	 0.152465973208778 
1130	 0.152431871066192 
1131	 0.15239709744745 
1132	 0.152358880173829 
1133	 0.152344809703538 
1134	 0.152312785609029 
1135	 0.152262276614966 
1136	 0.152208693439246 
1137	 0.152157366593963 
1138	 0.152114385869602 
1139	 0.152070318495001 
1140	 0.152026340088891 
1141	 0.151983053638603 
1142	 0.15194070003963 
1143	 0.151898382215441 
1144	 0.151854080850001 
1145	 0.151811823609932 
1146	 0.151783268672335 
1147	 0.151739287800146 
1148	 0.15167802847074 
1149	 0.151628036763195 
1150	 0.151575651015671 
1151	 0.151524887087094 
1152	 0.151473465439738 
1153	 0.151440436109844 
1154	 0.151396753093399 
1155	 0.151345175721211 
1156	 0.15129979243345 
1157	 0.151266373707093 
1158	 0.151212584335185 
1159	 0.151138989181537 
1160	 0.151090365718177 
1161	 0.151043111081769 
1162	 0.150998794181646 
1163	 0.150979002294977 
1164	 0.150941259349009 
1165	 0.150890887013688 
1166	 0.150837293508463 
1167	 0.150791984528428 
1168	 0.150760604102265 
1169	 0.15071485546969 
1170	 0.150670488817617 
1171	 0.150627271874074 
1172	 0.150575300052186 
1173	 0.15052434446788 
1174	 0.150471739710115 
1175	 0.150431372258015 
1176	 0.150398521609905 
1177	 0.150358912224637 
1178	 0.150327463668839 
1179	 0.150291021462148 
1180	 0.150243734781105 
1181	 0.150197627910503 
1182	 0.150138979178787 
1183	 0.150111308136776 
1184	 0.150079145367724 
1185	 0.150048681912471 
1186	 0.150016151467959 
1187	 0.149995497958329 
1188	 0.149963501703453 
1189	 0.149922084847991 
1190	 0.149881735059898 
1191	 0.149841989228566 
1192	 0.149799947197498 
1193	 0.149752216411023 
1194	 0.149706733053034 
1195	 0.149662869620242 
1196	 0.149617640931032 
1197	 0.149559010957371 
1198	 0.149519422163089 
1199	 0.149488439385441 
1200	 0.149470203961089 
1201	 0.149434386467909 
1202	 0.149405816555471 
1203	 0.149367811342233 
1204	 0.149312936166926 
1205	 0.149265365955154 
1206	 0.149222068418638 
1207	 0.149178125904226 
1208	 0.149128107884232 
1209	 0.149082606016365 
1210	 0.149043946950439 
1211	 0.149002316716467 
1212	 0.148966183794765 
1213	 0.148918073091947 
1214	 0.148851062246294 
1215	 0.148802503196002 
1216	 0.148758512736305 
1217	 0.148709496191626 
1218	 0.148673769256972 
1219	 0.148667038430109 
1220	 0.148625780290161 
1221	 0.148565000208138 
1222	 0.148520944249844 
1223	 0.148469748445526 
1224	 0.148425360920277 
1225	 0.148402126193431 
1226	 0.148359275909522 
1227	 0.148293611303984 
1228	 0.148248277735707 
1229	 0.148211878669247 
1230	 0.148168644273339 
1231	 0.14813618571477 
1232	 0.148097113185057 
1233	 0.148052785546485 
1234	 0.147997170205933 
1235	 0.147946387185089 
1236	 0.147889021058527 
1237	 0.147850651259038 
1238	 0.147822276190467 
1239	 0.14778408562378 
1240	 0.147760383795951 
1241	 0.147720267302346 
1242	 0.14765869480469 
1243	 0.147610151784894 
1244	 0.147565574526835 
1245	 0.147519960106667 
1246	 0.147479609350837 
1247	 0.147432304036601 
1248	 0.147379505133956 
1249	 0.147328120601614 
1250	 0.147281504341083 
1251	 0.147222363568673 
1252	 0.147161477576285 
1253	 0.147091873240445 
1254	 0.147039005137879 
1255	 0.14699041379593 
1256	 0.146937019926781 
1257	 0.146894826226933 
1258	 0.146844734060373 
1259	 0.146780490823911 
1260	 0.14672304877327 
1261	 0.14667120074267 
1262	 0.146619469204949 
1263	 0.146561198295456 
1264	 0.146513547984667 
1265	 0.146485434921898 
1266	 0.14643968672998 
1267	 0.146394534924992 
1268	 0.146337131624844 
1269	 0.146276622303487 
1270	 0.146195254875442 
1271	 0.146139079706564 
1272	 0.146093097957651 
1273	 0.14604230262126 
1274	 0.145998654679393 
1275	 0.145953410023466 
1276	 0.145905471301162 
1277	 0.145858905220689 
1278	 0.145808634176329 
1279	 0.145771500685824 
1280	 0.145747917710794 
1281	 0.1457104913402 
1282	 0.145681846787526 
1283	 0.145644049767605 
1284	 0.145593665714626 
1285	 0.145533954413591 
1286	 0.145488158301621 
1287	 0.145435304866615 
1288	 0.145383468844836 
1289	 0.145331816910616 
1290	 0.145279109088893 
1291	 0.145221089452526 
1292	 0.145172819124755 
1293	 0.145126267668936 
1294	 0.145081070487043 
1295	 0.14504502734388 
1296	 0.14500482395627 
1297	 0.14497381132074 
1298	 0.144922559022183 
1299	 0.14485629412608 
1300	 0.144795361302292 
1301	 0.144719539776749 
1302	 0.144653021218735 
1303	 0.14459674757569 
1304	 0.144537871836012 
1305	 0.144474681117373 
1306	 0.144418338283913 
1307	 0.144368157418117 
1308	 0.144320782024303 
1309	 0.144276535257269 
1310	 0.144241542809108 
1311	 0.144199382151398 
1312	 0.144159041450488 
1313	 0.144106757753148 
1314	 0.144045325599782 
1315	 0.143990096532211 
1316	 0.14393407326016 
1317	 0.14387913932873 
1318	 0.143826284472757 
1319	 0.143767362892692 
1320	 0.14369908005303 
1321	 0.143638021382302 
1322	 0.143570054330685 
1323	 0.143526480478355 
1324	 0.143489532290819 
1325	 0.143441905912675 
1326	 0.143385505737972 
1327	 0.143342895377099 
1328	 0.143292473097341 
1329	 0.14322555523797 
1330	 0.143164165417629 
1331	 0.14310330568139 
1332	 0.143038708864459 
1333	 0.142959740887229 
1334	 0.142910986455585 
1335	 0.142874089896076 
1336	 0.142837825410059 
1337	 0.142836485220872 
1338	 0.142794692680671 
1339	 0.142718694455259 
1340	 0.142671624509359 
1341	 0.142625868854229 
1342	 0.142574110019671 
1343	 0.142533516310868 
1344	 0.142493844410229 
1345	 0.142438042654882 
1346	 0.142383304960958 
1347	 0.142352373535734 
1348	 0.142315115348047 
1349	 0.14225432284995 
1350	 0.142203139078683 
1351	 0.142142930672105 
1352	 0.142066272140905 
1353	 0.142002223615456 
1354	 0.141942902935295 
1355	 0.14188253462261 
1356	 0.141826880686211 
1357	 0.141758735019714 
1358	 0.141679115890394 
1359	 0.141614656741995 
1360	 0.141550225923231 
1361	 0.141491761695713 
1362	 0.141447047826506 
1363	 0.141397956016069 
1364	 0.141343570089202 
1365	 0.141291121386689 
1366	 0.141248299221152 
1367	 0.141201623104661 
1368	 0.141130055466017 
1369	 0.141066271719126 
1370	 0.141005811308232 
1371	 0.140948456210806 
1372	 0.140895832411158 
1373	 0.140838125648455 
1374	 0.140776640399417 
1375	 0.140701416246227 
1376	 0.140633431565197 
1377	 0.140575583331322 
1378	 0.140499788556404 
1379	 0.140407991988662 
1380	 0.140331715621641 
1381	 0.140252441618048 
1382	 0.140174494337743 
1383	 0.140112597295337 
1384	 0.140035555481457 
1385	 0.139949424736529 
1386	 0.139864875428143 
1387	 0.139780701456941 
1388	 0.139690804201499 
1389	 0.1396040281906 
1390	 0.139491554338836 
1391	 0.139397369610414 
1392	 0.139288106490324 
1393	 0.139162934646273 
1394	 0.139048881832661 
1395	 0.138923832731943 
1396	 0.138793811054912 
1397	 0.138647641852571 
1398	 0.138498012018458 
1399	 0.138334163003119 
1400	 0.138144663595827 
1401	 0.137961434086056 
1402	 0.137766862503271 
1403	 0.137594314560124 
1404	 0.137435905785762 
1405	 0.13726221599949 
1406	 0.137099563740607 
1407	 0.136917325582283 
1408	 0.136704004916584 
1409	 0.136514965660521 
1410	 0.136330912483146 
1411	 0.136153128998911 
1412	 0.13598163474855 
1413	 0.135818896328185 
1414	 0.135667621710815 
1415	 0.135514224810806 
1416	 0.13536201151274 
1417	 0.135215896173514 
1418	 0.135072958725338 
1419	 0.134923655224932 
1420	 0.134798935491884 
1421	 0.134680483869598 
1422	 0.134532602828973 
1423	 0.134394680633294 
1424	 0.134252243140149 
1425	 0.134093863599051 
1426	 0.133948965677227 
1427	 0.133813536416611 
1428	 0.133674632181587 
1429	 0.133532750558714 
1430	 0.133401981817316 
1431	 0.133276822358819 
1432	 0.133152067873172 
1433	 0.133047802606256 
1434	 0.132915350083991 
1435	 0.132772017532436 
1436	 0.132624778113637 
1437	 0.132442433547026 
1438	 0.132291119576073 
1439	 0.132151155894147 
1440	 0.132015343774833 
1441	 0.131900762400701 
1442	 0.131791346319271 
1443	 0.131667215218776 
1444	 0.131547034692938 
1445	 0.13142607364107 
1446	 0.131305013145396 
1447	 0.131200914094385 
1448	 0.131102008639496 
1449	 0.131012365958156 
1450	 0.130943619108081 
1451	 0.130880827467211 
1452	 0.130828238645583 
1453	 0.130786454992908 
1454	 0.130756014116034 
1455	 0.130730855514207 
1456	 0.130712251798623 
1457	 0.130711451480486 
1458	 0.130723749978607 
1459	 0.130740193178989 
1460	 0.130772492453069 
1461	 0.13080495315705 
1462	 0.130836226494322 
1463	 0.130881582550882 
1464	 0.130947872223439 
1465	 0.13100020927695 
1466	 0.131061344704704 
1467	 0.131106748672796 
1468	 0.131134511629291 
1469	 0.131167509840507 
1470	 0.131199490340099 
1471	 0.131221371875735 
1472	 0.131254091759925 
1473	 0.131285421670262 
1474	 0.1312845357939 
1475	 0.13129788602824 
1476	 0.131319915123131 
1477	 0.131322876372909 
1478	 0.131339877005425 
1479	 0.131355812890657 
1480	 0.131355679980945 
1481	 0.131357935592479 
1482	 0.13135955592285 
1483	 0.131361024935571 
1484	 0.131368504577938 
1485	 0.131381541848552 
1486	 0.131379669504185 
1487	 0.131377135853355 
1488	 0.131369446895101 
1489	 0.131342346848781 
1490	 0.131332337448016 
1491	 0.131332979743333 
1492	 0.131329580910223 
1493	 0.131336017774464 
1494	 0.131324737250928 
1495	 0.131303346647949 
1496	 0.131282455310899 
1497	 0.131245998095055 
1498	 0.131221915530285 
1499	 0.131216177345754 
1500	 0.131190334262011 
1501	 0.131156999286775 
1502	 0.131119161200089 
1503	 0.131069356555505 
1504	 0.131009594833576 
1505	 0.130963443186922 
1506	 0.130940759800489 
1507	 0.130931911502487 
1508	 0.130924670797955 
1509	 0.130910943144881 
1510	 0.130875865639573 
1511	 0.130821348651102 
1512	 0.130776387599846 
1513	 0.130734005426864 
1514	 0.130703735500404 
1515	 0.130693896511479 
1516	 0.130669338677183 
1517	 0.130643283567387 
1518	 0.13061784649753 
1519	 0.130588886005317 
1520	 0.130555444306379 
1521	 0.130519343144548 
1522	 0.130474289549925 
1523	 0.130442016448188 
1524	 0.130417598240284 
1525	 0.130382786499963 
1526	 0.130349784189408 
1527	 0.130320129192591 
1528	 0.130280064256144 
1529	 0.130241349252619 
1530	 0.130215937834714 
1531	 0.130180904309902 
1532	 0.130133843721931 
1533	 0.130094593426037 
1534	 0.130049869194706 
1535	 0.130019524232045 
1536	 0.130002279337549 
1537	 0.12997897088779 
1538	 0.129962330997895 
1539	 0.129944249244877 
1540	 0.129919288881325 
1541	 0.129898831700245 
1542	 0.129894876021482 
1543	 0.129873925186431 
1544	 0.129833573414646 
1545	 0.129805696176703 
1546	 0.129780565146941 
1547	 0.129750057377287 
1548	 0.129712335045956 
1549	 0.129687503113104 
1550	 0.12963818932212 
1551	 0.129567963760093 
1552	 0.129516807644858 
1553	 0.129476043597651 
1554	 0.129438423700629 
1555	 0.129417163235596 
1556	 0.129385491467516 
1557	 0.129332949411757 
1558	 0.129286435372736 
1559	 0.129226724853327 
1560	 0.129177421739398 
1561	 0.129133736776374 
1562	 0.129092772007594 
1563	 0.129057640493986 
1564	 0.129011109652224 
1565	 0.128962537634224 
1566	 0.128910106016884 
1567	 0.128847023068197 
1568	 0.128792852315371 
1569	 0.128746693693981 
1570	 0.128690561711449 
1571	 0.128626937386527 
1572	 0.128570102495154 
1573	 0.128511730654103 
1574	 0.128454305135955 
1575	 0.128401926762987 
1576	 0.128348260088112 
1577	 0.12828856552584 
1578	 0.128237751834786 
1579	 0.128196307704757 
1580	 0.128150309667532 
1581	 0.128116380263861 
1582	 0.128058110899766 
1583	 0.127971615142488 
1584	 0.127912603265977 
1585	 0.127854209536892 
1586	 0.127800216320188 
1587	 0.127770030189676 
1588	 0.127727807130875 
1589	 0.127673815282433 
1590	 0.127621469948658 
1591	 0.127572818202303 
1592	 0.127522441823255 
1593	 0.127470111189027 
1594	 0.12741624622196 
1595	 0.127366338695553 
1596	 0.127307129374597 
1597	 0.127238146658145 
1598	 0.127169870329523 
1599	 0.127095940613653 
1600	 0.12702435080201 
1601	 0.12695132629294 
1602	 0.126881325834919 
1603	 0.126818531991719 
1604	 0.126746800395704 
1605	 0.126668916891306 
1606	 0.126596272910633 
1607	 0.126518356684097 
1608	 0.126444696444223 
1609	 0.12637832000029 
1610	 0.126310781212242 
1611	 0.126244315295792 
1612	 0.126180619655018 
1613	 0.126120430349601 
1614	 0.12606591094419 
1615	 0.126004647626105 
1616	 0.125937718559729 
1617	 0.125877891078065 
1618	 0.125805356710563 
1619	 0.12573730105094 
1620	 0.12567766479825 
1621	 0.125619282499621 
1622	 0.125565139301435 
1623	 0.12550340172991 
1624	 0.12544080576368 
1625	 0.125383041965353 
1626	 0.125321843135858 
1627	 0.12526346263213 
1628	 0.125212068073677 
1629	 0.125158814175683 
1630	 0.12510711708884 
1631	 0.125038849019916 
1632	 0.124968884051768 
1633	 0.124893927981862 
1634	 0.124793188231174 
1635	 0.124725742590581 
1636	 0.124683278821522 
1637	 0.12461034839541 
1638	 0.124537720829398 
1639	 0.124456689862653 
1640	 0.124350492806987 
1641	 0.124264807764166 
1642	 0.124186310265194 
1643	 0.124112603363246 
1644	 0.124044135863375 
1645	 0.123974576902048 
1646	 0.123911974668339 
1647	 0.12384808502627 
1648	 0.123788393124458 
1649	 0.12371287299861 
1650	 0.1236264824455 
1651	 0.123555282388688 
1652	 0.123480209940833 
1653	 0.123406554993174 
1654	 0.123349979996796 
1655	 0.123277616884451 
1656	 0.123186469123354 
1657	 0.123110140977816 
1658	 0.123037172591435 
1659	 0.122970448674146 
1660	 0.122910042662676 
1661	 0.122849174872336 
1662	 0.122800014320002 
1663	 0.122734045940232 
1664	 0.122662299868574 
1665	 0.122585704772281 
1666	 0.122491049580845 
1667	 0.122415016718145 
1668	 0.122341923307415 
1669	 0.122275769285691 
1670	 0.122228896450989 
1671	 0.122162947094883 
1672	 0.122096016894855 
1673	 0.122018428997726 
1674	 0.121910455946991 
1675	 0.121843454948399 
1676	 0.121798128732993 
1677	 0.121737596873435 
1678	 0.121692941106886 
1679	 0.121640958438785 
1680	 0.121575023782337 
1681	 0.121509609193864 
1682	 0.121454593787057 
1683	 0.121388081927946 
1684	 0.12130451776257 
1685	 0.121228009526193 
1686	 0.121145197851082 
1687	 0.121083400250422 
1688	 0.121036475907661 
1689	 0.120974782489455 
1690	 0.120927848348106 
1691	 0.120862376434054 
1692	 0.120772629027952 
1693	 0.120694838972673 
1694	 0.120613004043233 
1695	 0.120544011586235 
1696	 0.120480084402158 
1697	 0.120419864458498 
1698	 0.120377527600122 
1699	 0.120319365018172 
1700	 0.120245869142228 
1701	 0.120192528780508 
1702	 0.120154237199199 
1703	 0.120092121454408 
1704	 0.120030774114032 
1705	 0.119965517947898 
1706	 0.119871831718492 
1707	 0.119803695920517 
1708	 0.119750517225957 
1709	 0.119700110618783 
1710	 0.119659779059367 
1711	 0.119612130899687 
1712	 0.119570967012731 
1713	 0.119522424637612 
1714	 0.119459617322642 
1715	 0.119411300344208 
1716	 0.119377955574287 
1717	 0.119327992074828 
1718	 0.119277396303334 
1719	 0.119217439875984 
1720	 0.119139729770142 
1721	 0.119070851748519 
1722	 0.119000999083651 
1723	 0.118937853975489 
1724	 0.118883095452863 
1725	 0.118811221222553 
1726	 0.118732976151772 
1727	 0.11866559621785 
1728	 0.11858787658245 
1729	 0.118523775284113 
1730	 0.118481025646347 
1731	 0.118420822950446 
1732	 0.118356596998122 
1733	 0.118288718309256 
1734	 0.118216541059528 
1735	 0.118141235641979 
1736	 0.118055876813977 
1737	 0.117979871398974 
1738	 0.117901285592219 
1739	 0.117835035979707 
1740	 0.117785650742787 
1741	 0.117713561937786 
1742	 0.117640757747921 
1743	 0.117565786923937 
1744	 0.11746602107491 
1745	 0.117397808411276 
1746	 0.117353185357825 
1747	 0.117273593451784 
1748	 0.117219788675561 
1749	 0.117165517323286 
1750	 0.117090192731382 
1751	 0.1170268389327 
1752	 0.116979852016573 
1753	 0.116915672352763 
1754	 0.116830942435722 
1755	 0.116742486905617 
1756	 0.116641986111001 
1757	 0.116556708606561 
1758	 0.116496775529113 
1759	 0.116467338408683 
1760	 0.116441189028437 
1761	 0.116385265298654 
1762	 0.116311245741636 
1763	 0.116202104338913 
1764	 0.116089142005844 
1765	 0.116016754230292 
1766	 0.115962844736451 
1767	 0.115916370865746 
1768	 0.115879772848459 
1769	 0.115828951141161 
1770	 0.11575811901146 
1771	 0.115689385064463 
1772	 0.115622880951394 
1773	 0.1155525858601 
1774	 0.115509537156966 
1775	 0.115462121071312 
1776	 0.11540431243159 
1777	 0.115371996279702 
1778	 0.11529766507025 
1779	 0.115243517023945 
1780	 0.115231062581855 
1781	 0.115173885911495 
1782	 0.115120454273076 
1783	 0.115029004843866 
1784	 0.114968539197562 
1785	 0.114936009368927 
1786	 0.114883593185888 
1787	 0.114842645853628 
1788	 0.114792194575805 
1789	 0.114702218719807 
1790	 0.114648192637919 
1791	 0.114640769689455 
1792	 0.11458442715356 
1793	 0.114498385482966 
1794	 0.114451404856588 
1795	 0.114381678077137 
1796	 0.114343423274406 
1797	 0.114380439638746 
1798	 0.114358233045099 
1799	 0.114310457709539 
1800	 0.114265740668203 
1801	 0.112050948691227 
1802	 0.112006809995513 
1803	 0.111981959928082 
1804	 0.111947336067026 
1805	 0.111934957551622 
1806	 0.11194557233369 
1807	 0.111910241529612 
1808	 0.111875208083905 
1809	 0.111837643442159 
1810	 0.111810700310077 
1811	 0.111767568393947 
1812	 0.111734489049805 
1813	 0.111736900572108 
1814	 0.111704813276943 
1815	 0.111646345643607 
1816	 0.111612278538248 
1817	 0.111564639194777 
1818	 0.111498595684603 
1819	 0.111448627227706 
1820	 0.11140801250065 
1821	 0.111350691109871 
1822	 0.111317302082706 
1823	 0.111288340272235 
1824	 0.111271752465552 
1825	 0.111270150324956 
1826	 0.111233467451113 
1827	 0.111224041822956 
1828	 0.111205969441823 
1829	 0.111185930108582 
1830	 0.111145749116351 
1831	 0.11110258307767 
1832	 0.111044212524072 
1833	 0.110985009671191 
1834	 0.110936520357342 
1835	 0.110907592749802 
1836	 0.110896019532415 
1837	 0.110868937272697 
1838	 0.110831373345058 
1839	 0.110802268191056 
1840	 0.110776317540706 
1841	 0.110750911352044 
1842	 0.110705336620367 
1843	 0.110664546962767 
1844	 0.110624387237999 
1845	 0.110546385063269 
1846	 0.110484540492197 
1847	 0.11043589032354 
1848	 0.110398866491686 
1849	 0.110375452459665 
1850	 0.110330742267116 
1851	 0.110285539121535 
1852	 0.110235200833984 
1853	 0.110150996920161 
1854	 0.110079441834389 
1855	 0.110040178375293 
1856	 0.109989594691076 
1857	 0.109945499943901 
1858	 0.10989043484736 
1859	 0.109838795482636 
1860	 0.109772264270369 
1861	 0.109701652080243 
1862	 0.10961483544933 
1863	 0.109527692579971 
1864	 0.109405877940457 
1865	 0.109297165136212 
1866	 0.109206511196931 
1867	 0.109118116816828 
1868	 0.109056298940188 
1869	 0.108977892266977 
1870	 0.10887847526657 
1871	 0.10876405940126 
1872	 0.108634300427912 
1873	 0.108478604860663 
1874	 0.108318263692765 
1875	 0.108148176173851 
1876	 0.107976464600277 
1877	 0.107817271044507 
1878	 0.107652911387368 
1879	 0.107493192549065 
1880	 0.107312854623048 
1881	 0.107124958745665 
1882	 0.106916165370409 
1883	 0.106687746878944 
1884	 0.106440325299919 
1885	 0.106204895971167 
1886	 0.105954260346672 
1887	 0.105691237443134 
1888	 0.105438439374348 
1889	 0.105142593199466 
1890	 0.104822652577786 
1891	 0.104508161945822 
1892	 0.10417992894331 
1893	 0.103841942672542 
1894	 0.103502229233459 
1895	 0.10316270340867 
1896	 0.102780476428358 
1897	 0.102378637560612 
1898	 0.101972782366852 
1899	 0.101572603276194 
1900	 0.101182826900213 
1901	 0.100783023912888 
1902	 0.100401587818727 
1903	 0.100028495974634 
1904	 0.09966296189546 
1905	 9.93097031574011E-02 
1906	 9.89761696172609E-02 
1907	 9.86100837699633E-02 
1908	 0.098255239500628 
1909	 0.09792842379587 
1910	 9.75904068955588E-02 
1911	 9.72741977434344E-02 
1912	 9.69732581121194E-02 
1913	 9.66691867589742E-02 
1914	 0.096347233375702 
1915	 9.60595492842737E-02 
1916	 9.57937375450364E-02 
1917	 9.55237749002249E-02 
1918	 9.52819354150003E-02 
1919	 9.50422474825668E-02 
1920	 9.48227864591956E-02 
1921	 9.46258748909932E-02 
1922	 9.44489684091475E-02 
1923	 9.42745153048321E-02 
1924	 9.40851571339111E-02 
1925	 9.38898757111031E-02 
1926	 9.37066750718109E-02 
1927	 9.35128492609957E-02 
1928	 9.33239573911693E-02 
1929	 9.31753879555731E-02 
1930	 9.30315810551116E-02 
1931	 9.28758876648632E-02 
1932	 9.27253619073519E-02 
1933	 0.092582939236727 
1934	 9.24275000289028E-02 
1935	 9.22817635433336E-02 
1936	 9.21591372704865E-02 
1937	 9.20130213152089E-02 
1938	 9.18504947438165E-02 
1939	 9.16975540634291E-02 
1940	 9.15372116345143E-02 
1941	 9.13792298913499E-02 
1942	 0.091240288085591 
1943	 9.10968848814718E-02 
1944	 9.09634564357516E-02 
1945	 0.090831796757818 
1946	 9.06976286392334E-02 
1947	 9.05521074474627E-02 
1948	 9.04346555498549E-02 
1949	 9.03210810726463E-02 
1950	 9.02232072568114E-02 
1951	 9.01503351104448E-02 
1952	 9.00820355277418E-02 
1953	 9.00029343315657E-02 
1954	 8.99363611466811E-02 
1955	 8.98623262361094E-02 
1956	 8.97842814618255E-02 
1957	 8.97315187799069E-02 
1958	 8.96747222405516E-02 
1959	 8.96636619623447E-02 
1960	 8.96920547660163E-02 
1961	 0.089718287543599 
1962	 8.97768818635642E-02 
1963	 8.98343139427981E-02 
1964	 8.98821379573779E-02 
1965	 8.99568378389852E-02 
1966	 9.00559111250897E-02 
1967	 9.01488263010781E-02 
1968	 9.02586857957224E-02 
1969	 9.03977133429799E-02 
1970	 9.05001204107164E-02 
1971	 9.05954833154505E-02 
1972	 9.06972887691817E-02 
1973	 9.07801146836931E-02 
1974	 9.08779604147485E-02 
1975	 0.091000514321405 
1976	 9.10985790987231E-02 
1977	 9.11900869470064E-02 
1978	 0.091294064060848 
1979	 9.13794168428617E-02 
1980	 9.14584558028633E-02 
1981	 9.15502537939328E-02 
1982	 9.16507549123155E-02 
1983	 9.17267829982019E-02 
1984	 9.18036475888132E-02 
1985	 9.18781260853711E-02 
1986	 0.091928853164242 
1987	 9.19864382140665E-02 
1988	 9.20514098617362E-02 
1989	 9.21107694665136E-02 
1990	 9.21633230171182E-02 
1991	 0.092227617519547 
1992	 9.23151661098809E-02 
1993	 9.24430019266467E-02 
1994	 9.25279414587667E-02 
1995	 9.26039236498499E-02 
1996	 9.26892224310158E-02 
1997	 9.27494731556569E-02 
1998	 9.28308517853286E-02 
1999	 9.29397029796319E-02 
2000	 9.30403176197382E-02 
2001	 9.31451947397605E-02 
2002	 9.32347427684424E-02 
2003	 9.33212705227101E-02 
2004	 9.34410475385092E-02 
2005	 9.35687248901238E-02 
2006	 0.0937178488504 
2007	 9.38487377874261E-02 
2008	 9.40001231861643E-02 
2009	 9.41220758875061E-02 
2010	 9.42209974337357E-02 
2011	 9.43209641756848E-02 
2012	 0.094404849226838 
2013	 9.44973922396593E-02 
2014	 9.45843154837771E-02 
2015	 9.46768078491514E-02 
2016	 9.47815839883141E-02 
2017	 9.48843475398539E-02 
2018	 9.49779356663306E-02 
2019	 9.50717427347181E-02 
2020	 9.51530135012409E-02 
2021	 9.52281101920057E-02 
2022	 9.52906642624099E-02 
2023	 9.53367103509377E-02 
2024	 0.095388460377301 
2025	 0.095413279968215 
2026	 0.095468843248323 
2027	 9.55466551687386E-02 
2028	 9.56252793654412E-02 
2029	 9.56923438784098E-02 
2030	 9.57768483743442E-02 
2031	 9.58286001101874E-02 
2032	 9.58518338174726E-02 
2033	 9.58878887861865E-02 
2034	 9.59150944178702E-02 
2035	 9.59501007690829E-02 
2036	 9.59929736470695E-02 
2037	 0.096025887990442 
2038	 0.096047429420363 
2039	 9.60806629404043E-02 
2040	 9.61164452203234E-02 
2041	 9.61513672620472E-02 
2042	 9.61963501542808E-02 
2043	 9.62412259919267E-02 
2044	 9.62617577897637E-02 
2045	 9.62638334471981E-02 
2046	 9.62699837029465E-02 
2047	 9.62568879601153E-02 
2048	 9.62579397297043E-02 
2049	 9.62563891810952E-02 
2050	 0.096268296580992 
2051	 0.096293612997591 
2052	 9.63148215688057E-02 
2053	 9.63464175297166E-02 
2054	 0.096375001122264 
2055	 9.64000177202756E-02 
2056	 9.64178480441931E-02 
2057	 9.64509440591479E-02 
2058	 9.65054928901284E-02 
2059	 9.65189312147059E-02 
2060	 9.65189771686891E-02 
2061	 9.65240058515495E-02 
2062	 9.65027426270437E-02 
2063	 9.64957297767243E-02 
2064	 9.65010683800644E-02 
2065	 9.65050628682455E-02 
2066	 9.64917374477225E-02 
2067	 9.65011387438651E-02 
2068	 9.65324276476886E-02 
2069	 9.65653433634592E-02 
2070	 9.65852601987752E-02 
2071	 9.66150191185337E-02 
2072	 9.66201261148804E-02 
2073	 0.096607924755034 
2074	 9.65917497552003E-02 
2075	 9.65436424062597E-02 
2076	 0.096540681386511 
2077	 9.65475223496053E-02 
2078	 9.65619383616424E-02 
2079	 9.66206873237449E-02 
2080	 9.66504922461029E-02 
2081	 9.66660965176565E-02 
2082	 9.66821136633076E-02 
2083	 9.66915360979319E-02 
2084	 9.66989435281977E-02 
2085	 9.67094702522259E-02 
2086	 0.09671339999593 
2087	 9.67357739873881E-02 
2088	 9.67701090179386E-02 
2089	 0.096797010365482 
2090	 9.68407481723118E-02 
2091	 9.68620373088612E-02 
2092	 9.68613629004584E-02 
2093	 9.68747825560835E-02 
2094	 9.68855747600913E-02 
2095	 9.69000461659248E-02 
2096	 9.69170724006883E-02 
2097	 9.69415051740889E-02 
2098	 9.69777095788561E-02 
2099	 9.69972302236458E-02 
2100	 9.70305401342223E-02 
2101	 9.70766864512888E-02 
2102	 9.71107373772516E-02 
2103	 9.71445577377154E-02 
2104	 9.71714503145671E-02 
2105	 9.71870690639956E-02 
2106	 9.72147847111983E-02 
2107	 9.72391673507914E-02 
2108	 9.72720697635659E-02 
2109	 9.73264648049656E-02 
2110	 0.097359777645798 
2111	 9.73720421300481E-02 
2112	 9.74074111511793E-02 
2113	 0.097450416489886 
2114	 0.097492483128915 
2115	 9.75180802381534E-02 
2116	 0.097546505406763 
2117	 9.75833334892491E-02 
2118	 9.75985226967553E-02 
2119	 9.76359710275498E-02 
2120	 9.77068318704084E-02 
2121	 9.77586378623571E-02 
2122	 9.78042279937298E-02 
2123	 9.78450895236908E-02 
2124	 9.79008031088154E-02 
2125	 0.097925478945699 
2126	 9.79278218848789E-02 
2127	 9.79245004369946E-02 
2128	 9.78763473139702E-02 
2129	 9.78658215124618E-02 
2130	 0.097869879731291 
2131	 9.78747375089747E-02 
2132	 0.097891713037981 
2133	 9.79457066442293E-02 
2134	 9.79589836190913E-02 
2135	 9.79620246479474E-02 
2136	 9.79548421183142E-02 
2137	 9.79244997399898E-02 
2138	 9.79078574688441E-02 
2139	 9.78852424971598E-02 
2140	 9.78693705797757E-02 
2141	 9.78702476901308E-02 
2142	 9.78514052694757E-02 
2143	 9.78229628580923E-02 
2144	 9.77945454501397E-02 
2145	 9.77548480321677E-02 
2146	 9.77163034336191E-02 
2147	 9.76773507624449E-02 
2148	 0.097644035093798 
2149	 9.75979082570684E-02 
2150	 9.75560333494651E-02 
2151	 9.74808772338318E-02 
2152	 9.73724664094129E-02 
2153	 9.72950264123166E-02 
2154	 9.72057343832005E-02 
2155	 9.71275155809423E-02 
2156	 9.70730416721545E-02 
2157	 9.70125731886743E-02 
2158	 9.69329670311152E-02 
2159	 9.68796827214878E-02 
2160	 9.68659302324724E-02 
2161	 9.68215190326605E-02 
2162	 9.67788970001634E-02 
2163	 9.67229242836792E-02 
2164	 9.66405061745588E-02 
2165	 9.65598585272988E-02 
2166	 9.64817114009872E-02 
2167	 9.64087661001342E-02 
2168	 9.63177619968632E-02 
2169	 9.62179192593804E-02 
2170	 9.61178197167191E-02 
2171	 9.59921920704739E-02 
2172	 9.59014823911655E-02 
2173	 9.58266668759616E-02 
2174	 9.57532976756587E-02 
2175	 9.57100962589837E-02 
2176	 9.56383273892657E-02 
2177	 9.55504211247775E-02 
2178	 9.54713818274538E-02 
2179	 9.53763032562419E-02 
2180	 9.52955228452961E-02 
2181	 9.52381619665686E-02 
2182	 9.51657679939627E-02 
2183	 0.095075503603736 
2184	 9.50148598190313E-02 
2185	 9.49351981925961E-02 
2186	 9.48395910834618E-02 
2187	 9.47611199350546E-02 
2188	 0.094684654795679 
2189	 9.46181260248823E-02 
2190	 9.45744175201275E-02 
2191	 0.094501936293837 
2192	 9.44136072819513E-02 
2193	 9.43464525168583E-02 
2194	 9.42593378166945E-02 
2195	 9.42038438656902E-02 
2196	 9.41956217009804E-02 
2197	 9.41588449405356E-02 
2198	 9.41183399719241E-02 
2199	 9.40802653053947E-02 
2200	 9.40245344967863E-02 
2201	 9.39837832990026E-02 
2202	 9.39625237163483E-02 
2203	 9.39364850660294E-02 
2204	 9.38935833703651E-02 
2205	 9.38409582295872E-02 
2206	 9.38101819065495E-02 
2207	 9.37723105230998E-02 
2208	 9.37401480379605E-02 
2209	 9.37264152769795E-02 
2210	 9.37095755142372E-02 
2211	 0.093693517691453 
2212	 9.36680056317714E-02 
2213	 9.36448051720392E-02 
2214	 0.093622252062229 
2215	 9.35826335116445E-02 
2216	 9.35557167315281E-02 
2217	 9.35510274727631E-02 
2218	 9.35312014580722E-02 
2219	 9.35071663665252E-02 
2220	 9.34734425781529E-02 
2221	 0.093413335829591 
2222	 9.33765399924218E-02 
2223	 9.33686860698047E-02 
2224	 9.33543497067959E-02 
2225	 9.33592120369811E-02 
2226	 9.34084044209982E-02 
2227	 9.34082788988454E-02 
2228	 9.33886119130837E-02 
2229	 9.33759576831092E-02 
2230	 9.33413806663658E-02 
2231	 9.33365959632816E-02 
2232	 0.093353714727746 
2233	 9.33500026966693E-02 
2234	 9.33538406167695E-02 
2235	 9.33436572661791E-02 
2236	 9.33053242910736E-02 
2237	 9.32919667346606E-02 
2238	 9.32974457398523E-02 
2239	 0.093282614633142 
2240	 9.32621962059919E-02 
2241	 9.32471138830045E-02 
2242	 9.32106873269781E-02 
2243	 9.31993206315668E-02 
2244	 9.32208481728298E-02 
2245	 9.32243531492421E-02 
2246	 9.32290403980823E-02 
2247	 9.32105650605229E-02 
2248	 9.31974003539312E-02 
2249	 9.31747856461644E-02 
2250	 9.31438389448823E-02 
2251	 9.31010952161701E-02 
2252	 9.30799058039464E-02 
2253	 9.30530794749108E-02 
2254	 9.30256237844653E-02 
2255	 9.30240036094308E-02 
2256	 9.30074210421276E-02 
2257	 9.29647512192679E-02 
2258	 9.29430378725634E-02 
2259	 0.092936148675065 
2260	 9.29230412327515E-02 
2261	 9.29173037382824E-02 
2262	 9.28977384540386E-02 
2263	 9.28719454934879E-02 
2264	 9.28460581067211E-02 
2265	 9.28046364521757E-02 
2266	 9.27775726587413E-02 
2267	 9.27626229070499E-02 
2268	 9.27414692419063E-02 
2269	 9.27195422302825E-02 
2270	 9.27063867091247E-02 
2271	 9.26752419793743E-02 
2272	 9.26190243771033E-02 
2273	 9.25901278652456E-02 
2274	 9.25637493338799E-02 
2275	 9.25279073299111E-02 
2276	 9.24916362442399E-02 
2277	 9.24756349744839E-02 
2278	 9.24640522608243E-02 
2279	 9.24381352001887E-02 
2280	 9.24289850332176E-02 
2281	 9.24068386987369E-02 
2282	 9.23531041633845E-02 
2283	 9.23223526493216E-02 
2284	 9.23261280280091E-02 
2285	 9.22908677001278E-02 
2286	 0.092222653215826 
2287	 9.21822657191646E-02 
2288	 9.21384724760333E-02 
2289	 9.20934406665888E-02 
2290	 0.092067529739399 
2291	 9.20342088104553E-02 
2292	 9.19962877031928E-02 
2293	 0.091945365399155 
2294	 9.19006854538343E-02 
2295	 9.18444239416893E-02 
2296	 9.17661541766638E-02 
2297	 9.16759448565632E-02 
2298	 9.16156328816472E-02 
2299	 9.15384962438995E-02 
2300	 0.091460496219412 
2301	 0.091401640648508 
2302	 9.13273020122171E-02 
2303	 9.12338424579679E-02 
2304	 9.11884638191779E-02 
2305	 9.11037603556058E-02 
2306	 9.10201522167634E-02 
2307	 9.09394474119642E-02 
2308	 9.08668822033888E-02 
2309	 9.07823590728242E-02 
2310	 9.07020006863416E-02 
2311	 0.090636043353172 
2312	 9.05624590189578E-02 
2313	 9.04748899426961E-02 
2314	 9.03952010207342E-02 
2315	 0.090322632698467 
2316	 9.02403857079216E-02 
2317	 9.01599399710327E-02 
2318	 9.00766683071596E-02 
2319	 8.99904475703513E-02 
2320	 8.99028454441281E-02 
2321	 8.97737215050045E-02 
2322	 8.97036551697044E-02 
2323	 8.96912014282939E-02 
2324	 8.96480187168859E-02 
2325	 8.96092836539418E-02 
2326	 8.95872852906239E-02 
2327	 8.95583914861334E-02 
2328	 8.95255575193045E-02 
2329	 8.95253338541261E-02 
2330	 8.95238902782127E-02 
2331	 8.94697002039721E-02 
2332	 8.93775891351372E-02 
2333	 8.92745867527797E-02 
2334	 8.92576356564932E-02 
2335	 8.92625352877789E-02 
2336	 8.92743344379509E-02 
2337	 8.93106774732472E-02 
2338	 8.92671755441917E-02 
2339	 8.92006951283777E-02 
2340	 0.08914884401748 
2341	 8.91320929329197E-02 
2342	 8.91333278593555E-02 
2343	 8.91303069232347E-02 
2344	 8.91191409760299E-02 
2345	 8.90649676103778E-02 
2346	 8.89608091357414E-02 
2347	 8.88773891653444E-02 
2348	 8.87629159363661E-02 
2349	 8.86883142683369E-02 
2350	 8.86270954163808E-02 
2351	 0.088567440807898 
2352	 8.85298206896232E-02 
2353	 0.088478225781479 
2354	 8.84308081231585E-02 
2355	 8.83700868945198E-02 
2356	 8.83022098372409E-02 
2357	 8.82449686053298E-02 
2358	 8.81832812005411E-02 
2359	 0.088112789818862 
2360	 8.80753343916185E-02 
2361	 8.79800769725694E-02 
2362	 8.77989483151465E-02 
2363	 8.76915737466108E-02 
2364	 8.75801483016375E-02 
2365	 8.74856939376994E-02 
2366	 8.74667075810392E-02 
2367	 8.74257626750941E-02 
2368	 8.73783812764068E-02 
2369	 8.73106453335625E-02 
2370	 8.72463988377117E-02 
2371	 8.71545463279595E-02 
2372	 8.70026295625033E-02 
2373	 8.69254202841241E-02 
2374	 8.68574176473475E-02 
2375	 8.67539410628244E-02 
2376	 8.66737801306933E-02 
2377	 8.66167618382711E-02 
2378	 8.65416360703618E-02 
2379	 8.64264702528466E-02 
2380	 8.63646663793179E-02 
2381	 8.63299824269774E-02 
2382	 0.086251490002639 
2383	 8.61835201899256E-02 
2384	 8.61322239034297E-02 
2385	 8.60098058103217E-02 
2386	 8.58868171818248E-02 
2387	 8.58934057206099E-02 
2388	 0.085866641506095 
2389	 8.56995334342084E-02 
2390	 8.55646687777748E-02 
2391	 8.54029370806193E-02 
2392	 8.52314238446268E-02 
2393	 8.52117522787589E-02 
2394	 8.52232019694851E-02 
2395	 0.085241809331472 
2396	 8.52578531349703E-02 
2397	 8.52047190217384E-02 
2398	 8.50561380541069E-02 
2399	 8.48655012894902E-02 
2400	 8.47120309695583E-02 
2401	 8.45643754201973E-02 
2402	 8.44687490122277E-02 
2403	 8.43911690064857E-02 
2404	 8.42819172761295E-02 
2405	 8.41491493486232E-02 
2406	 8.40092586709791E-02 
2407	 8.39088025295764E-02 
2408	 8.37931017034051E-02 
2409	 8.37607841403508E-02 
2410	 8.37253621798078E-02 
2411	 0.083590723074765 
2412	 8.34615196622401E-02 
2413	 8.32285998176278E-02 
2414	 8.30608941690803E-02 
2415	 0.082996622665982 
2416	 8.29132588642474E-02 
2417	 8.29288071992182E-02 
2418	 8.28469371272304E-02 
2419	 8.26846336694518E-02 
2420	 8.25441611677361E-02 
2421	 8.24017970188371E-02 
2422	 8.22269303686812E-02 
2423	 8.19813576333081E-02 
2424	 0.081884070063843 
2425	 8.18232859057048E-02 
2426	 0.081749146186837 
2427	 8.18498067496295E-02 
2428	 0.081763574962363 
2429	 8.15279240346672E-02 
2430	 8.13847952834104E-02 
2431	 8.12051796998046E-02 
2432	 0.081081653326824 
2433	 8.09956262335187E-02 
2434	 8.08643629482644E-02 
2435	 8.07424872566238E-02 
2436	 8.05832869707932E-02 
2437	 8.04405841349483E-02 
2438	 8.03177764104213E-02 
2439	 8.01594161606622E-02 
2440	 8.00077321062438E-02 
2441	 7.98377480920351E-02 
2442	 0.079713705159507 
2443	 7.96172858879906E-02 
2444	 7.95107122476532E-02 
2445	 7.94014510538679E-02 
2446	 7.93284840636217E-02 
2447	 7.92771931231452E-02 
2448	 7.91922612188567E-02 
2449	 0.079237036281381 
2450	 7.91069273548849E-02 
2451	 7.87942427281394E-02 
2452	 0.078638983037673 
2453	 7.84174374417046E-02 
2454	 7.82833365284058E-02 
2455	 7.83139076166483E-02 
2456	 7.82267026374155E-02 
2457	 7.81569950618985E-02 
2458	 7.79761774023067E-02 
2459	 7.76587597708071E-02 
2460	 7.74244212039837E-02 
2461	 7.70420944138506E-02 
2462	 7.68718852212846E-02 
2463	 7.70100493579357E-02 
2464	 7.69926072800891E-02 
2465	 7.70547932892312E-02 
2466	 7.68779591348955E-02 
2467	 7.63722093203197E-02 
2468	 7.61128074781113E-02 
2469	 7.58954282823716E-02 
2470	 7.58649591071019E-02 
2471	 7.56668274457658E-02 
2472	 7.54184270836559E-02 
2473	 7.52450485356525E-02 
2474	 0.075084905917178 
2475	 7.51476620788157E-02 
2476	 7.52026133514367E-02 
2477	 7.49974720580431E-02 
2478	 7.47805130266375E-02 
2479	 7.46755431060428E-02 
2480	 7.44738829073736E-02 
2481	 0.074356941022058 
2482	 7.43046893285775E-02 
2483	 7.39521057415829E-02 
2484	 7.36857742358328E-02 
2485	 7.35144756494896E-02 
2486	 7.32082832147928E-02 
2487	 7.31117814576087E-02 
2488	 7.30674989389443E-02 
2489	 7.28542411336225E-02 
2490	 7.27543291319024E-02 
2491	 0.072597034350308 
2492	 7.23162156497088E-02 
2493	 0.072255995705551 
2494	 7.22363351503557E-02 
2495	 7.22400863914591E-02 
2496	 7.22118833972718E-02 
2497	 7.20665145211412E-02 
2498	 7.19123378824589E-02 
2499	 7.14509072435232E-02 
2500	 7.08795267275731E-02 
