Wavelength	LMW_13_a00008.asd
350	 4.95056829984347E-02 
351	 4.98491557250767E-02 
352	 4.54513505826437E-02 
353	 3.77402345434015E-02 
354	 4.43608541469417E-02 
355	 4.33252617601569E-02 
356	 4.03733136371256E-02 
357	 4.37863634850127E-02 
358	 4.30539370817216E-02 
359	 4.05502858679655E-02 
360	 3.95490893246576E-02 
361	 4.28526288495578E-02 
362	 4.50616704133783E-02 
363	 4.48382435800389E-02 
364	 4.25415376117037E-02 
365	 0.039683491875584 
366	 4.27044029693585E-02 
367	 0.045512513561506 
368	 4.22680858404096E-02 
369	 4.23826661788982E-02 
370	 4.25521217736498E-02 
371	 4.20162767606743E-02 
372	 4.20566598171476E-02 
373	 4.41100117978094E-02 
374	 4.59159033730204E-02 
375	 4.59515139060611E-02 
376	 4.45356858642515E-02 
377	 4.54942854536247E-02 
378	 4.64429381817852E-02 
379	 4.47598971473244E-02 
380	 4.54900606700359E-02 
381	 4.57813995525598E-02 
382	 4.49755562778988E-02 
383	 4.44422806299708E-02 
384	 4.71546333967073E-02 
385	 4.79291902220898E-02 
386	 4.54009782177643E-02 
387	 0.047578152834714 
388	 4.98576096149828E-02 
389	 5.04643068381752E-02 
390	 4.94236571634441E-02 
391	 5.09199658613965E-02 
392	 5.19657145045324E-02 
393	 5.21320161825754E-02 
394	 0.053333328493457 
395	 5.48902985874979E-02 
396	 5.60340512691246E-02 
397	 5.65337756210968E-02 
398	 5.73683262379693E-02 
399	 5.74241577941949E-02 
400	 5.81917995530487E-02 
401	 6.09977381127561E-02 
402	 6.10092945855363E-02 
403	 6.06262304515922E-02 
404	 6.08883042904619E-02 
405	 6.10130567743679E-02 
406	 6.15111681658744E-02 
407	 6.29808824454085E-02 
408	 6.48128247524164E-02 
409	 6.30706847423458E-02 
410	 6.25358194330036E-02 
411	 6.30294882364562E-02 
412	 6.24647137714774E-02 
413	 6.35575810371735E-02 
414	 6.37575943720433E-02 
415	 6.26126089251089E-02 
416	 6.28582101346711E-02 
417	 6.26833166434887E-02 
418	 6.21493675967492E-02 
419	 6.16609804899127E-02 
420	 6.12091447593291E-02 
421	 6.07659553519839E-02 
422	 6.03758158353914E-02 
423	 6.01102048031016E-02 
424	 5.98272236086021E-02 
425	 5.94354128948591E-02 
426	 5.88282245400415E-02 
427	 5.77804685196791E-02 
428	 5.69890469416199E-02 
429	 5.68030034599958E-02 
430	 5.71823258053868E-02 
431	 5.69722113535715E-02 
432	 5.67234285199533E-02 
433	 5.68476877629581E-02 
434	 0.057498781614246 
435	 5.78621867906796E-02 
436	 5.83934004445703E-02 
437	 5.93550311300508E-02 
438	 0.059773595967266 
439	 6.06448979075207E-02 
440	 6.17941017975911E-02 
441	 6.25695892853456E-02 
442	 6.35868711066396E-02 
443	 6.47805708980116E-02 
444	 6.58936132882088E-02 
445	 6.64656032012803E-02 
446	 6.73166563361832E-02 
447	 6.84535686760945E-02 
448	 6.96098120622706E-02 
449	 0.070492079709668 
450	 0.071387163331947 
451	 7.25123549344625E-02 
452	 7.39615725536258E-02 
453	 7.50198781188629E-02 
454	 7.57605858329482E-02 
455	 0.076458726313657 
456	 7.75266696598261E-02 
457	 7.84204455025965E-02 
458	 7.92053838902278E-02 
459	 8.01778640820281E-02 
460	 8.10931160351921E-02 
461	 0.081935045952816 
462	 0.0827082045281 
463	 8.34037366985333E-02 
464	 8.43900693885605E-02 
465	 8.54485397845015E-02 
466	 8.63067421900533E-02 
467	 8.71952924974792E-02 
468	 8.81451945504878E-02 
469	 8.90024447619531E-02 
470	 8.95204120020439E-02 
471	 9.04175826201153E-02 
472	 9.13373279899421E-02 
473	 9.19867841567754E-02 
474	 9.26576766382777E-02 
475	 9.32538627926606E-02 
476	 0.093919248212494 
477	 0.094813399891642 
478	 9.54807514238346E-02 
479	 0.096044185576534 
480	 9.66292533997013E-02 
481	 9.72869198633239E-02 
482	 9.80538405287312E-02 
483	 9.87571418993147E-02 
484	 9.92356723265441E-02 
485	 9.96127317478092E-02 
486	 9.99600220386638E-02 
487	 0.100393220458275 
488	 0.101037964857532 
489	 0.101573900685056 
490	 0.102026375571559 
491	 0.102451242740757 
492	 0.102836392895451 
493	 0.10292186519047 
494	 0.10305906859913 
495	 0.103738688230118 
496	 0.104124188575641 
497	 0.104332001266906 
498	 0.104487498420779 
499	 0.104571380420788 
500	 0.104833057088484 
501	 0.105136858327991 
502	 0.105313376841727 
503	 0.105625366016663 
504	 0.10580879656365 
505	 0.105861779736992 
506	 0.106026859365415 
507	 0.106233527458558 
508	 0.106410097244865 
509	 0.106506166328494 
510	 0.106532341995605 
511	 0.106486208430444 
512	 0.106533057864794 
513	 0.106853045379907 
514	 0.106939533031168 
515	 0.10689657931224 
516	 0.106872910550814 
517	 0.106971107322074 
518	 0.107027280133987 
519	 0.107070923531944 
520	 0.107174269204171 
521	 0.10728281274049 
522	 0.107359151085427 
523	 0.107408074065223 
524	 0.107474932410645 
525	 0.107386397488249 
526	 0.10736181624706 
527	 0.107541199608049 
528	 0.107521575821671 
529	 0.107646991326943 
530	 0.10785120918685 
531	 0.10782900477129 
532	 0.107868937920645 
533	 0.107948577150426 
534	 0.108014278738192 
535	 0.108037387771956 
536	 0.108070182524526 
537	 0.108156535708862 
538	 0.108316147553073 
539	 0.108447953674484 
540	 0.108554977939779 
541	 0.108651130554147 
542	 0.108749974134808 
543	 0.108878876394096 
544	 0.109045303721947 
545	 0.109234404745907 
546	 0.109382837867913 
547	 0.109483662254662 
548	 0.109585727713 
549	 0.109771218746076 
550	 0.109827878999387 
551	 0.109921201865863 
552	 0.1101638222266 
553	 0.110360978993496 
554	 0.110488963330498 
555	 0.110641150530793 
556	 0.110942682805958 
557	 0.111150878309686 
558	 0.111359640522075 
559	 0.111628417690257 
560	 0.111889162211738 
561	 0.112164716813568 
562	 0.112441202442275 
563	 0.112696325489928 
564	 0.112918765433765 
565	 0.113189331194997 
566	 0.113519872346753 
567	 0.1138413164767 
568	 0.114307543665571 
569	 0.114705180358065 
570	 0.114879231603541 
571	 0.115159568792325 
572	 0.115433019979383 
573	 0.115733400058271 
574	 0.116182136456273 
575	 0.116628081298643 
576	 0.117081031068001 
577	 0.117556203708109 
578	 0.118019298871164 
579	 0.118502339105666 
580	 0.119032098197953 
581	 0.119617533728516 
582	 0.120178222360678 
583	 0.120647294686253 
584	 0.121009875049529 
585	 0.121314162924686 
586	 0.121751095723354 
587	 0.122280457393206 
588	 0.122811116968493 
589	 0.12339282370707 
590	 0.124007134990638 
591	 0.124585826462047 
592	 0.125032115838052 
593	 0.125482023342116 
594	 0.126095015723 
595	 0.126900328089021 
596	 0.127611427396715 
597	 0.12820308580244 
598	 0.128733978323645 
599	 0.129297837775893 
600	 0.129743230746189 
601	 0.130122010618124 
602	 0.13050219291432 
603	 0.130936905393166 
604	 0.131463019861382 
605	 0.132004979010984 
606	 0.132483620831858 
607	 0.133061724083281 
608	 0.133599140647463 
609	 0.134060661947839 
610	 0.134548844922724 
611	 0.134860363502899 
612	 0.135147427997945 
613	 0.135556228796595 
614	 0.135923250013366 
615	 0.136211847727939 
616	 0.13648044526562 
617	 0.13683929226979 
618	 0.137168643795038 
619	 0.137460569076924 
620	 0.137722883985357 
621	 0.137952920320174 
622	 0.138191745137438 
623	 0.138447169814852 
624	 0.138709935260416 
625	 0.138969106631962 
626	 0.139197357534322 
627	 0.139410945551048 
628	 0.139683868893233 
629	 0.139894886127183 
630	 0.140055717780315 
631	 0.140223225857695 
632	 0.140468695771091 
633	 0.140735632130031 
634	 0.140959821802175 
635	 0.141088448645257 
636	 0.141297594156359 
637	 0.141525820970569 
638	 0.141704683042715 
639	 0.14184924538539 
640	 0.142040786055985 
641	 0.142265486609409 
642	 0.14246858269743 
643	 0.14268082791824 
644	 0.142892700346835 
645	 0.143102817796054 
646	 0.143328319427375 
647	 0.143476718918839 
648	 0.143610887809935 
649	 0.143809594414613 
650	 0.144012356461043 
651	 0.144179139501887 
652	 0.144344696044048 
653	 0.14459940696241 
654	 0.144834328103968 
655	 0.145013520609788 
656	 0.145150684503085 
657	 0.145343536944728 
658	 0.145534608868276 
659	 0.145743535038801 
660	 0.146005350400816 
661	 0.146199013269152 
662	 0.146355274113825 
663	 0.146525572891389 
664	 0.146768046932911 
665	 0.147027458713071 
666	 0.147240352971989 
667	 0.147384691619573 
668	 0.147607950858827 
669	 0.147843809413822 
670	 0.148055341159875 
671	 0.14823581333468 
672	 0.148367112760583 
673	 0.148592013721557 
674	 0.148938350457308 
675	 0.149097346187195 
676	 0.149273074241978 
677	 0.149509638063277 
678	 0.149778201071563 
679	 0.150046081607235 
680	 0.150258635606884 
681	 0.15042385475706 
682	 0.150630116487604 
683	 0.15085887842215 
684	 0.151109581755762 
685	 0.151371102126041 
686	 0.151587266474929 
687	 0.15179996095717 
688	 0.152041272617869 
689	 0.152322632186229 
690	 0.152513730606946 
691	 0.152722440760131 
692	 0.153000553201212 
693	 0.153219609658017 
694	 0.153407631535831 
695	 0.153630592630611 
696	 0.153936565969073 
697	 0.154183128859571 
698	 0.154401292032681 
699	 0.154631125437819 
700	 0.154906766502499 
701	 0.155117933210164 
702	 0.155315999463143 
703	 0.155548039466303 
704	 0.155738040388473 
705	 0.155994044519154 
706	 0.156262418005958 
707	 0.156428387167433 
708	 0.156633500773982 
709	 0.156865486315671 
710	 0.157092326931046 
711	 0.15727811858186 
712	 0.157494806126424 
713	 0.157705621710525 
714	 0.157868376546055 
715	 0.158032530146708 
716	 0.158256376136157 
717	 0.158487734655229 
718	 0.158609433577827 
719	 0.158756018779691 
720	 0.158924056525581 
721	 0.159083670263542 
722	 0.159191744428879 
723	 0.159318604517049 
724	 0.159455093230609 
725	 0.159568059801504 
726	 0.159651679241907 
727	 0.159764392871799 
728	 0.159875412387632 
729	 0.159878913830829 
730	 0.159904083939559 
731	 0.159986501116918 
732	 0.160090473082667 
733	 0.160043909818346 
734	 0.160089385635404 
735	 0.160128985941454 
736	 0.159989872922705 
737	 0.159967208855615 
738	 0.159973041546816 
739	 0.159944877572322 
740	 0.15988112069623 
741	 0.159827179414479 
742	 0.159743348329498 
743	 0.159603786120905 
744	 0.159468986937027 
745	 0.159318568022345 
746	 0.159189464402037 
747	 0.159111043384277 
748	 0.1588708458344 
749	 0.158638800820766 
750	 0.158489422318949 
751	 0.158339621218947 
752	 0.158122824313448 
753	 0.157898347815216 
754	 0.157704991439937 
755	 0.15741592043357 
756	 0.157168127354827 
757	 0.156963319408264 
758	 0.156732299834668 
759	 0.156462619012147 
760	 0.15612806311356 
761	 0.155778383307057 
762	 0.155551274791729 
763	 0.155267447435222 
764	 0.154961844889666 
765	 0.15468962598676 
766	 0.154411468836534 
767	 0.154117632892216 
768	 0.153771234073008 
769	 0.153351472070157 
770	 0.15303211692621 
771	 0.152731799660705 
772	 0.15240639763188 
773	 0.152085442728188 
774	 0.151741823292679 
775	 0.151405866546673 
776	 0.151094349329561 
777	 0.150751981888039 
778	 0.150424558491808 
779	 0.150121737952206 
780	 0.149827143162515 
781	 0.149485019796729 
782	 0.149113955379812 
783	 0.148729804015894 
784	 0.148342502528602 
785	 0.14805924621189 
786	 0.14776489363751 
787	 0.147392760650172 
788	 0.147103162322786 
789	 0.146767697662542 
790	 0.146414175889253 
791	 0.146104683257613 
792	 0.145751591942684 
793	 0.145449168562778 
794	 0.145203286082948 
795	 0.144935773605021 
796	 0.144607489655308 
797	 0.144255274817582 
798	 0.143925151761915 
799	 0.143657084488154 
800	 0.143320219479243 
801	 0.142952019800931 
802	 0.142642793952789 
803	 0.14247087555155 
804	 0.142243590259008 
805	 0.141935899871251 
806	 0.141638057878785 
807	 0.141379468465846 
808	 0.141084223159281 
809	 0.14076440518226 
810	 0.14055555388798 
811	 0.140357278253916 
812	 0.14011316553815 
813	 0.139815786390697 
814	 0.139553315679103 
815	 0.139316754277728 
816	 0.139105528064226 
817	 0.138913117394792 
818	 0.138702636271799 
819	 0.138497741660531 
820	 0.138281238744844 
821	 0.138010511791414 
822	 0.137798386573175 
823	 0.137606962428337 
824	 0.137413511774539 
825	 0.137261264143065 
826	 0.137044957759731 
827	 0.136799445899603 
828	 0.136599446142255 
829	 0.136518904102087 
830	 0.136383052426934 
831	 0.136176889820093 
832	 0.135979567586534 
833	 0.135883651177252 
834	 0.135781259384608 
835	 0.135627655453491 
836	 0.135457180790091 
837	 0.135311944744484 
838	 0.135198700753446 
839	 0.135093179219573 
840	 0.134932127700679 
841	 0.134797555087439 
842	 0.134677883927308 
843	 0.134556227523534 
844	 0.13448890998093 
845	 0.134420466307864 
846	 0.134309166192785 
847	 0.134150796438722 
848	 0.134091463073363 
849	 0.134028650974739 
850	 0.13392745705831 
851	 0.133828203424018 
852	 0.133772988769453 
853	 0.133720013085702 
854	 0.133661253801171 
855	 0.133654117281529 
856	 0.133578145566696 
857	 0.133539585481045 
858	 0.133583475013321 
859	 0.133449047097253 
860	 0.133406733480131 
861	 0.133423611756356 
862	 0.13338996678851 
863	 0.133374383882889 
864	 0.13337546497535 
865	 0.133378426698939 
866	 0.133364770953493 
867	 0.133347559644684 
868	 0.133334948100247 
869	 0.133352965554737 
870	 0.133433079452621 
871	 0.133424579287191 
872	 0.133479889268487 
873	 0.133621914384362 
874	 0.133592922225866 
875	 0.133546657896561 
876	 0.133514993738123 
877	 0.133510295629562 
878	 0.133567782893172 
879	 0.133685704191598 
880	 0.13381429885982 
881	 0.133909834525814 
882	 0.134034419286265 
883	 0.13412516608046 
884	 0.134174531790749 
885	 0.134223150761602 
886	 0.134376825004372 
887	 0.134528970789815 
888	 0.134617839933943 
889	 0.13465565842342 
890	 0.134817210542272 
891	 0.134930646274681 
892	 0.134959245473002 
893	 0.135083036246578 
894	 0.135222816987281 
895	 0.135412821233763 
896	 0.135638262412471 
897	 0.135767355291996 
898	 0.135922432288196 
899	 0.136103031155254 
900	 0.136276917275299 
901	 0.136415568958302 
902	 0.136551634338274 
903	 0.136730697729367 
904	 0.13696879174677 
905	 0.137167365733388 
906	 0.137357920362771 
907	 0.137549991463448 
908	 0.137754113562971 
909	 0.138048201596712 
910	 0.138261556701768 
911	 0.13843813004582 
912	 0.138731984605231 
913	 0.138951793591006 
914	 0.139147120946805 
915	 0.139378204180309 
916	 0.139683551404352 
917	 0.140011640354367 
918	 0.1402420838585 
919	 0.140415429223047 
920	 0.140739162123487 
921	 0.141018110053377 
922	 0.1412421602721 
923	 0.141483346884671 
924	 0.14187026253916 
925	 0.142107891463749 
926	 0.142355606867012 
927	 0.142728555203067 
928	 0.143077172233547 
929	 0.143413695877016 
930	 0.143754150631386 
931	 0.144091715455379 
932	 0.144355661120197 
933	 0.14469082780696 
934	 0.145053839176752 
935	 0.145391458280679 
936	 0.145803993335133 
937	 0.146155030237211 
938	 0.146491709027528 
939	 0.14689028436348 
940	 0.147298439881391 
941	 0.14769198951835 
942	 0.148082087057906 
943	 0.148487543536364 
944	 0.148883735024454 
945	 0.149315172655495 
946	 0.149739810706996 
947	 0.150096096156168 
948	 0.150413734652358 
949	 0.150829031656172 
950	 0.151345229249127 
951	 0.151870726684881 
952	 0.152264454829251 
953	 0.152718626652377 
954	 0.153154822947879 
955	 0.153434897111604 
956	 0.154008099282892 
957	 0.154585872721676 
958	 0.155000750440336 
959	 0.155268404073343 
960	 0.155744886303909 
961	 0.156338299733249 
962	 0.156924100031844 
963	 0.157411524996751 
964	 0.157910919975446 
965	 0.158417814416476 
966	 0.158880084425788 
967	 0.159278544504598 
968	 0.159953963292569 
969	 0.160443303836455 
970	 0.160742513990443 
971	 0.161180963412761 
972	 0.161802043941211 
973	 0.162319739795542 
974	 0.162734929473967 
975	 0.163248189895203 
976	 0.163860309713076 
977	 0.164447892313898 
978	 0.164966234330709 
979	 0.165466904137635 
980	 0.166180823425684 
981	 0.166655369155066 
982	 0.167010198077518 
983	 0.167641314490989 
984	 0.168231714799526 
985	 0.168760478172978 
986	 0.169194794487905 
987	 0.169568347221549 
988	 0.170257776345439 
989	 0.170872544687695 
990	 0.171374261347101 
991	 0.171920163878826 
992	 0.172526319812138 
993	 0.173085856435976 
994	 0.17365442727049 
995	 0.17430749478132 
996	 0.174875256224515 
997	 0.175458213094523 
998	 0.176066334191271 
999	 0.176671722977943 
1000	 0.177270926407262 
1001	 0.176511247396791 
1002	 0.177031871127842 
1003	 0.177642618397646 
1004	 0.178182664620529 
1005	 0.178679010521913 
1006	 0.179156200996023 
1007	 0.179608765436767 
1008	 0.180050294446881 
1009	 0.180517893681183 
1010	 0.181029070777973 
1011	 0.181578797943921 
1012	 0.182151333709976 
1013	 0.182671287692743 
1014	 0.183199017968923 
1015	 0.183685280945341 
1016	 0.184119164875809 
1017	 0.184609758648166 
1018	 0.185114340309 
1019	 0.185617103752945 
1020	 0.186106518307919 
1021	 0.186609034650732 
1022	 0.187056799497328 
1023	 0.187435243793748 
1024	 0.187845959046291 
1025	 0.188266007849046 
1026	 0.188629640933354 
1027	 0.189050827975533 
1028	 0.189489383775144 
1029	 0.189911196609817 
1030	 0.190353729523386 
1031	 0.190712877121346 
1032	 0.191023277657968 
1033	 0.191291400370667 
1034	 0.191550976787995 
1035	 0.191825289488225 
1036	 0.192173780336182 
1037	 0.192543230210177 
1038	 0.192928817078943 
1039	 0.193290638406429 
1040	 0.19359098034127 
1041	 0.193878066825743 
1042	 0.194178567583827 
1043	 0.194460389252008 
1044	 0.194736674711755 
1045	 0.195008148279526 
1046	 0.195327184072631 
1047	 0.195614113288186 
1048	 0.195859717582065 
1049	 0.196124322775585 
1050	 0.196376139471699 
1051	 0.196645404250253 
1052	 0.196931531144686 
1053	 0.197232306029328 
1054	 0.197549994570415 
1055	 0.197809924067033 
1056	 0.198075455339735 
1057	 0.198373371616249 
1058	 0.198661804267605 
1059	 0.199002513783705 
1060	 0.19940305583667 
1061	 0.19978206941356 
1062	 0.200147587157899 
1063	 0.20054179301683 
1064	 0.200875830944178 
1065	 0.201239551820373 
1066	 0.201650850268363 
1067	 0.202028152365981 
1068	 0.202441199212809 
1069	 0.202849469023423 
1070	 0.203264384336486 
1071	 0.20367282884576 
1072	 0.204126234378894 
1073	 0.20463426545817 
1074	 0.20508162020709 
1075	 0.205519088205416 
1076	 0.205939940323493 
1077	 0.206372202273549 
1078	 0.20679874570095 
1079	 0.207266596428868 
1080	 0.207742049466145 
1081	 0.208195724738998 
1082	 0.208633240035737 
1083	 0.209075123186012 
1084	 0.20953566306412 
1085	 0.209975930018286 
1086	 0.210395340918232 
1087	 0.210821640794799 
1088	 0.211256303184644 
1089	 0.211651969453183 
1090	 0.212067928744475 
1091	 0.212477519914998 
1092	 0.212851729412732 
1093	 0.213244217795405 
1094	 0.213598092408404 
1095	 0.213919272312802 
1096	 0.214280728268189 
1097	 0.214602268011884 
1098	 0.214904384016954 
1099	 0.215203467192686 
1100	 0.215487426448484 
1101	 0.215727379937558 
1102	 0.215988518859959 
1103	 0.216283048286038 
1104	 0.216511774985688 
1105	 0.216719370592468 
1106	 0.216913907873835 
1107	 0.217087881114159 
1108	 0.21727576131769 
1109	 0.217421276958843 
1110	 0.217545920513705 
1111	 0.217698871869739 
1112	 0.217851920023403 
1113	 0.217976324736714 
1114	 0.218114878413391 
1115	 0.218241116115967 
1116	 0.218331290719458 
1117	 0.21841837525103 
1118	 0.21850597544142 
1119	 0.218609535045678 
1120	 0.218667594977795 
1121	 0.218719386471247 
1122	 0.218795925186558 
1123	 0.218871822672064 
1124	 0.218924383858602 
1125	 0.218968524506675 
1126	 0.219006196287736 
1127	 0.219013911180533 
1128	 0.219044035821629 
1129	 0.219085899546719 
1130	 0.219124245963469 
1131	 0.219175171230301 
1132	 0.21921166824857 
1133	 0.219247105506996 
1134	 0.219266318330566 
1135	 0.219275173607153 
1136	 0.21926523889902 
1137	 0.219267885055024 
1138	 0.219264762684942 
1139	 0.219261481111406 
1140	 0.219255932851574 
1141	 0.219270980884781 
1142	 0.219297589386832 
1143	 0.219308804089044 
1144	 0.219323036327839 
1145	 0.219339751886108 
1146	 0.219347502766383 
1147	 0.219353943485192 
1148	 0.219380017314672 
1149	 0.219388079316584 
1150	 0.219375883216404 
1151	 0.219360624403568 
1152	 0.219357210156005 
1153	 0.219368027794385 
1154	 0.219374132408058 
1155	 0.219380444569919 
1156	 0.219405986153432 
1157	 0.21943743450473 
1158	 0.219472272033792 
1159	 0.219516189966098 
1160	 0.219572558025448 
1161	 0.219636845881253 
1162	 0.219700051347358 
1163	 0.219777601322785 
1164	 0.219858136678935 
1165	 0.219947246895168 
1166	 0.22001551284483 
1167	 0.220084910733995 
1168	 0.220170635384197 
1169	 0.220260920409367 
1170	 0.220341387681763 
1171	 0.220443729524769 
1172	 0.220579543643862 
1173	 0.220687466753785 
1174	 0.220786195578503 
1175	 0.220892613052479 
1176	 0.220986148166458 
1177	 0.22109671367701 
1178	 0.221216952246058 
1179	 0.221345304738668 
1180	 0.221498024888544 
1181	 0.221630659831748 
1182	 0.221764332896619 
1183	 0.221887095627677 
1184	 0.22200737962918 
1185	 0.222112065097891 
1186	 0.222228733979596 
1187	 0.222337665563397 
1188	 0.222472818788925 
1189	 0.222638892795636 
1190	 0.222764347327558 
1191	 0.222890906617642 
1192	 0.223009072131074 
1193	 0.22308524077786 
1194	 0.223187634197692 
1195	 0.223315427530747 
1196	 0.223428116306297 
1197	 0.223531851123297 
1198	 0.223641003512544 
1199	 0.223750184748636 
1200	 0.22385502191394 
1201	 0.223965231769885 
1202	 0.22407916830719 
1203	 0.224196398147875 
1204	 0.224316635573849 
1205	 0.224435045152274 
1206	 0.224562622423235 
1207	 0.224678249097476 
1208	 0.224786070567395 
1209	 0.224894551623708 
1210	 0.224997874909287 
1211	 0.225102042123288 
1212	 0.225212767629467 
1213	 0.225311274082655 
1214	 0.225399534671234 
1215	 0.225490701411389 
1216	 0.225579261131978 
1217	 0.22565861104744 
1218	 0.225746276799914 
1219	 0.225845719883134 
1220	 0.225924594045273 
1221	 0.225991763040652 
1222	 0.226067083931766 
1223	 0.226132823725959 
1224	 0.226206734141735 
1225	 0.226285701141681 
1226	 0.226370374927925 
1227	 0.226469908364153 
1228	 0.226550095614727 
1229	 0.226628656771017 
1230	 0.22670336848885 
1231	 0.226756616311629 
1232	 0.226817377794743 
1233	 0.226880957734619 
1234	 0.226950033098006 
1235	 0.227020787323136 
1236	 0.227105645103294 
1237	 0.227158029348477 
1238	 0.227199649986835 
1239	 0.227239409893123 
1240	 0.227245489685425 
1241	 0.227281650639153 
1242	 0.227320849871518 
1243	 0.227384443894731 
1244	 0.227480283975265 
1245	 0.227556329342858 
1246	 0.227650690804343 
1247	 0.227729874423704 
1248	 0.227795024292316 
1249	 0.227846508611317 
1250	 0.227908845391217 
1251	 0.227967088621828 
1252	 0.228026216074156 
1253	 0.228090838471185 
1254	 0.228135894356471 
1255	 0.228162988783571 
1256	 0.228210618759473 
1257	 0.228257766379254 
1258	 0.228299609677799 
1259	 0.228362130302741 
1260	 0.228403153500916 
1261	 0.228417648857963 
1262	 0.228443383600296 
1263	 0.228468135293043 
1264	 0.228494529526786 
1265	 0.228525945357769 
1266	 0.228551509751481 
1267	 0.228575967507904 
1268	 0.228597713829706 
1269	 0.228617461155506 
1270	 0.228628134917832 
1271	 0.228653143413211 
1272	 0.228683929918441 
1273	 0.228710463508036 
1274	 0.228746183508006 
1275	 0.228771729696987 
1276	 0.228790699173727 
1277	 0.228807900921818 
1278	 0.228818068966061 
1279	 0.22883110893451 
1280	 0.228838914765606 
1281	 0.228857725127794 
1282	 0.228874877634085 
1283	 0.228907560821344 
1284	 0.228966265527913 
1285	 0.228998041657689 
1286	 0.229029910444676 
1287	 0.229104891274789 
1288	 0.229186574674094 
1289	 0.229266082465831 
1290	 0.229387793622366 
1291	 0.229539374716648 
1292	 0.229710225741118 
1293	 0.229917451699535 
1294	 0.23011711755044 
1295	 0.230339831784383 
1296	 0.230557259789977 
1297	 0.230754039786831 
1298	 0.230996776583275 
1299	 0.231275418063614 
1300	 0.231541963672105 
1301	 0.231846651423008 
1302	 0.232118836527654 
1303	 0.232364700383244 
1304	 0.232607428427709 
1305	 0.232880400592785 
1306	 0.233145633420571 
1307	 0.233409927428596 
1308	 0.233687364720038 
1309	 0.233921167356354 
1310	 0.234113182661307 
1311	 0.234325567233298 
1312	 0.234538437376865 
1313	 0.234719206368612 
1314	 0.234892592054611 
1315	 0.235053371670653 
1316	 0.235183090628998 
1317	 0.235312239399054 
1318	 0.235468248508266 
1319	 0.235557689531269 
1320	 0.235602455573978 
1321	 0.235638463812527 
1322	 0.235640794387705 
1323	 0.235620801458693 
1324	 0.235608370099556 
1325	 0.235584796174401 
1326	 0.235498039667091 
1327	 0.235372036646945 
1328	 0.23522199443248 
1329	 0.235040409164302 
1330	 0.234875783607722 
1331	 0.234720857945414 
1332	 0.234540702436431 
1333	 0.234363711050318 
1334	 0.23414502776168 
1335	 0.233911816681605 
1336	 0.233637594446769 
1337	 0.233302673094195 
1338	 0.232999297033918 
1339	 0.23269152857971 
1340	 0.232367566680377 
1341	 0.232047735892158 
1342	 0.231718038897088 
1343	 0.23136876775073 
1344	 0.231009662192563 
1345	 0.230663109776465 
1346	 0.230297470906241 
1347	 0.229916889679568 
1348	 0.229540025665389 
1349	 0.229162756316942 
1350	 0.228793060096746 
1351	 0.228411856911221 
1352	 0.228032234140814 
1353	 0.227633935871354 
1354	 0.227209011578549 
1355	 0.226814445744304 
1356	 0.226409030539153 
1357	 0.226038681531933 
1358	 0.225687246817978 
1359	 0.225354438733074 
1360	 0.225044735519743 
1361	 0.224746379583814 
1362	 0.224467366966389 
1363	 0.224206697661487 
1364	 0.223956944681378 
1365	 0.223723658641913 
1366	 0.223515023858514 
1367	 0.223311019611508 
1368	 0.223129274306735 
1369	 0.222943030879483 
1370	 0.222729494439481 
1371	 0.2225109812554 
1372	 0.222263513000427 
1373	 0.222006853386783 
1374	 0.221720567587857 
1375	 0.221428101514599 
1376	 0.221079117341652 
1377	 0.220682018847573 
1378	 0.220276481581261 
1379	 0.219812759323805 
1380	 0.219395506390452 
1381	 0.218959231366916 
1382	 0.218569788662617 
1383	 0.218233716824866 
1384	 0.217872622788166 
1385	 0.217562528822394 
1386	 0.217186873020029 
1387	 0.216779120914077 
1388	 0.216347226194618 
1389	 0.21589392490948 
1390	 0.215397300659956 
1391	 0.214846841416916 
1392	 0.214272799721645 
1393	 0.213624361446294 
1394	 0.212923797714948 
1395	 0.212234598237021 
1396	 0.211533661319604 
1397	 0.210815474117974 
1398	 0.210099001652244 
1399	 0.209339452253251 
1400	 0.208547580511202 
1401	 0.207742375891263 
1402	 0.206906281961902 
1403	 0.206074414089634 
1404	 0.205218535505241 
1405	 0.204381869314902 
1406	 0.203561501645439 
1407	 0.202711838824937 
1408	 0.201846569850832 
1409	 0.200994650811471 
1410	 0.2001036898694 
1411	 0.19926674806454 
1412	 0.198457030118523 
1413	 0.197676814751085 
1414	 0.196922898471144 
1415	 0.196177716929696 
1416	 0.195450281202378 
1417	 0.194749512898212 
1418	 0.194073439014281 
1419	 0.193432220558772 
1420	 0.192838940650375 
1421	 0.192273564680402 
1422	 0.191725218831441 
1423	 0.191202958064439 
1424	 0.190687152184449 
1425	 0.190174513160984 
1426	 0.189695734813017 
1427	 0.189235654641654 
1428	 0.188798116151663 
1429	 0.188393334041614 
1430	 0.187997105935856 
1431	 0.187627614365918 
1432	 0.18725007947535 
1433	 0.186879065778394 
1434	 0.186509602127894 
1435	 0.186126014373589 
1436	 0.185777606596796 
1437	 0.185464158754888 
1438	 0.185133385397816 
1439	 0.184815732039989 
1440	 0.184490622327656 
1441	 0.184142050134318 
1442	 0.183804237269632 
1443	 0.18349088305889 
1444	 0.183196958343724 
1445	 0.182936044893725 
1446	 0.182715482790067 
1447	 0.182508604266592 
1448	 0.182332079324721 
1449	 0.182191409733755 
1450	 0.182058953269796 
1451	 0.181993890745703 
1452	 0.181970575224493 
1453	 0.18200872248183 
1454	 0.182123222669936 
1455	 0.182233598426512 
1456	 0.182396409822222 
1457	 0.182541987156947 
1458	 0.182691832937673 
1459	 0.182851456562513 
1460	 0.183020684656618 
1461	 0.183195548304755 
1462	 0.183397643434983 
1463	 0.183561621386268 
1464	 0.183739532726655 
1465	 0.183871694841118 
1466	 0.183946234688205 
1467	 0.184033948260069 
1468	 0.184086001679753 
1469	 0.18415996038758 
1470	 0.184243633305898 
1471	 0.184342436952036 
1472	 0.184429829926091 
1473	 0.184512852554728 
1474	 0.184556395099767 
1475	 0.184589624590836 
1476	 0.184628115151834 
1477	 0.184669114902764 
1478	 0.184747799533508 
1479	 0.184849615418634 
1480	 0.184948508554079 
1481	 0.185042361468323 
1482	 0.18513171290974 
1483	 0.185208559928203 
1484	 0.185299879143028 
1485	 0.185394440189633 
1486	 0.185493775342685 
1487	 0.185611580204169 
1488	 0.185704883149301 
1489	 0.185784145197883 
1490	 0.185876584919108 
1491	 0.185964022750603 
1492	 0.186048699537321 
1493	 0.186140029158443 
1494	 0.186230124604812 
1495	 0.186304972800444 
1496	 0.186396348644996 
1497	 0.186514013337108 
1498	 0.186608781212311 
1499	 0.186701439190246 
1500	 0.186783716473192 
1501	 0.186839675691228 
1502	 0.186908873451813 
1503	 0.1869749307012 
1504	 0.187055043224642 
1505	 0.187131801775681 
1506	 0.187212972610486 
1507	 0.187286010176763 
1508	 0.187354069275599 
1509	 0.187423970801849 
1510	 0.187491622161444 
1511	 0.187551649108674 
1512	 0.187608843670107 
1513	 0.18769127895269 
1514	 0.187759766520265 
1515	 0.187833350126783 
1516	 0.187914892433502 
1517	 0.187979617577704 
1518	 0.188029659649847 
1519	 0.188087560865094 
1520	 0.18814162495844 
1521	 0.188196224109348 
1522	 0.188253854810738 
1523	 0.188299920938683 
1524	 0.188332509453682 
1525	 0.188386162452526 
1526	 0.188440708357064 
1527	 0.188498790480142 
1528	 0.18858274295851 
1529	 0.188640058212767 
1530	 0.188681877750423 
1531	 0.188726349754289 
1532	 0.188761466469537 
1533	 0.188800861452833 
1534	 0.18884653908953 
1535	 0.188879551702343 
1536	 0.188896126245106 
1537	 0.188928966766379 
1538	 0.188964551217667 
1539	 0.188996758177764 
1540	 0.189038060913255 
1541	 0.189082580921532 
1542	 0.189124854821414 
1543	 0.189164525729571 
1544	 0.189210523606331 
1545	 0.189250277729256 
1546	 0.189276862533776 
1547	 0.189315501505423 
1548	 0.189348211011356 
1549	 0.189375916508305 
1550	 0.189407567066849 
1551	 0.189423942367535 
1552	 0.189434927171355 
1553	 0.189453720516907 
1554	 0.189469172086181 
1555	 0.189488014401891 
1556	 0.189507280559912 
1557	 0.18953893632077 
1558	 0.189573548365027 
1559	 0.189595969085172 
1560	 0.189616236264704 
1561	 0.189637631944603 
1562	 0.189654566423791 
1563	 0.189653811381506 
1564	 0.189679881284827 
1565	 0.189728142015649 
1566	 0.189752240159984 
1567	 0.189779444013496 
1568	 0.189795337613511 
1569	 0.189794921634617 
1570	 0.189793129258138 
1571	 0.189784875971428 
1572	 0.189783091397887 
1573	 0.189772791036218 
1574	 0.189774217438753 
1575	 0.189791588357588 
1576	 0.189792504582717 
1577	 0.189783444925554 
1578	 0.189785647301156 
1579	 0.189794174545074 
1580	 0.189793764083462 
1581	 0.189805614430109 
1582	 0.189792177447224 
1583	 0.189741007230209 
1584	 0.189720403061306 
1585	 0.189699647186364 
1586	 0.189690445959952 
1587	 0.189718883742837 
1588	 0.189713799314858 
1589	 0.189692971135652 
1590	 0.189675544342147 
1591	 0.189649785458777 
1592	 0.189612362317971 
1593	 0.18956888485323 
1594	 0.189529050618902 
1595	 0.189473913469905 
1596	 0.189426390351852 
1597	 0.189382583709364 
1598	 0.189347031514987 
1599	 0.189324276460151 
1600	 0.189287851604291 
1601	 0.189249744352008 
1602	 0.189216571854606 
1603	 0.189176382366607 
1604	 0.18913250848951 
1605	 0.189100733660482 
1606	 0.189059613170395 
1607	 0.189011071940258 
1608	 0.188945741455167 
1609	 0.188892139553115 
1610	 0.188838075165014 
1611	 0.188773405081874 
1612	 0.1887166475065 
1613	 0.188650434192111 
1614	 0.188589036502708 
1615	 0.188543691499892 
1616	 0.188487446423177 
1617	 0.188448718428699 
1618	 0.188406592798019 
1619	 0.188335731256737 
1620	 0.188266788015207 
1621	 0.188181979188001 
1622	 0.188073038891887 
1623	 0.187981985157856 
1624	 0.187890056319906 
1625	 0.187805957326337 
1626	 0.187730690943482 
1627	 0.187645084437834 
1628	 0.187560743164526 
1629	 0.187467307327689 
1630	 0.187361004190943 
1631	 0.187272909456138 
1632	 0.187185295473816 
1633	 0.187108498905153 
1634	 0.187048344768031 
1635	 0.18697496171938 
1636	 0.186905094803847 
1637	 0.186822570909604 
1638	 0.186726010610902 
1639	 0.186645813100734 
1640	 0.186567948656101 
1641	 0.186484460863607 
1642	 0.186412252565261 
1643	 0.186322505329248 
1644	 0.186217690100929 
1645	 0.186115933735244 
1646	 0.186004603034844 
1647	 0.185908131650663 
1648	 0.185816687004041 
1649	 0.185721688228449 
1650	 0.185639821902631 
1651	 0.185540794641823 
1652	 0.185417694756362 
1653	 0.18532626433941 
1654	 0.185247515064421 
1655	 0.185161419058735 
1656	 0.185098307543459 
1657	 0.185006112741751 
1658	 0.184889764687099 
1659	 0.184784123044369 
1660	 0.184667032352152 
1661	 0.184567376524383 
1662	 0.184479748778952 
1663	 0.184384671558659 
1664	 0.184300271258856 
1665	 0.184200543100311 
1666	 0.184083175270628 
1667	 0.183982132738948 
1668	 0.183885050840182 
1669	 0.183784464452861 
1670	 0.183680949414808 
1671	 0.183596966340934 
1672	 0.183510724188892 
1673	 0.183446354173476 
1674	 0.183420165142726 
1675	 0.183366903323764 
1676	 0.18332584793991 
1677	 0.183248096047113 
1678	 0.183141962501669 
1679	 0.18304033288789 
1680	 0.182910745491916 
1681	 0.18280242811524 
1682	 0.182702812954936 
1683	 0.182603940747551 
1684	 0.182514568781889 
1685	 0.182415269022426 
1686	 0.182306082067043 
1687	 0.182214616621486 
1688	 0.182135392889575 
1689	 0.182038109256719 
1690	 0.181947851294039 
1691	 0.181845937552445 
1692	 0.181711741031997 
1693	 0.181609241841066 
1694	 0.181521563825789 
1695	 0.181434214757584 
1696	 0.181356621447823 
1697	 0.181281693880423 
1698	 0.181214081631278 
1699	 0.181141943117122 
1700	 0.181078925842847 
1701	 0.18100192224595 
1702	 0.180919873597126 
1703	 0.180824719607531 
1704	 0.180717768641429 
1705	 0.180605708879756 
1706	 0.180465614360842 
1707	 0.180367099396561 
1708	 0.180292114380161 
1709	 0.18019806474238 
1710	 0.18011537422826 
1711	 0.180031746413014 
1712	 0.179925688511483 
1713	 0.179846818475484 
1714	 0.179796997051815 
1715	 0.179730260334601 
1716	 0.179664312200247 
1717	 0.179588654914915 
1718	 0.179514719876307 
1719	 0.179426096272052 
1720	 0.179322519309197 
1721	 0.179218514675214 
1722	 0.179099928463517 
1723	 0.178993354782285 
1724	 0.178888930246853 
1725	 0.178788363633224 
1726	 0.178706929844048 
1727	 0.178592100455931 
1728	 0.178450845463598 
1729	 0.178341367664779 
1730	 0.178211904722824 
1731	 0.178128839105272 
1732	 0.178099695083894 
1733	 0.178033323523384 
1734	 0.177979330921539 
1735	 0.177897136802617 
1736	 0.177794132353304 
1737	 0.177684251567882 
1738	 0.177537482721818 
1739	 0.177447183547644 
1740	 0.177377256137246 
1741	 0.177304920656327 
1742	 0.177268764193557 
1743	 0.177211079790901 
1744	 0.177134387043548 
1745	 0.177060276388923 
1746	 0.176995196367131 
1747	 0.176918515187235 
1748	 0.176834109448846 
1749	 0.176735933058062 
1750	 0.176636762682833 
1751	 0.176551573007288 
1752	 0.176443819835374 
1753	 0.176363504801494 
1754	 0.176304108863519 
1755	 0.17620535743762 
1756	 0.176124852682468 
1757	 0.176056714666834 
1758	 0.17597263299312 
1759	 0.175902970745391 
1760	 0.175851383962588 
1761	 0.175781725921144 
1762	 0.175700704219819 
1763	 0.175627626346055 
1764	 0.175538914309345 
1765	 0.175442186446764 
1766	 0.175375878633487 
1767	 0.175328797637011 
1768	 0.175267930714284 
1769	 0.175227761958007 
1770	 0.175179045817871 
1771	 0.175099862591893 
1772	 0.175042335397793 
1773	 0.174974866574374 
1774	 0.174882024506041 
1775	 0.174819272757298 
1776	 0.174766508797802 
1777	 0.174666037621448 
1778	 0.174573683399661 
1779	 0.174487239563128 
1780	 0.174379886126176 
1781	 0.174342394133719 
1782	 0.174340985938412 
1783	 0.174310525238703 
1784	 0.174278366244736 
1785	 0.174239411784361 
1786	 0.174193803739391 
1787	 0.174152781393016 
1788	 0.174096985883285 
1789	 0.174013005647259 
1790	 0.173952998387158 
1791	 0.173893430443255 
1792	 0.173844062698088 
1793	 0.173808516374621 
1794	 0.173785451866758 
1795	 0.173788455001478 
1796	 0.173768359043646 
1797	 0.173745682377371 
1798	 0.173706650444014 
1799	 0.173641927939654 
1800	 0.173593488182942 
1801	 0.169446930569075 
1802	 0.169556613689058 
1803	 0.169716544682165 
1804	 0.169897875198722 
1805	 0.170048654065163 
1806	 0.170178122824863 
1807	 0.170267892630938 
1808	 0.170370935416905 
1809	 0.170490094502695 
1810	 0.170572508820459 
1811	 0.17063398870214 
1812	 0.170693936739868 
1813	 0.170742607874986 
1814	 0.170751572803948 
1815	 0.17076413897424 
1816	 0.170802504824439 
1817	 0.170820861241924 
1818	 0.170811685560442 
1819	 0.170820201965956 
1820	 0.170826076305354 
1821	 0.17085407671169 
1822	 0.170889112358447 
1823	 0.170934426490029 
1824	 0.170981012816233 
1825	 0.170985669261821 
1826	 0.170987840628178 
1827	 0.171005178298989 
1828	 0.17100539117668 
1829	 0.171006795122541 
1830	 0.170991270561582 
1831	 0.170962111634 
1832	 0.170929041849753 
1833	 0.17085675923649 
1834	 0.170785940022544 
1835	 0.17074322599435 
1836	 0.170690505243596 
1837	 0.170651442318684 
1838	 0.17064201013706 
1839	 0.170625830488363 
1840	 0.170604229782744 
1841	 0.170578121524782 
1842	 0.170594159752245 
1843	 0.170599995308364 
1844	 0.170598282591245 
1845	 0.170611794344289 
1846	 0.170603254438409 
1847	 0.170603307471182 
1848	 0.170600660678356 
1849	 0.170572403948191 
1850	 0.170558825486981 
1851	 0.170547815852883 
1852	 0.170531698980468 
1853	 0.170511614790957 
1854	 0.170491023503729 
1855	 0.170447442522882 
1856	 0.170396310188504 
1857	 0.17033288645446 
1858	 0.170243088715359 
1859	 0.170143910082623 
1860	 0.17001425553124 
1861	 0.169854933870583 
1862	 0.169661638916954 
1863	 0.169461546042422 
1864	 0.169231806361055 
1865	 0.16896520096685 
1866	 0.168688470953814 
1867	 0.168417591589034 
1868	 0.16808973002947 
1869	 0.167747554058002 
1870	 0.167417851966201 
1871	 0.167090874417937 
1872	 0.166739970776258 
1873	 0.166446825398324 
1874	 0.166170172086665 
1875	 0.165888989482284 
1876	 0.165608178708876 
1877	 0.165300890202457 
1878	 0.16494695305517 
1879	 0.164552814061838 
1880	 0.164094529272635 
1881	 0.163563461530466 
1882	 0.162998029586674 
1883	 0.162387941597642 
1884	 0.161727091770197 
1885	 0.161017314298481 
1886	 0.160281441593841 
1887	 0.159473807151858 
1888	 0.158607912393465 
1889	 0.157716062896214 
1890	 0.15680423823652 
1891	 0.155864188721278 
1892	 0.154913634573411 
1893	 0.153907358533369 
1894	 0.152866128209089 
1895	 0.151767255043667 
1896	 0.150637260770048 
1897	 0.149472714313843 
1898	 0.148269795904671 
1899	 0.147079002601412 
1900	 0.145903164715985 
1901	 0.144745651479617 
1902	 0.143629790562588 
1903	 0.142582107951211 
1904	 0.141515428477288 
1905	 0.140453302003088 
1906	 0.13942405156345 
1907	 0.138412194293324 
1908	 0.137443499394175 
1909	 0.136518387560505 
1910	 0.135600688930224 
1911	 0.134716581760485 
1912	 0.133843175323124 
1913	 0.133018532850619 
1914	 0.132231644318328 
1915	 0.131483775767661 
1916	 0.130767532664506 
1917	 0.1300958446778 
1918	 0.129484683826145 
1919	 0.128892192756222 
1920	 0.128352760071361 
1921	 0.127880263923784 
1922	 0.127420501849117 
1923	 0.126992317769385 
1924	 0.126582773769249 
1925	 0.126191306218888 
1926	 0.125836297967021 
1927	 0.125508820648878 
1928	 0.125210281602774 
1929	 0.124924253196096 
1930	 0.124673190980718 
1931	 0.12442165004431 
1932	 0.124168829825191 
1933	 0.123963584237732 
1934	 0.12376657157655 
1935	 0.123594884285265 
1936	 0.123449659129324 
1937	 0.123316454447372 
1938	 0.123204080624628 
1939	 0.123104862920738 
1940	 0.123010899257769 
1941	 0.122939555432376 
1942	 0.122898788685649 
1943	 0.122902869261398 
1944	 0.122953089980581 
1945	 0.123020569164404 
1946	 0.123100043460134 
1947	 0.123199523100196 
1948	 0.123318791393877 
1949	 0.123460007166935 
1950	 0.123611936108973 
1951	 0.123795762366462 
1952	 0.123973251362423 
1953	 0.12414273695395 
1954	 0.124305649288014 
1955	 0.124470762708673 
1956	 0.124645310439888 
1957	 0.124835618943462 
1958	 0.125053088661635 
1959	 0.125247537717574 
1960	 0.125452976420235 
1961	 0.125639588407913 
1962	 0.125808043252664 
1963	 0.125977403152788 
1964	 0.12613686140692 
1965	 0.126293303125567 
1966	 0.126472418185039 
1967	 0.126638390322553 
1968	 0.126808417749696 
1969	 0.126998184663542 
1970	 0.127161140382556 
1971	 0.127301926538716 
1972	 0.127456740480533 
1973	 0.127593965575854 
1974	 0.127753231729655 
1975	 0.127927373691338 
1976	 0.128105155465821 
1977	 0.128282301725872 
1978	 0.128487900974996 
1979	 0.128678802978763 
1980	 0.128870290410279 
1981	 0.129068386569151 
1982	 0.129269332421857 
1983	 0.129470894259755 
1984	 0.129691325230828 
1985	 0.129885707028011 
1986	 0.13006706525788 
1987	 0.130250478362919 
1988	 0.130415510999046 
1989	 0.13058405221029 
1990	 0.13078193356384 
1991	 0.130977123777534 
1992	 0.131172245561438 
1993	 0.131374692659334 
1994	 0.131577102286935 
1995	 0.131780305170898 
1996	 0.131977035109993 
1997	 0.132181119198378 
1998	 0.132380284893172 
1999	 0.132556621598725 
2000	 0.13275309452901 
2001	 0.132972745195764 
2002	 0.133170189833288 
2003	 0.133359205628323 
2004	 0.133575040813591 
2005	 0.133781882465415 
2006	 0.133989732729611 
2007	 0.134181095551146 
2008	 0.134359743360295 
2009	 0.134559276627458 
2010	 0.134746101753338 
2011	 0.134952295111652 
2012	 0.135203233833293 
2013	 0.135420360118918 
2014	 0.135610480119765 
2015	 0.135827388380425 
2016	 0.13601930366325 
2017	 0.136229806195919 
2018	 0.136434108678243 
2019	 0.13664092850046 
2020	 0.136847898807761 
2021	 0.137053943304544 
2022	 0.13726179041736 
2023	 0.137479650385652 
2024	 0.137688829267058 
2025	 0.13788566269642 
2026	 0.138091829057822 
2027	 0.138296010690534 
2028	 0.138508928634787 
2029	 0.138725882135821 
2030	 0.138955764665763 
2031	 0.139171563309599 
2032	 0.139385874522374 
2033	 0.13959934057231 
2034	 0.13981029524844 
2035	 0.140014508219574 
2036	 0.140225003472895 
2037	 0.140416589371943 
2038	 0.140578633504609 
2039	 0.140761454351598 
2040	 0.140946489714272 
2041	 0.14113365750386 
2042	 0.141306274427336 
2043	 0.141495277403163 
2044	 0.141682164187321 
2045	 0.141854497313315 
2046	 0.142042379387257 
2047	 0.142241988572131 
2048	 0.142451440371528 
2049	 0.142686207963046 
2050	 0.142887891690843 
2051	 0.143083952558288 
2052	 0.143280412109035 
2053	 0.143456133204868 
2054	 0.143628436998206 
2055	 0.143815191968285 
2056	 0.143988225802515 
2057	 0.144145172894751 
2058	 0.144266629257345 
2059	 0.144425328907967 
2060	 0.144590403241851 
2061	 0.14475861185851 
2062	 0.144957312563037 
2063	 0.14512148134446 
2064	 0.145259275783629 
2065	 0.145413491075689 
2066	 0.145556517759107 
2067	 0.145708366757121 
2068	 0.145869540710423 
2069	 0.146041063507437 
2070	 0.146206060946221 
2071	 0.146378017991682 
2072	 0.146525646497372 
2073	 0.146660557501525 
2074	 0.146804701065803 
2075	 0.146937563022193 
2076	 0.147069633516638 
2077	 0.147201728834925 
2078	 0.147346695114095 
2079	 0.147484951069818 
2080	 0.147631833294455 
2081	 0.147811311403864 
2082	 0.147968028718473 
2083	 0.148112879568932 
2084	 0.148252585959881 
2085	 0.148391006160788 
2086	 0.148526590118279 
2087	 0.148649793932002 
2088	 0.148765976226842 
2089	 0.148881279538608 
2090	 0.148967840386526 
2091	 0.149093597115545 
2092	 0.149239842205224 
2093	 0.149382603101583 
2094	 0.149548975906096 
2095	 0.149704069558165 
2096	 0.14986807572356 
2097	 0.150005747194937 
2098	 0.150119920314199 
2099	 0.150251060280968 
2100	 0.15036123523277 
2101	 0.150434608884964 
2102	 0.150551875582461 
2103	 0.150679482607611 
2104	 0.150816784519366 
2105	 0.150987412647262 
2106	 0.15112837904268 
2107	 0.151260237114952 
2108	 0.151397602668971 
2109	 0.151500690695732 
2110	 0.151651834844867 
2111	 0.151863888171527 
2112	 0.152028741737992 
2113	 0.152201135999891 
2114	 0.152357348370983 
2115	 0.152494457811 
2116	 0.152578018889233 
2117	 0.152711159398519 
2118	 0.152860876400725 
2119	 0.153003136311043 
2120	 0.153161983648426 
2121	 0.153298183627317 
2122	 0.153415255679242 
2123	 0.153548778690676 
2124	 0.153681816637826 
2125	 0.153812140618256 
2126	 0.153979962521311 
2127	 0.154093352738319 
2128	 0.15415262185101 
2129	 0.154238478241236 
2130	 0.154318427969171 
2131	 0.154380589544734 
2132	 0.154446715178486 
2133	 0.154533654416663 
2134	 0.154596493775786 
2135	 0.15462856077322 
2136	 0.154680493460286 
2137	 0.154753267293614 
2138	 0.154794498953927 
2139	 0.154819839743424 
2140	 0.154847381562182 
2141	 0.15485813415211 
2142	 0.154870271380212 
2143	 0.154883116355851 
2144	 0.154895861927582 
2145	 0.154904072202493 
2146	 0.154911119043187 
2147	 0.154931617671954 
2148	 0.154929429302506 
2149	 0.154925688244191 
2150	 0.154914492156458 
2151	 0.154896744145636 
2152	 0.154877653024679 
2153	 0.154838555090741 
2154	 0.154792526678895 
2155	 0.154725264769376 
2156	 0.154614545934484 
2157	 0.154539206931912 
2158	 0.154471425541761 
2159	 0.154394717917942 
2160	 0.154333408797674 
2161	 0.154263851541599 
2162	 0.154169546781135 
2163	 0.154091349805544 
2164	 0.154024325913675 
2165	 0.153963090951652 
2166	 0.153893711981754 
2167	 0.153834499936875 
2168	 0.153744401557909 
2169	 0.153629129494986 
2170	 0.153536326913074 
2171	 0.153430015287881 
2172	 0.153339862844754 
2173	 0.15328163469167 
2174	 0.153194863897324 
2175	 0.153096430177177 
2176	 0.152997742765334 
2177	 0.152883661371004 
2178	 0.152779084847255 
2179	 0.15268383948635 
2180	 0.152575599132972 
2181	 0.152468731964223 
2182	 0.152353854699989 
2183	 0.152212640569146 
2184	 0.152086328320249 
2185	 0.151976078825658 
2186	 0.151876560015482 
2187	 0.151770014609931 
2188	 0.151681284775428 
2189	 0.151575777441919 
2190	 0.151451638165384 
2191	 0.151342994958062 
2192	 0.151243014566025 
2193	 0.151135802940897 
2194	 0.151019552984299 
2195	 0.150919940909309 
2196	 0.150810579949721 
2197	 0.150730597597831 
2198	 0.150682570329875 
2199	 0.150630692550826 
2200	 0.15059967439874 
2201	 0.150562749435354 
2202	 0.150530390778317 
2203	 0.150481844925854 
2204	 0.1504526917509 
2205	 0.150423440062412 
2206	 0.15040901443628 
2207	 0.150418134908635 
2208	 0.150407588979183 
2209	 0.150400606406982 
2210	 0.150383390386542 
2211	 0.150338598823854 
2212	 0.150325072212063 
2213	 0.150332973301191 
2214	 0.15032377750606 
2215	 0.150319931569639 
2216	 0.150319029383534 
2217	 0.150308906752715 
2218	 0.150295887952101 
2219	 0.150276110451323 
2220	 0.15027896456452 
2221	 0.150265976385289 
2222	 0.150296165715241 
2223	 0.150350800548367 
2224	 0.150410667489597 
2225	 0.150462848099927 
2226	 0.150524876790413 
2227	 0.150557726569788 
2228	 0.150584615900926 
2229	 0.150595173611632 
2230	 0.150573801359337 
2231	 0.150572453949256 
2232	 0.15057272417873 
2233	 0.15056449293178 
2234	 0.150563909821853 
2235	 0.150549322680733 
2236	 0.150529523711726 
2237	 0.150492668527906 
2238	 0.150415443050892 
2239	 0.150374690920417 
2240	 0.150337749873136 
2241	 0.15030861609153 
2242	 0.15032528231922 
2243	 0.150314716175652 
2244	 0.150301266208299 
2245	 0.150257808933714 
2246	 0.150197049103751 
2247	 0.150146329017024 
2248	 0.15011110979198 
2249	 0.15008025633832 
2250	 0.15004841145112 
2251	 0.150046661104181 
2252	 0.149996999860018 
2253	 0.1499103380281 
2254	 0.149846944750423 
2255	 0.149765601072558 
2256	 0.149709346431746 
2257	 0.149666879027976 
2258	 0.149640531540511 
2259	 0.149646074787169 
2260	 0.149619380376117 
2261	 0.149609832062239 
2262	 0.149565660847964 
2263	 0.149450865108321 
2264	 0.149393856204042 
2265	 0.149347843388969 
2266	 0.149314413587886 
2267	 0.149350223020799 
2268	 0.149333940024664 
2269	 0.14929102626976 
2270	 0.149230607755739 
2271	 0.149202044943166 
2272	 0.149183373507567 
2273	 0.149156883103022 
2274	 0.149156527823223 
2275	 0.149126179551121 
2276	 0.149059288555249 
2277	 0.149002392672984 
2278	 0.148954383122471 
2279	 0.148891666954314 
2280	 0.148806095059851 
2281	 0.148734794969524 
2282	 0.148670430421457 
2283	 0.148603607167468 
2284	 0.148525692909844 
2285	 0.148459135652615 
2286	 0.148409957136615 
2287	 0.148339920817497 
2288	 0.148263324190497 
2289	 0.14820190927743 
2290	 0.148130853971148 
2291	 0.148063163949922 
2292	 0.148015170371575 
2293	 0.147954637368124 
2294	 0.14789128374644 
2295	 0.147816234337315 
2296	 0.147741880828846 
2297	 0.147648643788078 
2298	 0.147535481634297 
2299	 0.147401103061001 
2300	 0.147253357191239 
2301	 0.147116078995725 
2302	 0.14699774051244 
2303	 0.146907542121303 
2304	 0.146847171351091 
2305	 0.146771447318047 
2306	 0.146655523035177 
2307	 0.146512244622271 
2308	 0.146371140444581 
2309	 0.146184311970512 
2310	 0.146035775609214 
2311	 0.145909578598977 
2312	 0.14577168529208 
2313	 0.145633078697858 
2314	 0.145504550740548 
2315	 0.145384211191579 
2316	 0.145253568439878 
2317	 0.145132336642145 
2318	 0.144995331523688 
2319	 0.144840500516989 
2320	 0.144687795825201 
2321	 0.144532025475366 
2322	 0.144373975500247 
2323	 0.144195362824015 
2324	 0.144044765658803 
2325	 0.143913081814276 
2326	 0.143774662510033 
2327	 0.143655729857466 
2328	 0.143521182349999 
2329	 0.143388358582848 
2330	 0.143248403247998 
2331	 0.143098311974524 
2332	 0.142927250626729 
2333	 0.142734554421056 
2334	 0.142548407017248 
2335	 0.142368967607443 
2336	 0.142250559300446 
2337	 0.14213630814472 
2338	 0.141960943816423 
2339	 0.14178460045622 
2340	 0.141593859339235 
2341	 0.141425687770361 
2342	 0.141255940826211 
2343	 0.141048147583533 
2344	 0.140856501362164 
2345	 0.140652187610816 
2346	 0.140420379592296 
2347	 0.140202601421136 
2348	 0.139988339942031 
2349	 0.139782857081617 
2350	 0.139579530238219 
2351	 0.139373238388507 
2352	 0.139191260960429 
2353	 0.13896151329392 
2354	 0.13869599287132 
2355	 0.138448427950812 
2356	 0.138197789219978 
2357	 0.137940959423976 
2358	 0.137676825774637 
2359	 0.137408146909816 
2360	 0.137138665328024 
2361	 0.136846477614952 
2362	 0.136518716281926 
2363	 0.136250302116631 
2364	 0.135981525306489 
2365	 0.135726768543898 
2366	 0.135552230428086 
2367	 0.135336124298831 
2368	 0.135080178815114 
2369	 0.134844095698115 
2370	 0.13462610899058 
2371	 0.134375403877366 
2372	 0.134122556829339 
2373	 0.133878318248573 
2374	 0.133613447057706 
2375	 0.133308238424779 
2376	 0.132978431484604 
2377	 0.132671369717785 
2378	 0.13237149727934 
2379	 0.132057315170819 
2380	 0.131795727470893 
2381	 0.131579575917103 
2382	 0.13130799412456 
2383	 0.131049665217446 
2384	 0.130817882907849 
2385	 0.130498663667473 
2386	 0.130260363918529 
2387	 0.130126520525473 
2388	 0.129915966492549 
2389	 0.129744311896452 
2390	 0.129560801291496 
2391	 0.129271452708364 
2392	 0.128993282799384 
2393	 0.128760384520722 
2394	 0.128511195944487 
2395	 0.128258231018091 
2396	 0.128027545842874 
2397	 0.127749316922487 
2398	 0.127482395498662 
2399	 0.127229907898899 
2400	 0.127003089822975 
2401	 0.126836634310415 
2402	 0.126663075851197 
2403	 0.126478079817717 
2404	 0.126304697194591 
2405	 0.126102678455953 
2406	 0.125816811950963 
2407	 0.125571729832682 
2408	 0.125421070803199 
2409	 0.125238539066741 
2410	 0.125126608687016 
2411	 0.125031675372019 
2412	 0.12478501062031 
2413	 0.124557385435791 
2414	 0.124408268762392 
2415	 0.12429455357947 
2416	 0.124157466966903 
2417	 0.124105090159182 
2418	 0.12393477592121 
2419	 0.123639221577454 
2420	 0.123426667790657 
2421	 0.123215586800866 
2422	 0.123011312744706 
2423	 0.122839413348674 
2424	 0.122662074560505 
2425	 0.122476029184941 
2426	 0.122282902180444 
2427	 0.122114403678025 
2428	 0.121949119388306 
2429	 0.121764302996798 
2430	 0.121581662007581 
2431	 0.121390092467371 
2432	 0.121215381420466 
2433	 0.121078862150786 
2434	 0.120901855579082 
2435	 0.120732376514486 
2436	 0.12055040687649 
2437	 0.120300924718318 
2438	 0.120025893069183 
2439	 0.119734916249511 
2440	 0.119534941050211 
2441	 0.119308695944352 
2442	 0.119211203189813 
2443	 0.119293654272102 
2444	 0.119228867059992 
2445	 0.119175957987908 
2446	 0.118994626258896 
2447	 0.11869943079776 
2448	 0.11846720037577 
2449	 0.118124188776556 
2450	 0.117903914907393 
2451	 0.117834353154567 
2452	 0.117624090717129 
2453	 0.117413213678379 
2454	 0.117219416322468 
2455	 0.116870761529154 
2456	 0.11665798967651 
2457	 0.116582681704137 
2458	 0.116346614194398 
2459	 0.116076106690316 
2460	 0.115876078641836 
2461	 0.11563428701532 
2462	 0.115463903787902 
2463	 0.115372269850971 
2464	 0.115283109795779 
2465	 0.115330834147238 
2466	 0.11508537784764 
2467	 0.114597095887168 
2468	 0.114338184965916 
2469	 0.11396411763503 
2470	 0.113745086128959 
2471	 0.113713459786452 
2472	 0.113768467144808 
2473	 0.113634575565223 
2474	 0.113441915460269 
2475	 0.113454236188451 
2476	 0.113237066414366 
2477	 0.112944467901102 
2478	 0.112796315030044 
2479	 0.11263322348929 
2480	 0.112494267258401 
2481	 0.112327832415531 
2482	 0.112211678947918 
2483	 0.112030079387646 
2484	 0.111720284924665 
2485	 0.111631384491678 
2486	 0.111529066977672 
2487	 0.111316336513519 
2488	 0.111260999963794 
2489	 0.111027293199933 
2490	 0.110875104992029 
2491	 0.110933375695002 
2492	 0.110818603380767 
2493	 0.110643038514768 
2494	 0.110575988154091 
2495	 0.110672493377305 
2496	 0.11079273452989 
2497	 0.111036998952254 
2498	 0.111102211786679 
2499	 0.110877195673458 
2500	 0.11052805930024 
