Wavelength	LMW_1400006.asd
350	 6.89802682735499E-02 
351	 7.47437588587935E-02 
352	 7.08955561460204E-02 
353	 5.93271896245466E-02 
354	 6.55321937504244E-02 
355	 6.83909281194517E-02 
356	 6.71853766321962E-02 
357	 6.61287617757928E-02 
358	 6.66359884196365E-02 
359	 0.066709227213087 
360	 6.80631785150352E-02 
361	 7.34707023589137E-02 
362	 6.93755129150092E-02 
363	 6.69706714494075E-02 
364	 7.00421837225295E-02 
365	 0.065816137223761 
366	 6.68735687343537E-02 
367	 6.92550193998511E-02 
368	 6.73640348027497E-02 
369	 0.067363178407436 
370	 6.98160957366609E-02 
371	 7.19997795243576E-02 
372	 6.97148500096284E-02 
373	 6.87872700190657E-02 
374	 6.97097072263134E-02 
375	 7.06295685686114E-02 
376	 6.68002581956616E-02 
377	 0.064545869914399 
378	 6.61589762187191E-02 
379	 7.08306117576492E-02 
380	 7.18158484806216E-02 
381	 6.89191411657849E-02 
382	 6.61045342619194E-02 
383	 6.92722735044444E-02 
384	 6.97626402924444E-02 
385	 0.068845299365662 
386	 6.84976663254856E-02 
387	 6.93272826259908E-02 
388	 6.88200318943047E-02 
389	 6.81233139454354E-02 
390	 6.90962064886264E-02 
391	 7.12087993559667E-02 
392	 0.070986553792227 
393	 6.94060178558713E-02 
394	 7.08526021560679E-02 
395	 7.08491946153578E-02 
396	 7.08202778371928E-02 
397	 7.17414630987145E-02 
398	 7.15900938270852E-02 
399	 7.09066973442535E-02 
400	 7.03000496244357E-02 
401	 7.02631093732247E-02 
402	 7.03205272676332E-02 
403	 6.98405814229772E-02 
404	 6.95842329280689E-02 
405	 7.15259359161761E-02 
406	 7.16819197907291E-02 
407	 7.15270266240199E-02 
408	 7.23869680968246E-02 
409	 7.24074819469159E-02 
410	 7.16726668958952E-02 
411	 7.08869308847722E-02 
412	 7.09431914598447E-02 
413	 7.17914621850584E-02 
414	 7.20340795449491E-02 
415	 7.16932377460953E-02 
416	 7.27131261011442E-02 
417	 7.28326945069362E-02 
418	 0.07273363868589 
419	 7.32412953082963E-02 
420	 7.32375878031061E-02 
421	 7.23974859206636E-02 
422	 7.17474144788163E-02 
423	 7.28558151519944E-02 
424	 7.34143947801389E-02 
425	 7.36498890678327E-02 
426	 7.38246427840035E-02 
427	 7.36253919459047E-02 
428	 7.29659796640637E-02 
429	 7.25640522571685E-02 
430	 0.073082131466239 
431	 7.37065277988416E-02 
432	 7.36681908131304E-02 
433	 7.32158983037051E-02 
434	 7.34923287076649E-02 
435	 7.39077370684465E-02 
436	 7.41035913418797E-02 
437	 0.074024425432091 
438	 7.42854247049744E-02 
439	 0.074529404439231 
440	 7.46245657456245E-02 
441	 7.45994383197922E-02 
442	 7.47679739013704E-02 
443	 7.52575830193816E-02 
444	 7.56434922909412E-02 
445	 0.074645589256419 
446	 7.49106326609894E-02 
447	 7.56814090144872E-02 
448	 7.56860405025448E-02 
449	 7.60341787446868E-02 
450	 7.63832224050509E-02 
451	 7.66072316188487E-02 
452	 7.67970219150992E-02 
453	 7.68914054212262E-02 
454	 7.68763456029955E-02 
455	 0.076918254609925 
456	 7.77140196051815E-02 
457	 7.78738476186656E-02 
458	 7.75343103777691E-02 
459	 7.75160675611189E-02 
460	 7.78770574297439E-02 
461	 7.81929462791072E-02 
462	 7.83910447031827E-02 
463	 7.89615350634784E-02 
464	 7.93049782185225E-02 
465	 7.95016862447211E-02 
466	 7.97266773191998E-02 
467	 7.96796099438995E-02 
468	 7.98342972756235E-02 
469	 8.01901523660485E-02 
470	 8.03643962806481E-02 
471	 8.05013537037909E-02 
472	 8.06305229087829E-02 
473	 8.08249020098823E-02 
474	 8.13441455009645E-02 
475	 8.16091130815272E-02 
476	 8.17261139003118E-02 
477	 0.082054739710771 
478	 8.23508434763402E-02 
479	 8.25927170047773E-02 
480	 8.27700196439017E-02 
481	 8.28509672776169E-02 
482	 8.32942490041722E-02 
483	 8.36882144339599E-02 
484	 8.36589951321651E-02 
485	 8.40556926535057E-02 
486	 8.42151749140169E-02 
487	 8.41157146910438E-02 
488	 8.42761581459833E-02 
489	 0.084482048932204 
490	 0.084816615813274 
491	 8.52338947632073E-02 
492	 8.52455974189932E-02 
493	 8.52773497003934E-02 
494	 8.55037104374376E-02 
495	 8.59149522679632E-02 
496	 8.60615396246011E-02 
497	 8.62713654883003E-02 
498	 8.66200006140429E-02 
499	 8.66947581794228E-02 
500	 8.68352760382428E-02 
501	 8.69935492750842E-02 
502	 8.70503244596034E-02 
503	 8.70708771342178E-02 
504	 0.087193210561148 
505	 8.74434977871165E-02 
506	 8.77387100916481E-02 
507	 8.79197268625734E-02 
508	 8.80347603965592E-02 
509	 8.81532057196286E-02 
510	 0.08828938806087 
511	 8.82653186050449E-02 
512	 8.82639322249511E-02 
513	 8.85866526929642E-02 
514	 8.87280921711738E-02 
515	 8.87711071127212E-02 
516	 8.88409367219263E-02 
517	 8.90253380748172E-02 
518	 8.91079790278431E-02 
519	 8.91000040484574E-02 
520	 8.91204936886645E-02 
521	 8.94133015342304E-02 
522	 8.96260741871947E-02 
523	 8.96661489827994E-02 
524	 8.97439586368466E-02 
525	 8.97935402538819E-02 
526	 8.98452769372276E-02 
527	 8.99343156394677E-02 
528	 9.00736503487954E-02 
529	 9.00871675609049E-02 
530	 9.00613275313794E-02 
531	 9.02296629173176E-02 
532	 9.03621109116255E-02 
533	 9.04831073273665E-02 
534	 9.06260966852979E-02 
535	 9.07745436467776E-02 
536	 9.08541683127493E-02 
537	 9.08936243416124E-02 
538	 9.09584562718682E-02 
539	 9.10367969872954E-02 
540	 9.11174367675212E-02 
541	 9.11914527256488E-02 
542	 9.12516221765869E-02 
543	 9.13703847788391E-02 
544	 9.15058570539192E-02 
545	 9.16003713376976E-02 
546	 9.16718987799853E-02 
547	 9.17360622417306E-02 
548	 9.18169461207123E-02 
549	 0.091939753838021 
550	 9.20135695776047E-02 
551	 9.20542306983673E-02 
552	 9.21142590410497E-02 
553	 9.23083264427582E-02 
554	 9.23568361725157E-02 
555	 9.23377496534586E-02 
556	 0.092487179462091 
557	 9.25918951081623E-02 
558	 9.26832363170706E-02 
559	 9.27883890848526E-02 
560	 9.28835996321096E-02 
561	 9.28962711342379E-02 
562	 0.092940555088729 
563	 9.31352896182767E-02 
564	 0.093251293357335 
565	 9.32945886622763E-02 
566	 9.33207395905151E-02 
567	 9.34211152960696E-02 
568	 9.34907869868607E-02 
569	 9.35753359535894E-02 
570	 0.093703036551166 
571	 9.37194169595922E-02 
572	 9.37508558580141E-02 
573	 9.38050805939154E-02 
574	 0.093809406626491 
575	 9.38181502868148E-02 
576	 9.38700987944902E-02 
577	 9.39635340971998E-02 
578	 9.40077406872653E-02 
579	 9.41228754079675E-02 
580	 9.42589540393321E-02 
581	 9.43022165676264E-02 
582	 9.42534593437718E-02 
583	 9.42110580497788E-02 
584	 9.42198036180574E-02 
585	 9.42354167986693E-02 
586	 9.43051936042511E-02 
587	 9.43733385629471E-02 
588	 9.43916530932798E-02 
589	 9.44868733125792E-02 
590	 9.45363820548547E-02 
591	 9.45243474310443E-02 
592	 0.094534053337851 
593	 9.44482564443644E-02 
594	 9.43666759137007E-02 
595	 9.43752674080535E-02 
596	 9.44165108061486E-02 
597	 9.44715926219396E-02 
598	 9.45182145384567E-02 
599	 9.45449983292108E-02 
600	 9.46433682214462E-02 
601	 9.47217817930279E-02 
602	 9.47446823605031E-02 
603	 9.48194448790616E-02 
604	 9.48248682380124E-02 
605	 9.48365908288283E-02 
606	 9.49581813930156E-02 
607	 9.50449995608352E-02 
608	 9.51182333812012E-02 
609	 9.51900940740766E-02 
610	 9.52514423400978E-02 
611	 9.52423170599377E-02 
612	 9.52387969300437E-02 
613	 9.53005841934889E-02 
614	 9.53133876904292E-02 
615	 9.53448242984484E-02 
616	 9.53902160898555E-02 
617	 9.53980344074826E-02 
618	 9.54087532334163E-02 
619	 9.54071414101442E-02 
620	 9.53962853361969E-02 
621	 9.54361930584324E-02 
622	 9.54998231574908E-02 
623	 9.55722383832256E-02 
624	 9.56330988397113E-02 
625	 9.56072714790002E-02 
626	 9.55882563961346E-02 
627	 9.56297277930729E-02 
628	 9.57156888263414E-02 
629	 9.57903715440847E-02 
630	 0.095821974268418 
631	 9.58139194388881E-02 
632	 9.58613115049266E-02 
633	 9.59226414754264E-02 
634	 9.59744263944208E-02 
635	 9.60130064543617E-02 
636	 9.60721144531342E-02 
637	 9.61244783984431E-02 
638	 9.61531659832788E-02 
639	 9.61943493192293E-02 
640	 9.62136169821283E-02 
641	 0.096263590174209 
642	 9.64038984937085E-02 
643	 9.64271007396835E-02 
644	 0.096453460082583 
645	 9.65346980303499E-02 
646	 9.65772072185012E-02 
647	 9.66237832199382E-02 
648	 9.66603326614885E-02 
649	 9.66830610508323E-02 
650	 9.68011621121759E-02 
651	 9.68793541349874E-02 
652	 9.69063858448996E-02 
653	 9.69804076568198E-02 
654	 9.70453913122799E-02 
655	 0.09711004861651 
656	 9.71775436323094E-02 
657	 9.72020610513388E-02 
658	 9.72762318917054E-02 
659	 9.73749232431116E-02 
660	 9.74261341108094E-02 
661	 9.74775987240232E-02 
662	 9.75438769500285E-02 
663	 9.76184628833593E-02 
664	 9.76688099441282E-02 
665	 9.77302221979275E-02 
666	 9.77802599562986E-02 
667	 9.78007866460565E-02 
668	 9.78578780745205E-02 
669	 9.79326974288942E-02 
670	 9.79986109045169E-02 
671	 9.80314771738577E-02 
672	 9.81296589150515E-02 
673	 9.82414641096781E-02 
674	 9.83134277877827E-02 
675	 9.83491859895268E-02 
676	 9.83807983551072E-02 
677	 9.84200461554648E-02 
678	 0.098467434636839 
679	 9.85162043427142E-02 
680	 9.85846067575622E-02 
681	 9.86713815011085E-02 
682	 9.87485471934485E-02 
683	 9.87708122163635E-02 
684	 9.87915230428234E-02 
685	 9.88608260032268E-02 
686	 0.098916938751636 
687	 9.89610798182657E-02 
688	 9.90074023432437E-02 
689	 9.90731253245078E-02 
690	 0.099096698809018 
691	 9.91097507276636E-02 
692	 0.099143663691021 
693	 9.92052567010454E-02 
694	 9.92413015786562E-02 
695	 9.92675366262961E-02 
696	 9.93148865609728E-02 
697	 9.93410744805564E-02 
698	 9.93607009495983E-02 
699	 9.93980612015838E-02 
700	 9.94806292160908E-02 
701	 9.95299412757982E-02 
702	 9.95430193425119E-02 
703	 9.95390166027177E-02 
704	 9.95449444031856E-02 
705	 9.95509538426735E-02 
706	 0.099571642070826 
707	 9.96232799898559E-02 
708	 9.96355068215985E-02 
709	 0.099633464908465 
710	 9.96459609949029E-02 
711	 9.96931312162624E-02 
712	 9.96874764891482E-02 
713	 9.96638848316517E-02 
714	 9.96768019994484E-02 
715	 9.97107624465197E-02 
716	 9.97547609464359E-02 
717	 9.97744332807847E-02 
718	 9.97315964519192E-02 
719	 0.099748883611852 
720	 9.97520894363115E-02 
721	 9.96993991498604E-02 
722	 9.96612774252728E-02 
723	 9.96930812690592E-02 
724	 9.97313614271459E-02 
725	 9.96968647005916E-02 
726	 9.96723120165713E-02 
727	 0.099634086046819 
728	 9.95980888134439E-02 
729	 9.96145583011328E-02 
730	 9.95942442954506E-02 
731	 9.95648547239545E-02 
732	 9.95484925279131E-02 
733	 9.94988794043274E-02 
734	 9.94522981821779E-02 
735	 9.94013481735509E-02 
736	 0.099335528976843 
737	 9.93404113324522E-02 
738	 9.93301167512951E-02 
739	 9.92885261543012E-02 
740	 9.92862125196522E-02 
741	 9.92316242720236E-02 
742	 9.91699672859301E-02 
743	 9.91373917565569E-02 
744	 9.90623901315308E-02 
745	 9.89870186513754E-02 
746	 9.89492454191312E-02 
747	 9.89616131342078E-02 
748	 9.88856744932566E-02 
749	 9.87762344693665E-02 
750	 9.86948169161048E-02 
751	 0.098685748695677 
752	 0.098685569609338 
753	 9.86571371005328E-02 
754	 9.85919684587163E-02 
755	 9.85385191106673E-02 
756	 9.85038160872843E-02 
757	 0.098457966050839 
758	 9.83683559969991E-02 
759	 0.098343098450849 
760	 9.82766455200571E-02 
761	 9.81757299800413E-02 
762	 9.82064956168644E-02 
763	 9.81653250106396E-02 
764	 9.80874001752138E-02 
765	 0.098038984614683 
766	 9.80061616485091E-02 
767	 9.79420307630561E-02 
768	 9.78573350762993E-02 
769	 9.77914131313853E-02 
770	 9.77464111837186E-02 
771	 9.77062535785442E-02 
772	 9.76546515117886E-02 
773	 9.75793170922261E-02 
774	 9.75225854202136E-02 
775	 9.74959236690674E-02 
776	 9.74810945823956E-02 
777	 9.73999865877502E-02 
778	 0.097327518206647 
779	 9.72814070127005E-02 
780	 9.72470011280753E-02 
781	 9.71917495755318E-02 
782	 9.71320316210721E-02 
783	 9.70837253805521E-02 
784	 9.70545847485607E-02 
785	 9.69789096767415E-02 
786	 9.68896649659239E-02 
787	 9.68243785786562E-02 
788	 9.67834058291069E-02 
789	 9.67510156070763E-02 
790	 9.66959453142371E-02 
791	 9.65982868454884E-02 
792	 9.65173120446897E-02 
793	 9.64668495987681E-02 
794	 9.64399421797483E-02 
795	 9.64114657362676E-02 
796	 9.63416918281983E-02 
797	 9.62579691320971E-02 
798	 9.61906422292038E-02 
799	 9.61546092564446E-02 
800	 9.61090569535323E-02 
801	 9.60309893637919E-02 
802	 9.59246329301158E-02 
803	 9.58651021333886E-02 
804	 9.58209403198415E-02 
805	 0.095773559336796 
806	 9.57175455962248E-02 
807	 0.095678673544116 
808	 9.56113035841158E-02 
809	 9.55133071855064E-02 
810	 9.54467722624159E-02 
811	 9.54071157796731E-02 
812	 9.53544947923513E-02 
813	 9.52714174036846E-02 
814	 9.52250490047203E-02 
815	 9.51696426815256E-02 
816	 9.51071989857115E-02 
817	 9.50600889060448E-02 
818	 9.50539607585846E-02 
819	 9.49938898755332E-02 
820	 9.48819532343156E-02 
821	 9.48039109744457E-02 
822	 9.47234301102908E-02 
823	 9.46458504645828E-02 
824	 9.45891965082669E-02 
825	 9.45844767817773E-02 
826	 9.45351460648955E-02 
827	 9.44497819848933E-02 
828	 9.43740100124221E-02 
829	 9.43726638543187E-02 
830	 9.43078631908874E-02 
831	 9.42249021720686E-02 
832	 9.42311126207721E-02 
833	 9.42124444320528E-02 
834	 9.41313927315391E-02 
835	 9.40196398624598E-02 
836	 0.093963576404203 
837	 9.39500774373413E-02 
838	 9.39181972277507E-02 
839	 9.38455162575831E-02 
840	 0.093789264500025 
841	 9.37293906145719E-02 
842	 9.36702510914889E-02 
843	 9.36180507273928E-02 
844	 9.35661601154694E-02 
845	 0.0935257820891 
846	 9.34848001436531E-02 
847	 9.34327126447438E-02 
848	 9.34380424556564E-02 
849	 9.33975163681039E-02 
850	 9.33064295213535E-02 
851	 9.32479461552549E-02 
852	 9.31957215664549E-02 
853	 9.31372951275037E-02 
854	 9.30725383224954E-02 
855	 9.30175408592596E-02 
856	 9.30116792938755E-02 
857	 9.30281282580958E-02 
858	 9.30125068222186E-02 
859	 9.28737090298498E-02 
860	 9.28098886503336E-02 
861	 9.28093719978192E-02 
862	 9.27941491056832E-02 
863	 9.27766711251866E-02 
864	 9.27522374612353E-02 
865	 9.27199176960957E-02 
866	 9.26773406648658E-02 
867	 9.25903999008434E-02 
868	 9.25148761455056E-02 
869	 9.24808833353483E-02 
870	 9.24767073431026E-02 
871	 9.24137062205685E-02 
872	 0.092395800229466 
873	 9.24351527116698E-02 
874	 9.23505561400254E-02 
875	 9.22946571035593E-02 
876	 0.092249009300404 
877	 9.21823724269356E-02 
878	 9.21381683917687E-02 
879	 9.21500523521217E-02 
880	 0.092161942164505 
881	 0.092113805847325 
882	 9.20694357050484E-02 
883	 9.20825058724843E-02 
884	 9.20849189207729E-02 
885	 9.19757214143887E-02 
886	 9.18900612249331E-02 
887	 9.18758787286644E-02 
888	 9.19045227753135E-02 
889	 9.18941592508924E-02 
890	 9.18702511600413E-02 
891	 9.18353200327988E-02 
892	 9.17848740630427E-02 
893	 9.17115555970053E-02 
894	 9.16811081640786E-02 
895	 9.16927849838415E-02 
896	 9.17178925292998E-02 
897	 9.17081324050566E-02 
898	 9.16590282664532E-02 
899	 9.16261878839972E-02 
900	 9.16438753221092E-02 
901	 9.16523404279036E-02 
902	 9.16006616436186E-02 
903	 9.15655900591845E-02 
904	 9.16111329457589E-02 
905	 9.15785533415315E-02 
906	 9.15043929327153E-02 
907	 0.091434854666962 
908	 9.14179790600079E-02 
909	 9.14915346283023E-02 
910	 9.15176270558005E-02 
911	 0.091477941466578 
912	 9.14429342440723E-02 
913	 9.14373825599989E-02 
914	 0.09141546637151 
915	 0.091369552479348 
916	 9.13330695436842E-02 
917	 9.13261534649929E-02 
918	 9.13214382232486E-02 
919	 9.12987012625237E-02 
920	 9.12578310029422E-02 
921	 9.12300588094772E-02 
922	 9.12536606377812E-02 
923	 9.12947804097656E-02 
924	 9.12275982855172E-02 
925	 9.12190213515093E-02 
926	 9.12116599079757E-02 
927	 9.11577937502319E-02 
928	 9.11152252659313E-02 
929	 9.11807792087689E-02 
930	 0.091230419133115 
931	 9.11680951276577E-02 
932	 9.10931515810795E-02 
933	 9.11318659523638E-02 
934	 9.11840554488499E-02 
935	 9.11484543480178E-02 
936	 9.11433883048292E-02 
937	 9.10474344098075E-02 
938	 9.09862317228142E-02 
939	 9.10717937438676E-02 
940	 9.10833827458911E-02 
941	 0.091102819209968 
942	 0.091144162602126 
943	 9.11730702258661E-02 
944	 9.10668674719779E-02 
945	 9.10711072749923E-02 
946	 0.091118451526863 
947	 9.10464338869706E-02 
948	 9.09895907422736E-02 
949	 9.08962869690315E-02 
950	 9.08259392842639E-02 
951	 9.08583239224424E-02 
952	 9.08803052392503E-02 
953	 9.09202597746052E-02 
954	 9.09532656562435E-02 
955	 9.09406070509799E-02 
956	 9.09426167679933E-02 
957	 9.09733924922398E-02 
958	 9.09821062451564E-02 
959	 0.090918500521262 
960	 9.09570455045058E-02 
961	 9.09363523097647E-02 
962	 9.08741174849937E-02 
963	 0.090895825393716 
964	 9.09431923397115E-02 
965	 9.09790320369193E-02 
966	 9.09423675354659E-02 
967	 9.08112586695532E-02 
968	 0.090847039254902 
969	 0.090915490396167 
970	 9.08989169426038E-02 
971	 9.07652414590619E-02 
972	 9.07417774245956E-02 
973	 9.07392681329313E-02 
974	 9.07346028063343E-02 
975	 9.07711218125791E-02 
976	 9.09209290883942E-02 
977	 9.09495903980071E-02 
978	 9.08678961345462E-02 
979	 9.08416415955239E-02 
980	 9.08316708148744E-02 
981	 9.07730722524776E-02 
982	 9.06636613776536E-02 
983	 9.05771784401142E-02 
984	 9.07485163690834E-02 
985	 9.07490898113548E-02 
986	 9.06328564893521E-02 
987	 9.06728969945551E-02 
988	 9.05909485222861E-02 
989	 9.07220140821271E-02 
990	 9.08470147087133E-02 
991	 9.06401167552887E-02 
992	 9.07060957995554E-02 
993	 9.07181864199662E-02 
994	 9.06743421285299E-02 
995	 9.06589046852758E-02 
996	 9.03910108532714E-02 
997	 9.03297774563609E-02 
998	 9.04673309325671E-02 
999	 9.06044248999721E-02 
1000	 9.06701718124577E-02 
1001	 8.73204474317417E-02 
1002	 8.72628391974909E-02 
1003	 0.087291111728174 
1004	 8.72954590913079E-02 
1005	 8.73352163356251E-02 
1006	 8.73297296382923E-02 
1007	 8.73093124467118E-02 
1008	 8.72682664283207E-02 
1009	 8.72226841653487E-02 
1010	 8.71935515709448E-02 
1011	 0.087201289137123 
1012	 8.71780989725134E-02 
1013	 8.71218306326233E-02 
1014	 8.71476590588519E-02 
1015	 8.71493569716333E-02 
1016	 8.71106563042576E-02 
1017	 8.70977223751647E-02 
1018	 0.087110457072322 
1019	 8.70812910180095E-02 
1020	 8.70224561087589E-02 
1021	 0.086961915364292 
1022	 8.69085796641531E-02 
1023	 8.68460195791786E-02 
1024	 8.68459757167037E-02 
1025	 8.68882721258575E-02 
1026	 8.68323911587724E-02 
1027	 8.67717635644469E-02 
1028	 8.67254060865351E-02 
1029	 8.66559824005775E-02 
1030	 8.66412734952441E-02 
1031	 8.66398807217175E-02 
1032	 8.66903254878334E-02 
1033	 8.66627084906429E-02 
1034	 8.65922177370364E-02 
1035	 8.65656038199766E-02 
1036	 8.65120413172208E-02 
1037	 8.64979934702361E-02 
1038	 8.65433276269519E-02 
1039	 8.65373882305444E-02 
1040	 8.65030987277619E-02 
1041	 8.64371919308028E-02 
1042	 8.63846780346266E-02 
1043	 8.63623453153788E-02 
1044	 0.086338689025657 
1045	 8.63225966487952E-02 
1046	 8.63378358277705E-02 
1047	 8.63544119477004E-02 
1048	 8.63523058639564E-02 
1049	 0.086330484054169 
1050	 8.63238615596519E-02 
1051	 8.63197067475463E-02 
1052	 8.62939387517007E-02 
1053	 8.63172422232972E-02 
1054	 8.63389629256582E-02 
1055	 8.63352110485243E-02 
1056	 8.63581622375724E-02 
1057	 0.086369275593889 
1058	 0.08638011106319 
1059	 8.63956504924557E-02 
1060	 0.08641760911249 
1061	 8.64046253983581E-02 
1062	 8.64216695910023E-02 
1063	 8.64218780477811E-02 
1064	 8.64217062210482E-02 
1065	 0.086452167970502 
1066	 0.086443497499612 
1067	 8.64492918159543E-02 
1068	 8.64279485222405E-02 
1069	 8.63951828165618E-02 
1070	 8.63893159499694E-02 
1071	 8.63897249732439E-02 
1072	 0.086393625581369 
1073	 8.64347596444938E-02 
1074	 8.64535963614727E-02 
1075	 8.64598870712726E-02 
1076	 8.64688493677833E-02 
1077	 8.65130767208988E-02 
1078	 8.65376695125881E-02 
1079	 8.65231575184601E-02 
1080	 8.65380385518086E-02 
1081	 0.086524998245924 
1082	 0.086448232099686 
1083	 8.64014854713247E-02 
1084	 8.63348380722439E-02 
1085	 8.63264054517961E-02 
1086	 8.63540253595677E-02 
1087	 0.086370427413161 
1088	 8.64089884957644E-02 
1089	 8.64733395694972E-02 
1090	 8.64878735155016E-02 
1091	 8.64756921630083E-02 
1092	 8.64718921523668E-02 
1093	 8.64447709520682E-02 
1094	 0.086407101578267 
1095	 8.63858629434444E-02 
1096	 8.63849470373969E-02 
1097	 8.63889748316442E-02 
1098	 8.63698761638225E-02 
1099	 8.63279629704627E-02 
1100	 8.63144487966426E-02 
1101	 8.62942329068193E-02 
1102	 8.62937038395768E-02 
1103	 8.63314560117575E-02 
1104	 8.63533573476873E-02 
1105	 8.63294707514924E-02 
1106	 8.63035513107751E-02 
1107	 8.62913632382682E-02 
1108	 8.62730810919346E-02 
1109	 0.086278676872547 
1110	 8.62614567447857E-02 
1111	 8.62499060415616E-02 
1112	 8.62258624032638E-02 
1113	 8.62215244627683E-02 
1114	 8.62332347288056E-02 
1115	 8.62276098019531E-02 
1116	 8.62163359433111E-02 
1117	 8.62000494744831E-02 
1118	 0.086166470046809 
1119	 8.61621130757884E-02 
1120	 8.61386661832947E-02 
1121	 8.61096768796941E-02 
1122	 8.61134084080091E-02 
1123	 8.61069021007217E-02 
1124	 8.61098246974498E-02 
1125	 0.086142708225762 
1126	 8.61453391933576E-02 
1127	 8.61266875120927E-02 
1128	 8.61252651664627E-02 
1129	 8.61227590368915E-02 
1130	 8.61177403764593E-02 
1131	 8.61300773579833E-02 
1132	 8.61227640845021E-02 
1133	 8.60940314484267E-02 
1134	 0.086079291827533 
1135	 0.086073187837019 
1136	 8.60371585863801E-02 
1137	 8.60279461633995E-02 
1138	 8.60264498443016E-02 
1139	 8.60269751108479E-02 
1140	 8.60359949339187E-02 
1141	 8.60437160394943E-02 
1142	 8.60615927188983E-02 
1143	 8.60604356833597E-02 
1144	 8.60412710026631E-02 
1145	 8.60388144560194E-02 
1146	 8.60369481806515E-02 
1147	 8.60352853547226E-02 
1148	 8.60470951410418E-02 
1149	 0.086052131347898 
1150	 0.086049338856955 
1151	 8.60441701984823E-02 
1152	 0.086056542397041 
1153	 8.60508085225871E-02 
1154	 8.60472934633968E-02 
1155	 8.60405250850966E-02 
1156	 8.60375402045531E-02 
1157	 0.086028920317572 
1158	 0.086032289129674 
1159	 8.60503353661395E-02 
1160	 8.60505370616757E-02 
1161	 8.60409146671515E-02 
1162	 0.086041110640339 
1163	 8.60354329916079E-02 
1164	 8.60371596193414E-02 
1165	 8.60490808731661E-02 
1166	 8.60664879408908E-02 
1167	 8.60727735244023E-02 
1168	 8.60696264969134E-02 
1169	 8.60808374642283E-02 
1170	 8.60905408075046E-02 
1171	 8.61134307939399E-02 
1172	 0.08615103928021 
1173	 8.61818413603223E-02 
1174	 8.62291908945813E-02 
1175	 8.62501875469098E-02 
1176	 8.62531231497817E-02 
1177	 8.62661707365872E-02 
1178	 8.62621448862577E-02 
1179	 0.086272290445376 
1180	 8.63003460513517E-02 
1181	 8.63187508764731E-02 
1182	 8.63322016324675E-02 
1183	 8.63532758816985E-02 
1184	 8.63716047826973E-02 
1185	 8.63837233127715E-02 
1186	 8.64133067095577E-02 
1187	 8.64583425753864E-02 
1188	 8.64842003433524E-02 
1189	 8.65065601693218E-02 
1190	 0.086536884433947 
1191	 8.65691233997069E-02 
1192	 8.65854771197153E-02 
1193	 0.086597281679095 
1194	 8.66169887690176E-02 
1195	 8.66154180589894E-02 
1196	 8.66323949597642E-02 
1197	 8.66870340719537E-02 
1198	 8.67161115178565E-02 
1199	 8.67366795221057E-02 
1200	 8.67449145064322E-02 
1201	 8.67653959044894E-02 
1202	 8.67715444887091E-02 
1203	 8.68019826621469E-02 
1204	 8.68541652302757E-02 
1205	 8.68940690443592E-02 
1206	 8.69424101677975E-02 
1207	 8.69794638929818E-02 
1208	 8.70042762194629E-02 
1209	 8.70386591538652E-02 
1210	 8.70803141995285E-02 
1211	 8.71097046357096E-02 
1212	 8.71310661595979E-02 
1213	 8.71609723457724E-02 
1214	 8.71816109296474E-02 
1215	 0.087210386520309 
1216	 8.72459610250747E-02 
1217	 8.73039771229152E-02 
1218	 8.73292661819904E-02 
1219	 0.087337775082834 
1220	 0.087363259568989 
1221	 8.73767108526832E-02 
1222	 8.74062938968692E-02 
1223	 0.087462724123649 
1224	 8.74970156017268E-02 
1225	 8.75194255888398E-02 
1226	 8.75503206592157E-02 
1227	 8.75797193465483E-02 
1228	 8.76084475074264E-02 
1229	 8.76399829260889E-02 
1230	 8.76726928949245E-02 
1231	 0.087700195721801 
1232	 8.77332988079251E-02 
1233	 8.77701635401181E-02 
1234	 8.78143677620125E-02 
1235	 8.78524035938254E-02 
1236	 8.78929531045443E-02 
1237	 8.79271890530384E-02 
1238	 8.79557533979365E-02 
1239	 8.79894544192493E-02 
1240	 8.80230259280062E-02 
1241	 8.80550906130333E-02 
1242	 8.80861645979011E-02 
1243	 8.81209128999806E-02 
1244	 8.81545037190695E-02 
1245	 8.81904530166335E-02 
1246	 8.82353425976763E-02 
1247	 8.82742846121952E-02 
1248	 8.83071840396525E-02 
1249	 8.83458242607275E-02 
1250	 8.83904105324532E-02 
1251	 8.84172413144518E-02 
1252	 8.84414132662425E-02 
1253	 8.84528518355891E-02 
1254	 8.84862966110509E-02 
1255	 8.85250329637598E-02 
1256	 8.85572430359067E-02 
1257	 8.86066878684888E-02 
1258	 8.86384139608994E-02 
1259	 8.86447911445619E-02 
1260	 8.86683367930931E-02 
1261	 8.86935053727564E-02 
1262	 8.87279056899238E-02 
1263	 8.87709495278307E-02 
1264	 8.88151413072275E-02 
1265	 8.88768330333044E-02 
1266	 8.89240768993859E-02 
1267	 8.89744364011482E-02 
1268	 8.90067869240444E-02 
1269	 8.90301322735864E-02 
1270	 8.90362763997841E-02 
1271	 8.90550016627187E-02 
1272	 8.90613396257767E-02 
1273	 8.90880669697218E-02 
1274	 8.91191963159878E-02 
1275	 8.91669976643108E-02 
1276	 0.089241444384978 
1277	 8.92958334571136E-02 
1278	 8.93546459049194E-02 
1279	 8.94121547763615E-02 
1280	 8.94485866658165E-02 
1281	 0.089502917513153 
1282	 8.95839110174127E-02 
1283	 8.96456061773367E-02 
1284	 8.96947485098681E-02 
1285	 8.97549120591966E-02 
1286	 8.98105232728857E-02 
1287	 8.98707785115744E-02 
1288	 8.99511865452812E-02 
1289	 9.00592411785481E-02 
1290	 9.01425783876119E-02 
1291	 9.02279819956375E-02 
1292	 9.03076154655189E-02 
1293	 9.03770432573459E-02 
1294	 9.04464347338159E-02 
1295	 9.05086924801271E-02 
1296	 9.05852996267336E-02 
1297	 9.06704591008282E-02 
1298	 9.07439262888844E-02 
1299	 9.08269020397347E-02 
1300	 9.08980945595737E-02 
1301	 9.09567929335321E-02 
1302	 9.10102382156593E-02 
1303	 0.091056256167134 
1304	 9.11022193195424E-02 
1305	 9.11514944809678E-02 
1306	 9.11883055506107E-02 
1307	 9.12479321759586E-02 
1308	 9.13063128979085E-02 
1309	 9.13517614028167E-02 
1310	 9.13923473869647E-02 
1311	 9.14284006678414E-02 
1312	 0.091447092689275 
1313	 9.14857886733016E-02 
1314	 9.15300124240849E-02 
1315	 9.15722523176337E-02 
1316	 9.16280682891147E-02 
1317	 9.16708316514636E-02 
1318	 9.17146206107628E-02 
1319	 9.17417080695667E-02 
1320	 9.17419426641879E-02 
1321	 9.17641899155941E-02 
1322	 9.17838841856291E-02 
1323	 9.18067585608381E-02 
1324	 9.18646238155764E-02 
1325	 9.19221770020928E-02 
1326	 9.19383779840864E-02 
1327	 0.091961257092357 
1328	 9.19804583257823E-02 
1329	 9.19838848946147E-02 
1330	 9.20016320460256E-02 
1331	 9.20308539678254E-02 
1332	 9.20627701259909E-02 
1333	 9.20990557117816E-02 
1334	 9.21257476142672E-02 
1335	 9.21577485847203E-02 
1336	 9.21878493970403E-02 
1337	 9.22093586431963E-02 
1338	 9.22294950835231E-02 
1339	 9.22554014481716E-02 
1340	 9.22761195427045E-02 
1341	 9.22833631509298E-02 
1342	 0.092297495198841 
1343	 9.23202344105004E-02 
1344	 9.23356787412138E-02 
1345	 9.23429579126872E-02 
1346	 9.23566948760222E-02 
1347	 9.23689504618094E-02 
1348	 9.23617260480365E-02 
1349	 9.23526245248787E-02 
1350	 9.23431062236973E-02 
1351	 9.23292009877479E-02 
1352	 9.23065042384874E-02 
1353	 9.22925536143795E-02 
1354	 9.22775420726962E-02 
1355	 9.22697290138268E-02 
1356	 9.22726370625567E-02 
1357	 9.22646724814947E-02 
1358	 9.22509035415621E-02 
1359	 0.092243422673717 
1360	 9.22176587665651E-02 
1361	 9.22233872238072E-02 
1362	 9.22534236495291E-02 
1363	 9.22837527049975E-02 
1364	 9.23309791639538E-02 
1365	 9.23793275307084E-02 
1366	 9.24291393429189E-02 
1367	 9.24823907843357E-02 
1368	 9.25484624340563E-02 
1369	 9.25988279900873E-02 
1370	 9.26570467757328E-02 
1371	 0.09271587469542 
1372	 9.27470421236178E-02 
1373	 9.27792430049402E-02 
1374	 9.28039203497062E-02 
1375	 0.092813588385762 
1376	 9.28190250756406E-02 
1377	 9.28322714264477E-02 
1378	 9.28191957108267E-02 
1379	 9.27661659837105E-02 
1380	 9.27530799551449E-02 
1381	 9.27301678076247E-02 
1382	 9.27411686242253E-02 
1383	 9.28003630197747E-02 
1384	 9.28353820173679E-02 
1385	 9.28732447478963E-02 
1386	 9.29107539122781E-02 
1387	 9.29444623043053E-02 
1388	 9.29786693023932E-02 
1389	 9.30206567491539E-02 
1390	 0.093058745641386 
1391	 9.30725218434994E-02 
1392	 9.30713012103961E-02 
1393	 9.30657684932625E-02 
1394	 9.30661263634996E-02 
1395	 9.30792495564642E-02 
1396	 9.30970710280222E-02 
1397	 0.09312379521895 
1398	 9.31642368620361E-02 
1399	 0.093185431180063 
1400	 9.32147611472439E-02 
1401	 9.32262653232247E-02 
1402	 0.09321033852739 
1403	 9.32204108488452E-02 
1404	 9.32257441875224E-02 
1405	 0.093249543158703 
1406	 9.33018048487859E-02 
1407	 9.33308243545438E-02 
1408	 9.33651463565475E-02 
1409	 9.33876453471949E-02 
1410	 9.33791827139707E-02 
1411	 9.34044562641521E-02 
1412	 9.34491378709872E-02 
1413	 9.34744921594863E-02 
1414	 9.35370124419936E-02 
1415	 0.093591424059059 
1416	 9.36169632510268E-02 
1417	 9.36727260742713E-02 
1418	 9.37233129344288E-02 
1419	 9.37593892395701E-02 
1420	 9.38145555618333E-02 
1421	 9.38674714678116E-02 
1422	 9.39185181920367E-02 
1423	 9.39570649773287E-02 
1424	 9.39894151306638E-02 
1425	 9.40108892668398E-02 
1426	 9.40429380512605E-02 
1427	 9.40640631019759E-02 
1428	 9.41050373412872E-02 
1429	 9.41597396098511E-02 
1430	 9.42084317154014E-02 
1431	 9.42681380564542E-02 
1432	 0.094318053052541 
1433	 9.43681261572498E-02 
1434	 9.44105654112279E-02 
1435	 0.094444543184774 
1436	 9.44788781238225E-02 
1437	 9.45007355642624E-02 
1438	 9.45333702299721E-02 
1439	 9.45710878575362E-02 
1440	 9.46096703915363E-02 
1441	 9.46512394460402E-02 
1442	 9.47007395601183E-02 
1443	 9.47279642291501E-02 
1444	 9.47511386706162E-02 
1445	 9.47960975640707E-02 
1446	 9.48311629117745E-02 
1447	 9.48563922290986E-02 
1448	 9.48959975829678E-02 
1449	 9.49251661344329E-02 
1450	 9.49487776265662E-02 
1451	 9.49761337945827E-02 
1452	 9.50105338006232E-02 
1453	 9.50448671421567E-02 
1454	 9.50709719816983E-02 
1455	 9.51098288934621E-02 
1456	 9.51670765455364E-02 
1457	 9.52113176631584E-02 
1458	 9.52583890927033E-02 
1459	 9.52931794694818E-02 
1460	 9.53086033169418E-02 
1461	 0.095342066646701 
1462	 9.53825218308615E-02 
1463	 9.54120955737521E-02 
1464	 9.54517758071221E-02 
1465	 9.54810872260047E-02 
1466	 9.54887767581925E-02 
1467	 9.55091603829203E-02 
1468	 9.55347691446455E-02 
1469	 9.55594521699556E-02 
1470	 9.55832444290812E-02 
1471	 9.56130814915624E-02 
1472	 9.56551267886566E-02 
1473	 9.56818520549631E-02 
1474	 9.57057243575764E-02 
1475	 9.57381276899155E-02 
1476	 9.57454130641869E-02 
1477	 9.57582573128786E-02 
1478	 9.57989989798099E-02 
1479	 9.58344873194248E-02 
1480	 9.58769273340245E-02 
1481	 0.09592826655949 
1482	 9.59611593221536E-02 
1483	 9.59757085490603E-02 
1484	 9.60036268943446E-02 
1485	 9.60305199576164E-02 
1486	 9.60580343042601E-02 
1487	 9.60938009668393E-02 
1488	 9.61153737788615E-02 
1489	 9.61234049795087E-02 
1490	 9.61459085826641E-02 
1491	 9.61739822341144E-02 
1492	 9.61953383491521E-02 
1493	 9.62182505303277E-02 
1494	 9.62448399672919E-02 
1495	 9.62594062330074E-02 
1496	 9.62859399160725E-02 
1497	 9.63388849969974E-02 
1498	 9.63651997713783E-02 
1499	 9.63771724823062E-02 
1500	 9.63976699589693E-02 
1501	 9.64062368181272E-02 
1502	 9.64209804532591E-02 
1503	 9.64413187542503E-02 
1504	 9.64696892047185E-02 
1505	 9.64870265611905E-02 
1506	 9.65042961988369E-02 
1507	 9.65264625473884E-02 
1508	 9.65385370632931E-02 
1509	 9.65562112457332E-02 
1510	 9.65663489076819E-02 
1511	 9.65677389268162E-02 
1512	 9.65755647254021E-02 
1513	 9.65816666723262E-02 
1514	 9.66038126605667E-02 
1515	 9.66464871805968E-02 
1516	 9.66730150882604E-02 
1517	 9.66919224234264E-02 
1518	 9.67097671994502E-02 
1519	 9.67181341892096E-02 
1520	 9.67033365911507E-02 
1521	 9.67162385099388E-02 
1522	 9.67356364278296E-02 
1523	 9.67526917738684E-02 
1524	 9.67858834673608E-02 
1525	 9.68077629762788E-02 
1526	 9.68189374084428E-02 
1527	 9.68380112468156E-02 
1528	 9.68621023119603E-02 
1529	 9.68785100115094E-02 
1530	 0.096898854191099 
1531	 9.69088664949357E-02 
1532	 9.69033993849459E-02 
1533	 9.69098904139542E-02 
1534	 9.69073172111818E-02 
1535	 9.69244332625997E-02 
1536	 9.69740207665777E-02 
1537	 0.096990491196104 
1538	 9.70013523965531E-02 
1539	 9.70071835328578E-02 
1540	 9.69717429618548E-02 
1541	 9.69744897924774E-02 
1542	 9.70063512112336E-02 
1543	 9.70273145603426E-02 
1544	 9.70710887876001E-02 
1545	 9.70929259458952E-02 
1546	 0.09709823476447 
1547	 9.70972365377199E-02 
1548	 9.70971355737672E-02 
1549	 9.71001659273966E-02 
1550	 9.71163388901871E-02 
1551	 9.71388344816355E-02 
1552	 0.097158908536978 
1553	 9.71799805929515E-02 
1554	 9.71943093132051E-02 
1555	 9.71950944152145E-02 
1556	 9.72039604357688E-02 
1557	 9.72111779067176E-02 
1558	 9.72107416118917E-02 
1559	 9.72153737269742E-02 
1560	 9.72120414959376E-02 
1561	 9.71923013195109E-02 
1562	 9.71959371331323E-02 
1563	 0.097208266774535 
1564	 9.72200329798928E-02 
1565	 9.72476548946545E-02 
1566	 9.72611404038356E-02 
1567	 9.72660431216369E-02 
1568	 9.72741812352278E-02 
1569	 9.72872065611012E-02 
1570	 9.72830868331649E-02 
1571	 9.72651108256559E-02 
1572	 9.72594546003279E-02 
1573	 9.72398814137284E-02 
1574	 9.72428253071962E-02 
1575	 9.72727211673023E-02 
1576	 9.72845550524983E-02 
1577	 9.72946085195872E-02 
1578	 9.73074100738944E-02 
1579	 0.097320118873978 
1580	 9.73235970863048E-02 
1581	 9.73271416532553E-02 
1582	 9.73274486293928E-02 
1583	 9.73027782074618E-02 
1584	 9.73071338618367E-02 
1585	 9.73385301214989E-02 
1586	 9.73479619637648E-02 
1587	 9.73587864355673E-02 
1588	 9.73695142716999E-02 
1589	 9.73690981276374E-02 
1590	 9.73703752140232E-02 
1591	 9.73772922107733E-02 
1592	 9.73816400103274E-02 
1593	 9.73757066568505E-02 
1594	 9.73764335937774E-02 
1595	 9.73892484692564E-02 
1596	 9.73926014754532E-02 
1597	 9.73918509420126E-02 
1598	 9.73886452165217E-02 
1599	 9.73764781456158E-02 
1600	 0.097368490660995 
1601	 0.097350531813221 
1602	 9.73517926474552E-02 
1603	 9.73784565234517E-02 
1604	 9.73874036363909E-02 
1605	 9.74003375508647E-02 
1606	 0.097409049203023 
1607	 9.74090704678661E-02 
1608	 9.73912510996984E-02 
1609	 9.73894893708332E-02 
1610	 9.74007118607954E-02 
1611	 9.74127747711661E-02 
1612	 9.74246963961894E-02 
1613	 9.74343388414839E-02 
1614	 9.74295765929533E-02 
1615	 9.74142270865545E-02 
1616	 9.74026977747185E-02 
1617	 9.73951381328522E-02 
1618	 9.73997874200982E-02 
1619	 9.74188703976798E-02 
1620	 0.097433332428852 
1621	 9.74428659094002E-02 
1622	 9.74527413504912E-02 
1623	 9.74659186786352E-02 
1624	 0.097479114439886 
1625	 9.74762934445378E-02 
1626	 9.74714790194958E-02 
1627	 9.74652733356409E-02 
1628	 9.74380571371695E-02 
1629	 9.74346910533223E-02 
1630	 9.74492772799933E-02 
1631	 9.74518095627149E-02 
1632	 9.74580844965165E-02 
1633	 9.74520369519537E-02 
1634	 9.74349271824433E-02 
1635	 0.097428379412853 
1636	 9.74160157907363E-02 
1637	 9.74154903705543E-02 
1638	 9.74247857087899E-02 
1639	 9.74361355251058E-02 
1640	 9.74540229876337E-02 
1641	 9.74664224101598E-02 
1642	 9.74860370156486E-02 
1643	 9.74933204558181E-02 
1644	 9.74934784625033E-02 
1645	 9.74897314349973E-02 
1646	 9.74772936176288E-02 
1647	 9.74709207530279E-02 
1648	 9.74577586473904E-02 
1649	 0.097456693023808 
1650	 9.74658021658766E-02 
1651	 9.74687916868592E-02 
1652	 9.74738864768984E-02 
1653	 9.74803646346297E-02 
1654	 9.74953078295644E-02 
1655	 9.74852735233392E-02 
1656	 9.74603229701222E-02 
1657	 9.74493012309967E-02 
1658	 9.74163878318969E-02 
1659	 9.74142452565125E-02 
1660	 0.097447577172955 
1661	 9.74554970342863E-02 
1662	 9.74604160341857E-02 
1663	 9.74657832363441E-02 
1664	 9.74657609230644E-02 
1665	 9.74633760610807E-02 
1666	 9.74666600916556E-02 
1667	 9.74564753923916E-02 
1668	 9.74238414089143E-02 
1669	 9.74165701949834E-02 
1670	 9.74185826725674E-02 
1671	 0.097414800477941 
1672	 9.74146949365548E-02 
1673	 9.74271382550386E-02 
1674	 9.74420557280085E-02 
1675	 9.74552182659254E-02 
1676	 0.097498106293589 
1677	 9.75014228331998E-02 
1678	 9.74713800626857E-02 
1679	 9.74582024604068E-02 
1680	 9.74269138451198E-02 
1681	 9.74204563046563E-02 
1682	 9.74358549963411E-02 
1683	 9.74416219504404E-02 
1684	 9.74557088895212E-02 
1685	 9.74622170927351E-02 
1686	 9.74594244686537E-02 
1687	 9.74636654281573E-02 
1688	 9.74705143494637E-02 
1689	 9.74771955409909E-02 
1690	 9.74887679793086E-02 
1691	 0.097494272439523 
1692	 9.74982688589745E-02 
1693	 9.74979776794705E-02 
1694	 9.74905478020054E-02 
1695	 9.74874826153282E-02 
1696	 9.74814043496002E-02 
1697	 9.74817786430076E-02 
1698	 9.74910925497743E-02 
1699	 9.74894401860314E-02 
1700	 9.74907833800046E-02 
1701	 9.74792383351148E-02 
1702	 9.74407222766525E-02 
1703	 9.74399941954527E-02 
1704	 9.74560041861403E-02 
1705	 9.74582249288176E-02 
1706	 9.74760367382989E-02 
1707	 9.74875243999537E-02 
1708	 9.74866339294344E-02 
1709	 9.74881133256704E-02 
1710	 9.74959378566114E-02 
1711	 9.74988927748149E-02 
1712	 0.09748313961066 
1713	 9.74913924523912E-02 
1714	 9.75291304242837E-02 
1715	 9.75353338574611E-02 
1716	 9.75306703734598E-02 
1717	 9.75342799125424E-02 
1718	 9.75219164534753E-02 
1719	 9.75218700450466E-02 
1720	 9.75423135613159E-02 
1721	 9.75430687030696E-02 
1722	 9.75315527596098E-02 
1723	 9.75239874693487E-02 
1724	 9.75176991986144E-02 
1725	 9.75061581041074E-02 
1726	 9.74889347044274E-02 
1727	 0.097477272963121 
1728	 9.74582489303414E-02 
1729	 9.74486668010528E-02 
1730	 9.74456778725981E-02 
1731	 9.74476861959203E-02 
1732	 9.74677252684069E-02 
1733	 9.74540506543418E-02 
1734	 0.097423031254274 
1735	 9.74138833961238E-02 
1736	 9.73939962999059E-02 
1737	 9.73789510307004E-02 
1738	 0.097384022201174 
1739	 9.73755267284471E-02 
1740	 9.73546236949594E-02 
1741	 9.73374161495995E-02 
1742	 9.73241041713471E-02 
1743	 0.097319232713135 
1744	 9.73065269995366E-02 
1745	 9.72989939329533E-02 
1746	 9.73131325468056E-02 
1747	 9.72775986395422E-02 
1748	 9.72636534732195E-02 
1749	 9.72701529316522E-02 
1750	 9.72698627197326E-02 
1751	 9.72740616913959E-02 
1752	 9.72697498497583E-02 
1753	 9.72545177084594E-02 
1754	 9.72463670113176E-02 
1755	 9.72341211694567E-02 
1756	 9.72260439122177E-02 
1757	 9.72260123309057E-02 
1758	 9.72100533594216E-02 
1759	 9.71790994692565E-02 
1760	 9.71656130364489E-02 
1761	 9.71773684961284E-02 
1762	 9.71737589328939E-02 
1763	 9.71911015917779E-02 
1764	 9.72181615702885E-02 
1765	 9.72126220380071E-02 
1766	 9.72011281278157E-02 
1767	 9.71910109515039E-02 
1768	 0.097197287890183 
1769	 9.71894122077003E-02 
1770	 9.71849481222096E-02 
1771	 9.71949297000675E-02 
1772	 9.71865405621982E-02 
1773	 0.097185922513378 
1774	 9.71782068177119E-02 
1775	 0.097173218336803 
1776	 9.71590941105219E-02 
1777	 9.71065952227671E-02 
1778	 9.70840095084508E-02 
1779	 9.70809117578075E-02 
1780	 9.70830093209447E-02 
1781	 9.71221558043308E-02 
1782	 9.71485531350411E-02 
1783	 9.71590467066037E-02 
1784	 9.71679421252292E-02 
1785	 9.71794267514475E-02 
1786	 9.71770554145556E-02 
1787	 9.71477883155723E-02 
1788	 0.097141160838713 
1789	 0.097145387936387 
1790	 9.71396629798006E-02 
1791	 9.71410953816927E-02 
1792	 9.71423662499607E-02 
1793	 9.71340410907213E-02 
1794	 9.71246900798428E-02 
1795	 9.71187985249564E-02 
1796	 9.71189631733492E-02 
1797	 9.71104083400869E-02 
1798	 9.71025690420949E-02 
1799	 9.71270814781455E-02 
1800	 9.71194441975075E-02 
1801	 9.43922592005244E-02 
1802	 9.44517245613393E-02 
1803	 9.45332710326354E-02 
1804	 9.46565656095904E-02 
1805	 9.47690862116909E-02 
1806	 9.48783907712021E-02 
1807	 9.49916348119745E-02 
1808	 9.50738465064966E-02 
1809	 9.51084172893504E-02 
1810	 0.095152416696293 
1811	 9.51982471077046E-02 
1812	 9.52323101516394E-02 
1813	 9.52268996271614E-02 
1814	 9.52632910601259E-02 
1815	 0.095293818798253 
1816	 9.52891749207049E-02 
1817	 9.52968037648797E-02 
1818	 9.53027107239195E-02 
1819	 9.53126275173375E-02 
1820	 0.095322512792535 
1821	 9.53317245840722E-02 
1822	 0.095347432824173 
1823	 9.53338564571641E-02 
1824	 9.53210953776539E-02 
1825	 9.53519035669174E-02 
1826	 9.53635759354332E-02 
1827	 9.53650707586205E-02 
1828	 9.53684358105861E-02 
1829	 9.53549284647777E-02 
1830	 9.53448170974876E-02 
1831	 9.53321563284988E-02 
1832	 9.53451360871926E-02 
1833	 9.53395123603289E-02 
1834	 9.53297386630351E-02 
1835	 9.53272138417245E-02 
1836	 9.53182923696896E-02 
1837	 9.53060315374213E-02 
1838	 9.53117423130981E-02 
1839	 9.53359459672001E-02 
1840	 0.095379351076175 
1841	 0.095418055559063 
1842	 9.54702203826088E-02 
1843	 0.09551117970765 
1844	 9.55125735528581E-02 
1845	 9.55509166459004E-02 
1846	 9.55936164617616E-02 
1847	 9.56010265673825E-02 
1848	 9.56325016579397E-02 
1849	 9.56616152206415E-02 
1850	 9.56895979273959E-02 
1851	 9.57093242317244E-02 
1852	 9.57524859177796E-02 
1853	 0.095791876421117 
1854	 9.58206801713938E-02 
1855	 9.58344807210939E-02 
1856	 9.58575857895103E-02 
1857	 9.59022182446003E-02 
1858	 9.59340432984938E-02 
1859	 9.59619140597275E-02 
1860	 9.59848664297794E-02 
1861	 9.60161038902806E-02 
1862	 9.60089860129788E-02 
1863	 9.59773926963357E-02 
1864	 0.095944504561965 
1865	 9.58965750522502E-02 
1866	 9.58422883165278E-02 
1867	 9.58057270145932E-02 
1868	 9.57599427998194E-02 
1869	 9.57201390732628E-02 
1870	 9.57039473865655E-02 
1871	 9.56981958206271E-02 
1872	 9.57055885258728E-02 
1873	 9.57321281352754E-02 
1874	 9.57592328976966E-02 
1875	 9.58098722383544E-02 
1876	 9.58601355874201E-02 
1877	 9.59293192924113E-02 
1878	 9.60045177776286E-02 
1879	 9.60332173172806E-02 
1880	 9.60622814104029E-02 
1881	 9.60759405376697E-02 
1882	 9.60866312071208E-02 
1883	 0.096088488374528 
1884	 9.60972972471576E-02 
1885	 9.60852332379536E-02 
1886	 9.60627988128965E-02 
1887	 9.60039780803994E-02 
1888	 9.59398663933191E-02 
1889	 9.59060503564501E-02 
1890	 0.095850956370267 
1891	 9.58020652154011E-02 
1892	 9.57896196656038E-02 
1893	 9.57378440621737E-02 
1894	 9.56623562824279E-02 
1895	 9.55751404511088E-02 
1896	 9.54856981096956E-02 
1897	 9.53711414278611E-02 
1898	 9.52858974786706E-02 
1899	 9.52163126276911E-02 
1900	 9.51484827247585E-02 
1901	 9.50960518627127E-02 
1902	 9.50359807388648E-02 
1903	 9.49643715263959E-02 
1904	 9.49098941428801E-02 
1905	 9.48559242487123E-02 
1906	 9.48243785383524E-02 
1907	 9.48098555011446E-02 
1908	 9.47772137486861E-02 
1909	 9.47497429330132E-02 
1910	 9.46930470569763E-02 
1911	 9.46247251561304E-02 
1912	 9.45806076944155E-02 
1913	 9.45316230562484E-02 
1914	 9.44847112152516E-02 
1915	 9.44460298001501E-02 
1916	 9.44157256935875E-02 
1917	 9.43670846380033E-02 
1918	 9.43418286653093E-02 
1919	 9.43385851116893E-02 
1920	 9.43340188826184E-02 
1921	 9.43466678662968E-02 
1922	 9.43586818010725E-02 
1923	 9.43679145729012E-02 
1924	 9.43812498812655E-02 
1925	 9.43996967132162E-02 
1926	 9.44139507197608E-02 
1927	 9.44322579162395E-02 
1928	 9.44449651383073E-02 
1929	 9.44476705221236E-02 
1930	 9.44380333533728E-02 
1931	 9.44368312539576E-02 
1932	 9.44392856934178E-02 
1933	 9.44287134432169E-02 
1934	 9.44354009793541E-02 
1935	 9.44358576167902E-02 
1936	 9.44227286157507E-02 
1937	 9.44219840423186E-02 
1938	 9.44401988555569E-02 
1939	 9.44407722735501E-02 
1940	 9.44308856491469E-02 
1941	 9.44206643473891E-02 
1942	 9.44395470280883E-02 
1943	 0.094469629456756 
1944	 9.44952213623092E-02 
1945	 9.45487723905856E-02 
1946	 9.45743355901248E-02 
1947	 9.45678259336774E-02 
1948	 9.45762481635209E-02 
1949	 9.45856817757196E-02 
1950	 9.45948228383508E-02 
1951	 9.45935801859276E-02 
1952	 9.46196786495638E-02 
1953	 9.46420039984716E-02 
1954	 9.46725886922967E-02 
1955	 9.47188107375952E-02 
1956	 0.094755164881293 
1957	 9.47913325997475E-02 
1958	 9.48229054163677E-02 
1959	 9.48665185052784E-02 
1960	 9.49216541059122E-02 
1961	 9.49616596360229E-02 
1962	 9.49977148684434E-02 
1963	 9.50373916323722E-02 
1964	 9.50706100162397E-02 
1965	 0.09509746881113 
1966	 9.51444218060159E-02 
1967	 9.52004804701163E-02 
1968	 9.52375137902407E-02 
1969	 9.52707809929601E-02 
1970	 9.52982386888532E-02 
1971	 9.52960872329494E-02 
1972	 9.53280045992189E-02 
1973	 9.53780461399103E-02 
1974	 9.54168840785323E-02 
1975	 9.54657045681311E-02 
1976	 0.095519129386398 
1977	 9.55509388623876E-02 
1978	 9.55853849643151E-02 
1979	 9.56230180048177E-02 
1980	 9.56737713937884E-02 
1981	 0.095728971202791 
1982	 9.57988323240028E-02 
1983	 9.58489603721486E-02 
1984	 9.59020066193791E-02 
1985	 9.59486779336474E-02 
1986	 0.095974024702499 
1987	 9.60134490280787E-02 
1988	 9.60766057181658E-02 
1989	 0.09610687896299 
1990	 9.61187720993721E-02 
1991	 9.61446618029228E-02 
1992	 0.096164735073621 
1993	 9.61572094806618E-02 
1994	 9.61892933509772E-02 
1995	 9.62549917063952E-02 
1996	 9.62941253026192E-02 
1997	 9.63302049246169E-02 
1998	 9.63745501986805E-02 
1999	 9.64203434179562E-02 
2000	 9.64539135098834E-02 
2001	 9.64784279949532E-02 
2002	 0.096524182306853 
2003	 9.65590752203149E-02 
2004	 9.66017435903972E-02 
2005	 9.66554164630574E-02 
2006	 9.67390454995811E-02 
2007	 0.096798577531749 
2008	 9.68522043540377E-02 
2009	 9.69043381781141E-02 
2010	 9.69468958547844E-02 
2011	 9.70007471309979E-02 
2012	 9.70562522694856E-02 
2013	 9.71113799180586E-02 
2014	 9.71727305098159E-02 
2015	 9.72334476115575E-02 
2016	 9.72977620024727E-02 
2017	 9.73594250315482E-02 
2018	 9.74117561635662E-02 
2019	 9.74627073174115E-02 
2020	 9.75079859832183E-02 
2021	 9.75424330039517E-02 
2022	 9.75761351737257E-02 
2023	 9.75920714088337E-02 
2024	 9.76372746021143E-02 
2025	 9.77036644912389E-02 
2026	 9.77518357978347E-02 
2027	 0.097811524431438 
2028	 9.78653737224961E-02 
2029	 9.79142395738604E-02 
2030	 0.097947850974755 
2031	 9.79783088410826E-02 
2032	 9.80086533457376E-02 
2033	 9.80413631093855E-02 
2034	 9.80535587478709E-02 
2035	 9.80820286116958E-02 
2036	 9.81301602374733E-02 
2037	 9.81696304774888E-02 
2038	 9.82100435399462E-02 
2039	 9.82448426679433E-02 
2040	 0.098272014522065 
2041	 9.83079473585871E-02 
2042	 9.83446735091697E-02 
2043	 9.83723698963549E-02 
2044	 9.84141706666783E-02 
2045	 9.84682172645606E-02 
2046	 9.85183200744076E-02 
2047	 9.85838583934254E-02 
2048	 9.86219367919171E-02 
2049	 0.098646014084927 
2050	 9.86729928670105E-02 
2051	 9.86669970937635E-02 
2052	 9.86946743828163E-02 
2053	 9.87609271420043E-02 
2054	 9.87994677695769E-02 
2055	 9.88398321195891E-02 
2056	 9.88718766295516E-02 
2057	 9.88992240005075E-02 
2058	 9.88989018469952E-02 
2059	 0.098928040913967 
2060	 9.89710401099396E-02 
2061	 9.90100313006454E-02 
2062	 9.90620652848769E-02 
2063	 9.90988795200601E-02 
2064	 9.91380448664553E-02 
2065	 9.91619983325594E-02 
2066	 9.91443821598212E-02 
2067	 9.91695541769055E-02 
2068	 9.92222833570881E-02 
2069	 0.099260284964766 
2070	 9.92843768058497E-02 
2071	 9.93203838488181E-02 
2072	 9.93564345261473E-02 
2073	 9.93599797765378E-02 
2074	 9.93955041059304E-02 
2075	 9.94814868039555E-02 
2076	 9.95183963975112E-02 
2077	 9.95249695307082E-02 
2078	 9.95470584610558E-02 
2079	 9.95634041439389E-02 
2080	 9.95777335511408E-02 
2081	 9.95929019180508E-02 
2082	 9.96138405002313E-02 
2083	 9.96304930792174E-02 
2084	 9.96423577033077E-02 
2085	 9.96783239675393E-02 
2086	 9.97382719617706E-02 
2087	 9.97756424411803E-02 
2088	 9.98190132839638E-02 
2089	 9.98521042795986E-02 
2090	 9.98629326859846E-02 
2091	 9.98945044336433E-02 
2092	 9.99252399166876E-02 
2093	 9.99733124602954E-02 
2094	 0.100054225852798 
2095	 0.100105572193505 
2096	 0.100160241773783 
2097	 0.100202908786714 
2098	 0.100223948689084 
2099	 0.100236189947769 
2100	 0.100255976613593 
2101	 0.100275100462495 
2102	 0.100295234787655 
2103	 0.100311020286094 
2104	 0.100337018789445 
2105	 0.10036043808559 
2106	 0.10040357865512 
2107	 0.100463701080739 
2108	 0.100520021578155 
2109	 0.100589952022006 
2110	 0.1006561181152 
2111	 0.100725237599189 
2112	 0.10078576908532 
2113	 0.100834348454529 
2114	 0.100905695609758 
2115	 0.1009547750591 
2116	 0.100990577493203 
2117	 0.101030761831428 
2118	 0.101064117721202 
2119	 0.101104875550411 
2120	 0.101155774032938 
2121	 0.101187164252336 
2122	 0.101205521175168 
2123	 0.101237497001241 
2124	 0.101266336033166 
2125	 0.10129207550331 
2126	 0.101334391514574 
2127	 0.101361840388004 
2128	 0.101354688306366 
2129	 0.101374175835467 
2130	 0.101410732056155 
2131	 0.1014515053146 
2132	 0.101466457555137 
2133	 0.101484510749641 
2134	 0.101490257261364 
2135	 0.10146121083033 
2136	 0.101458999593743 
2137	 0.101476449172196 
2138	 0.101474669017737 
2139	 0.101475255250887 
2140	 0.101459483174422 
2141	 0.101424227729338 
2142	 0.101397360255832 
2143	 0.101371198555934 
2144	 0.101330270807319 
2145	 0.101262184785605 
2146	 0.10122542513024 
2147	 0.101196134176351 
2148	 0.101175862298337 
2149	 0.101140442297242 
2150	 0.10112962430188 
2151	 0.101091686014391 
2152	 0.101019145843723 
2153	 0.100966314084886 
2154	 0.100925932369955 
2155	 0.100872837935711 
2156	 0.100802612690561 
2157	 0.100749755597237 
2158	 0.100723187475168 
2159	 0.100659422978113 
2160	 0.100591123454332 
2161	 0.100506596919526 
2162	 0.100347292751813 
2163	 0.100253260100677 
2164	 0.100187737151605 
2165	 0.100144613261873 
2166	 0.1000786597178 
2167	 0.100053196128489 
2168	 0.099968245851177 
2169	 9.98267048558696E-02 
2170	 9.97278095629163E-02 
2171	 9.96173805863591E-02 
2172	 9.95415595790459E-02 
2173	 9.94959807630274E-02 
2174	 9.94406497122384E-02 
2175	 9.94005289972141E-02 
2176	 9.93574460418389E-02 
2177	 9.93249812337764E-02 
2178	 0.099271590318468 
2179	 9.92139353101382E-02 
2180	 9.91502603265889E-02 
2181	 9.90585175243844E-02 
2182	 9.89796623847304E-02 
2183	 9.88995657918764E-02 
2184	 9.88312151838625E-02 
2185	 9.87714801044789E-02 
2186	 9.87230464572657E-02 
2187	 9.86682988034153E-02 
2188	 9.86170991412721E-02 
2189	 9.85743216758655E-02 
2190	 9.85364083882103E-02 
2191	 9.84887379828299E-02 
2192	 9.84503131377636E-02 
2193	 9.84049334385472E-02 
2194	 9.83441492689218E-02 
2195	 9.82886828402213E-02 
2196	 9.82269095454533E-02 
2197	 9.81817854144473E-02 
2198	 9.81375353912162E-02 
2199	 9.81079116466912E-02 
2200	 9.81092894822029E-02 
2201	 9.80983154607768E-02 
2202	 9.80989115561129E-02 
2203	 9.80733198127991E-02 
2204	 9.80567556189888E-02 
2205	 9.80303084390914E-02 
2206	 9.80225851738164E-02 
2207	 9.80257188538573E-02 
2208	 9.80153997365813E-02 
2209	 9.80070944788795E-02 
2210	 9.80002549067735E-02 
2211	 9.79884158426313E-02 
2212	 0.097975905373003 
2213	 9.79789676426284E-02 
2214	 9.79598431995398E-02 
2215	 9.79177694272402E-02 
2216	 9.78845726144228E-02 
2217	 9.78313844726308E-02 
2218	 9.78039724331357E-02 
2219	 9.77817195711199E-02 
2220	 9.77796490589065E-02 
2221	 9.77959322317729E-02 
2222	 9.78330580697527E-02 
2223	 9.78807664405825E-02 
2224	 9.79322795210831E-02 
2225	 9.79591535524864E-02 
2226	 9.79790891503887E-02 
2227	 9.79934034101605E-02 
2228	 9.79860989112646E-02 
2229	 9.79932202529346E-02 
2230	 9.80047069216248E-02 
2231	 9.80174824587705E-02 
2232	 9.80309882087392E-02 
2233	 9.80431562338895E-02 
2234	 9.80634115613108E-02 
2235	 9.80719718275542E-02 
2236	 9.80672350970879E-02 
2237	 9.80760950360344E-02 
2238	 9.80812626119167E-02 
2239	 9.80939277706449E-02 
2240	 9.81284590748458E-02 
2241	 9.81446958298612E-02 
2242	 9.81432365005177E-02 
2243	 9.81589790410629E-02 
2244	 9.81792544241638E-02 
2245	 9.81977429084771E-02 
2246	 0.098224380913836 
2247	 9.82449368232912E-02 
2248	 9.82574116506796E-02 
2249	 9.82553499649287E-02 
2250	 9.82672448361657E-02 
2251	 9.82741533917453E-02 
2252	 9.83009131931065E-02 
2253	 9.83423954302204E-02 
2254	 9.83673688279093E-02 
2255	 9.84071708128501E-02 
2256	 9.84265383967499E-02 
2257	 0.098438156082175 
2258	 9.84320065091437E-02 
2259	 9.83942678684505E-02 
2260	 9.83831121577052E-02 
2261	 9.83442857919241E-02 
2262	 9.83478919753452E-02 
2263	 9.84000420387121E-02 
2264	 9.84416343010779E-02 
2265	 9.85160150312924E-02 
2266	 9.85626264796439E-02 
2267	 9.86015774652982E-02 
2268	 9.86252493779891E-02 
2269	 9.86312050091357E-02 
2270	 9.86117202894691E-02 
2271	 9.86277500031331E-02 
2272	 9.86332064788938E-02 
2273	 9.86485796297732E-02 
2274	 9.87025406026939E-02 
2275	 0.098736647210141 
2276	 0.098766148890196 
2277	 9.88040078863769E-02 
2278	 9.88554107850373E-02 
2279	 9.88793141491012E-02 
2280	 9.88917375074748E-02 
2281	 9.89138107683638E-02 
2282	 9.89189831592472E-02 
2283	 0.098939310155643 
2284	 9.89803394093348E-02 
2285	 9.90031212072864E-02 
2286	 0.09901375835777 
2287	 9.90377546817594E-02 
2288	 9.90510257219974E-02 
2289	 9.90975531072404E-02 
2290	 9.91882827730158E-02 
2291	 9.92324347630526E-02 
2292	 9.92898794228887E-02 
2293	 9.93046311259246E-02 
2294	 9.92416259033676E-02 
2295	 9.92280796151772E-02 
2296	 9.92014715564392E-02 
2297	 9.92201978576178E-02 
2298	 9.92637616057677E-02 
2299	 9.93272793783777E-02 
2300	 9.93909399086518E-02 
2301	 9.94439343016195E-02 
2302	 9.94533530425472E-02 
2303	 9.94352231086111E-02 
2304	 9.94568557305139E-02 
2305	 9.94447752368413E-02 
2306	 0.099451802344137 
2307	 9.94959109571702E-02 
2308	 9.95197614354983E-02 
2309	 9.95231146119496E-02 
2310	 9.95347795727632E-02 
2311	 9.95479619495977E-02 
2312	 9.95730926168503E-02 
2313	 9.96023305246679E-02 
2314	 9.96286134164791E-02 
2315	 9.96740472428491E-02 
2316	 0.099694624147223 
2317	 9.96872532583383E-02 
2318	 9.96965823092913E-02 
2319	 9.96885927207271E-02 
2320	 0.099730052232348 
2321	 9.98119525325345E-02 
2322	 0.099874304361041 
2323	 9.99937335047537E-02 
2324	 0.100043603763321 
2325	 0.100034358130925 
2326	 0.100031616929128 
2327	 9.99835319034457E-02 
2328	 9.99593744641102E-02 
2329	 9.99811408570031E-02 
2330	 0.10004832189042 
2331	 0.100102900784137 
2332	 0.10012095861146 
2333	 0.100187494884904 
2334	 0.100216836205942 
2335	 0.100224601744793 
2336	 0.100275330553849 
2337	 0.10024480788684 
2338	 0.100232116792174 
2339	 0.100317974695895 
2340	 0.100416902875921 
2341	 0.100511015185687 
2342	 0.100546337776426 
2343	 0.100527805575716 
2344	 0.100518219316962 
2345	 0.100526224176501 
2346	 0.100528260260237 
2347	 0.100570435704962 
2348	 0.100690483844695 
2349	 0.100690953943591 
2350	 0.100637238383143 
2351	 0.100625154198061 
2352	 0.100540840271356 
2353	 0.100523407476838 
2354	 0.100585514390608 
2355	 0.100617185322278 
2356	 0.100649477918581 
2357	 0.100651760623672 
2358	 0.100652611562911 
2359	 0.100646820694731 
2360	 0.100590923414488 
2361	 0.100597087873714 
2362	 0.100647493277836 
2363	 0.100676263646225 
2364	 0.100741932255443 
2365	 0.10075130146844 
2366	 0.100696289328082 
2367	 0.100684158296196 
2368	 0.100659828727712 
2369	 0.100651958750739 
2370	 0.100649192569378 
2371	 0.10072627747634 
2372	 0.100753923219743 
2373	 0.100814935304338 
2374	 0.100922635705058 
2375	 0.100879484873653 
2376	 0.100760499846246 
2377	 0.100701550020161 
2378	 0.100682845141431 
2379	 0.100687889125461 
2380	 0.100762108517888 
2381	 0.100811550528871 
2382	 0.100827194906306 
2383	 0.100898030079011 
2384	 0.10094375274021 
2385	 0.100950356363619 
2386	 0.100877715375162 
2387	 0.10078263277242 
2388	 0.100811551805922 
2389	 0.10083607125317 
2390	 0.100807839311088 
2391	 0.100819742984606 
2392	 0.100761360562165 
2393	 0.100704047826781 
2394	 0.100774093978141 
2395	 0.100844319629215 
2396	 0.100968273941593 
2397	 0.101128156081395 
2398	 0.101205895505345 
2399	 0.101257564204458 
2400	 0.10120324882428 
2401	 0.10108482618874 
2402	 0.101023577211367 
2403	 0.100923954792147 
2404	 0.100881111170469 
2405	 0.100897621401208 
2406	 0.100933125827427 
2407	 0.101017119255641 
2408	 0.100943805528951 
2409	 0.10085426920553 
2410	 0.100884362283982 
2411	 0.100802860783602 
2412	 0.100739708249286 
2413	 0.100833404668644 
2414	 0.10087690006134 
2415	 0.100884789883525 
2416	 0.100900647566459 
2417	 0.101021630903193 
2418	 0.100972404292198 
2419	 0.100733133506634 
2420	 0.100684314470424 
2421	 0.100670449984302 
2422	 0.100665817946148 
2423	 0.100777224911592 
2424	 0.10081664392763 
2425	 0.100778905673718 
2426	 0.100825732035303 
2427	 0.10094636296262 
2428	 0.100972399467736 
2429	 0.101033261333099 
2430	 0.100996809025043 
2431	 0.100799909855443 
2432	 0.10070373055571 
2433	 0.100644983041405 
2434	 0.100520103060459 
2435	 0.100363204386784 
2436	 0.100280573907983 
2437	 0.100137445912371 
2438	 0.100095748105248 
2439	 0.100191848232171 
2440	 0.100251714712103 
2441	 0.100372564262757 
2442	 0.100423301019023 
2443	 0.100497609881748 
2444	 0.100444215582574 
2445	 0.10023005170176 
2446	 0.100146960861865 
2447	 9.99857038046541E-02 
2448	 9.99704767837859E-02 
2449	 0.100154188935088 
2450	 0.10016528144738 
2451	 0.100181390625745 
2452	 0.100157629793087 
2453	 9.99888803580497E-02 
2454	 9.99780930264196E-02 
2455	 0.100066307285636 
2456	 0.100113717835825 
2457	 0.100205335700656 
2458	 0.100217625243977 
2459	 0.100184957927114 
2460	 0.100130448801758 
2461	 0.100065079491377 
2462	 9.99892773583863E-02 
2463	 9.98085401810968E-02 
2464	 9.97134122808899E-02 
2465	 9.96172697606583E-02 
2466	 9.96137311981296E-02 
2467	 9.97949671979946E-02 
2468	 9.98388504842247E-02 
2469	 9.99062748441016E-02 
2470	 9.98360412034941E-02 
2471	 9.96363418373359E-02 
2472	 9.96129622207722E-02 
2473	 9.95180195916736E-02 
2474	 0.099523672224725 
2475	 9.96588570041262E-02 
2476	 9.96455249069793E-02 
2477	 9.96604686614891E-02 
2478	 0.099711923793304 
2479	 9.97822595360432E-02 
2480	 9.97750335540394E-02 
2481	 9.96715664539726E-02 
2482	 9.96386933441191E-02 
2483	 9.95132970205469E-02 
2484	 9.94303309957631E-02 
2485	 9.94596713078861E-02 
2486	 9.93876218591429E-02 
2487	 9.94634768151884E-02 
2488	 9.95525302884089E-02 
2489	 9.93983865810025E-02 
2490	 9.93551071145859E-02 
2491	 9.92522236187274E-02 
2492	 9.90991588507172E-02 
2493	 9.93680603861667E-02 
2494	 9.94992586218461E-02 
2495	 9.93398990620741E-02 
2496	 9.92172567080433E-02 
2497	 9.89960744339529E-02 
2498	 9.89072464293982E-02 
2499	 9.90558801048161E-02 
2500	 9.92985691697761E-02 
