Wavelength	LMW_2000004.asd
350	 3.62868973291133E-02 
351	 4.08076526624333E-02 
352	 3.56706422292439E-02 
353	 2.50069308241225E-02 
354	 3.64144339594017E-02 
355	 3.99593738763953E-02 
356	 4.02941364634656E-02 
357	 4.63972948673195E-02 
358	 4.87128719736464E-02 
359	 4.73947280132494E-02 
360	 4.50829534640203E-02 
361	 0.045274138589618 
362	 4.38126620373596E-02 
363	 4.43363892745197E-02 
364	 4.72656412811905E-02 
365	 4.66012764815348E-02 
366	 4.84957481865927E-02 
367	 4.75258410977632E-02 
368	 4.05317731443568E-02 
369	 4.49296080118044E-02 
370	 4.85555646217453E-02 
371	 4.86607215886637E-02 
372	 4.94790871753524E-02 
373	 5.01007808853602E-02 
374	 4.96429593345554E-02 
375	 4.88025257531334E-02 
376	 5.13310539204347E-02 
377	 4.94191117298822E-02 
378	 4.75091905803669E-02 
379	 5.10913863232182E-02 
380	 5.41772543853716E-02 
381	 5.48228875974873E-02 
382	 5.40680205398115E-02 
383	 5.48293723330629E-02 
384	 5.40453687317586E-02 
385	 5.34559774877766E-02 
386	 0.054652963120106 
387	 5.78558282607496E-02 
388	 0.060816636070499 
389	 6.17561673992839E-02 
390	 0.060478921962551 
391	 6.28839083876668E-02 
392	 0.06445047672792 
393	 6.44993594088405E-02 
394	 6.58165130193585E-02 
395	 6.56439220865196E-02 
396	 6.76760452231127E-02 
397	 7.24610616572812E-02 
398	 7.14756549539904E-02 
399	 7.20814920748203E-02 
400	 7.44454346585569E-02 
401	 7.61390098441086E-02 
402	 7.61935059319064E-02 
403	 7.64026268261821E-02 
404	 7.70927582440701E-02 
405	 7.70168140424039E-02 
406	 7.85232378798589E-02 
407	 8.07117580795507E-02 
408	 8.20978974153477E-02 
409	 8.11963110143334E-02 
410	 0.081183607435477 
411	 8.21830058227337E-02 
412	 8.29209233309026E-02 
413	 8.37679641608652E-02 
414	 8.39519775797698E-02 
415	 8.37176195968957E-02 
416	 8.46690090606779E-02 
417	 8.53495864363744E-02 
418	 8.54707039750291E-02 
419	 8.51907318279913E-02 
420	 8.51453449778173E-02 
421	 8.43928272794105E-02 
422	 8.36471756100482E-02 
423	 8.44104485766858E-02 
424	 8.45721575973815E-02 
425	 8.41688156874656E-02 
426	 0.083560572190273 
427	 8.30639283456432E-02 
428	 8.31317341112355E-02 
429	 8.31070221371433E-02 
430	 8.22960149946144E-02 
431	 8.17608098235148E-02 
432	 8.11908588012458E-02 
433	 8.08358047257626E-02 
434	 8.14710372404385E-02 
435	 8.16801812290848E-02 
436	 8.16594833096158E-02 
437	 8.17346196367968E-02 
438	 8.15908582171937E-02 
439	 8.19950261353895E-02 
440	 8.27933346674664E-02 
441	 8.33970434935174E-02 
442	 8.38475839709448E-02 
443	 8.43750257217773E-02 
444	 8.50312834718591E-02 
445	 8.55705799581786E-02 
446	 8.61513542884113E-02 
447	 8.67395306791033E-02 
448	 8.72660993446867E-02 
449	 8.77585876184814E-02 
450	 8.81601375640554E-02 
451	 8.86742761478919E-02 
452	 8.96536909743677E-02 
453	 9.00369390170565E-02 
454	 0.090060778128499 
455	 9.01786671951533E-02 
456	 9.08112378080457E-02 
457	 9.12078543447944E-02 
458	 0.09144302113113 
459	 9.18810556405554E-02 
460	 9.19598484115783E-02 
461	 9.20703503966328E-02 
462	 0.09239194971595 
463	 9.26987358866917E-02 
464	 9.28217864357824E-02 
465	 9.29705270840752E-02 
466	 9.33340643397417E-02 
467	 9.35717453611348E-02 
468	 9.36774258265509E-02 
469	 9.37406827189687E-02 
470	 9.39057372949594E-02 
471	 9.39919436645133E-02 
472	 9.39535028477401E-02 
473	 9.38788329878314E-02 
474	 9.41271428256815E-02 
475	 9.43708487469724E-02 
476	 9.44087542804847E-02 
477	 9.42069738258068E-02 
478	 9.44882120384473E-02 
479	 0.094644126667555 
480	 9.45128392248886E-02 
481	 9.47060595032232E-02 
482	 9.48039860857564E-02 
483	 9.48418337091123E-02 
484	 9.49471576983643E-02 
485	 9.51477351617403E-02 
486	 0.095027452553256 
487	 9.48103362929097E-02 
488	 9.51907299694035E-02 
489	 9.53771610170867E-02 
490	 9.53655175308618E-02 
491	 9.53327073443858E-02 
492	 9.55771103422908E-02 
493	 9.55234618583272E-02 
494	 0.095361631123437 
495	 9.55567541829335E-02 
496	 9.56452711160854E-02 
497	 9.57243705164256E-02 
498	 9.58029918767681E-02 
499	 9.56759647885925E-02 
500	 0.09555399700169 
501	 9.54841789179396E-02 
502	 9.54789027361338E-02 
503	 9.56388787068743E-02 
504	 9.57776460556264E-02 
505	 9.58331925355222E-02 
506	 9.58657607460878E-02 
507	 9.58542470422058E-02 
508	 9.58446890622332E-02 
509	 9.58710821575247E-02 
510	 9.59086443589892E-02 
511	 9.59396255349605E-02 
512	 9.59654456143739E-02 
513	 9.59999113782658E-02 
514	 9.60681264542423E-02 
515	 9.60861050448106E-02 
516	 9.60437984846428E-02 
517	 9.60783608315215E-02 
518	 9.60619732075268E-02 
519	 9.60412094296213E-02 
520	 9.60926713878922E-02 
521	 9.61390350332049E-02 
522	 0.096211483455999 
523	 9.62585431979086E-02 
524	 9.61430229375308E-02 
525	 9.61176240585798E-02 
526	 9.61002429086727E-02 
527	 9.60227903195761E-02 
528	 9.61267272728725E-02 
529	 9.61627165289868E-02 
530	 9.61125565492514E-02 
531	 9.61114354415494E-02 
532	 9.61532232940147E-02 
533	 9.62488445135162E-02 
534	 0.096362137098329 
535	 9.63509392636322E-02 
536	 9.63599850538713E-02 
537	 0.096402095367716 
538	 9.64332465902589E-02 
539	 9.63928420543796E-02 
540	 9.64130673471534E-02 
541	 9.65070661929235E-02 
542	 9.65158670070789E-02 
543	 9.64084836905317E-02 
544	 9.63577538569766E-02 
545	 9.64892509930841E-02 
546	 9.64977584467289E-02 
547	 9.65294007115821E-02 
548	 0.096613018187882 
549	 9.66678592125337E-02 
550	 9.66518551920699E-02 
551	 9.66731712064263E-02 
552	 9.67852749032373E-02 
553	 9.68316589824647E-02 
554	 9.68425680324878E-02 
555	 9.68682755906451E-02 
556	 9.69655041227008E-02 
557	 9.71171925449037E-02 
558	 9.72334307162376E-02 
559	 9.73065130433571E-02 
560	 9.74893029862664E-02 
561	 9.76337335625562E-02 
562	 9.77330978682081E-02 
563	 9.78231950599375E-02 
564	 9.78828006663346E-02 
565	 9.79622300984286E-02 
566	 9.80569153719104E-02 
567	 9.80998775578476E-02 
568	 9.83165565466221E-02 
569	 9.85682446784623E-02 
570	 9.87110155094368E-02 
571	 9.88912089542281E-02 
572	 9.90985993463635E-02 
573	 9.93262093196297E-02 
574	 9.95635801022308E-02 
575	 9.97324590270678E-02 
576	 9.99156875167498E-02 
577	 0.100144508733236 
578	 0.100272958454659 
579	 0.100437435489537 
580	 0.100585080937772 
581	 0.100626088163005 
582	 0.100807234006419 
583	 0.100990852667123 
584	 0.101130764082373 
585	 0.101358906830767 
586	 0.101604627858067 
587	 0.101841769259486 
588	 0.10206489003252 
589	 0.102310182749565 
590	 0.102542003239525 
591	 0.102759907249372 
592	 0.102998207597168 
593	 0.10327180183911 
594	 0.103541107297402 
595	 0.103771172944505 
596	 0.1039717171995 
597	 0.104136182324769 
598	 0.104273358239962 
599	 0.104394768353813 
600	 0.104435195791519 
601	 0.104515868706011 
602	 0.104675881951652 
603	 0.104772746764746 
604	 0.104872499760238 
605	 0.104984036895264 
606	 0.105102659806343 
607	 0.105247652376379 
608	 0.105398792139248 
609	 0.10554456346625 
610	 0.105685807156957 
611	 0.10579832089848 
612	 0.10587664263171 
613	 0.105922944817035 
614	 0.105944054838458 
615	 0.10593890319686 
616	 0.105955452186961 
617	 0.106063774121153 
618	 0.106181537357857 
619	 0.106223881831428 
620	 0.106188501518589 
621	 0.106249235941764 
622	 0.106285830887226 
623	 0.106298452375361 
624	 0.106329587174141 
625	 0.106377942402383 
626	 0.106411675492627 
627	 0.106415128475715 
628	 0.106396220161072 
629	 0.106420334865342 
630	 0.106460380693815 
631	 0.106473122219995 
632	 0.106465886444487 
633	 0.106449864635225 
634	 0.106435556245187 
635	 0.10643287290298 
636	 0.106461843112051 
637	 0.106484615941901 
638	 0.106481417593648 
639	 0.106503794481779 
640	 0.106501409402801 
641	 0.106503440764768 
642	 0.106558320050587 
643	 0.106566474951419 
644	 0.106544647144298 
645	 0.106520059329274 
646	 0.106516296087179 
647	 0.106568413464832 
648	 0.106603060003577 
649	 0.106560219068992 
650	 0.106577483982474 
651	 0.106608362239975 
652	 0.106609428959296 
653	 0.106553068645569 
654	 0.106571346545441 
655	 0.106563487611387 
656	 0.106485604814305 
657	 0.106546942426676 
658	 0.106637189036295 
659	 0.106675090761644 
660	 0.106616883553021 
661	 0.106608877461047 
662	 0.106637346775169 
663	 0.106668912888535 
664	 0.106666085508812 
665	 0.10668376635905 
666	 0.106705467392018 
667	 0.106705265485355 
668	 0.106704463916434 
669	 0.106728668283169 
670	 0.106769617887989 
671	 0.106793840248975 
672	 0.10684497004354 
673	 0.106888060869899 
674	 0.106908590926712 
675	 0.106980417467788 
676	 0.106985023939639 
677	 0.106966302062509 
678	 0.107018343460155 
679	 0.107037491349782 
680	 0.107060818935977 
681	 0.107112745752791 
682	 0.107186488622923 
683	 0.10722220014933 
684	 0.107230788426406 
685	 0.107245175826282 
686	 0.107295631216334 
687	 0.107369118642042 
688	 0.107446424047635 
689	 0.107502697937956 
690	 0.107496672894811 
691	 0.10748246658388 
692	 0.107510472870873 
693	 0.1076017436992 
694	 0.107674298730143 
695	 0.107700827758982 
696	 0.10769037923491 
697	 0.107710823337682 
698	 0.107753605909258 
699	 0.107799591858908 
700	 0.107825712479996 
701	 0.107865976351555 
702	 0.107908766043537 
703	 0.107938351918501 
704	 0.107952601476074 
705	 0.10798479900862 
706	 0.108027542778461 
707	 0.108054098648994 
708	 0.108077823392314 
709	 0.108102406095253 
710	 0.108126472128843 
711	 0.108142490290164 
712	 0.108162869704228 
713	 0.108190691917172 
714	 0.108227438772363 
715	 0.108289933620798 
716	 0.108282237880602 
717	 0.108237507219679 
718	 0.108274590248404 
719	 0.10832618667182 
720	 0.108325052958167 
721	 0.108271290387447 
722	 0.108294148459452 
723	 0.108297524242295 
724	 0.108316616827343 
725	 0.108388346216804 
726	 0.108329286370693 
727	 0.108314743616241 
728	 0.108356648351128 
729	 0.108309458880866 
730	 0.108313092893107 
731	 0.10831282236569 
732	 0.108270151516264 
733	 0.108271217724882 
734	 0.108258272519867 
735	 0.108224455332887 
736	 0.108189014132984 
737	 0.108197749458643 
738	 0.108181487301831 
739	 0.108133733825268 
740	 0.108123229875487 
741	 0.10810393911608 
742	 0.10807606143837 
743	 0.108040066236873 
744	 0.10796553621904 
745	 0.107916008883632 
746	 0.107889295880136 
747	 0.107852083226743 
748	 0.107805317572284 
749	 0.107753969962055 
750	 0.107698118454545 
751	 0.107631465124261 
752	 0.107586039700675 
753	 0.107552445449005 
754	 0.107510582106572 
755	 0.107438090860165 
756	 0.107377970917355 
757	 0.107330504270635 
758	 0.107277887622796 
759	 0.107257345918459 
760	 0.107195364137509 
761	 0.1070819163035 
762	 0.106996946419894 
763	 0.106933782486193 
764	 0.106864126208545 
765	 0.106779067287502 
766	 0.106750980874919 
767	 0.106696883814154 
768	 0.106608895046883 
769	 0.106518034598305 
770	 0.106423193450105 
771	 0.106352445830328 
772	 0.10630024224061 
773	 0.106220534378137 
774	 0.10614253808775 
775	 0.106052672174503 
776	 0.105946466466597 
777	 0.105870733536015 
778	 0.105771790703552 
779	 0.10568881283823 
780	 0.105676336588137 
781	 0.105604355330685 
782	 0.10551673884853 
783	 0.105434833661412 
784	 0.105342575435615 
785	 0.105252890261243 
786	 0.105164843741473 
787	 0.105072046392014 
788	 0.104952277287558 
789	 0.104917940450394 
790	 0.104887148930113 
791	 0.104750716978752 
792	 0.104681776833865 
793	 0.104609220122036 
794	 0.104511955581025 
795	 0.104421396235316 
796	 0.10432007176472 
797	 0.104252410650684 
798	 0.104223004307003 
799	 0.104150903026279 
800	 0.104035773470982 
801	 0.103923822481616 
802	 0.103855273023058 
803	 0.103782267276499 
804	 0.103708737746305 
805	 0.103629412347249 
806	 0.103538412915711 
807	 0.103475185892935 
808	 0.103389937997008 
809	 0.103282625552646 
810	 0.10322760648995 
811	 0.103194305570133 
812	 0.103126779945716 
813	 0.103012576928157 
814	 0.102974169598737 
815	 0.102901409303924 
816	 0.102799629913166 
817	 0.102721250611532 
818	 0.102693413920658 
819	 0.102638288261074 
820	 0.10253337627522 
821	 0.10241661705073 
822	 0.102372424321122 
823	 0.102337826945008 
824	 0.102274431239734 
825	 0.102223839490662 
826	 0.102178415342872 
827	 0.102121529320303 
828	 0.102049593753174 
829	 0.102013695554858 
830	 0.101939394994314 
831	 0.101843077830329 
832	 0.101776425817112 
833	 0.101697851113437 
834	 0.101648468652602 
835	 0.101623505041137 
836	 0.101575729317684 
837	 0.101565000451073 
838	 0.101525095152998 
839	 0.101425852372406 
840	 0.101330119186569 
841	 0.101260883146241 
842	 0.101241410496955 
843	 0.10125838738733 
844	 0.101196876699784 
845	 0.101157526830813 
846	 0.101131271247391 
847	 0.101067275449515 
848	 0.100996073087119 
849	 0.100922547450147 
850	 0.100845377984042 
851	 0.100764878874394 
852	 0.100751190709099 
853	 0.10074564618595 
854	 0.100709222652369 
855	 0.100660469255718 
856	 0.100636443583362 
857	 0.100634136979891 
858	 0.100627239051019 
859	 0.100555558884667 
860	 0.10050903437658 
861	 0.100491103497036 
862	 0.100469585897708 
863	 0.100412082180804 
864	 0.100359286128395 
865	 0.100328479928944 
866	 0.100314396601283 
867	 0.100280827330494 
868	 0.100269387268411 
869	 0.100269104111437 
870	 0.100217175675313 
871	 0.100191191801175 
872	 0.100173919026981 
873	 0.100150358255601 
874	 0.100134702710623 
875	 0.100117954396477 
876	 0.100102333579485 
877	 0.10008366705828 
878	 0.100029080071856 
879	 0.100017611057029 
880	 0.100016870035959 
881	 9.99848395274043E-02 
882	 0.100022813875749 
883	 0.100011246439673 
884	 9.99562442123185E-02 
885	 9.99320625182221E-02 
886	 9.99348944011309E-02 
887	 9.99231275599505E-02 
888	 9.99098136034387E-02 
889	 9.99449499644591E-02 
890	 9.99424623114501E-02 
891	 0.099895836946336 
892	 9.98531528921229E-02 
893	 9.99031246358528E-02 
894	 0.099893429355758 
895	 0.099852363948821 
896	 9.98284195053815E-02 
897	 9.98376963955828E-02 
898	 9.98297113897743E-02 
899	 0.099832486781313 
900	 9.98579949259957E-02 
901	 0.099811845017776 
902	 9.98389234761701E-02 
903	 9.99109524636156E-02 
904	 0.099949691391188 
905	 9.99380849192414E-02 
906	 9.99551722702632E-02 
907	 9.99869848221802E-02 
908	 9.99840738731267E-02 
909	 9.99773570518214E-02 
910	 9.99529084146415E-02 
911	 9.99785648585263E-02 
912	 0.100125345228866 
913	 0.100129839192848 
914	 0.100062383226843 
915	 0.100013138746088 
916	 0.100044444451801 
917	 0.100071231015397 
918	 0.100103315753724 
919	 0.100126680160568 
920	 0.100097170992097 
921	 0.100123472217334 
922	 0.10015765754453 
923	 0.100174188919551 
924	 0.100219274255535 
925	 0.100290805566804 
926	 0.100330411046753 
927	 0.100301776546936 
928	 0.100230326837102 
929	 0.100252351652447 
930	 0.100387082792208 
931	 0.100530133726992 
932	 0.100386190061448 
933	 0.100374110473087 
934	 0.100473413099318 
935	 0.100544815479199 
936	 0.100527203661085 
937	 0.100446319256226 
938	 0.100428117351036 
939	 0.100559250775046 
940	 0.100694708754101 
941	 0.100748786416955 
942	 0.100799776011056 
943	 0.100910090406551 
944	 0.100779390300324 
945	 0.10078532274888 
946	 0.100910921350858 
947	 0.100965106362299 
948	 0.100908914417516 
949	 0.100972916721336 
950	 0.101045348244487 
951	 0.100935808346326 
952	 0.101023890961518 
953	 0.101052331138603 
954	 0.101020867523258 
955	 0.101068697701202 
956	 0.101138036417624 
957	 0.101271113475399 
958	 0.101374412285867 
959	 0.101329798796017 
960	 0.101357954039954 
961	 0.101417755548802 
962	 0.101473502188507 
963	 0.10150480765998 
964	 0.101495284789432 
965	 0.101504240407367 
966	 0.101589842677257 
967	 0.101760043754363 
968	 0.101809098164268 
969	 0.101754601202761 
970	 0.101664591738625 
971	 0.101629589693429 
972	 0.101730608990108 
973	 0.101776399719574 
974	 0.101739358040368 
975	 0.101737123770047 
976	 0.101934253686296 
977	 0.102009558084666 
978	 0.101933008828493 
979	 0.101895227618919 
980	 0.101987978956536 
981	 0.102095054380056 
982	 0.102072428765879 
983	 0.101879408764473 
984	 0.101975656942495 
985	 0.10210312647521 
986	 0.102172146033288 
987	 0.102220528651648 
988	 0.102255172178734 
989	 0.102294931434249 
990	 0.10235976302394 
991	 0.102440603534347 
992	 0.10241688638593 
993	 0.102386444042847 
994	 0.102372485738561 
995	 0.102375326937479 
996	 0.102473569121895 
997	 0.102544155852056 
998	 0.102585664111525 
999	 0.102650031129907 
1000	 0.102777446933811 
1001	 0.100839305832111 
1002	 0.100814861717924 
1003	 0.100854888062971 
1004	 0.100874628808982 
1005	 0.100885353047617 
1006	 0.100888592936732 
1007	 0.100894227037387 
1008	 0.100872157309498 
1009	 0.100883698184522 
1010	 0.10092505467577 
1011	 0.100976853770451 
1012	 0.10098156382514 
1013	 0.100959915000296 
1014	 0.100991062286485 
1015	 0.100968463972271 
1016	 0.100941383228114 
1017	 0.100932099183207 
1018	 0.1009320630377 
1019	 0.100916064975006 
1020	 0.100966297732481 
1021	 0.101028741185955 
1022	 0.101069864294334 
1023	 0.101109956748814 
1024	 0.101065844578514 
1025	 0.101003305488566 
1026	 0.101026222190534 
1027	 0.101010019805489 
1028	 0.100998459325794 
1029	 0.101019159890749 
1030	 0.100986205971564 
1031	 0.100974792753426 
1032	 0.100966120820579 
1033	 0.100970397509232 
1034	 0.100936456347017 
1035	 0.100922046520003 
1036	 0.100946943569215 
1037	 0.100962620330659 
1038	 0.100962257191757 
1039	 0.100954662654913 
1040	 0.100932078454011 
1041	 0.100916841256095 
1042	 0.100906245179061 
1043	 0.10088803346712 
1044	 0.100887637424969 
1045	 0.100886042400574 
1046	 0.100864624451413 
1047	 0.100870692574784 
1048	 0.10090554879972 
1049	 0.100924452988263 
1050	 0.100938019442233 
1051	 0.100915166711317 
1052	 0.100932584165869 
1053	 0.100954632724318 
1054	 0.10090923400109 
1055	 0.100905309040441 
1056	 0.10088966263376 
1057	 0.10091727170317 
1058	 0.101019531874878 
1059	 0.101052042764542 
1060	 0.101075628436383 
1061	 0.10109192987099 
1062	 0.101089815310326 
1063	 0.101044722115579 
1064	 0.101055968039605 
1065	 0.101122906034233 
1066	 0.101170015118531 
1067	 0.101155420818039 
1068	 0.101118581634118 
1069	 0.10111229734064 
1070	 0.101108973182262 
1071	 0.101091132508129 
1072	 0.101102436113421 
1073	 0.101159903547844 
1074	 0.1011559703121 
1075	 0.101110974233174 
1076	 0.101107498726264 
1077	 0.101115762239511 
1078	 0.101146257138495 
1079	 0.101183651644506 
1080	 0.101196972955838 
1081	 0.101174552592952 
1082	 0.101113470485541 
1083	 0.10108748490502 
1084	 0.101079218684287 
1085	 0.101074419786086 
1086	 0.101089797616893 
1087	 0.101078803694901 
1088	 0.101074780659769 
1089	 0.101034346142965 
1090	 0.100959028626665 
1091	 0.100927144748038 
1092	 0.100919621422824 
1093	 0.100895012173686 
1094	 0.100892961086175 
1095	 0.100894308251643 
1096	 0.10088561300824 
1097	 0.100859264335992 
1098	 0.100823326073347 
1099	 0.100764876791521 
1100	 0.100732377159219 
1101	 0.100689891961825 
1102	 0.10066882040608 
1103	 0.100676381458155 
1104	 0.100676463969915 
1105	 0.100664767752668 
1106	 0.100654470471944 
1107	 0.100634369985385 
1108	 0.100601415044335 
1109	 0.100579563706832 
1110	 0.100580195145481 
1111	 0.100571019644063 
1112	 0.100581079003037 
1113	 0.100563675754273 
1114	 0.100523102843283 
1115	 0.100492200365923 
1116	 0.100435785194769 
1117	 0.100418296120846 
1118	 0.100435196270331 
1119	 0.100432159946486 
1120	 0.100415586127014 
1121	 0.100428907514173 
1122	 0.100412301758579 
1123	 0.100401625080393 
1124	 0.100404548140584 
1125	 0.10042809911581 
1126	 0.100432314334975 
1127	 0.100434799166182 
1128	 0.100437320823689 
1129	 0.100444369485692 
1130	 0.100437249709766 
1131	 0.100422928887825 
1132	 0.100405476787398 
1133	 0.100362286211976 
1134	 0.100343277414574 
1135	 0.100330923748449 
1136	 0.100335244892492 
1137	 0.100334945760438 
1138	 0.100329149798907 
1139	 0.100322219109531 
1140	 0.100305174786656 
1141	 0.100291536552315 
1142	 0.100289143517622 
1143	 0.100266945862183 
1144	 0.100231900627915 
1145	 0.100204023916045 
1146	 0.100159694780844 
1147	 0.100133585238471 
1148	 0.10011789097658 
1149	 0.100100414485764 
1150	 0.100086818114087 
1151	 0.100091035803871 
1152	 0.100059135801001 
1153	 0.100029669559604 
1154	 9.99998161100474E-02 
1155	 9.99590686936887E-02 
1156	 9.99204743949462E-02 
1157	 9.98765882300333E-02 
1158	 9.98520046287313E-02 
1159	 9.98313630360863E-02 
1160	 9.98090022557639E-02 
1161	 9.98154338092316E-02 
1162	 9.97966113197462E-02 
1163	 9.97458475506643E-02 
1164	 9.97168163485007E-02 
1165	 9.96874836763979E-02 
1166	 9.96707138795549E-02 
1167	 9.96514656874828E-02 
1168	 9.96344685363045E-02 
1169	 9.96215324114541E-02 
1170	 9.96087192102197E-02 
1171	 9.95904472699304E-02 
1172	 9.95805538802737E-02 
1173	 9.95606713290542E-02 
1174	 9.95147333599015E-02 
1175	 9.94989437913111E-02 
1176	 9.95127556705818E-02 
1177	 9.94966642775917E-02 
1178	 9.94757099590308E-02 
1179	 9.94596644677003E-02 
1180	 9.94120519956382E-02 
1181	 9.93911216803431E-02 
1182	 9.93987414844396E-02 
1183	 9.94025844260443E-02 
1184	 9.94000879188074E-02 
1185	 9.94037699318225E-02 
1186	 9.93976022405795E-02 
1187	 0.099385375429928 
1188	 9.93677029486112E-02 
1189	 0.099340133288834 
1190	 9.93225425564296E-02 
1191	 9.92979207547909E-02 
1192	 9.92831762926749E-02 
1193	 9.92799199500504E-02 
1194	 9.92757171127169E-02 
1195	 9.92784346986721E-02 
1196	 9.92743491144503E-02 
1197	 9.92727677846025E-02 
1198	 9.92653708424307E-02 
1199	 0.099253441673767 
1200	 9.92328133924163E-02 
1201	 9.92185745495703E-02 
1202	 9.92031299784576E-02 
1203	 9.91898415158884E-02 
1204	 9.91772626728327E-02 
1205	 9.91664334117187E-02 
1206	 9.91543660475763E-02 
1207	 9.91485272642811E-02 
1208	 9.91552734844141E-02 
1209	 0.099146662533984 
1210	 9.91336101330857E-02 
1211	 9.91206467985977E-02 
1212	 9.90917504518764E-02 
1213	 0.099075149684759 
1214	 0.099066202510626 
1215	 9.90590608795408E-02 
1216	 9.90552753591855E-02 
1217	 9.90573043827811E-02 
1218	 9.90556992550218E-02 
1219	 0.099060521845314 
1220	 9.90512045195608E-02 
1221	 9.90374046494821E-02 
1222	 9.90182736503598E-02 
1223	 9.89787828397988E-02 
1224	 9.89622116464672E-02 
1225	 9.89548762308879E-02 
1226	 9.89439191487201E-02 
1227	 9.89510651723867E-02 
1228	 9.89407490397515E-02 
1229	 9.89154227257049E-02 
1230	 9.88945919810373E-02 
1231	 9.88630493942365E-02 
1232	 9.88412551667916E-02 
1233	 9.88239937657802E-02 
1234	 9.88145888670935E-02 
1235	 9.87968576707523E-02 
1236	 0.098780599490258 
1237	 9.87643030576302E-02 
1238	 9.87411677354351E-02 
1239	 9.87259509381093E-02 
1240	 9.87243863481966E-02 
1241	 9.87059433452871E-02 
1242	 9.86722424604346E-02 
1243	 9.86550934238871E-02 
1244	 9.86382933059597E-02 
1245	 9.86230816589354E-02 
1246	 9.86317036094282E-02 
1247	 9.86187796897168E-02 
1248	 9.85891503337217E-02 
1249	 9.85594983824457E-02 
1250	 9.85286937261842E-02 
1251	 9.84969114840854E-02 
1252	 9.84735957815454E-02 
1253	 9.84603911939766E-02 
1254	 0.098438568903552 
1255	 9.84176991093572E-02 
1256	 9.83939122846738E-02 
1257	 9.83628356637044E-02 
1258	 9.83399741876059E-02 
1259	 9.83246075832414E-02 
1260	 0.098299115672969 
1261	 9.82720311102146E-02 
1262	 9.82451075344291E-02 
1263	 9.82094638926642E-02 
1264	 9.81782379433799E-02 
1265	 9.81573786397335E-02 
1266	 9.81257152170738E-02 
1267	 0.098081689123376 
1268	 9.80454726735725E-02 
1269	 0.09801347385379 
1270	 9.79780676803592E-02 
1271	 9.79520106522259E-02 
1272	 9.79374894700154E-02 
1273	 9.79186178823242E-02 
1274	 9.78982442434784E-02 
1275	 9.78845940193562E-02 
1276	 9.78741825428249E-02 
1277	 0.097867639823215 
1278	 9.78680070159247E-02 
1279	 9.78664832701909E-02 
1280	 9.78668511921513E-02 
1281	 9.78677409299466E-02 
1282	 9.78582733422002E-02 
1283	 9.78689244845903E-02 
1284	 9.78886776991467E-02 
1285	 9.79206236330943E-02 
1286	 9.79570273987123E-02 
1287	 9.79835894929228E-02 
1288	 0.098009882939488 
1289	 9.80208320224253E-02 
1290	 9.80559789168329E-02 
1291	 0.098118517118566 
1292	 9.81423760375085E-02 
1293	 9.81564613351429E-02 
1294	 9.81692242291053E-02 
1295	 9.81516859691737E-02 
1296	 9.81548126171302E-02 
1297	 9.81780862730244E-02 
1298	 9.81889244806708E-02 
1299	 0.098193024317153 
1300	 9.81976107024201E-02 
1301	 9.82101004100223E-02 
1302	 9.82059549379248E-02 
1303	 9.81872193174147E-02 
1304	 9.81739045503311E-02 
1305	 9.81737493031652E-02 
1306	 9.81466047347164E-02 
1307	 9.81202167161229E-02 
1308	 9.81040073416761E-02 
1309	 9.80692639903956E-02 
1310	 0.098011155821225 
1311	 9.79690521787185E-02 
1312	 9.79253071658581E-02 
1313	 9.78854692226157E-02 
1314	 0.097846371226765 
1315	 9.78114942716985E-02 
1316	 9.77904920678036E-02 
1317	 9.77591560422932E-02 
1318	 9.77229704323303E-02 
1319	 9.76849617947421E-02 
1320	 9.76455624447425E-02 
1321	 9.75974735956689E-02 
1322	 9.75333410392841E-02 
1323	 9.74917730883142E-02 
1324	 9.74502536868108E-02 
1325	 0.097404925282639 
1326	 9.73833168043477E-02 
1327	 9.73657218319444E-02 
1328	 9.73415296197735E-02 
1329	 9.73144392258462E-02 
1330	 9.72778388623807E-02 
1331	 0.097234475916074 
1332	 9.71871000463294E-02 
1333	 0.097126929436277 
1334	 9.70789603173847E-02 
1335	 9.70225182940065E-02 
1336	 0.096988930688556 
1337	 9.69731036728807E-02 
1338	 9.69516795613483E-02 
1339	 9.69509000637699E-02 
1340	 9.69291189827753E-02 
1341	 9.68888920404173E-02 
1342	 9.68609871662378E-02 
1343	 9.68298943890759E-02 
1344	 9.68025870232997E-02 
1345	 9.67821161814961E-02 
1346	 9.67578030655552E-02 
1347	 9.67327271372918E-02 
1348	 9.66950679036672E-02 
1349	 9.66666659712198E-02 
1350	 9.66568688904032E-02 
1351	 9.66413677799897E-02 
1352	 9.66311268251597E-02 
1353	 9.66219436816329E-02 
1354	 9.66174832099857E-02 
1355	 9.65984928620161E-02 
1356	 9.65727045507649E-02 
1357	 0.096554382622598 
1358	 9.65296217273611E-02 
1359	 9.65133777879294E-02 
1360	 9.65182879089093E-02 
1361	 0.09649764694343 
1362	 9.64517006107004E-02 
1363	 9.64264960745105E-02 
1364	 9.64103128407862E-02 
1365	 9.63797365242167E-02 
1366	 9.63519317391383E-02 
1367	 9.63277614990563E-02 
1368	 9.62826738821899E-02 
1369	 9.62368994498221E-02 
1370	 9.62108179151406E-02 
1371	 9.61733453056102E-02 
1372	 0.096108508508067 
1373	 9.60414254550522E-02 
1374	 9.59884471718124E-02 
1375	 9.59310954053343E-02 
1376	 9.58802144296423E-02 
1377	 9.58520693686925E-02 
1378	 9.58003922480204E-02 
1379	 9.57317237802398E-02 
1380	 9.56710824511787E-02 
1381	 9.56113318023858E-02 
1382	 0.095546303128127 
1383	 9.54807275745924E-02 
1384	 9.54110440423921E-02 
1385	 9.53416180950223E-02 
1386	 9.52611906159773E-02 
1387	 9.51728943748582E-02 
1388	 9.50830908963296E-02 
1389	 9.49855399937551E-02 
1390	 9.48836525571772E-02 
1391	 9.47806595649111E-02 
1392	 9.46857415801628E-02 
1393	 9.45830883089333E-02 
1394	 9.44590862083139E-02 
1395	 9.43265755132649E-02 
1396	 9.41927610336345E-02 
1397	 9.40553649304496E-02 
1398	 9.39089235908851E-02 
1399	 9.37681214428606E-02 
1400	 0.093628546619344 
1401	 9.34887899852351E-02 
1402	 9.33477099911548E-02 
1403	 9.32047791349502E-02 
1404	 9.30610876556418E-02 
1405	 9.29179659010403E-02 
1406	 9.27700696349908E-02 
1407	 9.26321816758413E-02 
1408	 9.24987224356316E-02 
1409	 9.23692106851019E-02 
1410	 9.22449655791703E-02 
1411	 9.21235431844807E-02 
1412	 9.20024875384947E-02 
1413	 9.18904945772714E-02 
1414	 9.17916816659514E-02 
1415	 9.16902976744857E-02 
1416	 9.15903600994928E-02 
1417	 9.14949497682855E-02 
1418	 9.14146634826386E-02 
1419	 9.13519085013974E-02 
1420	 9.12968186165065E-02 
1421	 9.12504699596887E-02 
1422	 9.11854174957069E-02 
1423	 9.11110676990908E-02 
1424	 9.10546283045509E-02 
1425	 9.10049689253122E-02 
1426	 9.09589428002836E-02 
1427	 9.09284459370966E-02 
1428	 9.08836166756026E-02 
1429	 9.08287308632528E-02 
1430	 0.090786058764519 
1431	 0.09074424702253 
1432	 9.07073828100896E-02 
1433	 9.06862450213377E-02 
1434	 9.06539179327972E-02 
1435	 9.06095460631918E-02 
1436	 9.05765747622763E-02 
1437	 9.05414882953791E-02 
1438	 9.05142638952533E-02 
1439	 9.04973279515162E-02 
1440	 9.04869195097176E-02 
1441	 9.04598603669128E-02 
1442	 9.04360974604187E-02 
1443	 9.04147022924507E-02 
1444	 0.090392394103172 
1445	 9.03829899522044E-02 
1446	 9.03737484905529E-02 
1447	 9.03531022841084E-02 
1448	 9.03297968629921E-02 
1449	 9.02995759092196E-02 
1450	 9.02727746054167E-02 
1451	 9.02568679291538E-02 
1452	 9.02515959979657E-02 
1453	 9.02356900775894E-02 
1454	 9.02234556632584E-02 
1455	 9.02097208804308E-02 
1456	 9.01825972898866E-02 
1457	 9.01737606447267E-02 
1458	 9.01809337762232E-02 
1459	 9.01783136999133E-02 
1460	 9.01739399331804E-02 
1461	 9.01784854607989E-02 
1462	 9.01883603322756E-02 
1463	 9.01882277627217E-02 
1464	 9.01907395731748E-02 
1465	 9.01935876826361E-02 
1466	 9.01825899522088E-02 
1467	 9.01828611604316E-02 
1468	 9.01902992943454E-02 
1469	 9.02019999883775E-02 
1470	 0.090218363582511 
1471	 9.02406916293174E-02 
1472	 0.090251370625123 
1473	 9.02708984363386E-02 
1474	 9.02787959895402E-02 
1475	 9.02724418103848E-02 
1476	 0.090282060218981 
1477	 9.02995401763051E-02 
1478	 9.03190042090539E-02 
1479	 9.03461567414625E-02 
1480	 9.03737676945871E-02 
1481	 9.03858590096525E-02 
1482	 9.03984174364822E-02 
1483	 9.04045865197785E-02 
1484	 9.04173342873117E-02 
1485	 9.04301464865201E-02 
1486	 9.04405172610304E-02 
1487	 9.04476585656304E-02 
1488	 9.04619477647378E-02 
1489	 9.04792499359258E-02 
1490	 9.04947480225638E-02 
1491	 9.05190453815487E-02 
1492	 9.05338709590448E-02 
1493	 9.05322962814571E-02 
1494	 9.05493507610031E-02 
1495	 9.05808284098431E-02 
1496	 9.05982895493839E-02 
1497	 9.06216779637408E-02 
1498	 9.06355924851766E-02 
1499	 0.090623158084861 
1500	 9.06340363376069E-02 
1501	 0.090661694854521 
1502	 9.06777811437295E-02 
1503	 9.06961709144545E-02 
1504	 9.07188044359022E-02 
1505	 9.07285557950258E-02 
1506	 9.07384003385993E-02 
1507	 0.090744491101058 
1508	 0.090752919589458 
1509	 0.090763261751481 
1510	 9.07590619480279E-02 
1511	 9.07642655198719E-02 
1512	 9.07720151179229E-02 
1513	 9.07631612737432E-02 
1514	 9.07644627462086E-02 
1515	 9.07739268242445E-02 
1516	 9.07745940287967E-02 
1517	 9.07735603602716E-02 
1518	 0.090778794549679 
1519	 9.07698937712929E-02 
1520	 9.07417211715441E-02 
1521	 9.07334611261655E-02 
1522	 9.07270053183544E-02 
1523	 9.07260422339977E-02 
1524	 9.07414971881535E-02 
1525	 9.07401103724145E-02 
1526	 9.07264830026232E-02 
1527	 9.07308639279016E-02 
1528	 9.07441968714226E-02 
1529	 9.07442727853731E-02 
1530	 9.07470736630068E-02 
1531	 9.07491619131763E-02 
1532	 9.07374840656133E-02 
1533	 0.090731912084359 
1534	 9.07373476972984E-02 
1535	 9.07402596119361E-02 
1536	 9.07288597617646E-02 
1537	 9.07353628490215E-02 
1538	 9.07716589118644E-02 
1539	 0.090776412885959 
1540	 9.07645682403583E-02 
1541	 9.07639041824453E-02 
1542	 9.07461105905192E-02 
1543	 0.09074128287706 
1544	 0.09075936183198 
1545	 9.07675042329322E-02 
1546	 0.090778757753146 
1547	 9.07739561064534E-02 
1548	 9.07603672286165E-02 
1549	 0.090756020489902 
1550	 9.07487567852623E-02 
1551	 0.090734598629786 
1552	 9.07321223207658E-02 
1553	 9.07307107902371E-02 
1554	 9.07167083418452E-02 
1555	 9.07116124383102E-02 
1556	 9.07234336755004E-02 
1557	 0.090717244115523 
1558	 9.06987019808719E-02 
1559	 9.06970066731326E-02 
1560	 9.06941228687658E-02 
1561	 9.06805359293726E-02 
1562	 9.06802720544261E-02 
1563	 0.090699285742018 
1564	 9.06970728471792E-02 
1565	 9.06835543302183E-02 
1566	 9.06823451271222E-02 
1567	 9.06867002078008E-02 
1568	 9.06775821064331E-02 
1569	 9.06698079388923E-02 
1570	 9.06499548116176E-02 
1571	 9.06081377652737E-02 
1572	 9.05856179337723E-02 
1573	 9.05671504907349E-02 
1574	 9.05538733958701E-02 
1575	 9.05501762629584E-02 
1576	 9.05400128328981E-02 
1577	 9.05292084011598E-02 
1578	 9.05182671253728E-02 
1579	 9.05095600341094E-02 
1580	 9.04961446594353E-02 
1581	 9.04839276651691E-02 
1582	 9.04665780782993E-02 
1583	 9.04359305676052E-02 
1584	 0.09041624509894 
1585	 9.04017829443715E-02 
1586	 9.03839131830107E-02 
1587	 9.03766129502682E-02 
1588	 9.03549496569388E-02 
1589	 9.03014576509869E-02 
1590	 9.02873560424712E-02 
1591	 9.02972158742586E-02 
1592	 9.02927265904343E-02 
1593	 9.03180880380749E-02 
1594	 9.03185844855616E-02 
1595	 9.02814266008789E-02 
1596	 0.090262918068766 
1597	 9.02442087231016E-02 
1598	 9.02329851545509E-02 
1599	 9.02448948507567E-02 
1600	 9.02351677900543E-02 
1601	 9.02120394138796E-02 
1602	 9.01981859372277E-02 
1603	 9.01764482081451E-02 
1604	 9.01528174268798E-02 
1605	 9.01394756274468E-02 
1606	 9.01201655858329E-02 
1607	 9.00918865817233E-02 
1608	 9.00582470067576E-02 
1609	 9.00433092169591E-02 
1610	 9.00288576783966E-02 
1611	 8.99977253245083E-02 
1612	 8.99771145077635E-02 
1613	 8.99634318929386E-02 
1614	 8.99507365845699E-02 
1615	 8.99339402141045E-02 
1616	 0.089916047562819 
1617	 8.98810288215099E-02 
1618	 8.98312507116903E-02 
1619	 8.98091253709812E-02 
1620	 8.98087048662293E-02 
1621	 8.98025670688795E-02 
1622	 0.089813430945571 
1623	 8.98045064826764E-02 
1624	 8.97917982602325E-02 
1625	 8.97646804686599E-02 
1626	 8.97213259119356E-02 
1627	 8.96937988239926E-02 
1628	 0.089658258512847 
1629	 0.089637131473722 
1630	 8.96369866429089E-02 
1631	 8.96154779825826E-02 
1632	 8.95828271728683E-02 
1633	 8.95660121173276E-02 
1634	 8.95476043811727E-02 
1635	 8.95335711054269E-02 
1636	 8.95344125242915E-02 
1637	 8.95235873510394E-02 
1638	 8.95076897596927E-02 
1639	 8.94889244207731E-02 
1640	 8.94712908443536E-02 
1641	 8.94443263910661E-02 
1642	 8.94047504313601E-02 
1643	 8.93767718751318E-02 
1644	 8.93453706424543E-02 
1645	 8.93233102091371E-02 
1646	 8.93125703919939E-02 
1647	 8.92952170617787E-02 
1648	 8.92769714963805E-02 
1649	 8.92639945876539E-02 
1650	 8.92545605457638E-02 
1651	 8.92391758374955E-02 
1652	 8.92311266257768E-02 
1653	 8.92069675997578E-02 
1654	 0.089164550635198 
1655	 8.91375278110848E-02 
1656	 8.91094796251179E-02 
1657	 8.90845545968895E-02 
1658	 0.089068584976048 
1659	 8.90492718251247E-02 
1660	 8.90266830337721E-02 
1661	 8.90068992723347E-02 
1662	 8.89913682733062E-02 
1663	 8.89732607081333E-02 
1664	 8.89541424981367E-02 
1665	 8.89344229364904E-02 
1666	 8.89169506449439E-02 
1667	 8.88933615395878E-02 
1668	 8.88651181907377E-02 
1669	 8.88381656449443E-02 
1670	 8.88021271014584E-02 
1671	 8.87810868119617E-02 
1672	 8.87751605258602E-02 
1673	 8.87520531376843E-02 
1674	 8.87314201368713E-02 
1675	 8.87023112966819E-02 
1676	 8.86504673984708E-02 
1677	 8.86195199903439E-02 
1678	 0.088596772549993 
1679	 8.85754025256882E-02 
1680	 8.85666556757411E-02 
1681	 8.85456459644696E-02 
1682	 8.85208516860942E-02 
1683	 8.84961814949407E-02 
1684	 8.84646720493529E-02 
1685	 8.84370633900983E-02 
1686	 8.84045900115232E-02 
1687	 8.83882019441831E-02 
1688	 8.83842338732849E-02 
1689	 8.83725865336059E-02 
1690	 8.83793214671857E-02 
1691	 8.83586427573599E-02 
1692	 8.83095953866277E-02 
1693	 8.82824942081754E-02 
1694	 8.82537814569288E-02 
1695	 0.088225953145886 
1696	 8.82128554810635E-02 
1697	 8.81878458637396E-02 
1698	 8.81554641666799E-02 
1699	 8.81212472998311E-02 
1700	 8.80804776215856E-02 
1701	 8.80473823163105E-02 
1702	 8.80168396707293E-02 
1703	 8.79781862715412E-02 
1704	 8.79346017395757E-02 
1705	 8.79044617906746E-02 
1706	 8.78716076906289E-02 
1707	 8.78461060286913E-02 
1708	 8.78444883781452E-02 
1709	 8.78194588498358E-02 
1710	 8.77683835513939E-02 
1711	 8.77536454946508E-02 
1712	 0.0877617597523 
1713	 8.77441896883935E-02 
1714	 8.77393516021974E-02 
1715	 8.77122206810829E-02 
1716	 8.76465632924383E-02 
1717	 0.087608741262516 
1718	 8.75818327584633E-02 
1719	 8.75513533920742E-02 
1720	 8.75208772948714E-02 
1721	 8.74978769573665E-02 
1722	 8.74825742561992E-02 
1723	 0.087462450510808 
1724	 8.74528498717261E-02 
1725	 8.74223287299862E-02 
1726	 8.73733886788909E-02 
1727	 8.73378478002457E-02 
1728	 0.087301759720555 
1729	 8.72561839838155E-02 
1730	 8.72102576248974E-02 
1731	 8.71719275353705E-02 
1732	 0.087128037484578 
1733	 8.70821100192275E-02 
1734	 8.70399608624649E-02 
1735	 8.70083318129136E-02 
1736	 8.69729523077519E-02 
1737	 8.69372250185754E-02 
1738	 8.69253323942136E-02 
1739	 8.68838391574629E-02 
1740	 8.68115456564726E-02 
1741	 8.67735141825726E-02 
1742	 8.67446792234271E-02 
1743	 8.67088898845719E-02 
1744	 8.66875409406198E-02 
1745	 8.66519090159594E-02 
1746	 8.66021123612883E-02 
1747	 8.65506424168855E-02 
1748	 8.65071249650586E-02 
1749	 8.64702305264394E-02 
1750	 8.64539509996523E-02 
1751	 8.64340014497719E-02 
1752	 8.64081431240495E-02 
1753	 8.63754491154256E-02 
1754	 8.63193302053043E-02 
1755	 8.62577153322332E-02 
1756	 8.62116634191874E-02 
1757	 8.61801898738834E-02 
1758	 8.61357813052475E-02 
1759	 0.086111194739117 
1760	 8.60999859921503E-02 
1761	 8.60504759136644E-02 
1762	 8.60067152699129E-02 
1763	 8.59596448139863E-02 
1764	 8.59024145709978E-02 
1765	 8.58919544043964E-02 
1766	 8.58763558685787E-02 
1767	 8.58337307061285E-02 
1768	 8.57963543931204E-02 
1769	 8.57326409185782E-02 
1770	 8.56759020404397E-02 
1771	 8.56476038135701E-02 
1772	 8.56155099601861E-02 
1773	 8.55868335539853E-02 
1774	 8.55587386918487E-02 
1775	 8.55384153951536E-02 
1776	 8.55162731216447E-02 
1777	 8.54684518795274E-02 
1778	 8.54111657893275E-02 
1779	 8.53701235141238E-02 
1780	 8.53293359178675E-02 
1781	 8.52791669703269E-02 
1782	 8.52500756577715E-02 
1783	 8.51964827897167E-02 
1784	 8.51759161358604E-02 
1785	 8.52145995705581E-02 
1786	 8.52059458760018E-02 
1787	 8.51806605736945E-02 
1788	 8.51579234244405E-02 
1789	 8.51094503023138E-02 
1790	 8.50786211022762E-02 
1791	 8.50719551152142E-02 
1792	 8.50446740443261E-02 
1793	 8.49942066551453E-02 
1794	 8.49607648446227E-02 
1795	 8.49265677298876E-02 
1796	 8.49039895218761E-02 
1797	 8.49078972030481E-02 
1798	 8.48914768020867E-02 
1799	 8.48530585984186E-02 
1800	 8.48495602966437E-02 
1801	 0.081486754954554 
1802	 0.08152311745061 
1803	 8.15251677148748E-02 
1804	 8.15293976540454E-02 
1805	 8.15057434638552E-02 
1806	 8.14791469155938E-02 
1807	 8.14894724991809E-02 
1808	 8.14949564463055E-02 
1809	 8.15197114922696E-02 
1810	 8.15415679520672E-02 
1811	 8.15694664045011E-02 
1812	 8.15799282746972E-02 
1813	 8.16118436158702E-02 
1814	 8.16121241587873E-02 
1815	 8.15759509724142E-02 
1816	 0.081565155784562 
1817	 8.15623556295279E-02 
1818	 8.15561985452965E-02 
1819	 8.15508058071107E-02 
1820	 8.15685951677707E-02 
1821	 0.08156712009289 
1822	 8.15188470992582E-02 
1823	 8.15026639787464E-02 
1824	 8.15141760741637E-02 
1825	 8.15143458568038E-02 
1826	 8.15272620267856E-02 
1827	 0.081545386045918 
1828	 8.15468583872242E-02 
1829	 8.15229136342999E-02 
1830	 8.15059627843717E-02 
1831	 8.15018384409222E-02 
1832	 8.14670260184829E-02 
1833	 8.14019433318401E-02 
1834	 8.13711683892163E-02 
1835	 8.13296084565816E-02 
1836	 8.13104907713633E-02 
1837	 0.081336552900931 
1838	 8.13337046178449E-02 
1839	 8.13195379380516E-02 
1840	 8.12979018588976E-02 
1841	 8.12819808627752E-02 
1842	 8.12272450932787E-02 
1843	 8.11889185597477E-02 
1844	 8.11869149801411E-02 
1845	 8.11494041265273E-02 
1846	 8.11307394591856E-02 
1847	 8.11086513924181E-02 
1848	 8.10552595580963E-02 
1849	 8.10425794862835E-02 
1850	 8.10176630767511E-02 
1851	 8.09886941765375E-02 
1852	 8.09635763446812E-02 
1853	 8.09475105315405E-02 
1854	 8.08871570045628E-02 
1855	 8.08440209993339E-02 
1856	 8.08198997486842E-02 
1857	 8.07808805510631E-02 
1858	 8.07540831421902E-02 
1859	 8.07232526971462E-02 
1860	 8.06759675516192E-02 
1861	 8.06053897968515E-02 
1862	 8.05551146529001E-02 
1863	 8.04976873383672E-02 
1864	 8.04233628534059E-02 
1865	 8.03797752832362E-02 
1866	 8.03279249392702E-02 
1867	 8.02617124575935E-02 
1868	 8.01999192512962E-02 
1869	 0.080117941611612 
1870	 8.00089320100377E-02 
1871	 7.99009159059894E-02 
1872	 7.97916364075193E-02 
1873	 7.96696613059553E-02 
1874	 7.95208581868759E-02 
1875	 7.93821599152213E-02 
1876	 7.92227287876443E-02 
1877	 7.90428059108966E-02 
1878	 7.88643409133043E-02 
1879	 7.86744830329188E-02 
1880	 0.078474184186953 
1881	 7.82597163412545E-02 
1882	 7.80373735294925E-02 
1883	 7.78121886323262E-02 
1884	 7.75681900897553E-02 
1885	 7.72910649835004E-02 
1886	 0.077008771032557 
1887	 7.67136463747926E-02 
1888	 7.63989757742775E-02 
1889	 7.60832634796855E-02 
1890	 7.57457673701373E-02 
1891	 7.53920939564995E-02 
1892	 0.075003153958841 
1893	 7.46287878053723E-02 
1894	 7.42423428016173E-02 
1895	 7.38683880212529E-02 
1896	 7.34900795018947E-02 
1897	 7.31092522183766E-02 
1898	 7.27137021838506E-02 
1899	 0.072313594931826 
1900	 7.19191595323334E-02 
1901	 7.15187216045734E-02 
1902	 7.11368744501925E-02 
1903	 7.07649415878265E-02 
1904	 7.04032606916579E-02 
1905	 7.00427601781004E-02 
1906	 6.97218087613597E-02 
1907	 0.069425467078814 
1908	 6.91165349598484E-02 
1909	 6.88174358866042E-02 
1910	 6.85437612079274E-02 
1911	 6.82794297573374E-02 
1912	 0.068034544802261 
1913	 6.78022033594875E-02 
1914	 6.76092000530531E-02 
1915	 6.73942102355019E-02 
1916	 6.71654615009129E-02 
1917	 6.69581774783207E-02 
1918	 6.67708946882016E-02 
1919	 6.65973718369945E-02 
1920	 0.066452376863879 
1921	 6.63202259998711E-02 
1922	 0.066185140236301 
1923	 6.60726945861727E-02 
1924	 6.59721336351795E-02 
1925	 6.58908642246133E-02 
1926	 6.58066452152937E-02 
1927	 6.57349911594562E-02 
1928	 6.56647309903076E-02 
1929	 6.55898982012665E-02 
1930	 6.55295038023219E-02 
1931	 6.54875280925271E-02 
1932	 0.065452544003613 
1933	 6.54250650486591E-02 
1934	 6.53960319362948E-02 
1935	 6.53735576842959E-02 
1936	 6.53499255414421E-02 
1937	 6.53404718903632E-02 
1938	 0.065345603831917 
1939	 6.53504218147189E-02 
1940	 6.53659015420917E-02 
1941	 6.53717905688681E-02 
1942	 0.065394900663985 
1943	 0.065412680878227 
1944	 6.54259168185966E-02 
1945	 6.54536000151892E-02 
1946	 6.54720498399197E-02 
1947	 6.54737734217811E-02 
1948	 6.54926696773417E-02 
1949	 6.55228698500578E-02 
1950	 6.55519581864095E-02 
1951	 6.55853065244217E-02 
1952	 6.56124426743853E-02 
1953	 6.56606874984607E-02 
1954	 0.065721533751357 
1955	 6.57968798442805E-02 
1956	 6.58830429614184E-02 
1957	 6.59493958023559E-02 
1958	 6.60014512169835E-02 
1959	 6.60670387825208E-02 
1960	 6.61218163189635E-02 
1961	 6.61951807098028E-02 
1962	 6.62929033696769E-02 
1963	 6.63779768828722E-02 
1964	 6.64592187128107E-02 
1965	 6.65452456916432E-02 
1966	 6.66340373485376E-02 
1967	 6.67297091002498E-02 
1968	 0.066829031611493 
1969	 6.69441213243447E-02 
1970	 6.70407758745471E-02 
1971	 6.71301204594772E-02 
1972	 6.72237263642592E-02 
1973	 6.73080127302522E-02 
1974	 6.74020891964291E-02 
1975	 0.067509618757468 
1976	 6.76066936717018E-02 
1977	 6.76987280252859E-02 
1978	 6.77772724012067E-02 
1979	 6.78738647191532E-02 
1980	 6.79700233042825E-02 
1981	 6.80552885305213E-02 
1982	 6.81390852154885E-02 
1983	 6.82341929023983E-02 
1984	 6.83253269652723E-02 
1985	 6.84122828494579E-02 
1986	 6.85096010271249E-02 
1987	 6.86014969797576E-02 
1988	 6.86743926806143E-02 
1989	 6.87598058437031E-02 
1990	 6.88566485002578E-02 
1991	 6.89644545754266E-02 
1992	 6.90626594970688E-02 
1993	 6.91605704358067E-02 
1994	 6.92545523916237E-02 
1995	 6.93405653117861E-02 
1996	 6.94356289302036E-02 
1997	 6.95385481901142E-02 
1998	 6.96322925648327E-02 
1999	 0.069722532066162 
2000	 6.98182025632388E-02 
2001	 6.99103117734126E-02 
2002	 6.99993745140269E-02 
2003	 7.01071659896397E-02 
2004	 7.02168453359902E-02 
2005	 7.03278089261446E-02 
2006	 7.04597424375405E-02 
2007	 7.05540306595779E-02 
2008	 7.06321234371427E-02 
2009	 7.07076954169349E-02 
2010	 7.07412207167114E-02 
2011	 7.08137180234555E-02 
2012	 7.08971359824605E-02 
2013	 0.070994298618794 
2014	 7.11168662633944E-02 
2015	 7.12468845318664E-02 
2016	 7.13547427085926E-02 
2017	 7.14543975421416E-02 
2018	 7.15528380974937E-02 
2019	 7.16369224451675E-02 
2020	 7.17193875343823E-02 
2021	 7.18028207685942E-02 
2022	 7.18851861455956E-02 
2023	 7.19468810669264E-02 
2024	 7.20300740154133E-02 
2025	 7.21418309021827E-02 
2026	 0.072226500765513 
2027	 7.23078641743156E-02 
2028	 7.23826924485352E-02 
2029	 0.072451589566161 
2030	 7.24930317425201E-02 
2031	 7.25680698139257E-02 
2032	 7.26677276024194E-02 
2033	 7.27387946176735E-02 
2034	 7.28086976156718E-02 
2035	 7.28726568158586E-02 
2036	 7.29139428230154E-02 
2037	 0.072965652619598 
2038	 7.30209976205289E-02 
2039	 7.30806008059619E-02 
2040	 7.31417877688823E-02 
2041	 7.32074163180345E-02 
2042	 7.32599724057445E-02 
2043	 7.33174554801141E-02 
2044	 7.33609460384839E-02 
2045	 7.33774097973978E-02 
2046	 0.07342355523283 
2047	 7.34845280281844E-02 
2048	 7.35289683474111E-02 
2049	 7.35778940040759E-02 
2050	 7.36267118354186E-02 
2051	 7.36647342968466E-02 
2052	 7.37068922983973E-02 
2053	 7.37669882770879E-02 
2054	 7.38054370454885E-02 
2055	 7.38218913425499E-02 
2056	 7.38456650636033E-02 
2057	 7.38725640063817E-02 
2058	 7.38866563900026E-02 
2059	 7.39236290860435E-02 
2060	 7.39790614903757E-02 
2061	 7.40284759651684E-02 
2062	 7.40853954684565E-02 
2063	 7.41400446141319E-02 
2064	 7.42030742886639E-02 
2065	 7.42507012480762E-02 
2066	 7.42889475443588E-02 
2067	 7.43301222165024E-02 
2068	 7.43685554097686E-02 
2069	 0.074390849577713 
2070	 0.07443550438705 
2071	 7.44982535743664E-02 
2072	 7.45378863844816E-02 
2073	 7.45757552620386E-02 
2074	 7.46120594385196E-02 
2075	 0.074631884024532 
2076	 0.074660473319586 
2077	 7.46896668751545E-02 
2078	 7.47304022857163E-02 
2079	 7.47772326282349E-02 
2080	 7.48220043418287E-02 
2081	 7.48810540156175E-02 
2082	 7.49313737971573E-02 
2083	 0.074959911445716 
2084	 7.50158466169363E-02 
2085	 7.50629760031967E-02 
2086	 7.51137427296949E-02 
2087	 7.51596585923018E-02 
2088	 7.52213992556818E-02 
2089	 7.52411433436874E-02 
2090	 7.52240412737521E-02 
2091	 7.52392215342122E-02 
2092	 7.52328146630364E-02 
2093	 7.52537195185636E-02 
2094	 0.075321686861287 
2095	 7.53634321604331E-02 
2096	 7.53903076846149E-02 
2097	 7.54268274044261E-02 
2098	 7.54672813239937E-02 
2099	 7.55031414488477E-02 
2100	 0.075535701736709 
2101	 7.55675968819053E-02 
2102	 7.56094890669395E-02 
2103	 7.56507992618528E-02 
2104	 7.56889825122026E-02 
2105	 0.07574078353303 
2106	 7.57804350623982E-02 
2107	 0.07580218207096 
2108	 7.58359450112154E-02 
2109	 7.58837177132622E-02 
2110	 7.59145205837831E-02 
2111	 7.59243558885692E-02 
2112	 7.59570498277967E-02 
2113	 7.59920377949734E-02 
2114	 7.60316535900091E-02 
2115	 7.60756302896967E-02 
2116	 7.61404071028129E-02 
2117	 7.61907917235796E-02 
2118	 7.62317648111147E-02 
2119	 7.62788117764821E-02 
2120	 7.63376583239129E-02 
2121	 7.63798798279502E-02 
2122	 7.64227886490883E-02 
2123	 0.076444687708541 
2124	 7.64346191260527E-02 
2125	 7.64491827762544E-02 
2126	 7.64706791838162E-02 
2127	 7.64795165465856E-02 
2128	 7.64910906288032E-02 
2129	 7.65053219073363E-02 
2130	 7.65132802705598E-02 
2131	 7.65042146888927E-02 
2132	 7.65169863842581E-02 
2133	 7.65558502520942E-02 
2134	 7.65647709485002E-02 
2135	 7.65683180287649E-02 
2136	 7.65612140478984E-02 
2137	 7.65207274028302E-02 
2138	 7.65205704922637E-02 
2139	 7.65503176219997E-02 
2140	 7.65453133115304E-02 
2141	 7.65552840663117E-02 
2142	 7.65381273328002E-02 
2143	 7.64726044974882E-02 
2144	 7.64247333429643E-02 
2145	 7.63748898341893E-02 
2146	 7.63290694971206E-02 
2147	 7.62848158490463E-02 
2148	 7.62456893411571E-02 
2149	 7.61955964270085E-02 
2150	 7.61383658979374E-02 
2151	 7.61010284958967E-02 
2152	 7.60670931382891E-02 
2153	 7.60265369042678E-02 
2154	 0.076008760501742 
2155	 7.59626537333205E-02 
2156	 7.58858047458276E-02 
2157	 7.58296710806923E-02 
2158	 7.57851578548444E-02 
2159	 7.57208659614607E-02 
2160	 7.56458654608506E-02 
2161	 7.55785317464559E-02 
2162	 7.55028442969033E-02 
2163	 7.54265759126594E-02 
2164	 7.53655210737357E-02 
2165	 7.52938134220051E-02 
2166	 7.52086983704407E-02 
2167	 7.50945598521826E-02 
2168	 7.50219552131552E-02 
2169	 7.49588211226114E-02 
2170	 7.48950006387349E-02 
2171	 7.48562030006509E-02 
2172	 7.48023444960006E-02 
2173	 7.47432133537721E-02 
2174	 0.074676572942811 
2175	 7.46033282960294E-02 
2176	 7.45359039756178E-02 
2177	 7.44568934807286E-02 
2178	 0.074386665814428 
2179	 7.43420179588337E-02 
2180	 7.42736904211826E-02 
2181	 7.41789915485063E-02 
2182	 7.41028298410988E-02 
2183	 7.40128179814885E-02 
2184	 7.39479136573341E-02 
2185	 7.38885025362972E-02 
2186	 7.38603375167308E-02 
2187	 7.37954695715771E-02 
2188	 7.37245872058098E-02 
2189	 7.36451035875339E-02 
2190	 7.35319443606224E-02 
2191	 7.34565473598707E-02 
2192	 7.33926176188918E-02 
2193	 7.33340579539528E-02 
2194	 7.32990436046424E-02 
2195	 7.32535720231946E-02 
2196	 7.32016548103329E-02 
2197	 7.31596134720918E-02 
2198	 7.31162334509579E-02 
2199	 7.30872577426736E-02 
2200	 7.30809047872835E-02 
2201	 7.30610838396216E-02 
2202	 7.30619935751731E-02 
2203	 7.30282898903036E-02 
2204	 7.29911955932605E-02 
2205	 7.29345644527152E-02 
2206	 7.28952874061085E-02 
2207	 7.28519655422751E-02 
2208	 7.28128205107429E-02 
2209	 7.27758849652592E-02 
2210	 7.27492949039229E-02 
2211	 7.27224329817919E-02 
2212	 7.27049409719336E-02 
2213	 7.27067496877297E-02 
2214	 7.26983180050727E-02 
2215	 7.26890728217066E-02 
2216	 7.26816738406538E-02 
2217	 7.26769217989749E-02 
2218	 7.26690747982588E-02 
2219	 7.26518029053458E-02 
2220	 7.26473056121336E-02 
2221	 0.072652542698281 
2222	 7.26482003325974E-02 
2223	 7.26729446416853E-02 
2224	 7.26733424181023E-02 
2225	 7.26767493170581E-02 
2226	 7.26789939419734E-02 
2227	 7.26762635777988E-02 
2228	 7.26620348902028E-02 
2229	 7.26661168777109E-02 
2230	 7.26765461818857E-02 
2231	 7.26766203330732E-02 
2232	 7.26783618582026E-02 
2233	 7.26850130412283E-02 
2234	 0.072682516680691 
2235	 7.26892050243644E-02 
2236	 0.072727257990234 
2237	 7.27297157941361E-02 
2238	 7.27249727859671E-02 
2239	 7.26987354887439E-02 
2240	 7.26172204510474E-02 
2241	 0.072579000859181 
2242	 7.25436005202698E-02 
2243	 7.25192950503275E-02 
2244	 0.072519471110162 
2245	 7.25339310442537E-02 
2246	 7.25489793679916E-02 
2247	 7.25433712495289E-02 
2248	 7.25466263682772E-02 
2249	 7.25702481074681E-02 
2250	 0.072542741047081 
2251	 7.24866941180234E-02 
2252	 0.07244363089987 
2253	 7.23705725657732E-02 
2254	 7.23247211987971E-02 
2255	 7.22927333945488E-02 
2256	 7.22658517019696E-02 
2257	 7.22434780506499E-02 
2258	 7.22241008478967E-02 
2259	 7.22135768558034E-02 
2260	 7.22101445808477E-02 
2261	 7.22067884169425E-02 
2262	 7.22137231486153E-02 
2263	 7.22514549445126E-02 
2264	 7.22615962403682E-02 
2265	 7.22666263215735E-02 
2266	 0.072264852406588 
2267	 7.22156313847265E-02 
2268	 7.22124644703812E-02 
2269	 7.22506148271828E-02 
2270	 7.22677412989232E-02 
2271	 7.22560525942925E-02 
2272	 7.22707751084292E-02 
2273	 7.22378282351345E-02 
2274	 7.21951918094894E-02 
2275	 0.072195242385968 
2276	 7.22264651931533E-02 
2277	 7.22487207072858E-02 
2278	 7.22949077136259E-02 
2279	 7.23189046152774E-02 
2280	 7.23481342252583E-02 
2281	 7.23552119736849E-02 
2282	 7.23223954119436E-02 
2283	 7.23322474194254E-02 
2284	 7.23535466680259E-02 
2285	 7.23720568368637E-02 
2286	 7.24382759445153E-02 
2287	 7.24488122441808E-02 
2288	 7.24074008462379E-02 
2289	 7.23934072942459E-02 
2290	 7.23570021592908E-02 
2291	 7.23449592915226E-02 
2292	 7.23655051023493E-02 
2293	 7.23721413857337E-02 
2294	 7.23865563063713E-02 
2295	 7.23964160749234E-02 
2296	 7.24003311849839E-02 
2297	 0.07239969947633 
2298	 7.24254648630289E-02 
2299	 7.24136923290823E-02 
2300	 7.23721602665774E-02 
2301	 7.23354991668722E-02 
2302	 7.22783944745613E-02 
2303	 7.22136231485281E-02 
2304	 7.21737623098451E-02 
2305	 7.21632662795534E-02 
2306	 7.21722538836432E-02 
2307	 7.22109052731642E-02 
2308	 0.072228398280438 
2309	 7.22675676116976E-02 
2310	 7.22869175740262E-02 
2311	 7.22878766519931E-02 
2312	 7.22863313899335E-02 
2313	 7.22885591602355E-02 
2314	 0.072279790218596 
2315	 7.22627847409346E-02 
2316	 7.22309392379911E-02 
2317	 7.21787103410211E-02 
2318	 0.072140426414902 
2319	 7.20847394433058E-02 
2320	 7.20371901269298E-02 
2321	 0.072004129797854 
2322	 7.19768893343576E-02 
2323	 7.19608449376821E-02 
2324	 7.19381947549042E-02 
2325	 7.19012663271484E-02 
2326	 7.18943434800539E-02 
2327	 7.19082692799523E-02 
2328	 7.18957397560143E-02 
2329	 0.071910097781076 
2330	 7.19274736776072E-02 
2331	 7.19107092431013E-02 
2332	 0.071888914764084 
2333	 7.18778611675458E-02 
2334	 7.18800906991631E-02 
2335	 7.18727019952888E-02 
2336	 7.18370462744949E-02 
2337	 7.18308929863899E-02 
2338	 7.18401457824336E-02 
2339	 7.18199818628588E-02 
2340	 7.18600852785692E-02 
2341	 7.18877587264594E-02 
2342	 7.18743780562696E-02 
2343	 7.18572826140582E-02 
2344	 7.18209851282581E-02 
2345	 7.17985792316644E-02 
2346	 0.071754174124904 
2347	 7.17174320619107E-02 
2348	 0.071705901686055 
2349	 7.16656499362075E-02 
2350	 7.15941351048539E-02 
2351	 7.15710261611802E-02 
2352	 7.15682042639865E-02 
2353	 7.15377191561566E-02 
2354	 7.15141256779166E-02 
2355	 7.15013746193424E-02 
2356	 7.14946841228586E-02 
2357	 7.14604167134049E-02 
2358	 7.14351491162699E-02 
2359	 7.13528216211843E-02 
2360	 7.12004838396185E-02 
2361	 7.10908944243781E-02 
2362	 7.09612314664616E-02 
2363	 0.07088862988544 
2364	 7.08252470783344E-02 
2365	 7.08045367979168E-02 
2366	 7.08979898955251E-02 
2367	 7.08962402972361E-02 
2368	 7.08602544927205E-02 
2369	 7.08379378931649E-02 
2370	 7.07795571467706E-02 
2371	 7.07221248924763E-02 
2372	 7.06444591260429E-02 
2373	 7.05661257739439E-02 
2374	 7.04354655991902E-02 
2375	 7.02676469146035E-02 
2376	 7.01787171559276E-02 
2377	 7.01443306771903E-02 
2378	 7.01109863997733E-02 
2379	 7.00333246455222E-02 
2380	 7.00332564025616E-02 
2381	 7.00279240883357E-02 
2382	 6.99660418021989E-02 
2383	 6.99906142142349E-02 
2384	 6.99257744381963E-02 
2385	 6.97826482415306E-02 
2386	 6.96926394240856E-02 
2387	 6.95704688120448E-02 
2388	 6.94244847673374E-02 
2389	 6.93134462047873E-02 
2390	 6.92681792779593E-02 
2391	 6.92303050785239E-02 
2392	 6.92153666114408E-02 
2393	 6.92430155832756E-02 
2394	 6.91517320747511E-02 
2395	 0.069042625487082 
2396	 6.89509894558378E-02 
2397	 6.88301772162961E-02 
2398	 6.88159298495254E-02 
2399	 6.88102707087046E-02 
2400	 6.87643338950713E-02 
2401	 6.87440994474499E-02 
2402	 6.86779879720558E-02 
2403	 0.068590597599829 
2404	 6.84607099122638E-02 
2405	 6.83233041478957E-02 
2406	 6.82125498050626E-02 
2407	 6.80085743168624E-02 
2408	 6.79172596112792E-02 
2409	 6.78734924295294E-02 
2410	 6.77350206609536E-02 
2411	 6.76507141388726E-02 
2412	 6.75349611350265E-02 
2413	 6.74291167254241E-02 
2414	 6.73027862592869E-02 
2415	 6.71678309063674E-02 
2416	 6.71284842702198E-02 
2417	 6.71332698182944E-02 
2418	 6.71031572081203E-02 
2419	 6.71824220440395E-02 
2420	 0.067207240251834 
2421	 6.71901045158772E-02 
2422	 6.71468797466761E-02 
2423	 6.70742436142581E-02 
2424	 6.70005662913757E-02 
2425	 6.68599121606585E-02 
2426	 6.67619748048451E-02 
2427	 6.67327988452932E-02 
2428	 6.66759333193603E-02 
2429	 6.65922059386777E-02 
2430	 6.64942996132509E-02 
2431	 6.63912809149998E-02 
2432	 6.62797399664047E-02 
2433	 0.066192322126587 
2434	 6.60568968096811E-02 
2435	 6.58191392387535E-02 
2436	 6.56914860946904E-02 
2437	 6.55441869980849E-02 
2438	 6.54744454292522E-02 
2439	 6.56227682324207E-02 
2440	 6.56235643307147E-02 
2441	 6.55834480651213E-02 
2442	 6.55121756245333E-02 
2443	 6.52991395458221E-02 
2444	 6.51851332377178E-02 
2445	 6.51252192595938E-02 
2446	 6.49777676714031E-02 
2447	 0.064821401531053 
2448	 6.46984690731817E-02 
2449	 6.45397861779686E-02 
2450	 6.44474344443459E-02 
2451	 6.44656334845856E-02 
2452	 6.44190925076001E-02 
2453	 6.43497289597212E-02 
2454	 6.41643493804693E-02 
2455	 6.38470584237912E-02 
2456	 6.36584519523547E-02 
2457	 6.34520010984455E-02 
2458	 6.33962688237745E-02 
2459	 6.35230192127734E-02 
2460	 6.35489652878697E-02 
2461	 6.35556456374966E-02 
2462	 6.35618538707401E-02 
2463	 0.063608292260136 
2464	 6.35329436464633E-02 
2465	 6.34378708010898E-02 
2466	 6.32894317244388E-02 
2467	 6.28943109535911E-02 
2468	 6.28149070100543E-02 
2469	 0.062967411509006 
2470	 6.29284609613759E-02 
2471	 6.30019063397259E-02 
2472	 6.29497285678931E-02 
2473	 6.25160385198474E-02 
2474	 6.23659955077465E-02 
2475	 6.22915493319191E-02 
2476	 6.21087237813633E-02 
2477	 6.22385174474163E-02 
2478	 6.22530838381925E-02 
2479	 6.21952686810799E-02 
2480	 0.062202270394038 
2481	 6.20783219713922E-02 
2482	 6.19631288662694E-02 
2483	 6.17601858200606E-02 
2484	 0.061482975153669 
2485	 6.13596815394263E-02 
2486	 6.14014107958735E-02 
2487	 0.061485439365246 
2488	 6.14347978234157E-02 
2489	 6.13006155492232E-02 
2490	 6.10694510633271E-02 
2491	 0.060821638118608 
2492	 6.08556530531216E-02 
2493	 6.08910532903088E-02 
2494	 6.08913072969135E-02 
2495	 6.09053848411812E-02 
2496	 6.08015488182455E-02 
2497	 6.08185689678753E-02 
2498	 6.06097884796781E-02 
2499	 6.02658623280777E-02 
2500	 0.060151432426431 
