Wavelength	LMW_1500003.asd
350	 0.057962322292144 
351	 0.067032752776563 
352	 6.20555726809703E-02 
353	 4.75172878697493E-02 
354	 4.81807337202919E-02 
355	 5.38971002225782E-02 
356	 0.059202285617768 
357	 6.02440693016156E-02 
358	 0.053801820557856 
359	 5.31927623904114E-02 
360	 5.76503688516924E-02 
361	 5.74897785167958E-02 
362	 5.37747236089395E-02 
363	 5.24848758777997E-02 
364	 5.41548979558987E-02 
365	 4.96803817687877E-02 
366	 4.92270205094013E-02 
367	 5.08426346313879E-02 
368	 5.05160986678824E-02 
369	 4.99783633915206E-02 
370	 5.09225073417242E-02 
371	 5.26636281165415E-02 
372	 5.29154177056544E-02 
373	 5.11626864934257E-02 
374	 5.06743671141254E-02 
375	 5.28963073881836E-02 
376	 5.58294873465979E-02 
377	 5.28086056940556E-02 
378	 5.07332002048039E-02 
379	 5.60957622719026E-02 
380	 5.54756652541777E-02 
381	 5.34222872810734E-02 
382	 5.24055358352605E-02 
383	 5.26542532098437E-02 
384	 5.23259362036221E-02 
385	 0.052017943565328 
386	 5.23926330777252E-02 
387	 0.053655590230007 
388	 5.41409018052222E-02 
389	 5.37395223919943E-02 
390	 5.32304736925099E-02 
391	 5.48838024280891E-02 
392	 5.50990672699316E-02 
393	 5.37512713063867E-02 
394	 5.37287110195313E-02 
395	 0.054475195661789 
396	 5.47203389997497E-02 
397	 5.40161189508106E-02 
398	 5.38629535041392E-02 
399	 5.40783593279119E-02 
400	 5.43777789127094E-02 
401	 5.44364512492293E-02 
402	 5.41535232751028E-02 
403	 5.41296497317381E-02 
404	 5.43829478474722E-02 
405	 5.43461971456428E-02 
406	 5.51187773493264E-02 
407	 5.61237283947682E-02 
408	 5.64250740853448E-02 
409	 5.47767916056224E-02 
410	 5.40014886218438E-02 
411	 5.43639134877704E-02 
412	 5.48536720008805E-02 
413	 5.51736062914008E-02 
414	 5.53251008508575E-02 
415	 5.52545154272218E-02 
416	 5.47602047574786E-02 
417	 5.45631963650897E-02 
418	 5.50681025787399E-02 
419	 5.61225995862712E-02 
420	 5.62415524967139E-02 
421	 5.55852312236822E-02 
422	 5.50094784206695E-02 
423	 5.55907786808575E-02 
424	 5.59911774278737E-02 
425	 5.60445775012748E-02 
426	 5.59684494581561E-02 
427	 5.63902383023927E-02 
428	 5.65153631426489E-02 
429	 5.64533367408946E-02 
430	 5.65091449846961E-02 
431	 5.63656158755472E-02 
432	 5.63308392007997E-02 
433	 5.65337334501338E-02 
434	 5.68921298862674E-02 
435	 5.69329898822803E-02 
436	 5.70607195003508E-02 
437	 5.73833165740603E-02 
438	 5.66148608185479E-02 
439	 0.056758137597146 
440	 5.74688225172409E-02 
441	 5.74032922314858E-02 
442	 5.75739843448537E-02 
443	 5.78899740563897E-02 
444	 5.81025942274744E-02 
445	 5.78704034569587E-02 
446	 5.79701380583291E-02 
447	 5.82062890781058E-02 
448	 5.82175057976276E-02 
449	 5.82010300775266E-02 
450	 5.85473725684095E-02 
451	 5.90071939369028E-02 
452	 5.88565759019607E-02 
453	 5.89457968082958E-02 
454	 5.91329686610675E-02 
455	 5.92192592293684E-02 
456	 5.92903762940914E-02 
457	 5.95208331391668E-02 
458	 5.97535047587549E-02 
459	 5.97322409623147E-02 
460	 5.97052253494906E-02 
461	 5.98531229136302E-02 
462	 6.01289255571843E-02 
463	 6.01868941252231E-02 
464	 6.01997260097497E-02 
465	 0.060368098503403 
466	 6.07676905221869E-02 
467	 6.09728907860952E-02 
468	 6.10557470842796E-02 
469	 6.11195791837623E-02 
470	 0.061272304196417 
471	 6.14308022828178E-02 
472	 6.15070407114686E-02 
473	 0.061511672517406 
474	 6.16779229704288E-02 
475	 6.19265525709452E-02 
476	 6.21932104888094E-02 
477	 0.062414600414393 
478	 6.25292922967724E-02 
479	 6.27415839048108E-02 
480	 6.30283637763036E-02 
481	 6.30184882193731E-02 
482	 6.32977846766728E-02 
483	 6.35249579008316E-02 
484	 6.33558682878151E-02 
485	 6.35064399450749E-02 
486	 0.063705697377947 
487	 6.38228887271644E-02 
488	 6.38769137485607E-02 
489	 6.40554128742206E-02 
490	 6.41720337229856E-02 
491	 6.41915817426329E-02 
492	 6.46701835777163E-02 
493	 0.064787412562496 
494	 6.46919199630567E-02 
495	 6.49128154793711E-02 
496	 6.50674732755947E-02 
497	 6.50447955315231E-02 
498	 6.49737919609481E-02 
499	 6.53073171541899E-02 
500	 6.54159418723313E-02 
501	 0.065488379427898 
502	 6.58108496355801E-02 
503	 6.59825365811765E-02 
504	 6.61233515654674E-02 
505	 6.61976295501872E-02 
506	 6.60381413330724E-02 
507	 6.61232060183412E-02 
508	 6.63622929918575E-02 
509	 0.066561976877841 
510	 6.65801372076584E-02 
511	 6.65517853887427E-02 
512	 6.65367106812138E-02 
513	 6.65531277946456E-02 
514	 6.66238506358495E-02 
515	 6.67064085113631E-02 
516	 6.68156981386552E-02 
517	 6.71058178910214E-02 
518	 0.067098103126285 
519	 6.69591295068104E-02 
520	 6.70117338750846E-02 
521	 6.71538830748604E-02 
522	 6.72769444029658E-02 
523	 6.73358335551375E-02 
524	 0.067353664751186 
525	 0.067216428598084 
526	 6.71603193172444E-02 
527	 6.73581026973956E-02 
528	 6.75713831634492E-02 
529	 6.76694266731776E-02 
530	 6.76439809629819E-02 
531	 6.75839576633353E-02 
532	 6.76386442187042E-02 
533	 6.77647751541871E-02 
534	 6.78821640113367E-02 
535	 0.067895270488759 
536	 6.78983107662663E-02 
537	 6.79453053178723E-02 
538	 6.80520866252246E-02 
539	 6.80925974154027E-02 
540	 6.81388559630513E-02 
541	 6.82076973764678E-02 
542	 0.068220503520362 
543	 6.82704590152657E-02 
544	 6.83370718611498E-02 
545	 6.83859676737464E-02 
546	 6.84668721379461E-02 
547	 6.85064252075754E-02 
548	 6.85149887981391E-02 
549	 6.85697476339234E-02 
550	 6.85567917201168E-02 
551	 6.85519224490666E-02 
552	 6.86256046596961E-02 
553	 6.87651329079101E-02 
554	 6.87894697168278E-02 
555	 0.068740856766229 
556	 6.87754464654513E-02 
557	 0.068873506840972 
558	 6.89700822896169E-02 
559	 0.069030086376142 
560	 0.069080268927505 
561	 6.91187371959445E-02 
562	 6.91083967704994E-02 
563	 6.90372999179397E-02 
564	 6.90960087959587E-02 
565	 6.91244225522203E-02 
566	 6.91111075487177E-02 
567	 6.92292773444441E-02 
568	 6.92784915820131E-02 
569	 6.93411390131644E-02 
570	 6.94787804171975E-02 
571	 0.069449874022354 
572	 6.94020616780506E-02 
573	 0.069398507848432 
574	 6.94337722563846E-02 
575	 6.94558118680728E-02 
576	 6.94871073467868E-02 
577	 6.95239154969172E-02 
578	 0.069466039588665 
579	 6.94561836148572E-02 
580	 6.94855960092451E-02 
581	 6.94852499648542E-02 
582	 6.94734036921564E-02 
583	 6.94246138214258E-02 
584	 6.93558407281674E-02 
585	 6.93477222312989E-02 
586	 6.93318278769291E-02 
587	 6.93142321260322E-02 
588	 6.93209697124979E-02 
589	 0.069376553896593 
590	 6.93851934154795E-02 
591	 6.93297550783028E-02 
592	 6.92692092196883E-02 
593	 6.92216987434658E-02 
594	 6.92077973626117E-02 
595	 6.92311350508414E-02 
596	 6.92610758872271E-02 
597	 6.92875794435456E-02 
598	 0.069305872636263 
599	 6.93172768870272E-02 
600	 6.93391809876856E-02 
601	 6.93497402384022E-02 
602	 6.93420520818964E-02 
603	 6.93472673264738E-02 
604	 6.92972425066027E-02 
605	 6.92590683054652E-02 
606	 6.93164729222678E-02 
607	 6.93655085009264E-02 
608	 6.93923559349338E-02 
609	 6.94021818587034E-02 
610	 6.94154169517649E-02 
611	 6.94234680805305E-02 
612	 6.94320444131494E-02 
613	 6.94464378679975E-02 
614	 6.94636985534285E-02 
615	 0.069456711597168 
616	 6.94368514117842E-02 
617	 6.94433947008466E-02 
618	 0.069504884447889 
619	 6.95398745428263E-02 
620	 6.95139681197138E-02 
621	 6.95248183046366E-02 
622	 6.95697644274945E-02 
623	 6.95926737939835E-02 
624	 6.95404911435683E-02 
625	 6.95592977719941E-02 
626	 6.95983068880466E-02 
627	 6.96192395585941E-02 
628	 6.96215345314519E-02 
629	 6.96560321365515E-02 
630	 6.96942778351592E-02 
631	 6.97003843851566E-02 
632	 6.96991647937724E-02 
633	 6.97194667644576E-02 
634	 6.97423208397484E-02 
635	 6.97206526916067E-02 
636	 6.98295853568012E-02 
637	 6.99122667758946E-02 
638	 6.98630210599311E-02 
639	 6.98326985623933E-02 
640	 6.98586692309324E-02 
641	 6.99281174996761E-02 
642	 0.069992828039979 
643	 6.99963820098927E-02 
644	 6.99966526684622E-02 
645	 0.07003014923555 
646	 7.00869391949758E-02 
647	 7.01081789038739E-02 
648	 7.01042422232387E-02 
649	 7.01067505604836E-02 
650	 7.01305176957571E-02 
651	 7.01822652312119E-02 
652	 7.02436815636508E-02 
653	 7.02788835424644E-02 
654	 7.03353328379855E-02 
655	 7.03675225151675E-02 
656	 7.03583656448267E-02 
657	 7.04045757052975E-02 
658	 0.070434677424266 
659	 7.04702881652453E-02 
660	 7.05549218680595E-02 
661	 7.05444311254665E-02 
662	 7.05588863858308E-02 
663	 7.06367416139273E-02 
664	 7.06630855820417E-02 
665	 7.06698997357492E-02 
666	 7.06917857776202E-02 
667	 7.07456807327829E-02 
668	 7.07640927080034E-02 
669	 7.07882028390747E-02 
670	 7.08302560213348E-02 
671	 7.08755619159879E-02 
672	 0.0709235201949 
673	 7.09520631850733E-02 
674	 7.09578838245319E-02 
675	 7.09903981547194E-02 
676	 7.10048384939664E-02 
677	 7.10244272936679E-02 
678	 7.10809324910142E-02 
679	 7.10426408408122E-02 
680	 0.071053540218309 
681	 7.11457993663085E-02 
682	 0.071177501639337 
683	 7.12184174785384E-02 
684	 7.12546063411201E-02 
685	 7.12640608113263E-02 
686	 7.12637122369915E-02 
687	 7.12865002206234E-02 
688	 7.13335852224353E-02 
689	 7.13795038416899E-02 
690	 7.13846325654559E-02 
691	 7.13598596065542E-02 
692	 7.13385338655575E-02 
693	 7.13884080728365E-02 
694	 7.13876097004513E-02 
695	 7.13667808577471E-02 
696	 7.14013262954041E-02 
697	 7.14852298590824E-02 
698	 7.14958155078368E-02 
699	 7.14440580252402E-02 
700	 7.14818919313876E-02 
701	 0.071508191607677 
702	 7.14987619190026E-02 
703	 7.14644959250246E-02 
704	 7.14668964096226E-02 
705	 7.14782185332795E-02 
706	 7.14852862538723E-02 
707	 7.14850023940282E-02 
708	 7.14952314577628E-02 
709	 7.15091986518126E-02 
710	 7.15247009938967E-02 
711	 7.15508079786994E-02 
712	 7.15574635396002E-02 
713	 7.15464264010538E-02 
714	 7.15358491956435E-02 
715	 7.15697903124053E-02 
716	 7.15757810936625E-02 
717	 7.15567139129725E-02 
718	 7.15683104759261E-02 
719	 7.15790974357223E-02 
720	 7.15635566254069E-02 
721	 7.15238462239981E-02 
722	 7.15117204847601E-02 
723	 7.15100486057992E-02 
724	 7.15318963370406E-02 
725	 7.15742414345608E-02 
726	 7.15094196373183E-02 
727	 7.14744141230445E-02 
728	 7.14931254892408E-02 
729	 7.14760127521789E-02 
730	 7.14668151925427E-02 
731	 7.14645338169383E-02 
732	 7.14670850344976E-02 
733	 7.14940725666003E-02 
734	 7.14776951461625E-02 
735	 7.14245317956802E-02 
736	 7.13757440318653E-02 
737	 7.13598578338038E-02 
738	 7.13579983927584E-02 
739	 0.071354467195743 
740	 7.13422492288137E-02 
741	 7.13240995464155E-02 
742	 7.13028817671888E-02 
743	 7.12783650983931E-02 
744	 7.12401803391184E-02 
745	 7.12016048890699E-02 
746	 7.11833288255648E-02 
747	 7.11960993084934E-02 
748	 7.11630861582957E-02 
749	 7.11233294088024E-02 
750	 7.10993798793938E-02 
751	 7.10804789566915E-02 
752	 7.10494137267459E-02 
753	 0.071025384157693 
754	 7.10229900441834E-02 
755	 7.10186092015643E-02 
756	 7.10095971062794E-02 
757	 7.09891759490258E-02 
758	 7.09556581422371E-02 
759	 7.09579247023298E-02 
760	 7.09202121588452E-02 
761	 7.08479124240095E-02 
762	 7.08584629244101E-02 
763	 7.08542831213288E-02 
764	 7.08327675247922E-02 
765	 7.08103002807105E-02 
766	 0.0707896582704 
767	 7.07802144604003E-02 
768	 7.07723220781225E-02 
769	 7.07476186012155E-02 
770	 7.06994726721924E-02 
771	 7.06782058016949E-02 
772	 7.06869043042054E-02 
773	 0.070667750915639 
774	 7.06356837341523E-02 
775	 7.06020729926068E-02 
776	 7.05769074029162E-02 
777	 7.05670669338432E-02 
778	 7.05542469218362E-02 
779	 7.05436514859215E-02 
780	 7.05432889480838E-02 
781	 7.05034669338459E-02 
782	 7.04768936433686E-02 
783	 7.04671311905953E-02 
784	 7.04212104724264E-02 
785	 7.04043113272513E-02 
786	 7.03870526245528E-02 
787	 7.03469116339636E-02 
788	 0.070320440751429 
789	 7.03107138507294E-02 
790	 7.02953969168221E-02 
791	 0.070252813744288 
792	 7.02234032063486E-02 
793	 7.02019217938835E-02 
794	 7.01832130635115E-02 
795	 7.01647396238769E-02 
796	 7.01543346188915E-02 
797	 7.01304152034245E-02 
798	 7.00925818317446E-02 
799	 7.00871416841158E-02 
800	 7.00748654078746E-02 
801	 7.00431765144461E-02 
802	 6.99993410980763E-02 
803	 6.99903110865301E-02 
804	 6.99901407051606E-02 
805	 6.99736466344277E-02 
806	 6.99263612734049E-02 
807	 6.99041080362955E-02 
808	 6.98855837269351E-02 
809	 6.98578500299373E-02 
810	 6.98304752939754E-02 
811	 6.98143714161713E-02 
812	 6.97651816352157E-02 
813	 6.96817310723087E-02 
814	 6.97180887146914E-02 
815	 6.97036161381083E-02 
816	 0.069658129792902 
817	 6.96619592711565E-02 
818	 6.96577691467936E-02 
819	 6.96323953919779E-02 
820	 6.95988236131612E-02 
821	 6.95872425276332E-02 
822	 6.95766961014479E-02 
823	 6.95322137651351E-02 
824	 6.94630811477382E-02 
825	 6.94518988680407E-02 
826	 6.94448658294186E-02 
827	 6.94286257869373E-02 
828	 6.94028922249716E-02 
829	 6.93757361531486E-02 
830	 6.93212481415479E-02 
831	 6.92834045568448E-02 
832	 6.93183818368899E-02 
833	 6.93447781046857E-02 
834	 6.93122746070259E-02 
835	 6.92392881154474E-02 
836	 6.92051784239535E-02 
837	 6.92391478431743E-02 
838	 6.92429843665138E-02 
839	 6.91804174206513E-02 
840	 6.91570624376821E-02 
841	 6.91116156093137E-02 
842	 6.90733409933883E-02 
843	 0.069072430537006 
844	 6.90674393251618E-02 
845	 6.90727966150348E-02 
846	 6.90451741251788E-02 
847	 6.89532467111228E-02 
848	 6.89798074674325E-02 
849	 6.89936777796708E-02 
850	 6.89490002105089E-02 
851	 6.88964970082988E-02 
852	 6.89042695219946E-02 
853	 6.89213332904503E-02 
854	 6.89113954741568E-02 
855	 6.88879033148312E-02 
856	 6.88892215617848E-02 
857	 6.88933051811923E-02 
858	 6.88712613614829E-02 
859	 6.88102929024664E-02 
860	 0.068798881586362 
861	 6.88137231326055E-02 
862	 6.88029375526891E-02 
863	 6.87936979621881E-02 
864	 6.87723963416021E-02 
865	 6.87481076099437E-02 
866	 6.87373961465348E-02 
867	 0.068699532499852 
868	 6.86809429536945E-02 
869	 6.86848635816271E-02 
870	 6.86658688104796E-02 
871	 6.86408662201901E-02 
872	 6.86382292125764E-02 
873	 6.86514117394945E-02 
874	 6.86170762809789E-02 
875	 6.86118482593903E-02 
876	 6.85834715551766E-02 
877	 0.068509684551952 
878	 6.85280295559288E-02 
879	 6.85848037792979E-02 
880	 6.85921892581504E-02 
881	 6.85099637464267E-02 
882	 6.85417614812662E-02 
883	 6.85484385229391E-02 
884	 6.85155208720925E-02 
885	 0.068497093479539 
886	 0.06846665968654 
887	 6.84708976503843E-02 
888	 6.84985488348882E-02 
889	 6.84925112328912E-02 
890	 6.84964152760715E-02 
891	 6.84823210006898E-02 
892	 6.84523375092824E-02 
893	 6.84516972748205E-02 
894	 6.84109078909381E-02 
895	 6.83784505161381E-02 
896	 6.83830305943495E-02 
897	 6.83763216338784E-02 
898	 6.84035824185749E-02 
899	 6.84241819063683E-02 
900	 6.83999879735511E-02 
901	 6.83558933806602E-02 
902	 6.83200857110399E-02 
903	 6.83263655548161E-02 
904	 6.83835636877334E-02 
905	 6.84237088243179E-02 
906	 6.84087966995471E-02 
907	 6.83508986820251E-02 
908	 6.82957665502664E-02 
909	 0.068304479500153 
910	 6.83108638637656E-02 
911	 6.83037084769714E-02 
912	 0.068312408148018 
913	 6.83394734682636E-02 
914	 6.83652953677099E-02 
915	 0.068355527842556 
916	 0.068284298992795 
917	 6.82913765742584E-02 
918	 6.83079755851044E-02 
919	 6.82913027517079E-02 
920	 6.82668583459514E-02 
921	 6.83250354289023E-02 
922	 6.83122580356328E-02 
923	 6.82184444861563E-02 
924	 6.82861010175535E-02 
925	 6.82842434356185E-02 
926	 6.82627109824948E-02 
927	 6.82667174146945E-02 
928	 6.82230702910031E-02 
929	 6.82659535976382E-02 
930	 6.83064969087165E-02 
931	 6.82711728245112E-02 
932	 6.82538409236305E-02 
933	 6.82957771989186E-02 
934	 6.82975208788468E-02 
935	 6.82068780240576E-02 
936	 6.82333768624321E-02 
937	 6.82234759051513E-02 
938	 6.82391098952553E-02 
939	 6.83383546817421E-02 
940	 6.83189899327472E-02 
941	 6.83146635937469E-02 
942	 6.83410386248755E-02 
943	 6.83516248535892E-02 
944	 6.82540300965766E-02 
945	 6.82515794792613E-02 
946	 6.82989363601728E-02 
947	 6.82689577437674E-02 
948	 6.82457607171355E-02 
949	 6.82375630782917E-02 
950	 0.068211372211188 
951	 6.81424874557984E-02 
952	 6.81395507945497E-02 
953	 6.82105095244964E-02 
954	 6.82962261251284E-02 
955	 6.83146225509913E-02 
956	 6.82589767962537E-02 
957	 0.068281709475322 
958	 6.83192838157431E-02 
959	 6.82305718902986E-02 
960	 6.82659057398923E-02 
961	 6.83092850356096E-02 
962	 6.83252797519391E-02 
963	 6.83365873005381E-02 
964	 6.82828713148213E-02 
965	 6.82265984328485E-02 
966	 0.068243924010394 
967	 6.83651923610899E-02 
968	 0.068377778559075 
969	 6.83543660189898E-02 
970	 0.068295059817348 
971	 6.81753184658141E-02 
972	 6.82079572951238E-02 
973	 6.81842494897548E-02 
974	 6.81201570268047E-02 
975	 6.81683449563588E-02 
976	 6.82099067306578E-02 
977	 6.81973774540135E-02 
978	 6.82040390355802E-02 
979	 6.83161034004534E-02 
980	 6.82606549653299E-02 
981	 6.81478738095905E-02 
982	 6.80844632285989E-02 
983	 6.81290759840568E-02 
984	 6.82225495698392E-02 
985	 6.82524080344042E-02 
986	 6.82004645972648E-02 
987	 6.81398245775903E-02 
988	 6.82527041865106E-02 
989	 0.068320775235493 
990	 0.068317865939461 
991	 6.83121611460785E-02 
992	 0.068230786960146 
993	 6.82013854668137E-02 
994	 6.83168821381497E-02 
995	 6.85353431822164E-02 
996	 6.84328631415878E-02 
997	 6.83117161198353E-02 
998	 0.068314013223536 
999	 0.06844428988244 
1000	 6.85423508114256E-02 
1001	 6.76742151332811E-02 
1002	 6.76279411719465E-02 
1003	 6.76712344455207E-02 
1004	 0.067683618547825 
1005	 6.77338342253512E-02 
1006	 6.77273095173959E-02 
1007	 6.77123626405407E-02 
1008	 6.76072538026188E-02 
1009	 6.75142478635384E-02 
1010	 0.067551500123145 
1011	 6.75884206995406E-02 
1012	 6.76131755208957E-02 
1013	 6.76400300734285E-02 
1014	 6.75840001300202E-02 
1015	 6.74784016086408E-02 
1016	 0.067396447017498 
1017	 6.73645723937435E-02 
1018	 6.73542466554739E-02 
1019	 6.73745958340371E-02 
1020	 6.74026718000423E-02 
1021	 6.74307663295974E-02 
1022	 6.74099873776917E-02 
1023	 6.73457883633608E-02 
1024	 6.73260830625582E-02 
1025	 6.73633732989884E-02 
1026	 6.74062403640078E-02 
1027	 6.74357029617872E-02 
1028	 6.74203411608262E-02 
1029	 6.73119707239086E-02 
1030	 6.72248566408225E-02 
1031	 6.72009672168856E-02 
1032	 6.72226015466774E-02 
1033	 0.067234308767652 
1034	 6.72671199430187E-02 
1035	 6.72665982536551E-02 
1036	 6.71786782343018E-02 
1037	 6.71422275244366E-02 
1038	 6.71218024231932E-02 
1039	 6.71135367306503E-02 
1040	 6.71443411241549E-02 
1041	 6.71599179487498E-02 
1042	 6.71790473786756E-02 
1043	 6.71312693059812E-02 
1044	 6.71033097574837E-02 
1045	 6.70560249002674E-02 
1046	 6.70301696208454E-02 
1047	 6.69822391576029E-02 
1048	 6.70071559480257E-02 
1049	 6.70294838612726E-02 
1050	 6.70429236505519E-02 
1051	 0.067106717119398 
1052	 6.71327024820097E-02 
1053	 6.71585187724857E-02 
1054	 0.067160494637494 
1055	 6.71192698319749E-02 
1056	 0.067108968175852 
1057	 0.067095260143527 
1058	 6.70714506910923E-02 
1059	 6.70635414107569E-02 
1060	 6.70639120576713E-02 
1061	 0.067065667808351 
1062	 6.71011994061066E-02 
1063	 6.71293612738872E-02 
1064	 6.71600795767573E-02 
1065	 6.72124285079353E-02 
1066	 6.72292078079338E-02 
1067	 6.72487726875675E-02 
1068	 6.72941557702676E-02 
1069	 6.73144017920065E-02 
1070	 6.73286740771504E-02 
1071	 6.73386734493922E-02 
1072	 6.73441988116295E-02 
1073	 0.067326120768954 
1074	 6.73455826447361E-02 
1075	 6.73908907078473E-02 
1076	 6.74118279470664E-02 
1077	 6.74550821879718E-02 
1078	 6.74410173996076E-02 
1079	 6.74087286999418E-02 
1080	 6.74249368862171E-02 
1081	 6.74233665771952E-02 
1082	 0.067423122583817 
1083	 6.74197948636071E-02 
1084	 6.73841994783449E-02 
1085	 6.73983308946051E-02 
1086	 6.74670146433507E-02 
1087	 6.74850168007586E-02 
1088	 6.75022920727349E-02 
1089	 6.75214264914307E-02 
1090	 6.74955743254087E-02 
1091	 6.74438325732405E-02 
1092	 6.74475473482821E-02 
1093	 6.74348502792006E-02 
1094	 0.067399880388192 
1095	 6.74075586460249E-02 
1096	 6.74248033606468E-02 
1097	 6.74368192502091E-02 
1098	 6.74345001957933E-02 
1099	 6.74342247917632E-02 
1100	 6.74257495259537E-02 
1101	 6.73878764055115E-02 
1102	 6.73783449989228E-02 
1103	 6.73939277477681E-02 
1104	 6.73982970901602E-02 
1105	 6.73830232622841E-02 
1106	 6.73837325068017E-02 
1107	 6.73649173851245E-02 
1108	 6.73494847049798E-02 
1109	 6.73320408000875E-02 
1110	 6.72820485479141E-02 
1111	 6.72602790591518E-02 
1112	 6.72425594625217E-02 
1113	 6.72252208755657E-02 
1114	 6.72150052717355E-02 
1115	 6.72156326741992E-02 
1116	 6.72346682691306E-02 
1117	 6.72211646572575E-02 
1118	 6.72013702077419E-02 
1119	 6.71879440228386E-02 
1120	 6.71432711321826E-02 
1121	 6.70920558230664E-02 
1122	 6.70886913665656E-02 
1123	 0.0670947252771 
1124	 6.70868094074516E-02 
1125	 0.067085979514809 
1126	 6.70779376093302E-02 
1127	 6.70537884555319E-02 
1128	 6.70417976663929E-02 
1129	 6.70412519608894E-02 
1130	 6.70282652565745E-02 
1131	 6.70113634677812E-02 
1132	 6.69975432644993E-02 
1133	 6.69774870790177E-02 
1134	 0.066965061995832 
1135	 6.69702531660479E-02 
1136	 6.69474309139364E-02 
1137	 6.69337562942791E-02 
1138	 6.69083897860061E-02 
1139	 6.68899980753787E-02 
1140	 6.68644014082705E-02 
1141	 6.68555283038666E-02 
1142	 6.68665710995864E-02 
1143	 6.68544435063252E-02 
1144	 6.68353757035397E-02 
1145	 6.68193121203825E-02 
1146	 6.67881344491923E-02 
1147	 6.67694927468856E-02 
1148	 6.67649143264155E-02 
1149	 6.67511387103158E-02 
1150	 0.066732132385591 
1151	 6.67205667257889E-02 
1152	 6.66968818072329E-02 
1153	 6.66900555010748E-02 
1154	 6.66823175516635E-02 
1155	 6.66816656202229E-02 
1156	 6.66755527167762E-02 
1157	 6.66692432303287E-02 
1158	 0.066662863448463 
1159	 6.66513154940202E-02 
1160	 6.66506239190429E-02 
1161	 6.66629984201751E-02 
1162	 6.66623643711714E-02 
1163	 6.66689140780851E-02 
1164	 0.066657586578859 
1165	 6.66183398149997E-02 
1166	 6.65967297498989E-02 
1167	 0.066569211859496 
1168	 6.65650596997924E-02 
1169	 6.65623272263814E-02 
1170	 6.65784239057766E-02 
1171	 6.65770232035097E-02 
1172	 0.066575834731754 
1173	 6.65678027227381E-02 
1174	 6.65516632094437E-02 
1175	 6.65395270689702E-02 
1176	 6.65162051097544E-02 
1177	 6.65108542194611E-02 
1178	 6.65140712050008E-02 
1179	 6.65176215957184E-02 
1180	 6.65432493979798E-02 
1181	 6.65515288957002E-02 
1182	 6.65559286378095E-02 
1183	 6.65476535437143E-02 
1184	 6.65403752057259E-02 
1185	 6.65176101732219E-02 
1186	 0.066518646737493 
1187	 0.066529389894771 
1188	 6.65353906491657E-02 
1189	 6.65511496115637E-02 
1190	 6.65605231175784E-02 
1191	 6.65658603423229E-02 
1192	 6.65696099650941E-02 
1193	 6.65711802632941E-02 
1194	 6.65774407085013E-02 
1195	 6.65772039958813E-02 
1196	 0.06658511649009 
1197	 6.66063728146479E-02 
1198	 6.66215964870357E-02 
1199	 6.66361771576265E-02 
1200	 6.66541735063939E-02 
1201	 6.66629008198555E-02 
1202	 6.66632492837581E-02 
1203	 6.66709885387994E-02 
1204	 6.66784824868452E-02 
1205	 6.66836068224159E-02 
1206	 6.66870108321253E-02 
1207	 6.66986316921827E-02 
1208	 6.67084945042467E-02 
1209	 6.67234502202249E-02 
1210	 6.67593014924113E-02 
1211	 6.67747606138025E-02 
1212	 6.67745449089431E-02 
1213	 6.67834057382254E-02 
1214	 6.67876330954168E-02 
1215	 6.67926548001366E-02 
1216	 6.67999620220346E-02 
1217	 0.066815907813312 
1218	 6.68244317549151E-02 
1219	 6.68260096652685E-02 
1220	 6.68349990583631E-02 
1221	 6.68487913158479E-02 
1222	 6.68582955227991E-02 
1223	 0.0668722329123 
1224	 6.68770821737879E-02 
1225	 6.68682263612454E-02 
1226	 6.68736989556546E-02 
1227	 6.68819056628171E-02 
1228	 0.066890203640397 
1229	 6.69136883540835E-02 
1230	 6.69254300673711E-02 
1231	 6.69257625100511E-02 
1232	 6.69298382594332E-02 
1233	 6.69331815294743E-02 
1234	 6.69338791560452E-02 
1235	 6.69358407914439E-02 
1236	 6.69394744773274E-02 
1237	 6.69422206540403E-02 
1238	 6.69387748207559E-02 
1239	 6.69462696912686E-02 
1240	 0.066965535817763 
1241	 6.69740006240378E-02 
1242	 6.69774781023613E-02 
1243	 6.69905978709238E-02 
1244	 6.70066939733394E-02 
1245	 6.70142572216832E-02 
1246	 6.70243717665627E-02 
1247	 6.70368595274963E-02 
1248	 6.70366479255974E-02 
1249	 6.70513642628528E-02 
1250	 6.70572161832299E-02 
1251	 6.70602458566698E-02 
1252	 6.70619030159486E-02 
1253	 6.70476711368511E-02 
1254	 6.70511350996924E-02 
1255	 6.70671191801964E-02 
1256	 6.70763580412866E-02 
1257	 6.70938890861272E-02 
1258	 6.70951130282879E-02 
1259	 6.70873305191485E-02 
1260	 0.067079633702421 
1261	 6.70580368822868E-02 
1262	 6.70464071114668E-02 
1263	 6.70303483341765E-02 
1264	 6.70300389805523E-02 
1265	 6.70493598235224E-02 
1266	 6.70563626748782E-02 
1267	 6.70705754198056E-02 
1268	 6.70793696121652E-02 
1269	 6.70829005574472E-02 
1270	 0.067074176196755 
1271	 6.70732658334075E-02 
1272	 0.067074189707746 
1273	 6.70742377361037E-02 
1274	 6.70695142609113E-02 
1275	 6.70724411632279E-02 
1276	 6.70727415086323E-02 
1277	 6.70888043009107E-02 
1278	 6.71246423119142E-02 
1279	 6.71449466114923E-02 
1280	 6.71591983776677E-02 
1281	 6.71893030533138E-02 
1282	 6.72153303087149E-02 
1283	 6.72496161086906E-02 
1284	 6.73046193049492E-02 
1285	 6.73594523336845E-02 
1286	 6.73942703650976E-02 
1287	 6.74392538346887E-02 
1288	 6.74863581221582E-02 
1289	 6.75352259433759E-02 
1290	 6.75821024371456E-02 
1291	 6.76306796574145E-02 
1292	 6.76804473719782E-02 
1293	 6.77320594586861E-02 
1294	 6.77797492123267E-02 
1295	 6.78279796552371E-02 
1296	 0.06787677732869 
1297	 6.79228195612478E-02 
1298	 6.79658300332866E-02 
1299	 0.06800431514393 
1300	 6.80533116892813E-02 
1301	 6.81054572490068E-02 
1302	 0.068154129350913 
1303	 6.82077747317238E-02 
1304	 6.82695209575546E-02 
1305	 6.83070531664056E-02 
1306	 6.83321889767238E-02 
1307	 6.83599628483983E-02 
1308	 6.83675071439377E-02 
1309	 6.83819547788139E-02 
1310	 6.83965390126036E-02 
1311	 6.84100086234857E-02 
1312	 6.84158755099093E-02 
1313	 6.84308421973849E-02 
1314	 6.84512461304898E-02 
1315	 6.84633613384078E-02 
1316	 6.84809966135592E-02 
1317	 6.84923671774568E-02 
1318	 6.84917518976403E-02 
1319	 6.84982948429167E-02 
1320	 6.85172849881103E-02 
1321	 6.85116843428972E-02 
1322	 6.84889556568598E-02 
1323	 0.068475205491961 
1324	 6.84585224591031E-02 
1325	 6.84524978665858E-02 
1326	 0.068453743023943 
1327	 0.068459002210527 
1328	 6.84504245274649E-02 
1329	 6.84316933911391E-02 
1330	 0.068424768694668 
1331	 6.84240925886296E-02 
1332	 0.068423376410221 
1333	 6.84290706166865E-02 
1334	 6.84226887850632E-02 
1335	 6.84128409713921E-02 
1336	 6.84025267587276E-02 
1337	 6.83844643462862E-02 
1338	 6.83715866346703E-02 
1339	 6.83645500739786E-02 
1340	 6.83484137645008E-02 
1341	 6.83268315808065E-02 
1342	 6.83079037036421E-02 
1343	 6.82844098093284E-02 
1344	 6.82640692034447E-02 
1345	 6.82524526329353E-02 
1346	 6.82441036407077E-02 
1347	 6.82212529136775E-02 
1348	 6.81858357677976E-02 
1349	 6.81426203100266E-02 
1350	 6.80909437664376E-02 
1351	 6.80475856531434E-02 
1352	 6.80068657797525E-02 
1353	 6.79683792664056E-02 
1354	 6.79280053277966E-02 
1355	 6.78943319440972E-02 
1356	 6.78683516376637E-02 
1357	 0.067839759616066 
1358	 6.78150389428075E-02 
1359	 6.77880437297962E-02 
1360	 6.77455759237722E-02 
1361	 6.77271044617712E-02 
1362	 6.77307714340737E-02 
1363	 6.77205034465201E-02 
1364	 6.77112399694892E-02 
1365	 6.77113790431207E-02 
1366	 6.77017367857537E-02 
1367	 6.77043947767803E-02 
1368	 6.77311220914284E-02 
1369	 6.77573736099659E-02 
1370	 6.77795179566658E-02 
1371	 6.77851179559705E-02 
1372	 6.77892189422592E-02 
1373	 6.77981179928839E-02 
1374	 6.77882154514366E-02 
1375	 6.77706127317344E-02 
1376	 6.77465852877434E-02 
1377	 0.067704676526011 
1378	 6.76665765711657E-02 
1379	 6.76225830912076E-02 
1380	 6.75872150586721E-02 
1381	 0.06754418073537 
1382	 6.75181288961382E-02 
1383	 6.75041892575748E-02 
1384	 6.74966282210342E-02 
1385	 6.75083448856188E-02 
1386	 6.75081263179763E-02 
1387	 6.75063196652081E-02 
1388	 6.75047438289465E-02 
1389	 6.75035012962703E-02 
1390	 6.74926042352605E-02 
1391	 0.067477957557905 
1392	 0.06746743465752 
1393	 6.74518682230052E-02 
1394	 6.74237526249794E-02 
1395	 0.067404318791388 
1396	 6.73958700277609E-02 
1397	 6.73867355783197E-02 
1398	 6.73802906148189E-02 
1399	 6.73754410291212E-02 
1400	 6.73769324788418E-02 
1401	 6.73701924467142E-02 
1402	 6.73550810936479E-02 
1403	 6.73481652831488E-02 
1404	 6.73369353936009E-02 
1405	 6.73424228074062E-02 
1406	 6.73642778727285E-02 
1407	 6.73782156879228E-02 
1408	 6.74018106039801E-02 
1409	 6.74130565694974E-02 
1410	 6.74063539568442E-02 
1411	 6.74197036870152E-02 
1412	 6.74405195923566E-02 
1413	 0.067458987387629 
1414	 6.74947483997062E-02 
1415	 6.75218466106727E-02 
1416	 6.75338649510058E-02 
1417	 0.067556082332277 
1418	 6.75840697127955E-02 
1419	 6.75925655541637E-02 
1420	 6.75964671094831E-02 
1421	 6.76130987203697E-02 
1422	 6.76194068226627E-02 
1423	 6.76298927520266E-02 
1424	 6.76459926367567E-02 
1425	 0.06767149455774 
1426	 6.76899729281044E-02 
1427	 6.77060415469581E-02 
1428	 6.77296894867774E-02 
1429	 6.77546406875442E-02 
1430	 0.067780660329543 
1431	 6.78175000857292E-02 
1432	 6.78428099870991E-02 
1433	 6.78620150247976E-02 
1434	 6.78840008813937E-02 
1435	 6.78998410904246E-02 
1436	 6.79183720451668E-02 
1437	 6.79409833519642E-02 
1438	 6.79607989277317E-02 
1439	 6.79768812658681E-02 
1440	 6.80006974643616E-02 
1441	 6.80202657072588E-02 
1442	 6.80322970433438E-02 
1443	 6.80512345003347E-02 
1444	 6.80685059822119E-02 
1445	 6.80893761188175E-02 
1446	 6.81204435549005E-02 
1447	 6.81363502525168E-02 
1448	 6.81458489959502E-02 
1449	 6.81437516912921E-02 
1450	 6.81370246706922E-02 
1451	 6.81559776290076E-02 
1452	 6.81900458532837E-02 
1453	 6.82186924640719E-02 
1454	 6.82720685039126E-02 
1455	 6.82961715471139E-02 
1456	 6.83006203565434E-02 
1457	 0.068311966291999 
1458	 6.83108186814327E-02 
1459	 6.83223451797924E-02 
1460	 6.83381141648965E-02 
1461	 6.83583139083877E-02 
1462	 6.83944730930473E-02 
1463	 6.84156658034315E-02 
1464	 6.84302880339875E-02 
1465	 6.84488235185561E-02 
1466	 6.84595337055876E-02 
1467	 6.84727329879648E-02 
1468	 6.84939340247932E-02 
1469	 6.85080677321707E-02 
1470	 6.85183756319336E-02 
1471	 6.85271284580604E-02 
1472	 6.85271279703308E-02 
1473	 6.85320230735167E-02 
1474	 6.85449399974721E-02 
1475	 6.85626558076543E-02 
1476	 6.85874984382422E-02 
1477	 6.86127248670413E-02 
1478	 6.86371195383385E-02 
1479	 6.86526578212091E-02 
1480	 6.86608925283647E-02 
1481	 6.86788703280352E-02 
1482	 0.06869003350995 
1483	 0.06869463373119 
1484	 0.068702631576705 
1485	 6.87089445436333E-02 
1486	 6.87197587554331E-02 
1487	 6.87298367332277E-02 
1488	 6.87468774653799E-02 
1489	 6.87740102213946E-02 
1490	 6.87939804290516E-02 
1491	 6.88194841831064E-02 
1492	 6.88332835046628E-02 
1493	 6.88352137317508E-02 
1494	 0.068841878256908 
1495	 6.88435182662376E-02 
1496	 6.88500221398569E-02 
1497	 6.88623532992604E-02 
1498	 6.88708532583109E-02 
1499	 6.88735775482734E-02 
1500	 6.88831295041078E-02 
1501	 0.068896282331533 
1502	 0.068909016511794 
1503	 6.89260564830482E-02 
1504	 0.068945468271929 
1505	 6.89557255658614E-02 
1506	 6.89703713883204E-02 
1507	 6.89637391562832E-02 
1508	 6.89521045911581E-02 
1509	 6.89582113368604E-02 
1510	 0.068948028430895 
1511	 6.89625147211432E-02 
1512	 6.89943347972554E-02 
1513	 6.90037961957237E-02 
1514	 6.90137886412621E-02 
1515	 6.90055249903907E-02 
1516	 6.89851054528483E-02 
1517	 6.89828193595131E-02 
1518	 6.89781661749861E-02 
1519	 6.89869923059354E-02 
1520	 6.90132480399298E-02 
1521	 6.90325082918564E-02 
1522	 6.90562534146345E-02 
1523	 6.90716146693871E-02 
1524	 6.90894015024097E-02 
1525	 6.91007534163545E-02 
1526	 6.90934438268238E-02 
1527	 6.91074772006275E-02 
1528	 6.91376312838746E-02 
1529	 6.91488735525357E-02 
1530	 6.91658148705412E-02 
1531	 6.91728540274446E-02 
1532	 6.91527618650184E-02 
1533	 0.069154387538473 
1534	 6.91692912731518E-02 
1535	 0.069176794932262 
1536	 6.91896819760299E-02 
1537	 6.91967819170481E-02 
1538	 6.91987426105511E-02 
1539	 6.91962407003607E-02 
1540	 0.069186328070058 
1541	 6.91847151337772E-02 
1542	 6.91796211847385E-02 
1543	 0.069183714340106 
1544	 6.92006453576987E-02 
1545	 6.92148593000253E-02 
1546	 6.92305397754466E-02 
1547	 6.92439963546788E-02 
1548	 6.92787425048841E-02 
1549	 6.92847187928054E-02 
1550	 6.92806818094158E-02 
1551	 6.92833957738976E-02 
1552	 6.92738782644361E-02 
1553	 6.92725872770435E-02 
1554	 6.92789281964856E-02 
1555	 6.92907244672687E-02 
1556	 6.92987471241361E-02 
1557	 6.92930942121224E-02 
1558	 6.92836539208266E-02 
1559	 6.92800530778102E-02 
1560	 6.92845251761308E-02 
1561	 6.92925305584862E-02 
1562	 6.92996594122613E-02 
1563	 6.93186284678648E-02 
1564	 6.93218672954118E-02 
1565	 6.93081097311503E-02 
1566	 6.93162619567075E-02 
1567	 6.93347029556677E-02 
1568	 6.93441006218508E-02 
1569	 6.93622307553786E-02 
1570	 6.93722167361192E-02 
1571	 6.93674119535401E-02 
1572	 6.93714942851908E-02 
1573	 6.93865235256877E-02 
1574	 6.93847959639118E-02 
1575	 6.93702367264661E-02 
1576	 6.93683548772649E-02 
1577	 6.93610994534454E-02 
1578	 6.93650972902452E-02 
1579	 0.069388759010644 
1580	 6.93964382364147E-02 
1581	 0.06939836210881 
1582	 6.94001204377947E-02 
1583	 0.069392617128695 
1584	 6.93942548204237E-02 
1585	 0.06940357006901 
1586	 6.94060580717426E-02 
1587	 6.94098157902252E-02 
1588	 6.94105168380134E-02 
1589	 0.069408392519903 
1590	 6.94016027267794E-02 
1591	 6.93857890828991E-02 
1592	 6.93805205707047E-02 
1593	 6.93775208811508E-02 
1594	 6.93735236353712E-02 
1595	 0.069377451746564 
1596	 6.93766229451229E-02 
1597	 6.93719671291666E-02 
1598	 6.93652757625523E-02 
1599	 6.93566515305497E-02 
1600	 0.069350799834193 
1601	 6.93353332913956E-02 
1602	 6.93331916639572E-02 
1603	 6.93438051273474E-02 
1604	 6.93526414177686E-02 
1605	 6.93659723170814E-02 
1606	 0.069380166759905 
1607	 6.93980567115891E-02 
1608	 6.94144752250197E-02 
1609	 6.94216769178233E-02 
1610	 6.94241143029973E-02 
1611	 0.069406683515272 
1612	 6.93844948377811E-02 
1613	 6.93767604714413E-02 
1614	 6.93762219291947E-02 
1615	 0.069374800612178 
1616	 6.93808261823181E-02 
1617	 6.93898321741023E-02 
1618	 6.93930080945926E-02 
1619	 6.94075357586442E-02 
1620	 6.94223229565811E-02 
1621	 6.94263197558461E-02 
1622	 6.94241956409238E-02 
1623	 6.94195788481535E-02 
1624	 6.94042921645919E-02 
1625	 6.94020641049599E-02 
1626	 0.069398850208685 
1627	 6.94079317743393E-02 
1628	 0.069435837775618 
1629	 0.069437039101816 
1630	 6.94320955078664E-02 
1631	 0.069429437517113 
1632	 6.94116180846149E-02 
1633	 6.94045080849049E-02 
1634	 6.94097737858813E-02 
1635	 6.94052853678672E-02 
1636	 0.069388342507093 
1637	 0.069390463112969 
1638	 6.94047519678988E-02 
1639	 0.069406067375399 
1640	 6.94113582905104E-02 
1641	 6.94117794684311E-02 
1642	 6.94022109651226E-02 
1643	 0.069396591477257 
1644	 6.93941881940671E-02 
1645	 6.93900739396298E-02 
1646	 6.93834556106706E-02 
1647	 6.93747642938223E-02 
1648	 6.93633125970471E-02 
1649	 6.93600398124535E-02 
1650	 6.93560623816907E-02 
1651	 6.93554811177853E-02 
1652	 6.93661988324161E-02 
1653	 0.069368053634149 
1654	 6.93689351662114E-02 
1655	 6.93608662396051E-02 
1656	 6.93450604047662E-02 
1657	 6.93344172440204E-02 
1658	 0.069312960922789 
1659	 6.93076812609541E-02 
1660	 0.069318876656826 
1661	 0.069316256066396 
1662	 0.069308903618653 
1663	 6.93117635469261E-02 
1664	 6.93173409399094E-02 
1665	 6.93160614076964E-02 
1666	 6.93239173386442E-02 
1667	 6.93202913925874E-02 
1668	 6.92986681256514E-02 
1669	 6.92889375570318E-02 
1670	 6.92840750421945E-02 
1671	 0.069277035697837 
1672	 6.92630545807179E-02 
1673	 6.92670870113681E-02 
1674	 6.92900059076546E-02 
1675	 6.92901086519867E-02 
1676	 6.92904631274587E-02 
1677	 6.92890546883191E-02 
1678	 6.92647598141542E-02 
1679	 6.92598216965775E-02 
1680	 0.069277473627214 
1681	 6.92735852603803E-02 
1682	 6.92562363762869E-02 
1683	 0.069253385365922 
1684	 6.92488783836247E-02 
1685	 6.92481327791524E-02 
1686	 6.92618767073921E-02 
1687	 6.92648360856891E-02 
1688	 0.069255920905662 
1689	 6.92588327998184E-02 
1690	 6.92690848042831E-02 
1691	 6.92731739719187E-02 
1692	 6.92827713048221E-02 
1693	 6.92834392995544E-02 
1694	 0.069279883421493 
1695	 6.92672078441509E-02 
1696	 6.92371614510723E-02 
1697	 6.92295674281785E-02 
1698	 6.92209941367228E-02 
1699	 0.069221886898952 
1700	 6.92453985748493E-02 
1701	 6.92576252697669E-02 
1702	 6.92753046175275E-02 
1703	 6.92735358498488E-02 
1704	 6.92506061875333E-02 
1705	 6.92546147678093E-02 
1706	 6.92631191244314E-02 
1707	 6.92619653676262E-02 
1708	 6.92832740733734E-02 
1709	 0.069278748539151 
1710	 6.92359838093111E-02 
1711	 6.92248389486236E-02 
1712	 6.92287885526282E-02 
1713	 6.92208423486664E-02 
1714	 6.92151523036576E-02 
1715	 6.92136166054848E-02 
1716	 6.92019702845968E-02 
1717	 6.92091956425102E-02 
1718	 6.92423644347713E-02 
1719	 6.92438464596014E-02 
1720	 6.92326011337813E-02 
1721	 6.92349981481113E-02 
1722	 6.92309684821628E-02 
1723	 6.92262863963007E-02 
1724	 6.92332600544238E-02 
1725	 6.92297727973963E-02 
1726	 0.069210808954695 
1727	 6.92010006341104E-02 
1728	 6.92018272898341E-02 
1729	 6.91886455264139E-02 
1730	 6.91671775200663E-02 
1731	 6.91456803284999E-02 
1732	 6.91101238323174E-02 
1733	 6.91016959957036E-02 
1734	 6.91020778173169E-02 
1735	 0.069106109307855 
1736	 6.91468507985602E-02 
1737	 6.91316094529381E-02 
1738	 6.90803164433073E-02 
1739	 6.90596397508117E-02 
1740	 6.90167325789128E-02 
1741	 6.90034665168823E-02 
1742	 0.069029187619421 
1743	 0.069033424834761 
1744	 6.90349004145564E-02 
1745	 6.90293597076856E-02 
1746	 6.90186170151853E-02 
1747	 6.90065515571452E-02 
1748	 6.90010526346815E-02 
1749	 6.89922321066404E-02 
1750	 6.89792828851024E-02 
1751	 6.89774109015389E-02 
1752	 6.89616051785129E-02 
1753	 6.89374015546153E-02 
1754	 6.89318726435061E-02 
1755	 6.88969790269279E-02 
1756	 6.88607887384902E-02 
1757	 6.88415292908845E-02 
1758	 6.88164726743908E-02 
1759	 6.88278425671777E-02 
1760	 6.88344671751813E-02 
1761	 6.88324062213812E-02 
1762	 6.88429486443568E-02 
1763	 0.068829362768662 
1764	 0.068821690633494 
1765	 6.88215942922591E-02 
1766	 6.88029603874008E-02 
1767	 6.87832107178206E-02 
1768	 6.87710446778073E-02 
1769	 6.87823359127139E-02 
1770	 6.87987443892824E-02 
1771	 6.87946404884099E-02 
1772	 6.87871154501004E-02 
1773	 6.87482372464592E-02 
1774	 6.87110822563359E-02 
1775	 6.87233928914385E-02 
1776	 6.87205721141206E-02 
1777	 6.87043126959699E-02 
1778	 6.86946686818597E-02 
1779	 6.86683963794944E-02 
1780	 0.068634033014109 
1781	 6.86157770211887E-02 
1782	 6.86184248739586E-02 
1783	 6.86328807839671E-02 
1784	 6.86404276901588E-02 
1785	 6.86780997567914E-02 
1786	 6.86730311706026E-02 
1787	 6.86145754921247E-02 
1788	 6.85901034733005E-02 
1789	 0.068560106027169 
1790	 6.85401197644159E-02 
1791	 6.85488587754947E-02 
1792	 6.85599990063688E-02 
1793	 0.068574572640024 
1794	 6.85778391823927E-02 
1795	 6.85871552191466E-02 
1796	 6.85815371713953E-02 
1797	 6.85468841882083E-02 
1798	 6.85438745351596E-02 
1799	 6.85629276627727E-02 
1800	 6.85675402940355E-02 
1801	 6.58504588769998E-02 
1802	 6.59353617578879E-02 
1803	 6.60279632567098E-02 
1804	 6.61375006714875E-02 
1805	 6.62096336976565E-02 
1806	 6.62595812952592E-02 
1807	 6.63248404365229E-02 
1808	 6.63791478118167E-02 
1809	 6.64287195391426E-02 
1810	 6.64613094873153E-02 
1811	 0.066490888751665 
1812	 6.65017265265962E-02 
1813	 6.65037241908165E-02 
1814	 6.65159390503522E-02 
1815	 6.65213042459102E-02 
1816	 6.65281815662715E-02 
1817	 0.066547502920708 
1818	 6.65693464059686E-02 
1819	 6.65844961856092E-02 
1820	 6.66104139957115E-02 
1821	 6.66369243509872E-02 
1822	 6.66414891553907E-02 
1823	 0.066623572595863 
1824	 6.66070691261368E-02 
1825	 6.66168944431372E-02 
1826	 0.066604151144296 
1827	 6.65886082429961E-02 
1828	 6.65957983968511E-02 
1829	 6.66295679799803E-02 
1830	 6.66227045793549E-02 
1831	 6.66007395549483E-02 
1832	 6.66123448663389E-02 
1833	 6.65882574580432E-02 
1834	 6.65693247389598E-02 
1835	 0.066588773314151 
1836	 6.65995884365291E-02 
1837	 6.66120560611776E-02 
1838	 6.66227351805494E-02 
1839	 6.66368551291202E-02 
1840	 6.66456828935142E-02 
1841	 0.066669210416359 
1842	 6.67141560110246E-02 
1843	 6.67588066749853E-02 
1844	 6.67992464047884E-02 
1845	 6.68380072175134E-02 
1846	 6.68338299745025E-02 
1847	 6.68312551958721E-02 
1848	 6.68597076174784E-02 
1849	 6.68829810854831E-02 
1850	 6.69092047807048E-02 
1851	 6.69515780261446E-02 
1852	 6.69937189579708E-02 
1853	 6.70197783435827E-02 
1854	 6.70423548057324E-02 
1855	 6.70559908082068E-02 
1856	 6.70648636771752E-02 
1857	 6.70677165220175E-02 
1858	 6.70627796678979E-02 
1859	 6.70644320165163E-02 
1860	 6.70684619606365E-02 
1861	 0.067077986930956 
1862	 6.70827838277985E-02 
1863	 6.70797527041718E-02 
1864	 6.70694163295544E-02 
1865	 6.70564266262816E-02 
1866	 6.70168590063761E-02 
1867	 6.69725150885808E-02 
1868	 6.69334023704639E-02 
1869	 0.066873689900294 
1870	 6.68471441857698E-02 
1871	 6.68496741225619E-02 
1872	 6.68858222889493E-02 
1873	 6.69231406635581E-02 
1874	 6.69670145773898E-02 
1875	 6.70026908821858E-02 
1876	 6.70131432085647E-02 
1877	 6.70399252026952E-02 
1878	 6.70939281096802E-02 
1879	 6.71440984856008E-02 
1880	 6.71732456702169E-02 
1881	 6.71958760659136E-02 
1882	 0.067200987812233 
1883	 6.71820940059383E-02 
1884	 6.71647758595847E-02 
1885	 6.71533214980815E-02 
1886	 0.067143552933631 
1887	 6.71119257851474E-02 
1888	 0.067075998582871 
1889	 6.70260506440974E-02 
1890	 6.69636173049086E-02 
1891	 6.69220923537699E-02 
1892	 6.69059165712345E-02 
1893	 0.06686384151158 
1894	 0.066821070597206 
1895	 6.67767527823946E-02 
1896	 6.66986118754107E-02 
1897	 6.66124717275362E-02 
1898	 6.65507783838304E-02 
1899	 0.066488332389741 
1900	 6.64408300042176E-02 
1901	 6.63934128769533E-02 
1902	 6.63458721842412E-02 
1903	 6.62946233879141E-02 
1904	 6.62576400687627E-02 
1905	 6.62289817338524E-02 
1906	 6.61943133916807E-02 
1907	 6.61815271895114E-02 
1908	 6.61585270069008E-02 
1909	 6.61321169166024E-02 
1910	 0.066118805135834 
1911	 6.60824744905743E-02 
1912	 0.066031849611367 
1913	 6.59865496563503E-02 
1914	 6.59118964797051E-02 
1915	 0.065877240363306 
1916	 6.58638460688507E-02 
1917	 6.58606981483883E-02 
1918	 6.58525361501413E-02 
1919	 6.58646130912104E-02 
1920	 6.58394051645178E-02 
1921	 6.57941479238808E-02 
1922	 6.57710170691741E-02 
1923	 6.57453477900425E-02 
1924	 6.57429998823356E-02 
1925	 6.57699203072856E-02 
1926	 6.57929119725286E-02 
1927	 6.58359595243205E-02 
1928	 6.58616644155736E-02 
1929	 6.58713182954339E-02 
1930	 0.065873218306322 
1931	 6.58481346931873E-02 
1932	 6.58331255147117E-02 
1933	 6.58422289989798E-02 
1934	 6.58331729542886E-02 
1935	 6.58305020907984E-02 
1936	 6.58341442349077E-02 
1937	 6.58403059709623E-02 
1938	 6.58472132912917E-02 
1939	 6.58519680540038E-02 
1940	 6.58632934641954E-02 
1941	 6.58668093812605E-02 
1942	 6.58595316981889E-02 
1943	 6.58595626392968E-02 
1944	 6.58732591059735E-02 
1945	 6.58807330658534E-02 
1946	 6.59018037072729E-02 
1947	 6.59495307900391E-02 
1948	 0.065966781915088 
1949	 6.59775454195071E-02 
1950	 6.59883922294874E-02 
1951	 6.59772971778186E-02 
1952	 6.59759177516251E-02 
1953	 6.60064265414904E-02 
1954	 6.60186016608152E-02 
1955	 6.60326333498518E-02 
1956	 6.60377737022955E-02 
1957	 6.60455408377377E-02 
1958	 6.60434333091543E-02 
1959	 0.066051134973376 
1960	 0.066061879262763 
1961	 6.60771458843614E-02 
1962	 6.60896735666503E-02 
1963	 6.61128930110319E-02 
1964	 6.61449525693568E-02 
1965	 6.61853757796061E-02 
1966	 6.62302768431268E-02 
1967	 6.62714230228159E-02 
1968	 6.63091180329103E-02 
1969	 6.63468628118675E-02 
1970	 0.066381478331543 
1971	 6.64128652087423E-02 
1972	 6.64407205036228E-02 
1973	 6.64557185062432E-02 
1974	 6.64864280499765E-02 
1975	 6.65226339363128E-02 
1976	 6.65611128995413E-02 
1977	 6.66008795029257E-02 
1978	 6.66443223229712E-02 
1979	 0.066672986555089 
1980	 6.66969858507788E-02 
1981	 6.67224776913985E-02 
1982	 6.67447282101021E-02 
1983	 6.67726977896003E-02 
1984	 6.68001810920897E-02 
1985	 6.68262339598525E-02 
1986	 0.066859175388428 
1987	 6.68894029567503E-02 
1988	 6.69193216660188E-02 
1989	 6.69462061057279E-02 
1990	 6.69632094734409E-02 
1991	 6.69669329359255E-02 
1992	 6.69949448578457E-02 
1993	 6.70228040187368E-02 
1994	 6.70628570641466E-02 
1995	 6.71399774199447E-02 
1996	 6.71789923560523E-02 
1997	 6.71934520475069E-02 
1998	 6.72219266380268E-02 
1999	 6.72431939749037E-02 
2000	 6.72674833414015E-02 
2001	 6.72879870570844E-02 
2002	 6.73323765414244E-02 
2003	 6.73696933267202E-02 
2004	 6.74128097492555E-02 
2005	 0.067458796932641 
2006	 6.75192217276508E-02 
2007	 6.75664130473899E-02 
2008	 6.76093595416645E-02 
2009	 6.76514021335623E-02 
2010	 6.76985215466505E-02 
2011	 6.77329507355166E-02 
2012	 6.77589332893926E-02 
2013	 6.77823910185305E-02 
2014	 6.78027437852777E-02 
2015	 6.78039665989546E-02 
2016	 6.78064712902001E-02 
2017	 6.78205652941997E-02 
2018	 6.78530015589156E-02 
2019	 6.79021951368013E-02 
2020	 6.79431450604702E-02 
2021	 6.80019917618743E-02 
2022	 6.80476995293613E-02 
2023	 6.80783240160688E-02 
2024	 6.81201387828032E-02 
2025	 6.81768713277208E-02 
2026	 6.82195498040084E-02 
2027	 6.82559886532476E-02 
2028	 6.82907715213746E-02 
2029	 6.83229570534749E-02 
2030	 6.83429596700402E-02 
2031	 6.83709854108231E-02 
2032	 0.068399740395388 
2033	 6.84337609347308E-02 
2034	 6.84780252609412E-02 
2035	 6.85079418624244E-02 
2036	 6.85320461027931E-02 
2037	 6.85622548092519E-02 
2038	 6.85844084158599E-02 
2039	 6.86088924857339E-02 
2040	 6.86461440121052E-02 
2041	 6.86783866057886E-02 
2042	 6.86843064896615E-02 
2043	 6.86945010255037E-02 
2044	 6.87129445275229E-02 
2045	 6.87299235524591E-02 
2046	 6.87509314073829E-02 
2047	 6.87906544694042E-02 
2048	 6.88089971727681E-02 
2049	 6.88103008539739E-02 
2050	 6.88217219723211E-02 
2051	 0.068828979838581 
2052	 6.88411332932539E-02 
2053	 6.88605981415146E-02 
2054	 6.88784455431916E-02 
2055	 6.89000772271295E-02 
2056	 6.89097539843595E-02 
2057	 6.89316384687871E-02 
2058	 0.06896044190485 
2059	 6.89833805515157E-02 
2060	 0.069007436518502 
2061	 0.069032468158488 
2062	 6.90532555575718E-02 
2063	 0.069079415171876 
2064	 6.91235852037426E-02 
2065	 6.91421500066906E-02 
2066	 6.91401982825443E-02 
2067	 6.91506277650808E-02 
2068	 6.91486985951602E-02 
2069	 6.91577705551354E-02 
2070	 6.91670169413281E-02 
2071	 6.91858856678735E-02 
2072	 6.92069840212634E-02 
2073	 6.92182690156111E-02 
2074	 6.92532307709431E-02 
2075	 6.93189192865974E-02 
2076	 6.93588003724549E-02 
2077	 6.93993220129108E-02 
2078	 6.94355037421181E-02 
2079	 6.94557496692754E-02 
2080	 6.94819721629394E-02 
2081	 6.95171421816546E-02 
2082	 6.95432076884653E-02 
2083	 6.95592956511499E-02 
2084	 6.95824954228347E-02 
2085	 6.95980691446878E-02 
2086	 6.96022423881247E-02 
2087	 6.96248728801058E-02 
2088	 0.069656575355693 
2089	 0.069679055642919 
2090	 6.97070599619156E-02 
2091	 6.97323913086273E-02 
2092	 6.97513236676462E-02 
2093	 6.97697913660184E-02 
2094	 6.97848507581778E-02 
2095	 6.98107635134136E-02 
2096	 6.98423326345891E-02 
2097	 6.98660318702661E-02 
2098	 6.99002074150195E-02 
2099	 0.069926610332056 
2100	 6.99449750493236E-02 
2101	 0.069946228561847 
2102	 6.99601811151414E-02 
2103	 6.99670521623225E-02 
2104	 6.99968557041636E-02 
2105	 7.00425748697673E-02 
2106	 7.00808707235297E-02 
2107	 0.070137008800941 
2108	 7.01769208143629E-02 
2109	 7.01972247975065E-02 
2110	 7.02314421553884E-02 
2111	 7.02733826377367E-02 
2112	 7.03107569369564E-02 
2113	 7.03543221972202E-02 
2114	 7.03875389810644E-02 
2115	 7.04289702247593E-02 
2116	 7.04714866007908E-02 
2117	 7.05022239195314E-02 
2118	 7.05352521446415E-02 
2119	 7.05609713215506E-02 
2120	 7.05759457426743E-02 
2121	 0.070587940587299 
2122	 7.06002319491872E-02 
2123	 7.06036677665845E-02 
2124	 7.05848438859702E-02 
2125	 7.05842215207477E-02 
2126	 7.05939313678153E-02 
2127	 7.05958484247217E-02 
2128	 7.05972738020826E-02 
2129	 7.06031088417634E-02 
2130	 7.05893581428935E-02 
2131	 7.06117989392459E-02 
2132	 7.06193379193578E-02 
2133	 7.06449733683834E-02 
2134	 7.06401696568511E-02 
2135	 7.06059646813285E-02 
2136	 7.06043700859529E-02 
2137	 7.06064224450179E-02 
2138	 7.06069336057014E-02 
2139	 7.06394107026744E-02 
2140	 7.06392544429094E-02 
2141	 7.06097508747216E-02 
2142	 7.05905046321373E-02 
2143	 7.05641774210953E-02 
2144	 7.05414623538912E-02 
2145	 7.05236546535626E-02 
2146	 7.05022542455387E-02 
2147	 7.04836090782604E-02 
2148	 7.04519898911761E-02 
2149	 7.04300414941173E-02 
2150	 7.04186819725117E-02 
2151	 7.03782389631925E-02 
2152	 7.03318573078966E-02 
2153	 7.02760381473857E-02 
2154	 7.01834768240517E-02 
2155	 7.01223889474362E-02 
2156	 7.00693417404528E-02 
2157	 7.00211551698735E-02 
2158	 6.99890520051001E-02 
2159	 0.069951022776234 
2160	 6.99297127223054E-02 
2161	 6.98819723824302E-02 
2162	 6.98242498880831E-02 
2163	 6.97566938599016E-02 
2164	 6.96551338563381E-02 
2165	 6.95604255607885E-02 
2166	 6.94975745742803E-02 
2167	 6.94464284311142E-02 
2168	 6.93996616563873E-02 
2169	 6.93880426240606E-02 
2170	 6.93443450328687E-02 
2171	 6.92854011173577E-02 
2172	 6.92324220937997E-02 
2173	 6.91746855924133E-02 
2174	 6.91190776595944E-02 
2175	 0.069058113307607 
2176	 6.90088286107781E-02 
2177	 6.89724193430644E-02 
2178	 6.89228633225937E-02 
2179	 6.88681578556389E-02 
2180	 6.88227841486686E-02 
2181	 6.87627841663806E-02 
2182	 6.87207596187036E-02 
2183	 6.87066329108685E-02 
2184	 6.86895968077446E-02 
2185	 6.86531871594959E-02 
2186	 6.86161387962629E-02 
2187	 6.85654171768574E-02 
2188	 6.84948630883023E-02 
2189	 6.84253119571081E-02 
2190	 6.83315068207243E-02 
2191	 6.82809506687097E-02 
2192	 6.82384184810618E-02 
2193	 6.82076201531002E-02 
2194	 6.82253410308605E-02 
2195	 6.82116702499417E-02 
2196	 6.81860607696225E-02 
2197	 6.81597553514109E-02 
2198	 6.81311774196977E-02 
2199	 6.80941340612905E-02 
2200	 6.80181672846751E-02 
2201	 6.79923312509677E-02 
2202	 6.80004669800339E-02 
2203	 0.067990805721201 
2204	 6.80011804105184E-02 
2205	 6.80638156510185E-02 
2206	 6.80610949860777E-02 
2207	 6.80229795162993E-02 
2208	 6.80054428162725E-02 
2209	 6.79674725668518E-02 
2210	 6.79556330732109E-02 
2211	 6.79791498701523E-02 
2212	 6.79602412603482E-02 
2213	 6.79178853469525E-02 
2214	 6.78945903562579E-02 
2215	 6.78545335868635E-02 
2216	 6.78279954495112E-02 
2217	 6.78207408307427E-02 
2218	 6.78166010624893E-02 
2219	 6.78025862191395E-02 
2220	 0.067807012813166 
2221	 6.78353037610133E-02 
2222	 6.78687437274492E-02 
2223	 6.78866634328418E-02 
2224	 6.78865136989194E-02 
2225	 6.78947914919181E-02 
2226	 6.78836271087408E-02 
2227	 6.79004973388397E-02 
2228	 6.79417428448507E-02 
2229	 6.79616804203033E-02 
2230	 6.79859828477671E-02 
2231	 6.79973459295566E-02 
2232	 6.79769600834847E-02 
2233	 6.79982337858266E-02 
2234	 0.068045852443162 
2235	 6.80651629211523E-02 
2236	 6.80952765531495E-02 
2237	 0.068118363689113 
2238	 6.81185728461659E-02 
2239	 6.81253921529331E-02 
2240	 6.81467332052947E-02 
2241	 6.81539968514202E-02 
2242	 6.81366539759088E-02 
2243	 6.81312540762347E-02 
2244	 6.81248812766814E-02 
2245	 6.81272731521894E-02 
2246	 6.81343784952092E-02 
2247	 6.81696057387043E-02 
2248	 6.81938627089863E-02 
2249	 6.82403585402862E-02 
2250	 6.82419414787549E-02 
2251	 6.82093728583035E-02 
2252	 6.82174291710968E-02 
2253	 6.82157391341012E-02 
2254	 6.82335572610144E-02 
2255	 6.82964360612084E-02 
2256	 6.83222309256204E-02 
2257	 6.83330040446897E-02 
2258	 6.83394016730832E-02 
2259	 6.83303003910969E-02 
2260	 6.83393014627431E-02 
2261	 6.83421939399612E-02 
2262	 6.83618456639747E-02 
2263	 6.84202168095498E-02 
2264	 6.84355990060871E-02 
2265	 6.84179719019714E-02 
2266	 6.84279736166923E-02 
2267	 6.84392046596224E-02 
2268	 6.84397429304297E-02 
2269	 6.84511304413756E-02 
2270	 6.84711397268398E-02 
2271	 6.84421104575992E-02 
2272	 6.84340999747152E-02 
2273	 6.84814549941643E-02 
2274	 0.068531864397372 
2275	 6.85794468467954E-02 
2276	 6.86687754847924E-02 
2277	 6.86927252999417E-02 
2278	 6.86817798818385E-02 
2279	 6.86745377877642E-02 
2280	 6.86179315742984E-02 
2281	 6.86215627031782E-02 
2282	 6.86534600002901E-02 
2283	 6.86717336631303E-02 
2284	 6.87297275707168E-02 
2285	 6.87511938586494E-02 
2286	 6.87250384759054E-02 
2287	 6.87403172730082E-02 
2288	 6.87773064721239E-02 
2289	 0.068791642590739 
2290	 6.88310501110327E-02 
2291	 6.88362580403393E-02 
2292	 6.87747677131449E-02 
2293	 6.87674373409564E-02 
2294	 6.87845995540054E-02 
2295	 6.87867727198648E-02 
2296	 0.068801286791019 
2297	 6.88311967030678E-02 
2298	 6.88381431600967E-02 
2299	 6.88641402305713E-02 
2300	 6.88994667168843E-02 
2301	 6.89318862225162E-02 
2302	 6.89327602584868E-02 
2303	 0.068920360379196 
2304	 6.89574588958022E-02 
2305	 6.89786187021682E-02 
2306	 6.89983731754778E-02 
2307	 6.90471855488267E-02 
2308	 6.90524619455702E-02 
2309	 0.069006985046031 
2310	 6.90188558005235E-02 
2311	 6.90312616586319E-02 
2312	 6.90704946885773E-02 
2313	 6.91800778015016E-02 
2314	 6.92050591734718E-02 
2315	 6.91917673116465E-02 
2316	 6.92068395845526E-02 
2317	 6.91846409868558E-02 
2318	 6.91914661475587E-02 
2319	 6.92598642895895E-02 
2320	 6.92596040822964E-02 
2321	 6.91838845532303E-02 
2322	 6.91876566918908E-02 
2323	 6.92061801004446E-02 
2324	 0.069230184522876 
2325	 6.93317948685209E-02 
2326	 6.93791578058997E-02 
2327	 6.93709516227494E-02 
2328	 6.94035199059082E-02 
2329	 6.94415148613766E-02 
2330	 6.94581515832584E-02 
2331	 6.95097158488784E-02 
2332	 6.95539103128253E-02 
2333	 6.95826507243249E-02 
2334	 6.96185379430635E-02 
2335	 6.96617947272336E-02 
2336	 6.96703201083233E-02 
2337	 6.96511443112892E-02 
2338	 0.069669309409248 
2339	 6.96891759930548E-02 
2340	 6.97207646725366E-02 
2341	 6.97824155028534E-02 
2342	 6.98133801041747E-02 
2343	 6.98479355011717E-02 
2344	 6.98752516657872E-02 
2345	 6.98899590323991E-02 
2346	 0.069917823881421 
2347	 6.99203780737192E-02 
2348	 6.98844021536349E-02 
2349	 6.98502339734675E-02 
2350	 6.98006711732646E-02 
2351	 6.97591110763338E-02 
2352	 6.96863287582623E-02 
2353	 6.97075903505785E-02 
2354	 6.97896472327274E-02 
2355	 6.98452079556813E-02 
2356	 6.99977067495317E-02 
2357	 7.00037816373081E-02 
2358	 6.98759958031285E-02 
2359	 6.98502514481983E-02 
2360	 6.97933212917714E-02 
2361	 0.069785119220674 
2362	 6.98809977695271E-02 
2363	 6.98970115822153E-02 
2364	 0.069875892338195 
2365	 6.98621753902768E-02 
2366	 6.98334950167371E-02 
2367	 6.98259089465923E-02 
2368	 6.98021691548083E-02 
2369	 0.069808739282125 
2370	 6.98585150493291E-02 
2371	 6.98554362930334E-02 
2372	 6.98629543409049E-02 
2373	 6.98980460609494E-02 
2374	 0.069867654765543 
2375	 6.98126803325945E-02 
2376	 0.069826070851139 
2377	 6.97694113670157E-02 
2378	 0.069688688523462 
2379	 6.97394393944755E-02 
2380	 6.97214294495369E-02 
2381	 6.97612983078036E-02 
2382	 6.98762615230104E-02 
2383	 6.98982495174476E-02 
2384	 6.99635360201507E-02 
2385	 6.99851206138254E-02 
2386	 0.069953327612978 
2387	 6.99720825335387E-02 
2388	 7.00291007358148E-02 
2389	 7.00454267618958E-02 
2390	 7.00384748743867E-02 
2391	 7.00875515709712E-02 
2392	 7.00245984136726E-02 
2393	 6.99463438532637E-02 
2394	 0.069968185762443 
2395	 6.99229157713552E-02 
2396	 6.98817683077097E-02 
2397	 6.99189727321799E-02 
2398	 6.99170390483104E-02 
2399	 6.98617174314605E-02 
2400	 6.98374178572731E-02 
2401	 6.98264107959944E-02 
2402	 6.98199045984431E-02 
2403	 6.98784336392281E-02 
2404	 6.98893143058568E-02 
2405	 6.98530995800944E-02 
2406	 6.98285766231777E-02 
2407	 6.97109554565767E-02 
2408	 6.96847225115269E-02 
2409	 6.97244172089437E-02 
2410	 6.96948374120046E-02 
2411	 0.069714210574654 
2412	 6.96974488593545E-02 
2413	 6.96650407370807E-02 
2414	 6.96806957745128E-02 
2415	 6.97025877666173E-02 
2416	 6.97141209882953E-02 
2417	 6.97200281734618E-02 
2418	 0.069693933616943 
2419	 6.96661698145664E-02 
2420	 6.96629679066716E-02 
2421	 6.96313188063015E-02 
2422	 6.96697886656891E-02 
2423	 6.97672569794068E-02 
2424	 6.97366351066226E-02 
2425	 0.069716101163672 
2426	 6.96873469677384E-02 
2427	 6.94822482360345E-02 
2428	 6.95213175589599E-02 
2429	 6.97844119277496E-02 
2430	 6.97562333847446E-02 
2431	 6.97151437333911E-02 
2432	 0.069664572593293 
2433	 6.93611232779703E-02 
2434	 6.92724702537719E-02 
2435	 6.93626853696182E-02 
2436	 6.93564615688983E-02 
2437	 6.93395684994548E-02 
2438	 6.93751632664962E-02 
2439	 6.94402524525989E-02 
2440	 6.94554513593587E-02 
2441	 6.94782046401531E-02 
2442	 6.94763316589306E-02 
2443	 6.94052590280474E-02 
2444	 6.93559375554698E-02 
2445	 6.93406497055187E-02 
2446	 0.069344146428191 
2447	 6.93895762233591E-02 
2448	 6.93643050541958E-02 
2449	 6.92809905231613E-02 
2450	 6.92006926830961E-02 
2451	 6.90487187635186E-02 
2452	 6.89827843468921E-02 
2453	 6.90139662939554E-02 
2454	 6.90552579993185E-02 
2455	 6.90845794099122E-02 
2456	 6.91081399752746E-02 
2457	 6.92146566138519E-02 
2458	 6.91887819626352E-02 
2459	 6.90213943532917E-02 
2460	 6.89980458312926E-02 
2461	 6.90056746251381E-02 
2462	 6.89672968963554E-02 
2463	 6.90310101291718E-02 
2464	 6.90241405095649E-02 
2465	 6.88664153996481E-02 
2466	 6.88563738361904E-02 
2467	 6.89649194596502E-02 
2468	 6.89866011618558E-02 
2469	 6.90232052458235E-02 
2470	 6.90354993546143E-02 
2471	 6.89065809676861E-02 
2472	 6.89211059095777E-02 
2473	 6.89741681690213E-02 
2474	 6.91347531070871E-02 
2475	 6.92977781398377E-02 
2476	 6.92441076224094E-02 
2477	 6.92229459573655E-02 
2478	 6.89266595612538E-02 
2479	 6.86374664180136E-02 
2480	 6.86142103246346E-02 
2481	 0.068516108189574 
2482	 0.068544613385657 
2483	 6.85939522145354E-02 
2484	 6.85870390397304E-02 
2485	 6.86354495312347E-02 
2486	 6.86821181492287E-02 
2487	 6.86979080714985E-02 
2488	 6.87359540631311E-02 
2489	 6.87497109683477E-02 
2490	 0.068650877702531 
2491	 6.87403255356386E-02 
2492	 6.87359967815882E-02 
2493	 6.85869230939926E-02 
2494	 6.86674718673274E-02 
2495	 6.86257712512371E-02 
2496	 6.85192098774609E-02 
2497	 0.068403377507863 
2498	 6.82645615044302E-02 
2499	 6.82347102922202E-02 
2500	 6.82693820468065E-02 
