Wavelength	LMW_2100006.asd
350	 0.088349131791516 
351	 9.46492669480054E-02 
352	 9.24661628874974E-02 
353	 8.70086550992904E-02 
354	 8.74512443489796E-02 
355	 9.58636706117893E-02 
356	 0.102192130184405 
357	 9.95852792913611E-02 
358	 0.105226109460324 
359	 0.107981388742814 
360	 0.107116564864897 
361	 0.108469518447399 
362	 0.106822720505364 
363	 0.110411731884744 
364	 0.118355553229095 
365	 0.113274318515922 
366	 0.11159584658163 
367	 0.113202594783874 
368	 0.114648763769937 
369	 0.119311900749073 
370	 0.120907577148367 
371	 0.120223268678357 
372	 0.122638262996198 
373	 0.125654457389542 
374	 0.126098317051945 
375	 0.125074314758592 
376	 0.13161758908911 
377	 0.130080555694945 
378	 0.128338815234886 
379	 0.135938390906892 
380	 0.138785431318973 
381	 0.138268107757976 
382	 0.137350139479424 
383	 0.139549390746612 
384	 0.1443596661004 
385	 0.147766835278555 
386	 0.148214920805297 
387	 0.14970944541109 
388	 0.15093569092757 
389	 0.152469756471648 
390	 0.154863359326639 
391	 0.156089602260689 
392	 0.158492723596008 
393	 0.161485781849304 
394	 0.162186563171703 
395	 0.163283173224583 
396	 0.165778553266404 
397	 0.169350673532429 
398	 0.171773775783357 
399	 0.172724155493517 
400	 0.173059007613476 
401	 0.173826396192123 
402	 0.173722601539349 
403	 0.175303148126464 
404	 0.177913272340594 
405	 0.177701194461984 
406	 0.177555744784608 
407	 0.17858645609493 
408	 0.180512670911845 
409	 0.18051652299866 
410	 0.180761704498047 
411	 0.18163832794007 
412	 0.182640890284701 
413	 0.183392346986905 
414	 0.183895516566826 
415	 0.184168383819011 
416	 0.184173693031224 
417	 0.184008399375249 
418	 0.184322474668073 
419	 0.185296142217778 
420	 0.185265467576202 
421	 0.18466358767066 
422	 0.184126073879902 
423	 0.184267600061886 
424	 0.184394104109377 
425	 0.184209452749709 
426	 0.183599587519461 
427	 0.182530175481129 
428	 0.182183566031239 
429	 0.182271785022883 
430	 0.182164860084431 
431	 0.182363567910693 
432	 0.182018181939469 
433	 0.181365955241175 
434	 0.181657869979959 
435	 0.182037663908756 
436	 0.182329591735251 
437	 0.182679005788489 
438	 0.183656136192646 
439	 0.185294646652718 
440	 0.187480788091336 
441	 0.189909280868905 
442	 0.191578597640434 
443	 0.19312028696684 
444	 0.194649822270584 
445	 0.195220515839839 
446	 0.196027927997012 
447	 0.19688700358598 
448	 0.197383706980605 
449	 0.197929511994697 
450	 0.19859546278385 
451	 0.199209522690963 
452	 0.199434876368376 
453	 0.199544954828424 
454	 0.199772092144719 
455	 0.200178197534935 
456	 0.20047024634682 
457	 0.200558956457597 
458	 0.200720202452756 
459	 0.201261173920052 
460	 0.201327709123765 
461	 0.20137016255231 
462	 0.201514364617215 
463	 0.201244770976742 
464	 0.201781580025164 
465	 0.202450034231501 
466	 0.202393252585233 
467	 0.202250958425064 
468	 0.202435856154939 
469	 0.202844127703527 
470	 0.202967761061976 
471	 0.202800709303116 
472	 0.202746700342829 
473	 0.202964221758945 
474	 0.202853261547608 
475	 0.202882332012422 
476	 0.202980236851634 
477	 0.202915836094809 
478	 0.203144780837519 
479	 0.203099076508661 
480	 0.202771905073321 
481	 0.203039263792425 
482	 0.203248040087911 
483	 0.203255206045135 
484	 0.203121273584212 
485	 0.20312924904313 
486	 0.203067188067422 
487	 0.202953365969828 
488	 0.202989683740486 
489	 0.202955641987076 
490	 0.202971244873297 
491	 0.203089230198848 
492	 0.203062274363223 
493	 0.202939980687433 
494	 0.202851399660421 
495	 0.202917158209867 
496	 0.202844797655549 
497	 0.20271970946212 
498	 0.20262050075398 
499	 0.202561868741408 
500	 0.202453748075567 
501	 0.202301213713554 
502	 0.202141604507581 
503	 0.201997472970598 
504	 0.201920663142325 
505	 0.201903677760953 
506	 0.201883329706092 
507	 0.20176724843028 
508	 0.201670631767146 
509	 0.201623247296705 
510	 0.201274878084626 
511	 0.201148146251182 
512	 0.201183607247293 
513	 0.201026037933332 
514	 0.200699697570603 
515	 0.200545475907 
516	 0.200628632597997 
517	 0.200494506898881 
518	 0.20037545759938 
519	 0.200242315142936 
520	 0.200035743794738 
521	 0.199964723855867 
522	 0.199823968928147 
523	 0.199607765733813 
524	 0.199535087007351 
525	 0.199294097181708 
526	 0.199068442145883 
527	 0.199020807498017 
528	 0.198899146581447 
529	 0.198741110177212 
530	 0.198580187231741 
531	 0.198439600520368 
532	 0.198230450097902 
533	 0.198068999852061 
534	 0.197980688031482 
535	 0.197733975652133 
536	 0.197522404278402 
537	 0.197410019139871 
538	 0.197373071383009 
539	 0.197179446741522 
540	 0.19693546294588 
541	 0.196722739480191 
542	 0.196549402181367 
543	 0.196486925285152 
544	 0.196388247232305 
545	 0.196132704639339 
546	 0.195942389819709 
547	 0.195806567198931 
548	 0.195701364562421 
549	 0.195593809235286 
550	 0.195394479183058 
551	 0.195197136985128 
552	 0.195074807586511 
553	 0.194967502390137 
554	 0.194785235034362 
555	 0.194583815339879 
556	 0.194490172905492 
557	 0.194492479066285 
558	 0.194437719064708 
559	 0.194271687371101 
560	 0.194131016707062 
561	 0.194029564657258 
562	 0.193949336107317 
563	 0.193853117565906 
564	 0.193703791063212 
565	 0.193547385252831 
566	 0.19338339135593 
567	 0.193156259418655 
568	 0.193066790013029 
569	 0.192946972270989 
570	 0.192655712784543 
571	 0.192435087053411 
572	 0.192293292038608 
573	 0.192204227876102 
574	 0.192114084961383 
575	 0.191982901228739 
576	 0.191822624496812 
577	 0.191652252848919 
578	 0.191483929872172 
579	 0.191305945142299 
580	 0.19108814626726 
581	 0.190806942629588 
582	 0.190527992649904 
583	 0.190319804896149 
584	 0.190205339694234 
585	 0.190144952652935 
586	 0.190187714599471 
587	 0.190225367386931 
588	 0.190159871639928 
589	 0.190146933355349 
590	 0.190113406970542 
591	 0.190020611950067 
592	 0.189874094093661 
593	 0.189787875553343 
594	 0.189770887610022 
595	 0.189781519541807 
596	 0.18971402511644 
597	 0.189629130355125 
598	 0.1895133291648 
599	 0.189323244713631 
600	 0.189112001570102 
601	 0.188946470016053 
602	 0.188840822784962 
603	 0.188710520348067 
604	 0.188671852436035 
605	 0.188646238340406 
606	 0.188518148026012 
607	 0.188372172001128 
608	 0.188268891946752 
609	 0.188206293612934 
610	 0.188113917685439 
611	 0.188000754252635 
612	 0.187873696998378 
613	 0.187743264829361 
614	 0.187621188028918 
615	 0.187526541982908 
616	 0.187445517591647 
617	 0.18734796083961 
618	 0.187313568792749 
619	 0.187229885778527 
620	 0.187059403410447 
621	 0.186985012035601 
622	 0.186931523136715 
623	 0.186853903265503 
624	 0.186735413194464 
625	 0.186698034920863 
626	 0.186646662041852 
627	 0.186535783541852 
628	 0.186406634741441 
629	 0.186333140361921 
630	 0.186307171268377 
631	 0.186282192637961 
632	 0.186177569005549 
633	 0.186037705954074 
634	 0.185925733484929 
635	 0.18590700517285 
636	 0.185881196918153 
637	 0.185825403469687 
638	 0.185731347430339 
639	 0.185574566293293 
640	 0.185489220287466 
641	 0.185457305669471 
642	 0.185395833263787 
643	 0.185354332331091 
644	 0.185279447223993 
645	 0.185163537122222 
646	 0.185075574946853 
647	 0.18502463688619 
648	 0.18496745477972 
649	 0.184866098927286 
650	 0.184778720593979 
651	 0.184714860993085 
652	 0.184654303032888 
653	 0.184557386683635 
654	 0.184502686291003 
655	 0.184428870397073 
656	 0.184311594233175 
657	 0.184290313378509 
658	 0.184231327738312 
659	 0.18413283858337 
660	 0.1840536606262 
661	 0.183996485886893 
662	 0.183921375577383 
663	 0.183824088985091 
664	 0.1837574012802 
665	 0.183720222030217 
666	 0.183652633510111 
667	 0.183516805776653 
668	 0.183436925998665 
669	 0.183367470617249 
670	 0.183287326688124 
671	 0.183201518247793 
672	 0.183141176650314 
673	 0.183053752039515 
674	 0.182937942843375 
675	 0.182963540257443 
676	 0.182894620062288 
677	 0.182754624575189 
678	 0.182667069993935 
679	 0.18257307401736 
680	 0.182502236743147 
681	 0.182448541772372 
682	 0.182352566734854 
683	 0.182233723391943 
684	 0.182141691816911 
685	 0.182091125567931 
686	 0.181932367999424 
687	 0.181839411081176 
688	 0.181814724348166 
689	 0.181740599569461 
690	 0.18166542269097 
691	 0.181568164581894 
692	 0.18145117949893 
693	 0.181386807240243 
694	 0.181254464921395 
695	 0.181118216206431 
696	 0.181074374472714 
697	 0.180997141797014 
698	 0.18091510392551 
699	 0.180826928391047 
700	 0.180695042958642 
701	 0.180652924299195 
702	 0.180612610494898 
703	 0.180494517750667 
704	 0.180376658234642 
705	 0.180275541372397 
706	 0.18018147244733 
707	 0.180073845582931 
708	 0.179982830367451 
709	 0.17988900723747 
710	 0.179791706428607 
711	 0.17972502715651 
712	 0.179633417623164 
713	 0.179523313374559 
714	 0.179424236406888 
715	 0.179389401914364 
716	 0.179289296001645 
717	 0.179134652637009 
718	 0.179036283832416 
719	 0.178956961765746 
720	 0.178899542735847 
721	 0.178850052091781 
722	 0.178753767049713 
723	 0.178642533368506 
724	 0.178534817477428 
725	 0.178436164293301 
726	 0.178302116578037 
727	 0.17821626659627 
728	 0.178166211525759 
729	 0.178052932987547 
730	 0.177973283125899 
731	 0.177905133491446 
732	 0.177819213974984 
733	 0.177718142042892 
734	 0.177638467425996 
735	 0.177553847902609 
736	 0.177427842012074 
737	 0.17733645134544 
738	 0.177262298255555 
739	 0.177189246289828 
740	 0.177110945862586 
741	 0.177048390254752 
742	 0.17695043354262 
743	 0.176799311158084 
744	 0.176703953273394 
745	 0.176629918308658 
746	 0.176574087394941 
747	 0.176535112194313 
748	 0.176434744983431 
749	 0.176319318286558 
750	 0.176240339109914 
751	 0.176237123922663 
752	 0.176091101240972 
753	 0.175921626042258 
754	 0.175855923742052 
755	 0.175798929877714 
756	 0.175753928748704 
757	 0.175709481892724 
758	 0.175648103410248 
759	 0.175558891805045 
760	 0.175426523265496 
761	 0.175279939062613 
762	 0.175199855582868 
763	 0.175157738312328 
764	 0.175103926678777 
765	 0.175008372926055 
766	 0.174905074735291 
767	 0.174877388785183 
768	 0.174856778698213 
769	 0.174722012813344 
770	 0.174582825059796 
771	 0.174496890541231 
772	 0.174458423691233 
773	 0.174394127506296 
774	 0.174343228523213 
775	 0.174275754976958 
776	 0.174176390207888 
777	 0.174110236921999 
778	 0.174018497148702 
779	 0.17392384938037 
780	 0.173872280406873 
781	 0.173803239023437 
782	 0.173746566616815 
783	 0.173688555859121 
784	 0.1735696625595 
785	 0.173511214193544 
786	 0.173456624642549 
787	 0.173359505864264 
788	 0.17328107473973 
789	 0.173221393616681 
790	 0.173163911957411 
791	 0.173089560015294 
792	 0.173010772849207 
793	 0.172955224902168 
794	 0.172921382586834 
795	 0.172878504943963 
796	 0.172766784535829 
797	 0.172676788854155 
798	 0.172647398224451 
799	 0.172579536045512 
800	 0.172516581845793 
801	 0.172445770852914 
802	 0.172355237504557 
803	 0.172294696245302 
804	 0.172257430780981 
805	 0.172202302817239 
806	 0.17208406694021 
807	 0.17199985490335 
808	 0.171955937353089 
809	 0.171919606777422 
810	 0.171826141736699 
811	 0.171800815792015 
812	 0.171768236597183 
813	 0.171672722135892 
814	 0.171640043509632 
815	 0.171591957437065 
816	 0.171509222441688 
817	 0.171415599824657 
818	 0.171420741461404 
819	 0.171432485220528 
820	 0.171374287032303 
821	 0.171215996520005 
822	 0.171160575840463 
823	 0.171101477893446 
824	 0.171000861173794 
825	 0.171013132970704 
826	 0.170983523358475 
827	 0.170914278925925 
828	 0.170840629166762 
829	 0.170749636463076 
830	 0.170703198900442 
831	 0.170666185176978 
832	 0.17057673923201 
833	 0.170535513860542 
834	 0.170467503572156 
835	 0.17037869878556 
836	 0.170354583843762 
837	 0.170337838455368 
838	 0.170298156637041 
839	 0.170221784818663 
840	 0.170113543032739 
841	 0.170070298352768 
842	 0.170054081718951 
843	 0.170007207739338 
844	 0.169938216571631 
845	 0.169924121460078 
846	 0.16989271731279 
847	 0.169754352876367 
848	 0.169748379919754 
849	 0.169721603717859 
850	 0.169633108607902 
851	 0.169558654402855 
852	 0.169512264588794 
853	 0.169471676431579 
854	 0.1694215230721 
855	 0.169366671573538 
856	 0.169307023512319 
857	 0.169274556946721 
858	 0.169266600107623 
859	 0.16917234529897 
860	 0.169095733797561 
861	 0.169041674832151 
862	 0.168980970989742 
863	 0.168904601679501 
864	 0.168821715740417 
865	 0.168762300700418 
866	 0.168751449888884 
867	 0.168693423860487 
868	 0.168675240695047 
869	 0.168689077255952 
870	 0.168624921424513 
871	 0.168563303677471 
872	 0.168505017226362 
873	 0.16844474344129 
874	 0.168387601984766 
875	 0.168317087424819 
876	 0.168272418000082 
877	 0.168264981912644 
878	 0.168198874724876 
879	 0.168129324993205 
880	 0.168085954264446 
881	 0.16807816528567 
882	 0.168080966793766 
883	 0.168011241583598 
884	 0.167903842647769 
885	 0.167843879352687 
886	 0.167763179277623 
887	 0.167717867016976 
888	 0.167698427711358 
889	 0.167645649224648 
890	 0.167668952979873 
891	 0.167606215617644 
892	 0.167452104267919 
893	 0.167424295527229 
894	 0.167398172250896 
895	 0.167373447246865 
896	 0.167365458669758 
897	 0.167378869658643 
898	 0.167316299630165 
899	 0.167236333356248 
900	 0.167203292941107 
901	 0.167180313181442 
902	 0.167152223388772 
903	 0.167085445777927 
904	 0.166975693937712 
905	 0.166931956385802 
906	 0.166923494664081 
907	 0.166911617260281 
908	 0.166874013464622 
909	 0.166896593258312 
910	 0.166826305982637 
911	 0.166725849721744 
912	 0.166760002924468 
913	 0.166704155388704 
914	 0.166625495103809 
915	 0.166557879473339 
916	 0.166486657674599 
917	 0.166443462684498 
918	 0.166447170579028 
919	 0.166442575101144 
920	 0.166316332964479 
921	 0.166289817100098 
922	 0.16625270781274 
923	 0.166174495391694 
924	 0.166212343591932 
925	 0.166149334402532 
926	 0.166081099453387 
927	 0.166060286548267 
928	 0.16593867004537 
929	 0.165947976649527 
930	 0.16600392876486 
931	 0.165983347371428 
932	 0.165869281929295 
933	 0.165832148031779 
934	 0.165844793318573 
935	 0.165823146260138 
936	 0.165710356887516 
937	 0.165626394221838 
938	 0.165570113244602 
939	 0.165514454013416 
940	 0.165502391181413 
941	 0.165488539284769 
942	 0.165522921846198 
943	 0.165616709446839 
944	 0.165486117469977 
945	 0.165396341467238 
946	 0.16533816543603 
947	 0.165219369968744 
948	 0.165207959082753 
949	 0.165184631969147 
950	 0.165105555023843 
951	 0.165011182771512 
952	 0.16510256960686 
953	 0.165130585301379 
954	 0.165058939552188 
955	 0.165002151330886 
956	 0.165080313722017 
957	 0.165088978108924 
958	 0.164957419054095 
959	 0.16476121286991 
960	 0.164764366930448 
961	 0.164776492079019 
962	 0.164717156562046 
963	 0.164618425645787 
964	 0.164550976655269 
965	 0.164612491221789 
966	 0.164700372359801 
967	 0.164632572617091 
968	 0.164600240583221 
969	 0.16458145668756 
970	 0.164507291796835 
971	 0.164334128798098 
972	 0.164282821513057 
973	 0.164256967938427 
974	 0.164212288108795 
975	 0.164175438035498 
976	 0.164278712612473 
977	 0.164210565732099 
978	 0.164052546843978 
979	 0.16408744747574 
980	 0.164064938349376 
981	 0.164006783643023 
982	 0.163926943615153 
983	 0.163849227845691 
984	 0.163920210860413 
985	 0.163884032125485 
986	 0.163766447711286 
987	 0.163727720720614 
988	 0.163629898382975 
989	 0.163700497236352 
990	 0.16378976833034 
991	 0.163644576490737 
992	 0.163510644489562 
993	 0.163394666566153 
994	 0.16342820870931 
995	 0.163627070088648 
996	 0.163360791970976 
997	 0.163355674345218 
998	 0.163472098347523 
999	 0.163373186664583 
1000	 0.163395675060714 
1001	 0.159195566192813 
1002	 0.159082864260561 
1003	 0.159047447006808 
1004	 0.159020041928707 
1005	 0.159038706003111 
1006	 0.159026366808705 
1007	 0.159020420821168 
1008	 0.158981052014666 
1009	 0.158979593324338 
1010	 0.15893441492951 
1011	 0.158874353192791 
1012	 0.158880405466726 
1013	 0.158853349229934 
1014	 0.158778528776198 
1015	 0.158746874974616 
1016	 0.158724829224707 
1017	 0.158690579821427 
1018	 0.158648458154413 
1019	 0.158633728394376 
1020	 0.158634796268593 
1021	 0.158598383527069 
1022	 0.158536540319095 
1023	 0.158478830432266 
1024	 0.158403910497345 
1025	 0.158349334561814 
1026	 0.158323880953792 
1027	 0.158318067497956 
1028	 0.158301411265826 
1029	 0.158242581682449 
1030	 0.158176736131714 
1031	 0.158114311296412 
1032	 0.158037503619983 
1033	 0.157964850674085 
1034	 0.157921725389406 
1035	 0.157885421799838 
1036	 0.157877628021461 
1037	 0.157867266848364 
1038	 0.157815012869582 
1039	 0.157786773795036 
1040	 0.157696720282132 
1041	 0.157560261982363 
1042	 0.157537653683608 
1043	 0.157510526784676 
1044	 0.157465982942165 
1045	 0.157437058205982 
1046	 0.157457039382735 
1047	 0.157404923474543 
1048	 0.157302882638036 
1049	 0.157237063363946 
1050	 0.157219107217144 
1051	 0.157180920965388 
1052	 0.157153674106341 
1053	 0.157170383773139 
1054	 0.15712076934553 
1055	 0.157017852506726 
1056	 0.156969818742979 
1057	 0.156926417103384 
1058	 0.156882514348528 
1059	 0.156826034370996 
1060	 0.156799842292949 
1061	 0.156744948727334 
1062	 0.156600176783933 
1063	 0.156511332218961 
1064	 0.156459452347038 
1065	 0.156413305088066 
1066	 0.156424619683027 
1067	 0.156397840266653 
1068	 0.156364643604253 
1069	 0.15633479743642 
1070	 0.156267373991227 
1071	 0.156177479652608 
1072	 0.156102895707294 
1073	 0.155962525530515 
1074	 0.155884290253141 
1075	 0.15584871648633 
1076	 0.155821472307955 
1077	 0.155763528444831 
1078	 0.155763809939707 
1079	 0.155729350152698 
1080	 0.155664728622955 
1081	 0.155630157211174 
1082	 0.155600848745527 
1083	 0.155568727766819 
1084	 0.155558940813109 
1085	 0.155503612124093 
1086	 0.155414844462287 
1087	 0.155345307862738 
1088	 0.155252119917634 
1089	 0.155168682460033 
1090	 0.155151183816383 
1091	 0.155135494024631 
1092	 0.155117742725301 
1093	 0.155101384003077 
1094	 0.155084781983406 
1095	 0.155080706306291 
1096	 0.15500125730234 
1097	 0.154912824984085 
1098	 0.154860286473879 
1099	 0.154778686977518 
1100	 0.154727250749023 
1101	 0.154745073878643 
1102	 0.154723372695146 
1103	 0.154690562322539 
1104	 0.154635376466064 
1105	 0.154574909973962 
1106	 0.154532311300737 
1107	 0.15445482030401 
1108	 0.154359005233188 
1109	 0.154318941745051 
1110	 0.154285845744543 
1111	 0.154253438421002 
1112	 0.154253017461447 
1113	 0.154234412555017 
1114	 0.15419664164265 
1115	 0.154169554693904 
1116	 0.154163510397465 
1117	 0.154127225120731 
1118	 0.154061803256585 
1119	 0.154027732763929 
1120	 0.154007578405668 
1121	 0.153972369498716 
1122	 0.153964450121572 
1123	 0.153949612469609 
1124	 0.153905368236273 
1125	 0.153821929037798 
1126	 0.153765418189569 
1127	 0.153710652996723 
1128	 0.153649506424676 
1129	 0.15356863397923 
1130	 0.153529755574476 
1131	 0.153516689711929 
1132	 0.153484462804405 
1133	 0.15347900080852 
1134	 0.153459554206333 
1135	 0.153424471297626 
1136	 0.153371912289598 
1137	 0.153330449326839 
1138	 0.153294045893033 
1139	 0.153252186788153 
1140	 0.153203555820644 
1141	 0.153152394368545 
1142	 0.15309372717879 
1143	 0.153049013301618 
1144	 0.153012614022946 
1145	 0.152965989356209 
1146	 0.152922164035688 
1147	 0.152880706736842 
1148	 0.152831359175076 
1149	 0.152778362274544 
1150	 0.152723811780876 
1151	 0.152688263366996 
1152	 0.152625565450132 
1153	 0.152564529619881 
1154	 0.152524840663359 
1155	 0.152509843100003 
1156	 0.152463690021876 
1157	 0.152421268193855 
1158	 0.152367273359692 
1159	 0.15228440530969 
1160	 0.15221667634772 
1161	 0.152142823534182 
1162	 0.152090432724351 
1163	 0.15205931971589 
1164	 0.152015569906202 
1165	 0.15197703058112 
1166	 0.151942050662291 
1167	 0.151907802542238 
1168	 0.15185788302038 
1169	 0.151809439655186 
1170	 0.151764426824027 
1171	 0.151722596982643 
1172	 0.15167161379474 
1173	 0.151626262842033 
1174	 0.151599534937148 
1175	 0.151553508853988 
1176	 0.151481542212107 
1177	 0.15143554074898 
1178	 0.151398421173902 
1179	 0.151359891417677 
1180	 0.15134622349561 
1181	 0.151312083443201 
1182	 0.151260307323875 
1183	 0.151209045001226 
1184	 0.151166981019704 
1185	 0.151121552415291 
1186	 0.15107962560733 
1187	 0.15105039090965 
1188	 0.151009371435492 
1189	 0.150961265096965 
1190	 0.150913373196602 
1191	 0.150858606367251 
1192	 0.150814667852103 
1193	 0.150766661877629 
1194	 0.15073147051188 
1195	 0.150716091513295 
1196	 0.150689978907059 
1197	 0.150679541350479 
1198	 0.150646448665734 
1199	 0.150601134279406 
1200	 0.150535454739448 
1201	 0.150492040924314 
1202	 0.150439083837036 
1203	 0.150400198420242 
1204	 0.150387481296483 
1205	 0.150349778160956 
1206	 0.150301967064571 
1207	 0.150255237589112 
1208	 0.15019638508832 
1209	 0.15014888567547 
1210	 0.150103632500679 
1211	 0.150062127380479 
1212	 0.150037997374679 
1213	 0.149996196002694 
1214	 0.149942482246479 
1215	 0.149894562998399 
1216	 0.149844570138146 
1217	 0.149782146968545 
1218	 0.149735141167975 
1219	 0.149705989329104 
1220	 0.149653402967627 
1221	 0.149581168363241 
1222	 0.149538616087112 
1223	 0.14950476418076 
1224	 0.149461832052334 
1225	 0.149434902838229 
1226	 0.14940120672109 
1227	 0.149348297386349 
1228	 0.14930648811442 
1229	 0.149288358965062 
1230	 0.149249630117397 
1231	 0.149197469920168 
1232	 0.149145581268122 
1233	 0.149089001544907 
1234	 0.149018093829948 
1235	 0.148966344899689 
1236	 0.148919887185543 
1237	 0.148874912777794 
1238	 0.148840441551738 
1239	 0.148798359488862 
1240	 0.148750785714961 
1241	 0.14871104243903 
1242	 0.148685645097044 
1243	 0.148636709405801 
1244	 0.148567170871999 
1245	 0.148519650367048 
1246	 0.148471057669643 
1247	 0.148420843441763 
1248	 0.148388903319363 
1249	 0.148355113726938 
1250	 0.148290418919641 
1251	 0.148219886157646 
1252	 0.148170636092735 
1253	 0.148127352498024 
1254	 0.148083720452525 
1255	 0.148064084779539 
1256	 0.148012977207201 
1257	 0.147941093929567 
1258	 0.147879267246466 
1259	 0.147804254542749 
1260	 0.147741159252582 
1261	 0.147679851283856 
1262	 0.147631326336501 
1263	 0.147604474110475 
1264	 0.147557572563178 
1265	 0.147515419768233 
1266	 0.147465064756102 
1267	 0.147398082743112 
1268	 0.147322990346085 
1269	 0.147259572118328 
1270	 0.147191056809375 
1271	 0.14714726296008 
1272	 0.147125408730125 
1273	 0.147083050492279 
1274	 0.14705080796339 
1275	 0.147007459904328 
1276	 0.146942140937875 
1277	 0.146889644081979 
1278	 0.146850378353891 
1279	 0.146798417040392 
1280	 0.146736954397207 
1281	 0.146682706887891 
1282	 0.146620109673706 
1283	 0.146570661728449 
1284	 0.146548550613743 
1285	 0.146494795332896 
1286	 0.146438740407076 
1287	 0.146385825780098 
1288	 0.146347604678902 
1289	 0.146314951331801 
1290	 0.146270863628959 
1291	 0.146242316557437 
1292	 0.146193422999401 
1293	 0.146114333989276 
1294	 0.146056635227911 
1295	 0.146006438514569 
1296	 0.145958010498892 
1297	 0.14592023252751 
1298	 0.145867549235064 
1299	 0.145813554025689 
1300	 0.145753552234634 
1301	 0.145668866606398 
1302	 0.145607744969011 
1303	 0.145567214604958 
1304	 0.145505670752162 
1305	 0.145450582077895 
1306	 0.145422129773341 
1307	 0.145378167237319 
1308	 0.145331821101807 
1309	 0.145272811606983 
1310	 0.145204317076701 
1311	 0.145143641473781 
1312	 0.145068368183983 
1313	 0.145010640243109 
1314	 0.144979544453389 
1315	 0.144922345579384 
1316	 0.144848458545646 
1317	 0.144793465192289 
1318	 0.144737463490517 
1319	 0.144683258258874 
1320	 0.144645535222483 
1321	 0.144596719757534 
1322	 0.144541370389334 
1323	 0.14447829409109 
1324	 0.144439669205632 
1325	 0.1444016084979 
1326	 0.144337683877358 
1327	 0.144280907255579 
1328	 0.144211038216421 
1329	 0.144132231500478 
1330	 0.14407489333128 
1331	 0.144035314278012 
1332	 0.143992860798255 
1333	 0.143961044423698 
1334	 0.143917742064191 
1335	 0.143874165685225 
1336	 0.143828855779517 
1337	 0.143779136675778 
1338	 0.143726071683273 
1339	 0.143665129276104 
1340	 0.14361733625205 
1341	 0.143579201913872 
1342	 0.143527172648167 
1343	 0.143474586546608 
1344	 0.143427234334852 
1345	 0.143360657235291 
1346	 0.143288312131219 
1347	 0.143242717033644 
1348	 0.143188543243307 
1349	 0.143144616607876 
1350	 0.143108379668371 
1351	 0.143050558873878 
1352	 0.142979681226906 
1353	 0.142920375103672 
1354	 0.142849440061846 
1355	 0.142791066581677 
1356	 0.142750984050371 
1357	 0.142697005319426 
1358	 0.142634722103646 
1359	 0.142576344796298 
1360	 0.142521360982678 
1361	 0.142456662157595 
1362	 0.142387478956123 
1363	 0.142319587017052 
1364	 0.142236996912719 
1365	 0.142174085006853 
1366	 0.142123578093663 
1367	 0.142072127937988 
1368	 0.142036693243366 
1369	 0.142000284530952 
1370	 0.141937163389636 
1371	 0.141871699237734 
1372	 0.141808448268162 
1373	 0.141721610015454 
1374	 0.141648311222356 
1375	 0.141584185928294 
1376	 0.141514428220332 
1377	 0.141439262261101 
1378	 0.141369321078092 
1379	 0.141305907741949 
1380	 0.141231744681357 
1381	 0.141152549309374 
1382	 0.141072156437775 
1383	 0.140986206075672 
1384	 0.140900690052387 
1385	 0.140812437660311 
1386	 0.1407315668305 
1387	 0.140662309168228 
1388	 0.140575040624128 
1389	 0.140480192766 
1390	 0.140392995209932 
1391	 0.140287919437881 
1392	 0.140167017148215 
1393	 0.14004585503356 
1394	 0.139916082617778 
1395	 0.13979392664199 
1396	 0.139660490266213 
1397	 0.139516401005409 
1398	 0.139373017141996 
1399	 0.139213553358767 
1400	 0.139032462585851 
1401	 0.138862081403108 
1402	 0.138693150492475 
1403	 0.138514278003557 
1404	 0.138323264238197 
1405	 0.138140985050995 
1406	 0.137969010868235 
1407	 0.137778620736625 
1408	 0.137573651807567 
1409	 0.137383986395614 
1410	 0.137178219898531 
1411	 0.136990592758289 
1412	 0.136813799376546 
1413	 0.136666654560584 
1414	 0.136517478531751 
1415	 0.136352123355011 
1416	 0.136200200294525 
1417	 0.136054934860325 
1418	 0.135901400562108 
1419	 0.135762514620609 
1420	 0.135640293010966 
1421	 0.135509964027741 
1422	 0.135366998907901 
1423	 0.135225057317396 
1424	 0.135080410891995 
1425	 0.134917258015188 
1426	 0.134775417949806 
1427	 0.13464819962857 
1428	 0.134512998497652 
1429	 0.134381968462299 
1430	 0.134243978393511 
1431	 0.134103233687468 
1432	 0.133959265246218 
1433	 0.133804253143612 
1434	 0.133663170575216 
1435	 0.133528381067198 
1436	 0.133391849824778 
1437	 0.133263541105926 
1438	 0.133132768917349 
1439	 0.133003208215902 
1440	 0.132859307166379 
1441	 0.132725512829666 
1442	 0.132595953344852 
1443	 0.132464201576316 
1444	 0.132342351801616 
1445	 0.13222747459854 
1446	 0.132119758229038 
1447	 0.132018009442585 
1448	 0.131920353440685 
1449	 0.131835204901847 
1450	 0.131756784755111 
1451	 0.13169225310006 
1452	 0.131642573346198 
1453	 0.131599045791005 
1454	 0.131562003478956 
1455	 0.131540268327819 
1456	 0.131531171904526 
1457	 0.131529738154982 
1458	 0.131542549705573 
1459	 0.131555634943568 
1460	 0.131567573372146 
1461	 0.131598998196433 
1462	 0.131654024836236 
1463	 0.131699182710894 
1464	 0.131749464684397 
1465	 0.131805397440743 
1466	 0.1318655134274 
1467	 0.131909315633579 
1468	 0.131959141449898 
1469	 0.131999555358038 
1470	 0.132018459875755 
1471	 0.132041335780387 
1472	 0.132078282175052 
1473	 0.132100943837111 
1474	 0.132106779426923 
1475	 0.132117980376543 
1476	 0.1321351537179 
1477	 0.1321459201033 
1478	 0.132153433614806 
1479	 0.132164716126873 
1480	 0.132170851930833 
1481	 0.132174165722273 
1482	 0.132180059692454 
1483	 0.132192699970339 
1484	 0.132200172043701 
1485	 0.132204091018574 
1486	 0.132206700796692 
1487	 0.132212528826763 
1488	 0.132215445250501 
1489	 0.132217668159552 
1490	 0.132205895179077 
1491	 0.132185248099927 
1492	 0.13217059386429 
1493	 0.132145344220135 
1494	 0.132125330727746 
1495	 0.132115996998695 
1496	 0.132094421779794 
1497	 0.132064455495012 
1498	 0.132039819365198 
1499	 0.132017105401348 
1500	 0.131989788324737 
1501	 0.131956352555293 
1502	 0.131925198399565 
1503	 0.131886788765727 
1504	 0.131861418998443 
1505	 0.131846099201642 
1506	 0.131823484369098 
1507	 0.131801595892461 
1508	 0.13178113830919 
1509	 0.131740410345702 
1510	 0.131698822852397 
1511	 0.131664590840398 
1512	 0.131624147746955 
1513	 0.131577245771372 
1514	 0.1315415470293 
1515	 0.131511852153655 
1516	 0.131480937582162 
1517	 0.131461232306855 
1518	 0.131465984459313 
1519	 0.131444390731426 
1520	 0.131416469473045 
1521	 0.131381644658236 
1522	 0.131333630235522 
1523	 0.131286944063591 
1524	 0.131232548837095 
1525	 0.131190241759423 
1526	 0.131148685514794 
1527	 0.131111505662589 
1528	 0.131086129771611 
1529	 0.131049119779684 
1530	 0.131008861843723 
1531	 0.130968878270431 
1532	 0.130919887794987 
1533	 0.130885195868898 
1534	 0.130860672323902 
1535	 0.130826109531355 
1536	 0.130782503851143 
1537	 0.130761164596951 
1538	 0.130751639849881 
1539	 0.130735128466019 
1540	 0.130739890678281 
1541	 0.130726570823581 
1542	 0.130689529003983 
1543	 0.130662944007347 
1544	 0.130642095545866 
1545	 0.13061760794503 
1546	 0.130599014506513 
1547	 0.130568610890711 
1548	 0.130515915095481 
1549	 0.130466776867868 
1550	 0.130415623989322 
1551	 0.130350402501303 
1552	 0.130308905346536 
1553	 0.130263762222408 
1554	 0.130216180972152 
1555	 0.130188682979244 
1556	 0.130157406303671 
1557	 0.130125606980497 
1558	 0.130090598838368 
1559	 0.130047204690337 
1560	 0.130009501100037 
1561	 0.129972444566459 
1562	 0.129926930919005 
1563	 0.129882953815464 
1564	 0.129829779278244 
1565	 0.129766636111034 
1566	 0.12970391126821 
1567	 0.129630666697473 
1568	 0.129575341395112 
1569	 0.129528061881532 
1570	 0.129469516833205 
1571	 0.12941466135572 
1572	 0.12936416326046 
1573	 0.129302848642045 
1574	 0.129252829490911 
1575	 0.129233309908168 
1576	 0.129176918586712 
1577	 0.129087874267663 
1578	 0.129026914068078 
1579	 0.128963141466025 
1580	 0.128903831508038 
1581	 0.128870228724133 
1582	 0.128821410872837 
1583	 0.128754975720249 
1584	 0.128700335328933 
1585	 0.128653124888346 
1586	 0.128599761270681 
1587	 0.128547807771678 
1588	 0.128492696853103 
1589	 0.128434857012062 
1590	 0.128374736241541 
1591	 0.128300591254896 
1592	 0.128248678371393 
1593	 0.128218806751786 
1594	 0.128165941956152 
1595	 0.128116265107382 
1596	 0.128061371257483 
1597	 0.127981760935693 
1598	 0.127912292799049 
1599	 0.127857409701149 
1600	 0.127792792092871 
1601	 0.12771527388751 
1602	 0.127645732210008 
1603	 0.127580637831416 
1604	 0.12751116149369 
1605	 0.12745476660443 
1606	 0.127380112089153 
1607	 0.127286524379831 
1608	 0.127195159029948 
1609	 0.127104698881136 
1610	 0.127023806204578 
1611	 0.126971999809267 
1612	 0.126922077910077 
1613	 0.126871610698371 
1614	 0.126809875688346 
1615	 0.126748839308591 
1616	 0.126689388303219 
1617	 0.126613640293974 
1618	 0.12654730057844 
1619	 0.126491429737519 
1620	 0.126438559785963 
1621	 0.126375970555449 
1622	 0.126325542480438 
1623	 0.126258597926999 
1624	 0.126164387966798 
1625	 0.126104350754852 
1626	 0.126064130079425 
1627	 0.126005722058894 
1628	 0.125951538310739 
1629	 0.125889904813704 
1630	 0.125813818845147 
1631	 0.125751563962999 
1632	 0.125699391181967 
1633	 0.125635280813417 
1634	 0.125565661944496 
1635	 0.125503091839884 
1636	 0.125447688600454 
1637	 0.125366851688918 
1638	 0.125277313538174 
1639	 0.12519115420128 
1640	 0.125079556693171 
1641	 0.124996599391208 
1642	 0.124936513545895 
1643	 0.124863560646612 
1644	 0.124785961376125 
1645	 0.124721828563206 
1646	 0.124666891520979 
1647	 0.124603435135292 
1648	 0.1245532525917 
1649	 0.124479036750805 
1650	 0.124383264253312 
1651	 0.124299181854503 
1652	 0.124204356770534 
1653	 0.124127143591537 
1654	 0.124063395626747 
1655	 0.123992418412777 
1656	 0.123925524753482 
1657	 0.123857815499873 
1658	 0.12378612576495 
1659	 0.1237188362567 
1660	 0.123661897624408 
1661	 0.123590068821523 
1662	 0.123506501367475 
1663	 0.123434812512848 
1664	 0.123358804226445 
1665	 0.123290722203432 
1666	 0.123233381735791 
1667	 0.123175627503151 
1668	 0.123132288285569 
1669	 0.123058190276115 
1670	 0.122968051211009 
1671	 0.122888749487783 
1672	 0.122773215304669 
1673	 0.122711486472 
1674	 0.122704217596506 
1675	 0.122654216938753 
1676	 0.122611075230352 
1677	 0.122553201728969 
1678	 0.122472579745808 
1679	 0.122386237929325 
1680	 0.122287360324558 
1681	 0.122206371269072 
1682	 0.122111601857323 
1683	 0.122037497150139 
1684	 0.122003334305105 
1685	 0.121933144399519 
1686	 0.121835792117498 
1687	 0.121768589417436 
1688	 0.121705307262599 
1689	 0.121641349569893 
1690	 0.121599038109186 
1691	 0.121545557063658 
1692	 0.121476710735603 
1693	 0.121418140123569 
1694	 0.121374639186197 
1695	 0.121313165910502 
1696	 0.121242346528971 
1697	 0.121171891774222 
1698	 0.121091043773306 
1699	 0.12101923202734 
1700	 0.120947466006113 
1701	 0.120884224138114 
1702	 0.120830312836528 
1703	 0.120770275065282 
1704	 0.120711842611999 
1705	 0.120656835320884 
1706	 0.120608515230025 
1707	 0.120540426809369 
1708	 0.120454210361288 
1709	 0.120395989692269 
1710	 0.120340257080238 
1711	 0.120284964488848 
1712	 0.120253300085263 
1713	 0.120209613149466 
1714	 0.120145128169999 
1715	 0.120098215824822 
1716	 0.120080727559064 
1717	 0.120024117384773 
1718	 0.119939823336928 
1719	 0.119880984317191 
1720	 0.119817373774058 
1721	 0.119755229628841 
1722	 0.119721016887399 
1723	 0.119653866241774 
1724	 0.119553767985405 
1725	 0.119474381883417 
1726	 0.119389507240857 
1727	 0.119322751891508 
1728	 0.119271092479604 
1729	 0.11921615902805 
1730	 0.119175382949134 
1731	 0.119114784602318 
1732	 0.119048664225805 
1733	 0.118976096972526 
1734	 0.118887946959851 
1735	 0.118807600071024 
1736	 0.118724378063977 
1737	 0.11864877167446 
1738	 0.118578599064568 
1739	 0.118508617758482 
1740	 0.118438254088285 
1741	 0.118372318145558 
1742	 0.118316231173542 
1743	 0.118252568179347 
1744	 0.118187508544831 
1745	 0.118121967526782 
1746	 0.118045974431368 
1747	 0.117972236092551 
1748	 0.117920624924694 
1749	 0.117869560247092 
1750	 0.117811212635686 
1751	 0.117724175685415 
1752	 0.117647771548174 
1753	 0.117580695506911 
1754	 0.117506472052389 
1755	 0.117438750739408 
1756	 0.117369895700194 
1757	 0.117282820324168 
1758	 0.117191727477038 
1759	 0.117149725236009 
1760	 0.117111560566316 
1761	 0.117049616058435 
1762	 0.11700554707874 
1763	 0.116929574909035 
1764	 0.116834850641935 
1765	 0.116767558810798 
1766	 0.116699969511418 
1767	 0.116622307401915 
1768	 0.116546709002437 
1769	 0.116490421244358 
1770	 0.116423462564999 
1771	 0.116356685803684 
1772	 0.116316626553398 
1773	 0.116241692732949 
1774	 0.116159650536022 
1775	 0.116109100083047 
1776	 0.116035661702649 
1777	 0.115978382490094 
1778	 0.115951934061108 
1779	 0.115908527686023 
1780	 0.11585254646188 
1781	 0.115793827848617 
1782	 0.115735239953214 
1783	 0.115676878738825 
1784	 0.115635354282625 
1785	 0.115629146575364 
1786	 0.115586250071381 
1787	 0.115525149138 
1788	 0.115469895850259 
1789	 0.115388324014143 
1790	 0.115326002888332 
1791	 0.115289164214679 
1792	 0.115236986609209 
1793	 0.11518171447573 
1794	 0.115134935476285 
1795	 0.115076120192439 
1796	 0.115029754314353 
1797	 0.115008156935327 
1798	 0.114961056444695 
1799	 0.11489790981792 
1800	 0.114842183261029 
1801	 0.112600444611884 
1802	 0.112569430161106 
1803	 0.112491823917903 
1804	 0.11242774375383 
1805	 0.112392840533531 
1806	 0.112340548097936 
1807	 0.112319018781067 
1808	 0.112303438161393 
1809	 0.112311683813488 
1810	 0.112297502262417 
1811	 0.112294913689581 
1812	 0.112266925825655 
1813	 0.11221783325662 
1814	 0.112163955289212 
1815	 0.112111729426769 
1816	 0.112101390554082 
1817	 0.11206978050131 
1818	 0.112043906242307 
1819	 0.112016042345669 
1820	 0.111987879531495 
1821	 0.111934751362396 
1822	 0.111902210582573 
1823	 0.111884887787473 
1824	 0.111873560037594 
1825	 0.111851489520409 
1826	 0.111814731567571 
1827	 0.111785750060309 
1828	 0.111742996339024 
1829	 0.11166412512183 
1830	 0.111620085064833 
1831	 0.111595504633338 
1832	 0.111556980051426 
1833	 0.111516200571023 
1834	 0.111483523569706 
1835	 0.111429231220169 
1836	 0.111386039859937 
1837	 0.111346328493406 
1838	 0.111290719677604 
1839	 0.111257200306035 
1840	 0.111237853694557 
1841	 0.111213082842115 
1842	 0.111175638742168 
1843	 0.111152718006229 
1844	 0.111117288108578 
1845	 0.111052524156096 
1846	 0.111004444696678 
1847	 0.110973494773236 
1848	 0.110925224337056 
1849	 0.110877477449732 
1850	 0.110829179048136 
1851	 0.110781986264796 
1852	 0.11072516999181 
1853	 0.110661822032256 
1854	 0.110605976257639 
1855	 0.11056225217221 
1856	 0.110511015550436 
1857	 0.110462730619677 
1858	 0.110399963130711 
1859	 0.110315744507598 
1860	 0.110238404269184 
1861	 0.110156701883527 
1862	 0.110069698596204 
1863	 0.109975891114781 
1864	 0.109879111065809 
1865	 0.109751269068933 
1866	 0.10963359820699 
1867	 0.109548125189626 
1868	 0.109459149333478 
1869	 0.109383548540759 
1870	 0.109302836938054 
1871	 0.10920320992131 
1872	 0.109086995283908 
1873	 0.108959957139686 
1874	 0.108828213897057 
1875	 0.108677000296599 
1876	 0.108493808661329 
1877	 0.108342152943876 
1878	 0.108194612354811 
1879	 0.108006123380566 
1880	 0.107815005245311 
1881	 0.107631651425607 
1882	 0.107416006537013 
1883	 0.107162905353613 
1884	 0.106919611254288 
1885	 0.10669346988239 
1886	 0.106436851942734 
1887	 0.106168181152524 
1888	 0.105899067483139 
1889	 0.105594882868781 
1890	 0.105275003155832 
1891	 0.104947151207447 
1892	 0.104601686279736 
1893	 0.104256609845534 
1894	 0.103908520225039 
1895	 0.103544654111449 
1896	 0.103163560903018 
1897	 0.102765856044884 
1898	 0.102356796924686 
1899	 0.10194157923206 
1900	 0.101540321714614 
1901	 0.101156659616921 
1902	 0.100787573796902 
1903	 0.100455073917802 
1904	 0.100096646203426 
1905	 9.97392214409705E-02 
1906	 9.93738270300823E-02 
1907	 9.90247118251253E-02 
1908	 9.86798083956868E-02 
1909	 9.83510677991364E-02 
1910	 9.80547050967731E-02 
1911	 9.77367143856051E-02 
1912	 0.097417772255539 
1913	 9.71179992100096E-02 
1914	 9.68297385071868E-02 
1915	 9.65483034364954E-02 
1916	 9.62845845834957E-02 
1917	 9.60103065609242E-02 
1918	 9.57558909605539E-02 
1919	 9.55137928318947E-02 
1920	 9.52795611647714E-02 
1921	 9.50808224260624E-02 
1922	 9.48757584771786E-02 
1923	 9.46664948917484E-02 
1924	 9.44663692058991E-02 
1925	 9.42604604523602E-02 
1926	 9.40777059040487E-02 
1927	 9.39081924902923E-02 
1928	 9.37497466062766E-02 
1929	 0.093603982130837 
1930	 9.34664415075236E-02 
1931	 9.33210566690698E-02 
1932	 9.31767614951083E-02 
1933	 9.30327191853352E-02 
1934	 9.28873575039274E-02 
1935	 9.27390586865523E-02 
1936	 9.25863323768059E-02 
1937	 9.24391235752841E-02 
1938	 9.22884773454755E-02 
1939	 0.092139722401171 
1940	 9.19966643439005E-02 
1941	 9.18500620752035E-02 
1942	 9.17013977346486E-02 
1943	 9.15829031538837E-02 
1944	 9.14465161570485E-02 
1945	 9.13131366368218E-02 
1946	 9.11818322224908E-02 
1947	 9.10428402468356E-02 
1948	 9.09083027766287E-02 
1949	 9.07714307764352E-02 
1950	 9.06528138000016E-02 
1951	 9.05320059427985E-02 
1952	 9.04352447878387E-02 
1953	 9.03675799074886E-02 
1954	 9.03027413447961E-02 
1955	 9.02538847420779E-02 
1956	 9.02140111660368E-02 
1957	 9.01806481017693E-02 
1958	 9.01547851196578E-02 
1959	 9.01433129754989E-02 
1960	 9.01303105894497E-02 
1961	 9.01516811732808E-02 
1962	 9.01966014945655E-02 
1963	 0.090245796616445 
1964	 9.03194753557173E-02 
1965	 9.03999460807566E-02 
1966	 9.04816352045851E-02 
1967	 9.05931786997122E-02 
1968	 9.06939470866931E-02 
1969	 9.08141249835644E-02 
1970	 0.090913393974912 
1971	 9.09982448248478E-02 
1972	 0.091087071709508 
1973	 9.11662819858179E-02 
1974	 9.12577851688636E-02 
1975	 9.13471128143542E-02 
1976	 9.14519137713573E-02 
1977	 9.15789153583117E-02 
1978	 9.17014187567697E-02 
1979	 9.18091537346214E-02 
1980	 9.19029629493525E-02 
1981	 9.19938032879312E-02 
1982	 9.20703163854206E-02 
1983	 9.21391021900265E-02 
1984	 9.21967245149956E-02 
1985	 9.22635281483285E-02 
1986	 9.23121835295028E-02 
1987	 9.23725599385937E-02 
1988	 0.092434166508596 
1989	 9.25298003983274E-02 
1990	 9.26034865425386E-02 
1991	 9.26813366155716E-02 
1992	 0.092760710546515 
1993	 9.28421788077866E-02 
1994	 9.29215932665591E-02 
1995	 9.29974678172199E-02 
1996	 9.30807283503406E-02 
1997	 9.31583867222047E-02 
1998	 9.32578552831551E-02 
1999	 9.33769674864179E-02 
2000	 0.093492060443975 
2001	 9.36282767411207E-02 
2002	 9.37476351076743E-02 
2003	 9.38431242736282E-02 
2004	 9.39592580032652E-02 
2005	 9.40749542291132E-02 
2006	 9.42032021078876E-02 
2007	 9.43009154557371E-02 
2008	 9.43827704874581E-02 
2009	 9.44759481669833E-02 
2010	 9.45357617794072E-02 
2011	 0.094633228070675 
2012	 9.47822317483606E-02 
2013	 9.48988425676997E-02 
2014	 9.50240840522936E-02 
2015	 9.51247471475232E-02 
2016	 9.51889752369331E-02 
2017	 9.52529636145823E-02 
2018	 9.53352098386839E-02 
2019	 9.54184809771072E-02 
2020	 9.55005342443644E-02 
2021	 9.56023571787017E-02 
2022	 9.56858541515781E-02 
2023	 9.57550279659172E-02 
2024	 0.095824933504616 
2025	 9.59004371187999E-02 
2026	 9.59626359366119E-02 
2027	 9.60112708159091E-02 
2028	 9.60573380958019E-02 
2029	 9.61037450447984E-02 
2030	 9.61392003104971E-02 
2031	 9.61834508967118E-02 
2032	 9.62275873990812E-02 
2033	 9.62789777791716E-02 
2034	 9.63408734669334E-02 
2035	 9.63946131973448E-02 
2036	 9.64529116904863E-02 
2037	 9.65040298729511E-02 
2038	 0.096545968921543 
2039	 0.096590013770566 
2040	 9.66299101972269E-02 
2041	 9.66785281544159E-02 
2042	 9.67249799694855E-02 
2043	 9.67438876054928E-02 
2044	 9.67732478552019E-02 
2045	 9.68016249635917E-02 
2046	 9.68194493944397E-02 
2047	 9.68351498194499E-02 
2048	 9.68416555467423E-02 
2049	 9.68266381780192E-02 
2050	 9.68281176048796E-02 
2051	 9.68392490797295E-02 
2052	 9.68405196264349E-02 
2053	 0.096843678284426 
2054	 9.68435606291434E-02 
2055	 9.68340907219018E-02 
2056	 9.68116751566938E-02 
2057	 9.68221670889381E-02 
2058	 9.68537583403267E-02 
2059	 9.68639648253403E-02 
2060	 9.68883431994611E-02 
2061	 9.68970194077743E-02 
2062	 9.68761024230804E-02 
2063	 9.68817856891434E-02 
2064	 9.68933217051475E-02 
2065	 9.69133394799406E-02 
2066	 9.69624900894869E-02 
2067	 9.69839800885142E-02 
2068	 9.69986317040473E-02 
2069	 9.70143051713133E-02 
2070	 9.70119469253564E-02 
2071	 9.69792982529816E-02 
2072	 9.69767611885229E-02 
2073	 9.69795233920861E-02 
2074	 9.69838568463907E-02 
2075	 9.70005930201546E-02 
2076	 9.70089150848194E-02 
2077	 9.70135920692003E-02 
2078	 9.70171904016784E-02 
2079	 9.70125826156494E-02 
2080	 9.70215327956472E-02 
2081	 9.70346428295217E-02 
2082	 9.70514272518691E-02 
2083	 9.70737705509511E-02 
2084	 9.71164982422091E-02 
2085	 9.71289592724502E-02 
2086	 9.71211057044093E-02 
2087	 9.71407846521929E-02 
2088	 9.71627391195284E-02 
2089	 9.71774972795572E-02 
2090	 9.72094525320842E-02 
2091	 9.72309273890752E-02 
2092	 9.72268753526935E-02 
2093	 9.72447677486584E-02 
2094	 9.72875845632565E-02 
2095	 9.73097576689785E-02 
2096	 9.73100430571746E-02 
2097	 9.73369892995817E-02 
2098	 9.73719899407198E-02 
2099	 9.74096931655375E-02 
2100	 9.74445945005851E-02 
2101	 9.75085149323059E-02 
2102	 9.75318495824087E-02 
2103	 9.75025614744381E-02 
2104	 9.75449064576057E-02 
2105	 9.76188561154083E-02 
2106	 0.097668313204127 
2107	 0.097760852179567 
2108	 9.78094557419588E-02 
2109	 9.78091764969606E-02 
2110	 9.78276442779214E-02 
2111	 9.78337012561401E-02 
2112	 0.09785868181254 
2113	 9.79030972386017E-02 
2114	 0.097926811886913 
2115	 9.79672664325278E-02 
2116	 0.098028015104803 
2117	 9.80696858418006E-02 
2118	 9.81093375626513E-02 
2119	 9.81363372708355E-02 
2120	 0.098140825676769 
2121	 0.098175035844041 
2122	 9.82159567358998E-02 
2123	 9.82529452340052E-02 
2124	 9.83150888382758E-02 
2125	 9.83561287024151E-02 
2126	 9.83876114802864E-02 
2127	 9.84056754082753E-02 
2128	 9.83979247509524E-02 
2129	 9.84102833412377E-02 
2130	 0.098426592355254 
2131	 9.84301710095935E-02 
2132	 9.84427644858858E-02 
2133	 9.84775557542977E-02 
2134	 9.84899836722146E-02 
2135	 9.84873059736064E-02 
2136	 9.84883564043565E-02 
2137	 9.84928571475008E-02 
2138	 0.098485064557682 
2139	 9.84676113755807E-02 
2140	 9.84489533773233E-02 
2141	 9.84282213459984E-02 
2142	 0.09839716684769 
2143	 9.83596363463873E-02 
2144	 9.83162184700868E-02 
2145	 9.82525731382489E-02 
2146	 9.82013930377426E-02 
2147	 9.81531059759344E-02 
2148	 9.81086561432283E-02 
2149	 9.80569997094382E-02 
2150	 9.80043585608085E-02 
2151	 9.79581416413861E-02 
2152	 0.097913693807602 
2153	 9.78590740576881E-02 
2154	 9.78122334188602E-02 
2155	 9.77540226907992E-02 
2156	 0.097678013391766 
2157	 9.76062937178589E-02 
2158	 0.097537289998884 
2159	 9.74626583823801E-02 
2160	 9.73754976706829E-02 
2161	 9.72968533791738E-02 
2162	 9.72112210146122E-02 
2163	 9.71409875959818E-02 
2164	 0.097085659270286 
2165	 9.70415605370416E-02 
2166	 9.69597835180826E-02 
2167	 9.68775840255379E-02 
2168	 9.67754247802825E-02 
2169	 9.66205494299451E-02 
2170	 9.65196402797232E-02 
2171	 9.64380357931241E-02 
2172	 9.63536834239101E-02 
2173	 0.096284915896103 
2174	 9.62147041842852E-02 
2175	 9.61455490524892E-02 
2176	 0.096078703185919 
2177	 9.60322903019055E-02 
2178	 9.59615279185095E-02 
2179	 9.58752705899888E-02 
2180	 0.095789449138136 
2181	 9.56885459663109E-02 
2182	 9.55920543300515E-02 
2183	 9.54964117618174E-02 
2184	 9.53918065057171E-02 
2185	 9.53212902160654E-02 
2186	 9.52702964287896E-02 
2187	 9.52002932055751E-02 
2188	 9.51520779619479E-02 
2189	 0.095081402596936 
2190	 9.49747564799633E-02 
2191	 9.48993878507583E-02 
2192	 0.094835776569047 
2193	 9.47780602542331E-02 
2194	 9.47266648884076E-02 
2195	 9.46820920582196E-02 
2196	 9.46665091671778E-02 
2197	 9.46190138481833E-02 
2198	 9.45462584297235E-02 
2199	 0.094498824677493 
2200	 9.44492674084404E-02 
2201	 0.094396055188923 
2202	 9.43617080528465E-02 
2203	 9.43252498197971E-02 
2204	 9.42809903321995E-02 
2205	 9.42082145077406E-02 
2206	 0.094185959153466 
2207	 9.41997212228752E-02 
2208	 9.41777201485394E-02 
2209	 9.41683385756445E-02 
2210	 9.41411698111114E-02 
2211	 9.40755746275561E-02 
2212	 9.40381293514809E-02 
2213	 9.39981743200273E-02 
2214	 9.39861381617767E-02 
2215	 9.40128179279448E-02 
2216	 9.40083537703128E-02 
2217	 9.40119868390507E-02 
2218	 9.40106074701508E-02 
2219	 0.093970817097878 
2220	 9.39543893401549E-02 
2221	 0.093961099129306 
2222	 9.39640223871791E-02 
2223	 9.39619664941504E-02 
2224	 0.093969168657851 
2225	 9.39476251684973E-02 
2226	 9.39110107610903E-02 
2227	 9.38767797117499E-02 
2228	 9.38125121073227E-02 
2229	 9.37907063000934E-02 
2230	 9.37962911347081E-02 
2231	 9.37786449735717E-02 
2232	 9.37618367153474E-02 
2233	 9.37568270711503E-02 
2234	 9.37506610140323E-02 
2235	 9.37400030479888E-02 
2236	 9.37507928921277E-02 
2237	 0.093741482848454 
2238	 9.36973064805067E-02 
2239	 9.36766951104481E-02 
2240	 9.36601930668028E-02 
2241	 9.36558952009653E-02 
2242	 9.36961111545158E-02 
2243	 9.36863825444555E-02 
2244	 9.36330055007129E-02 
2245	 9.36092972031847E-02 
2246	 0.093623286408986 
2247	 9.36025809243812E-02 
2248	 9.35880551670918E-02 
2249	 9.36189147285314E-02 
2250	 9.36059158970866E-02 
2251	 9.35444789363648E-02 
2252	 9.35105248357459E-02 
2253	 0.093489948162568 
2254	 9.34611609040695E-02 
2255	 0.093415427679098 
2256	 9.33856959083285E-02 
2257	 9.33706485214554E-02 
2258	 9.33516473695631E-02 
2259	 9.33249552493368E-02 
2260	 9.33131420087845E-02 
2261	 9.33151616131344E-02 
2262	 9.33149451299016E-02 
2263	 9.33426236538672E-02 
2264	 9.33339845750275E-02 
2265	 0.093294643364547 
2266	 9.32677891366714E-02 
2267	 9.32147748717566E-02 
2268	 9.31858361211154E-02 
2269	 9.31932590684005E-02 
2270	 0.093175008371764 
2271	 9.31533310875859E-02 
2272	 9.31318640065758E-02 
2273	 9.30805386454093E-02 
2274	 9.30553949657769E-02 
2275	 9.30380338319282E-02 
2276	 9.30375690464099E-02 
2277	 9.30162039977628E-02 
2278	 9.30064873011188E-02 
2279	 9.29700490466464E-02 
2280	 9.29014038369649E-02 
2281	 0.092863242371121 
2282	 9.28268098158037E-02 
2283	 0.092789173842597 
2284	 9.27588802221651E-02 
2285	 9.27329292015065E-02 
2286	 9.27127703154127E-02 
2287	 9.26814414319129E-02 
2288	 9.26619272561294E-02 
2289	 9.26318515042257E-02 
2290	 0.092585830548004 
2291	 9.25299391993795E-02 
2292	 9.24587196273757E-02 
2293	 9.24007675829188E-02 
2294	 9.23371352419947E-02 
2295	 9.22760910618404E-02 
2296	 9.22327302771394E-02 
2297	 9.21758133196011E-02 
2298	 0.092115631661168 
2299	 9.20912742557861E-02 
2300	 9.20587888699567E-02 
2301	 0.091998730023836 
2302	 9.19200858812839E-02 
2303	 9.18252666468742E-02 
2304	 0.091725656292216 
2305	 9.16108393224304E-02 
2306	 9.14992900684856E-02 
2307	 9.13738535448253E-02 
2308	 9.12602894438791E-02 
2309	 9.11600215414638E-02 
2310	 9.10501089785251E-02 
2311	 9.09230945607006E-02 
2312	 9.08275714773864E-02 
2313	 0.090716872524565 
2314	 9.06536291343645E-02 
2315	 9.06674572911685E-02 
2316	 9.06239449545341E-02 
2317	 9.06025476931323E-02 
2318	 9.05336844770825E-02 
2319	 9.03761046140619E-02 
2320	 9.02885639490378E-02 
2321	 9.02051139286329E-02 
2322	 9.01414349650961E-02 
2323	 9.01475392867205E-02 
2324	 9.01004892770661E-02 
2325	 9.00217363858981E-02 
2326	 8.99778089881773E-02 
2327	 0.0899389965851 
2328	 8.98877922301696E-02 
2329	 8.98794589797149E-02 
2330	 8.97670601433069E-02 
2331	 8.96131559117001E-02 
2332	 8.95376669940455E-02 
2333	 8.94584198124598E-02 
2334	 8.94396951933616E-02 
2335	 8.94962696389559E-02 
2336	 0.089530441382122 
2337	 8.96078697805622E-02 
2338	 8.96500273460047E-02 
2339	 8.96310196673804E-02 
2340	 8.96382673282428E-02 
2341	 8.95980702931827E-02 
2342	 8.95156941579225E-02 
2343	 8.94678639167214E-02 
2344	 0.089396555378199 
2345	 0.089339788620514 
2346	 8.93009623392914E-02 
2347	 8.92607570924056E-02 
2348	 8.92163364913686E-02 
2349	 0.089179289797271 
2350	 8.91290526008825E-02 
2351	 8.91026221296136E-02 
2352	 8.91303030450244E-02 
2353	 8.90805577561972E-02 
2354	 8.90028038544168E-02 
2355	 0.08893153048526 
2356	 8.88018615540841E-02 
2357	 8.87137199186301E-02 
2358	 8.86566894238688E-02 
2359	 8.86079546346963E-02 
2360	 8.85934926127898E-02 
2361	 8.85194701158395E-02 
2362	 8.84233589134929E-02 
2363	 8.83259204948729E-02 
2364	 8.81633816548603E-02 
2365	 8.80502026709868E-02 
2366	 8.79792537039503E-02 
2367	 8.78916670601281E-02 
2368	 8.78052600815651E-02 
2369	 0.087728339959424 
2370	 8.76427359864107E-02 
2371	 8.76034749022589E-02 
2372	 0.087523909959002 
2373	 8.74304070665043E-02 
2374	 8.73619556317382E-02 
2375	 8.72573694999832E-02 
2376	 8.71530751701596E-02 
2377	 8.70944359160416E-02 
2378	 8.69952442874676E-02 
2379	 0.086841447297001 
2380	 8.67394609758007E-02 
2381	 8.66983991914935E-02 
2382	 8.66003379667009E-02 
2383	 8.64835746158813E-02 
2384	 8.64241396275464E-02 
2385	 8.63277968697969E-02 
2386	 8.62320143455312E-02 
2387	 8.62239583346952E-02 
2388	 8.61760672828341E-02 
2389	 0.086014973775816 
2390	 8.59473031076834E-02 
2391	 0.085916333434056 
2392	 8.58176469008097E-02 
2393	 8.57914927652133E-02 
2394	 8.56979179071786E-02 
2395	 8.55143191288167E-02 
2396	 0.085397773579897 
2397	 8.52781045845967E-02 
2398	 8.51703828844826E-02 
2399	 8.51471303225721E-02 
2400	 8.50778629457343E-02 
2401	 8.49868466843501E-02 
2402	 8.48648847681788E-02 
2403	 8.46098985873277E-02 
2404	 8.44385187400352E-02 
2405	 8.43039762592008E-02 
2406	 8.41757124492331E-02 
2407	 8.42060589267701E-02 
2408	 8.41328344401453E-02 
2409	 8.40349835157939E-02 
2410	 8.40376429645075E-02 
2411	 8.38901780383265E-02 
2412	 8.37312729953709E-02 
2413	 8.36719361725897E-02 
2414	 0.083513092946515 
2415	 8.33314196603753E-02 
2416	 8.31824259861777E-02 
2417	 8.30734706150212E-02 
2418	 8.28877908365287E-02 
2419	 8.26491721108649E-02 
2420	 8.25142903783325E-02 
2421	 8.23772787894963E-02 
2422	 8.22590215826203E-02 
2423	 8.22408829768095E-02 
2424	 8.21639827704307E-02 
2425	 0.082052055694618 
2426	 8.19469965973934E-02 
2427	 8.18154436781565E-02 
2428	 8.17296901424758E-02 
2429	 8.17330418693265E-02 
2430	 0.081587789816784 
2431	 8.13882248072905E-02 
2432	 8.12410898235847E-02 
2433	 8.09416241321665E-02 
2434	 8.07721600900658E-02 
2435	 8.07882123484757E-02 
2436	 8.06618333989912E-02 
2437	 8.04586218935015E-02 
2438	 8.03275601836847E-02 
2439	 8.01687454566626E-02 
2440	 8.00661965042344E-02 
2441	 8.00656762602251E-02 
2442	 7.99743239404871E-02 
2443	 7.98526525915505E-02 
2444	 0.079748296117852 
2445	 7.96275106841551E-02 
2446	 7.95021295587255E-02 
2447	 7.94255714650842E-02 
2448	 7.93099548298409E-02 
2449	 7.90862945882267E-02 
2450	 7.89095843453607E-02 
2451	 0.078787401469585 
2452	 7.85815364022845E-02 
2453	 7.82701490746174E-02 
2454	 7.81728782837668E-02 
2455	 7.81597845207534E-02 
2456	 7.80812765418575E-02 
2457	 7.81653553854363E-02 
2458	 7.81423702675989E-02 
2459	 7.80287091841207E-02 
2460	 0.077876288457968 
2461	 0.077655643034344 
2462	 7.74755134219167E-02 
2463	 7.72174546429163E-02 
2464	 7.69771051241331E-02 
2465	 7.68367484922017E-02 
2466	 7.67062465018206E-02 
2467	 7.65155622935746E-02 
2468	 7.63670729993719E-02 
2469	 7.62236772522446E-02 
2470	 7.61452866509345E-02 
2471	 7.60762501939077E-02 
2472	 7.59038177108831E-02 
2473	 7.58907993424761E-02 
2474	 7.57149602689089E-02 
2475	 7.55999754323228E-02 
2476	 7.55353876434515E-02 
2477	 0.075478298262617 
2478	 7.53269408506958E-02 
2479	 7.50082248985349E-02 
2480	 7.48947451102785E-02 
2481	 7.45749874401865E-02 
2482	 7.41662826217649E-02 
2483	 7.39461539449565E-02 
2484	 7.38418947591469E-02 
2485	 7.37878915269523E-02 
2486	 0.073636192025362 
2487	 7.34863882436774E-02 
2488	 7.32660472318512E-02 
2489	 7.31990069788042E-02 
2490	 7.32870992491286E-02 
2491	 7.31116101940392E-02 
2492	 7.29222889302008E-02 
2493	 0.072763220129828 
2494	 7.25058032651837E-02 
2495	 7.23982126684091E-02 
2496	 7.22204589278069E-02 
2497	 7.19177350239611E-02 
2498	 7.16669230207926E-02 
2499	 7.15385035266603E-02 
2500	 7.14004228501906E-02 
