Wavelength	LMW_1700006.asd
350	 0.065915495882181 
351	 7.14322198853111E-02 
352	 5.96414006229226E-02 
353	 4.59775212522602E-02 
354	 6.76093650396919E-02 
355	 6.81521120811019E-02 
356	 5.64542308478755E-02 
357	 5.38015563345457E-02 
358	 6.08127686581941E-02 
359	 5.81675971517378E-02 
360	 4.99359847698478E-02 
361	 5.35075984462847E-02 
362	 0.053540950418803 
363	 5.40263564505284E-02 
364	 5.61637062331496E-02 
365	 5.29109635888196E-02 
366	 5.27490942836094E-02 
367	 5.42097167074335E-02 
368	 5.46315522113171E-02 
369	 5.88705049645268E-02 
370	 5.91664087203766E-02 
371	 5.71476277684571E-02 
372	 6.00427675903536E-02 
373	 5.90678102483137E-02 
374	 5.70939024116796E-02 
375	 0.057494721157999 
376	 6.23969549712832E-02 
377	 6.17694002876199E-02 
378	 5.96694365330979E-02 
379	 6.19502243042287E-02 
380	 6.23758476937169E-02 
381	 6.29918114954251E-02 
382	 6.49972925057076E-02 
383	 6.82543150833866E-02 
384	 6.70441926040097E-02 
385	 0.064320162012358 
386	 6.35453479361429E-02 
387	 6.69381018934517E-02 
388	 6.82205034380639E-02 
389	 6.82203416159545E-02 
390	 6.92159573681136E-02 
391	 6.80456158778012E-02 
392	 6.85119096068235E-02 
393	 0.071014595093715 
394	 7.28853414207821E-02 
395	 7.35453536687203E-02 
396	 7.38930137589382E-02 
397	 0.074464763194526 
398	 7.42387828001119E-02 
399	 7.50624598913654E-02 
400	 7.68748884348445E-02 
401	 7.85435645476939E-02 
402	 7.75270036175357E-02 
403	 7.66862826228085E-02 
404	 7.73959978893683E-02 
405	 0.079126826107723 
406	 7.96682676016894E-02 
407	 8.03013392712977E-02 
408	 8.16829520479451E-02 
409	 0.080864082219773 
410	 8.05929666500248E-02 
411	 8.12286929943506E-02 
412	 8.20488457089547E-02 
413	 8.36755461684107E-02 
414	 8.42157631713095E-02 
415	 8.36233186573856E-02 
416	 8.43934237223471E-02 
417	 8.39488296159964E-02 
418	 8.38120339053852E-02 
419	 8.53041743962686E-02 
420	 8.58176093844447E-02 
421	 0.085822081805939 
422	 8.60972481523916E-02 
423	 8.73527163332054E-02 
424	 8.75672272956371E-02 
425	 8.76003482362909E-02 
426	 0.087970527247886 
427	 8.78543081380072E-02 
428	 0.087968507690829 
429	 8.84752103837165E-02 
430	 8.92278455389816E-02 
431	 8.96129808308901E-02 
432	 8.96154418396871E-02 
433	 8.95850662638345E-02 
434	 9.01318318597149E-02 
435	 9.05442063443337E-02 
436	 0.090810438173236 
437	 9.10190787442335E-02 
438	 9.11012188620704E-02 
439	 9.12923091295092E-02 
440	 9.16996883631112E-02 
441	 9.22726828246752E-02 
442	 9.22878218577602E-02 
443	 9.25242252319719E-02 
444	 9.30889129662553E-02 
445	 9.28521241999205E-02 
446	 9.28956836377671E-02 
447	 9.32702548890797E-02 
448	 9.36866726692821E-02 
449	 9.37401040336937E-02 
450	 9.41647398124152E-02 
451	 9.47989459220366E-02 
452	 0.094769433160397 
453	 9.50109535859164E-02 
454	 9.52053485988103E-02 
455	 9.51579780385335E-02 
456	 0.095537511209657 
457	 9.57947242486607E-02 
458	 9.58869350379277E-02 
459	 9.60127565486589E-02 
460	 9.63300233435501E-02 
461	 9.65986678693963E-02 
462	 9.67601070297464E-02 
463	 9.70626974976592E-02 
464	 9.71271902376732E-02 
465	 9.72903723764616E-02 
466	 9.78376006432685E-02 
467	 9.80155785063958E-02 
468	 9.84651918255906E-02 
469	 0.098995059085587 
470	 0.098813436747005 
471	 9.90789125246031E-02 
472	 9.94160040955998E-02 
473	 9.94838091331996E-02 
474	 9.96292448580759E-02 
475	 9.98660248069268E-02 
476	 0.100204451843401 
477	 0.100596841941393 
478	 0.100702305441339 
479	 0.100889138910328 
480	 0.10121545258753 
481	 0.101219220102128 
482	 0.101629303672953 
483	 0.102112609087385 
484	 0.102201057173553 
485	 0.102093426869844 
486	 0.10233385403582 
487	 0.102814283735823 
488	 0.102911084727532 
489	 0.102930134946642 
490	 0.103000818009742 
491	 0.103202452631872 
492	 0.103605348635439 
493	 0.103785601766064 
494	 0.10385335377625 
495	 0.104135366952114 
496	 0.104470093565497 
497	 0.104584076910169 
498	 0.104514836511886 
499	 0.104764646367259 
500	 0.105030868861448 
501	 0.105330569436847 
502	 0.105669238483723 
503	 0.10559023032787 
504	 0.10563890098079 
505	 0.105938808264868 
506	 0.106200198070027 
507	 0.106378445409168 
508	 0.106515058521073 
509	 0.106649779168241 
510	 0.10673634754859 
511	 0.106908705646485 
512	 0.107144195409895 
513	 0.107328337707254 
514	 0.1073645432372 
515	 0.10738342062418 
516	 0.107499673727353 
517	 0.10777813537548 
518	 0.107881521040456 
519	 0.107932509114923 
520	 0.108134567114541 
521	 0.108226365297837 
522	 0.108357005881008 
523	 0.108544141825067 
524	 0.108649069549974 
525	 0.108797901425073 
526	 0.108911091188562 
527	 0.108954240568644 
528	 0.109201675656353 
529	 0.109272320365544 
530	 0.109298940411082 
531	 0.109682803637044 
532	 0.109674216053074 
533	 0.109752709287084 
534	 0.110130629066534 
535	 0.110084800261447 
536	 0.110104537280029 
537	 0.110239529740844 
538	 0.110381266541131 
539	 0.110555402420277 
540	 0.11066343891037 
541	 0.110703819240876 
542	 0.11080944704073 
543	 0.110961118027123 
544	 0.111121656258707 
545	 0.111250564365118 
546	 0.11132664654202 
547	 0.111418795439333 
548	 0.111524599149212 
549	 0.111581138830224 
550	 0.111584009654135 
551	 0.111661006285664 
552	 0.111862373733499 
553	 0.111984809773765 
554	 0.112086109631123 
555	 0.112183085938339 
556	 0.112283255029834 
557	 0.112473948878897 
558	 0.112681717997434 
559	 0.112855512425637 
560	 0.113020698294093 
561	 0.113083378307244 
562	 0.113162450644728 
563	 0.113375664211489 
564	 0.113410987435098 
565	 0.11337599198068 
566	 0.1133565877218 
567	 0.11338417309826 
568	 0.113470965202682 
569	 0.113605498803173 
570	 0.113764685972029 
571	 0.11391895378417 
572	 0.11406340142805 
573	 0.114187052232453 
574	 0.114277469844173 
575	 0.114338011800448 
576	 0.114485743072099 
577	 0.114711880969349 
578	 0.114689637314936 
579	 0.114635740228219 
580	 0.114572102532393 
581	 0.114460139063782 
582	 0.114400765497401 
583	 0.114394292281537 
584	 0.114449285389366 
585	 0.11460288677773 
586	 0.11477646961865 
587	 0.114922375619702 
588	 0.115025555158935 
589	 0.115160611388013 
590	 0.115277338883911 
591	 0.115393774598603 
592	 0.115586334347546 
593	 0.115722157700128 
594	 0.115849072938704 
595	 0.115990639729088 
596	 0.116012699284514 
597	 0.115919971117236 
598	 0.11581697943711 
599	 0.115836445810846 
600	 0.11580151842671 
601	 0.115797135948609 
602	 0.115851844789645 
603	 0.115834986067079 
604	 0.115872309134148 
605	 0.115972848656369 
606	 0.116084571661357 
607	 0.116054482945085 
608	 0.116131983144146 
609	 0.116352949996558 
610	 0.116486829561891 
611	 0.116565773680594 
612	 0.116580729219704 
613	 0.116555821231883 
614	 0.116633727802187 
615	 0.11672465189573 
616	 0.116767801144698 
617	 0.116741380309018 
618	 0.116833070284138 
619	 0.116913983689151 
620	 0.11691153635034 
621	 0.116980495403918 
622	 0.117039706876557 
623	 0.11707860676395 
624	 0.117121767130878 
625	 0.117251038801288 
626	 0.11732476373555 
627	 0.117321701334488 
628	 0.117401038949112 
629	 0.117430314044719 
630	 0.117463073410704 
631	 0.117562475348343 
632	 0.117633864691031 
633	 0.117674930579709 
634	 0.117721982610373 
635	 0.117832230984082 
636	 0.117882320318648 
637	 0.117933649474644 
638	 0.11802203785291 
639	 0.118032917255087 
640	 0.118084479276085 
641	 0.118177894424188 
642	 0.118258830263722 
643	 0.11830648276248 
644	 0.118344192097579 
645	 0.118398493262585 
646	 0.118494181707629 
647	 0.118572726081887 
648	 0.118640013835565 
649	 0.11871352530267 
650	 0.118774547450118 
651	 0.118798925085566 
652	 0.118821164335398 
653	 0.118918991615652 
654	 0.11901322060398 
655	 0.119051650602574 
656	 0.119044389208572 
657	 0.119143262496875 
658	 0.119235322643977 
659	 0.119301457746197 
660	 0.119365070609374 
661	 0.119417774656789 
662	 0.119484159370647 
663	 0.119567153372129 
664	 0.119634946709251 
665	 0.119703639295116 
666	 0.119745339217244 
667	 0.119749264443007 
668	 0.119816934005459 
669	 0.119914956758563 
670	 0.120016575670357 
671	 0.120101505594762 
672	 0.120109439506219 
673	 0.120137708940607 
674	 0.120243199112391 
675	 0.120329169200303 
676	 0.120376546356798 
677	 0.120414553907341 
678	 0.12048413252138 
679	 0.120514185769863 
680	 0.120558848675876 
681	 0.120622853322949 
682	 0.120633598716904 
683	 0.120675104663496 
684	 0.120756513493901 
685	 0.120852842348334 
686	 0.120896627458301 
687	 0.120936401822809 
688	 0.120989466357622 
689	 0.121048681252418 
690	 0.121118853236249 
691	 0.121153759650486 
692	 0.121153537485893 
693	 0.121228980705995 
694	 0.121260924827792 
695	 0.121261810940704 
696	 0.121281912984827 
697	 0.121292408758477 
698	 0.121317343301999 
699	 0.121366251087219 
700	 0.121429696105218 
701	 0.121477766176804 
702	 0.12151546236017 
703	 0.121550404694267 
704	 0.121573777568357 
705	 0.121577278833557 
706	 0.121583012310071 
707	 0.121621158380142 
708	 0.121646145569746 
709	 0.121668242348631 
710	 0.121700576913342 
711	 0.121753102979492 
712	 0.121766609871292 
713	 0.121749516542218 
714	 0.1217371392497 
715	 0.121782173926116 
716	 0.121837364892184 
717	 0.121862483216308 
718	 0.121836078046975 
719	 0.121863897728357 
720	 0.121921105380273 
721	 0.121957952753931 
722	 0.121908676221336 
723	 0.121928028692549 
724	 0.121963362970773 
725	 0.121920873788189 
726	 0.121887370444823 
727	 0.121900732674665 
728	 0.121946178923618 
729	 0.121964404547425 
730	 0.121972051519918 
731	 0.121976465102645 
732	 0.12197775425273 
733	 0.121957824518346 
734	 0.121954464333811 
735	 0.121950025447711 
736	 0.121913484918246 
737	 0.121881519314221 
738	 0.12188173889001 
739	 0.121904046300045 
740	 0.121899728390033 
741	 0.121879518147114 
742	 0.121867656638996 
743	 0.121872307881513 
744	 0.121845642198872 
745	 0.12184071658244 
746	 0.121854738531934 
747	 0.121857392565272 
748	 0.121836446696377 
749	 0.121802705048028 
750	 0.121772914734782 
751	 0.121766370288845 
752	 0.121709300213191 
753	 0.121657987569137 
754	 0.121663999803746 
755	 0.121676091544344 
756	 0.121680704504441 
757	 0.121674694777192 
758	 0.121662530011819 
759	 0.121650474544565 
760	 0.121612940564818 
761	 0.121564220537835 
762	 0.12156951660325 
763	 0.121577313392666 
764	 0.12157853796838 
765	 0.121571639946861 
766	 0.121544740585934 
767	 0.121524186567396 
768	 0.121528201415514 
769	 0.121557820587614 
770	 0.121536365178775 
771	 0.121516965148892 
772	 0.121506835149559 
773	 0.121447040469176 
774	 0.121454925406911 
775	 0.121460832536538 
776	 0.121410085100638 
777	 0.121412166709895 
778	 0.121372635263264 
779	 0.121331026849077 
780	 0.121360927100633 
781	 0.121333917094434 
782	 0.121330193631153 
783	 0.121347055866616 
784	 0.121285380932294 
785	 0.121266365473629 
786	 0.121257733294833 
787	 0.121229104129037 
788	 0.121228835242638 
789	 0.121232099531631 
790	 0.121220145185768 
791	 0.121186448949866 
792	 0.121177026596646 
793	 0.121155117406921 
794	 0.121124094081312 
795	 0.121122108261804 
796	 0.121124284998303 
797	 0.121100696139284 
798	 0.1210584176664 
799	 0.121074620257223 
800	 0.121040576640922 
801	 0.120989976959354 
802	 0.12097779960216 
803	 0.120960323957395 
804	 0.120937707636943 
805	 0.120924750455673 
806	 0.120934166892561 
807	 0.120879586984737 
808	 0.120842445011813 
809	 0.120851083574855 
810	 0.12084156500049 
811	 0.120834532773846 
812	 0.120825750630182 
813	 0.120814609698014 
814	 0.120828345363655 
815	 0.12079249063869 
816	 0.120727279190763 
817	 0.120692967913792 
818	 0.120722686392675 
819	 0.120739958105657 
820	 0.120704651847894 
821	 0.120624698358886 
822	 0.120593962651929 
823	 0.120605153266483 
824	 0.120628271684135 
825	 0.120627128091611 
826	 0.120605569702407 
827	 0.120568050587319 
828	 0.120530978798855 
829	 0.12054624094841 
830	 0.120535240647397 
831	 0.120503476420312 
832	 0.120490167881104 
833	 0.120457595669349 
834	 0.12041460080838 
835	 0.120378728091974 
836	 0.120371575354594 
837	 0.120407103141374 
838	 0.120428042734172 
839	 0.120399003110858 
840	 0.120340684763587 
841	 0.120317473900378 
842	 0.120311484842664 
843	 0.120292895053194 
844	 0.120275248464971 
845	 0.120293216723865 
846	 0.120303584888904 
847	 0.120250320468075 
848	 0.120225946081507 
849	 0.120223017435515 
850	 0.120214366333048 
851	 0.120169424295109 
852	 0.120145552035406 
853	 0.120161776536739 
854	 0.120199128126307 
855	 0.120195821886386 
856	 0.120156693384769 
857	 0.120128561169869 
858	 0.120142394185895 
859	 0.120166416621465 
860	 0.120155337246758 
861	 0.120114654150004 
862	 0.120072005105273 
863	 0.120046764620934 
864	 0.120025030688625 
865	 0.120010767214812 
866	 0.120019503314261 
867	 0.120065049090919 
868	 0.120094830763564 
869	 0.120084503695562 
870	 0.120049838927407 
871	 0.120048621854084 
872	 0.120030292379519 
873	 0.119989201957365 
874	 0.120018804108699 
875	 0.120038409505649 
876	 0.120018364467089 
877	 0.119960802417631 
878	 0.119903778792314 
879	 0.119930010255829 
880	 0.119978597913988 
881	 0.119966958263808 
882	 0.119963271021706 
883	 0.119977176023247 
884	 0.119966782220435 
885	 0.119889376846404 
886	 0.119872662865765 
887	 0.119875702329514 
888	 0.119880338924822 
889	 0.119896790541086 
890	 0.119912272121946 
891	 0.119904701942812 
892	 0.119869739359761 
893	 0.119829676148975 
894	 0.119892960784379 
895	 0.119910202222456 
896	 0.119827570123892 
897	 0.119850119156602 
898	 0.119897157601003 
899	 0.119930913275575 
900	 0.119932057292754 
901	 0.119905374430896 
902	 0.119859385309122 
903	 0.119842141737527 
904	 0.119881546151344 
905	 0.119888880446222 
906	 0.119885750344095 
907	 0.119883835680311 
908	 0.119893651973294 
909	 0.119950154871818 
910	 0.11994417837319 
911	 0.119907354241695 
912	 0.11994271758442 
913	 0.11991982784187 
914	 0.119921084101461 
915	 0.119955511496726 
916	 0.119955043526734 
917	 0.11992024887791 
918	 0.119899351553071 
919	 0.119900456174567 
920	 0.119880797918098 
921	 0.119856688629292 
922	 0.119894507003649 
923	 0.119984543221431 
924	 0.120002797632513 
925	 0.11998974687861 
926	 0.12002983746379 
927	 0.120104703741522 
928	 0.11999899159168 
929	 0.119973787561953 
930	 0.119982283937589 
931	 0.11995552628085 
932	 0.119960373768489 
933	 0.120027035687627 
934	 0.120055179511968 
935	 0.120001982186514 
936	 0.120111370989099 
937	 0.120101068502675 
938	 0.120035482774476 
939	 0.120051326665526 
940	 0.120100052403723 
941	 0.120124114274565 
942	 0.120142296254554 
943	 0.120172717221613 
944	 0.120087476757268 
945	 0.120069742735745 
946	 0.120152424373931 
947	 0.120252970721591 
948	 0.120167270689376 
949	 0.120053662399397 
950	 0.119999432277217 
951	 0.12003397994809 
952	 0.120174978696092 
953	 0.120164876496977 
954	 0.12009149018262 
955	 0.120178530709123 
956	 0.120199176074975 
957	 0.120179150614685 
958	 0.120177292768071 
959	 0.120242036331542 
960	 0.120299929400511 
961	 0.120292441452872 
962	 0.120244472323628 
963	 0.120218188492919 
964	 0.120138150130117 
965	 0.120127714376341 
966	 0.120200498548723 
967	 0.120274074045533 
968	 0.12025216593249 
969	 0.120216422381732 
970	 0.120193644828573 
971	 0.120175120821858 
972	 0.120253808544555 
973	 0.120248081886307 
974	 0.120195827085128 
975	 0.120256547755195 
976	 0.120292094266025 
977	 0.120330262987501 
978	 0.120319563409977 
979	 0.120216009065363 
980	 0.120342703812572 
981	 0.120312469782178 
982	 0.12019032256705 
983	 0.120257771593732 
984	 0.120191206530625 
985	 0.120090450123931 
986	 0.120086763850445 
987	 0.120240781622125 
988	 0.120292964462467 
989	 0.120263848397355 
990	 0.120237450755395 
991	 0.120275705498334 
992	 0.120211907570217 
993	 0.120211391267812 
994	 0.120288019635031 
995	 0.120370126991285 
996	 0.120396537005519 
997	 0.120379551542279 
998	 0.120361756799449 
999	 0.120376239533872 
1000	 0.120384223351801 
1001	 0.118989328562414 
1002	 0.118959759885706 
1003	 0.119001025626566 
1004	 0.118989766922283 
1005	 0.11896902994368 
1006	 0.118972888190186 
1007	 0.118983523756791 
1008	 0.118926947947993 
1009	 0.118900967677023 
1010	 0.118932468107866 
1011	 0.118918009638345 
1012	 0.118926256419849 
1013	 0.119003826068118 
1014	 0.119080250178096 
1015	 0.11909887650883 
1016	 0.119075378531274 
1017	 0.119052801820201 
1018	 0.118982760099981 
1019	 0.118908610202768 
1020	 0.118934218374875 
1021	 0.118988887995909 
1022	 0.119022737772269 
1023	 0.119084872089758 
1024	 0.119110868676856 
1025	 0.119100155526267 
1026	 0.119038151166263 
1027	 0.11897851770314 
1028	 0.118930100726509 
1029	 0.118845729683965 
1030	 0.118862690424359 
1031	 0.118887635922602 
1032	 0.118956041032055 
1033	 0.11895691935888 
1034	 0.118981867530766 
1035	 0.119001507317362 
1036	 0.11895678698703 
1037	 0.118953819406474 
1038	 0.119017448346919 
1039	 0.119002634211772 
1040	 0.118955383333628 
1041	 0.118965504028366 
1042	 0.118971598708722 
1043	 0.118968846550086 
1044	 0.118974501088045 
1045	 0.119012364513768 
1046	 0.11903683642381 
1047	 0.119036938745048 
1048	 0.11903980737256 
1049	 0.119067234250729 
1050	 0.119076555439363 
1051	 0.119073411570156 
1052	 0.119114165005458 
1053	 0.11916443240294 
1054	 0.119192319709373 
1055	 0.119220131091453 
1056	 0.119252523214043 
1057	 0.119265819754115 
1058	 0.119259027708256 
1059	 0.119256274303645 
1060	 0.119241096957926 
1061	 0.119239080006637 
1062	 0.119248573611647 
1063	 0.11927238924962 
1064	 0.119278887505736 
1065	 0.119240150104817 
1066	 0.119212841466032 
1067	 0.119222930099999 
1068	 0.119286322167243 
1069	 0.11934812438278 
1070	 0.119382274123126 
1071	 0.119416474461565 
1072	 0.119427403413627 
1073	 0.119407523303711 
1074	 0.119397277259497 
1075	 0.119385787819378 
1076	 0.119353843639951 
1077	 0.119332799020938 
1078	 0.119271253656907 
1079	 0.119195288388966 
1080	 0.119167765972785 
1081	 0.119163458098057 
1082	 0.119152557394305 
1083	 0.119151007557116 
1084	 0.119182553011545 
1085	 0.119181195528972 
1086	 0.119157593332538 
1087	 0.119160320948773 
1088	 0.119174025815428 
1089	 0.119179981442385 
1090	 0.119181412175523 
1091	 0.119190813921524 
1092	 0.119212859597884 
1093	 0.119207810044611 
1094	 0.119214216592117 
1095	 0.119229165048292 
1096	 0.119205259981312 
1097	 0.119163829876091 
1098	 0.11914435623824 
1099	 0.119126913503243 
1100	 0.119106072902946 
1101	 0.119086201931519 
1102	 0.119088808762009 
1103	 0.119098352857396 
1104	 0.119100718277319 
1105	 0.119138040550158 
1106	 0.119170692812355 
1107	 0.119181020455274 
1108	 0.11919426393601 
1109	 0.119210332150745 
1110	 0.11921996307129 
1111	 0.119243303602798 
1112	 0.119284356661482 
1113	 0.119311805758181 
1114	 0.119346569665049 
1115	 0.119368509994286 
1116	 0.119357059595351 
1117	 0.119384040432032 
1118	 0.119427303437993 
1119	 0.119466721470594 
1120	 0.119514968420746 
1121	 0.119575535337454 
1122	 0.119603866783534 
1123	 0.119628730466742 
1124	 0.119671705253303 
1125	 0.119723040265271 
1126	 0.119778674683234 
1127	 0.119859232978483 
1128	 0.119902517890175 
1129	 0.119939239534472 
1130	 0.11996273695877 
1131	 0.119936884800832 
1132	 0.119955288461069 
1133	 0.119993648029811 
1134	 0.120030729506759 
1135	 0.120080112570896 
1136	 0.120141896867131 
1137	 0.120215593386623 
1138	 0.120244833096801 
1139	 0.120275972097951 
1140	 0.120305020222872 
1141	 0.120331306199666 
1142	 0.120339091047618 
1143	 0.120356232698659 
1144	 0.12037185610892 
1145	 0.120401329522995 
1146	 0.120441370165822 
1147	 0.120470170314297 
1148	 0.120512094407509 
1149	 0.120540739946249 
1150	 0.120558474347791 
1151	 0.120558677124853 
1152	 0.120577574074267 
1153	 0.120586158770452 
1154	 0.120607523203048 
1155	 0.120630626492956 
1156	 0.120666251406554 
1157	 0.120730333037631 
1158	 0.120752874259013 
1159	 0.120748377195844 
1160	 0.120772123056642 
1161	 0.120789573706774 
1162	 0.120809616543765 
1163	 0.120858271898442 
1164	 0.120889694465295 
1165	 0.120906984594632 
1166	 0.12091571299992 
1167	 0.120921772898419 
1168	 0.120945462263885 
1169	 0.120970106051262 
1170	 0.120994065701804 
1171	 0.121018503924364 
1172	 0.121050794529052 
1173	 0.121086636800338 
1174	 0.121132785692714 
1175	 0.121156023936844 
1176	 0.121165179278282 
1177	 0.121190335688778 
1178	 0.121199881949695 
1179	 0.121225064353268 
1180	 0.121283387310335 
1181	 0.121325648917525 
1182	 0.121360801952508 
1183	 0.121391934066354 
1184	 0.121425775143698 
1185	 0.121461925686497 
1186	 0.121486658245928 
1187	 0.121507673244198 
1188	 0.121525870697055 
1189	 0.121528241938305 
1190	 0.121548389862579 
1191	 0.121575737486518 
1192	 0.121602315560549 
1193	 0.121632137060389 
1194	 0.121667163359328 
1195	 0.121713295698855 
1196	 0.121747158415135 
1197	 0.121776180683287 
1198	 0.121810847257602 
1199	 0.121844294848246 
1200	 0.12187155897004 
1201	 0.121895642922903 
1202	 0.121920320521861 
1203	 0.121951141341427 
1204	 0.121972735606276 
1205	 0.122005830034506 
1206	 0.12206002017689 
1207	 0.122097192629306 
1208	 0.122123721224631 
1209	 0.12215737836145 
1210	 0.122192711011241 
1211	 0.122224264801847 
1212	 0.122254655613536 
1213	 0.122287796207747 
1214	 0.122320389474409 
1215	 0.122350977305985 
1216	 0.12238182138493 
1217	 0.122414221035192 
1218	 0.122450256663238 
1219	 0.122487079203082 
1220	 0.122520834675281 
1221	 0.122558376498326 
1222	 0.122593939033053 
1223	 0.122627771007045 
1224	 0.122655648776609 
1225	 0.122680284416993 
1226	 0.122708490350873 
1227	 0.122726612345044 
1228	 0.122754619032943 
1229	 0.122801297232291 
1230	 0.122833568549566 
1231	 0.122853014717859 
1232	 0.122883340162137 
1233	 0.122915388681797 
1234	 0.122945388312756 
1235	 0.122973937454458 
1236	 0.123004192585324 
1237	 0.123044854886998 
1238	 0.123087316972744 
1239	 0.123127043685264 
1240	 0.12318575728642 
1241	 0.123223552548636 
1242	 0.123245458151382 
1243	 0.123266846572314 
1244	 0.12327836564129 
1245	 0.123297159237497 
1246	 0.123304367046619 
1247	 0.12332730108233 
1248	 0.123366101471692 
1249	 0.123404852685163 
1250	 0.123428398693202 
1251	 0.12346530205746 
1252	 0.123497447108038 
1253	 0.12352518176574 
1254	 0.123544966968084 
1255	 0.123561278332317 
1256	 0.123590467614636 
1257	 0.123620384070674 
1258	 0.123640310747251 
1259	 0.12366416288425 
1260	 0.123691187051459 
1261	 0.123710829088947 
1262	 0.123727362023666 
1263	 0.123746303023978 
1264	 0.123773154307442 
1265	 0.123785271525647 
1266	 0.123812031182363 
1267	 0.123859869757725 
1268	 0.123922734759828 
1269	 0.123948212194913 
1270	 0.123954993073278 
1271	 0.123977108408793 
1272	 0.12398407222697 
1273	 0.124002712695495 
1274	 0.124031804887465 
1275	 0.124068343486738 
1276	 0.124104494579652 
1277	 0.124144881171543 
1278	 0.124198433624334 
1279	 0.124254156113636 
1280	 0.124312901373989 
1281	 0.124367557613666 
1282	 0.124427542070212 
1283	 0.124487716633883 
1284	 0.124545270779372 
1285	 0.124595708730884 
1286	 0.124652158106581 
1287	 0.12473104662856 
1288	 0.12479226584246 
1289	 0.124849681364204 
1290	 0.124903640384874 
1291	 0.124950524775952 
1292	 0.125002648254772 
1293	 0.125062356837363 
1294	 0.125103347479337 
1295	 0.12513476429768 
1296	 0.125169812969905 
1297	 0.125189339760808 
1298	 0.125219390363393 
1299	 0.125267379813318 
1300	 0.12529836446544 
1301	 0.125326707007967 
1302	 0.125344126514576 
1303	 0.125354769217113 
1304	 0.125348724890125 
1305	 0.125340756940216 
1306	 0.12533197508341 
1307	 0.125313371959363 
1308	 0.125310597552475 
1309	 0.125309625673811 
1310	 0.125309696069184 
1311	 0.125310872654333 
1312	 0.125322219597301 
1313	 0.1253273156601 
1314	 0.12532604015507 
1315	 0.125334448552661 
1316	 0.125355286631436 
1317	 0.125357675970199 
1318	 0.125349793502075 
1319	 0.125353708998588 
1320	 0.125348977534368 
1321	 0.125351492419931 
1322	 0.125364944752618 
1323	 0.125382638189717 
1324	 0.125392248499595 
1325	 0.125401195223187 
1326	 0.125422863750261 
1327	 0.125437802876376 
1328	 0.125444032812708 
1329	 0.12546194469695 
1330	 0.125482727060325 
1331	 0.125499365756562 
1332	 0.125528234381724 
1333	 0.125577118616249 
1334	 0.125609762224451 
1335	 0.125635551380165 
1336	 0.12567280227345 
1337	 0.125699556412389 
1338	 0.125743888063627 
1339	 0.125810628005787 
1340	 0.125864662905307 
1341	 0.125925876609924 
1342	 0.125981304589536 
1343	 0.126030565483811 
1344	 0.126076547605081 
1345	 0.126124804613255 
1346	 0.126170932691754 
1347	 0.1262123738622 
1348	 0.126272940359175 
1349	 0.126346642570662 
1350	 0.126401769280591 
1351	 0.126460006578696 
1352	 0.126517557205333 
1353	 0.126577598376418 
1354	 0.126643304646998 
1355	 0.126694577981579 
1356	 0.126734325787096 
1357	 0.126793829567727 
1358	 0.126848734416427 
1359	 0.126908542847059 
1360	 0.126992296761963 
1361	 0.127059799856415 
1362	 0.127117710258068 
1363	 0.127173075111301 
1364	 0.127226400873239 
1365	 0.127276311190342 
1366	 0.127318989322563 
1367	 0.127363240179424 
1368	 0.12740788700268 
1369	 0.127440700534163 
1370	 0.127448496099235 
1371	 0.127456602176958 
1372	 0.127472562908439 
1373	 0.127499550089627 
1374	 0.127524115603029 
1375	 0.127569270891405 
1376	 0.127592220325775 
1377	 0.127591572703351 
1378	 0.127613951276027 
1379	 0.127647656042947 
1380	 0.127671505500602 
1381	 0.127707174442559 
1382	 0.127727655322822 
1383	 0.127731391756716 
1384	 0.12773963149571 
1385	 0.127750067011496 
1386	 0.127749825133203 
1387	 0.127738506774965 
1388	 0.127733425494052 
1389	 0.127728119618307 
1390	 0.127716485508691 
1391	 0.127708034052268 
1392	 0.127697323202972 
1393	 0.127666268539584 
1394	 0.127624203075382 
1395	 0.127576042562491 
1396	 0.127527194188218 
1397	 0.127478071982384 
1398	 0.12742955597091 
1399	 0.127371226583956 
1400	 0.127311483160606 
1401	 0.127244466514072 
1402	 0.127169366370666 
1403	 0.127093995001573 
1404	 0.127005341716911 
1405	 0.126932910914944 
1406	 0.126862890958065 
1407	 0.126799137830011 
1408	 0.126748794574947 
1409	 0.126693727887945 
1410	 0.12662787351264 
1411	 0.126585324307341 
1412	 0.126554196810188 
1413	 0.126529503008112 
1414	 0.126515818887241 
1415	 0.126506293978628 
1416	 0.126495196923259 
1417	 0.126492804233794 
1418	 0.12650935320887 
1419	 0.126531167741899 
1420	 0.126545189077598 
1421	 0.126558992119232 
1422	 0.126566492947765 
1423	 0.126570093571568 
1424	 0.126582693621481 
1425	 0.12660363735064 
1426	 0.126619148330504 
1427	 0.126634088157565 
1428	 0.126650791969638 
1429	 0.126667867275391 
1430	 0.126682837988803 
1431	 0.126701286214028 
1432	 0.126718181374097 
1433	 0.12672319665837 
1434	 0.126741370521728 
1435	 0.126769229254258 
1436	 0.126793944495753 
1437	 0.126819714824507 
1438	 0.12685326191611 
1439	 0.126888768810426 
1440	 0.126929958538193 
1441	 0.12697211057926 
1442	 0.127018348561946 
1443	 0.127048112674809 
1444	 0.1270657271264 
1445	 0.127091381810254 
1446	 0.127109565216246 
1447	 0.127139435642145 
1448	 0.127183550263486 
1449	 0.127211770492961 
1450	 0.127247743802131 
1451	 0.127285189808922 
1452	 0.127316718784812 
1453	 0.127358142784938 
1454	 0.127415396519945 
1455	 0.127456349894711 
1456	 0.127497835889009 
1457	 0.127534448691661 
1458	 0.127561552375025 
1459	 0.127587751729999 
1460	 0.127614046653182 
1461	 0.127632685024078 
1462	 0.127626411537115 
1463	 0.127653825093163 
1464	 0.127703712338631 
1465	 0.12773921799047 
1466	 0.12779061320438 
1467	 0.127833876163645 
1468	 0.127858670712859 
1469	 0.127889911560708 
1470	 0.127934505574836 
1471	 0.127960136740931 
1472	 0.127985328260465 
1473	 0.128022165895207 
1474	 0.128050323474886 
1475	 0.128086576400078 
1476	 0.128116847761834 
1477	 0.128135317444847 
1478	 0.128161077738498 
1479	 0.128182360647966 
1480	 0.128222386516617 
1481	 0.128266846792735 
1482	 0.128294852188704 
1483	 0.128323484372429 
1484	 0.128346249323118 
1485	 0.128338545594286 
1486	 0.128370388041851 
1487	 0.128426900307653 
1488	 0.1284681010484 
1489	 0.128528262675262 
1490	 0.128563076468477 
1491	 0.128568516835551 
1492	 0.128598700391799 
1493	 0.128630191005129 
1494	 0.128668835323208 
1495	 0.128731147380208 
1496	 0.128768583601663 
1497	 0.128792545741995 
1498	 0.128825086832954 
1499	 0.128851224761714 
1500	 0.128879212417751 
1501	 0.128914807783915 
1502	 0.128943352952804 
1503	 0.128964817192957 
1504	 0.128988222607966 
1505	 0.129011892273124 
1506	 0.129030044894591 
1507	 0.129059763156989 
1508	 0.129080545049465 
1509	 0.129079481179015 
1510	 0.129094352136523 
1511	 0.129101996255323 
1512	 0.129099938047639 
1513	 0.129127323500469 
1514	 0.129152968884446 
1515	 0.129172996850369 
1516	 0.12920544896356 
1517	 0.129220529358477 
1518	 0.129223324469805 
1519	 0.129235395103364 
1520	 0.129242233001167 
1521	 0.129254117968346 
1522	 0.129271308473002 
1523	 0.129291737845811 
1524	 0.129311103539732 
1525	 0.129335059955651 
1526	 0.129376989652651 
1527	 0.129395983831043 
1528	 0.12940252377325 
1529	 0.129413932796756 
1530	 0.129406142112982 
1531	 0.129422143585094 
1532	 0.129463486871975 
1533	 0.129482253374029 
1534	 0.129498662591529 
1535	 0.129515430013985 
1536	 0.129513563224247 
1537	 0.129526257370764 
1538	 0.129559834117054 
1539	 0.129577432522542 
1540	 0.12958663325157 
1541	 0.129599736808486 
1542	 0.129604534405843 
1543	 0.129613808473262 
1544	 0.129630411090122 
1545	 0.129647096920869 
1546	 0.129672950182269 
1547	 0.129681710863647 
1548	 0.129681797291673 
1549	 0.129688322957148 
1550	 0.129687111771858 
1551	 0.129684409036347 
1552	 0.129713693389905 
1553	 0.129740074428005 
1554	 0.129759596652431 
1555	 0.129788978589999 
1556	 0.129790764849187 
1557	 0.129790565919822 
1558	 0.129800328458231 
1559	 0.129798874113132 
1560	 0.129812696236242 
1561	 0.129845507002799 
1562	 0.129854795566482 
1563	 0.129859247498243 
1564	 0.129860199124223 
1565	 0.129839893749813 
1566	 0.129845972026602 
1567	 0.129861353412126 
1568	 0.1298865375954 
1569	 0.129937722567459 
1570	 0.129954484323575 
1571	 0.129961699594965 
1572	 0.129967588724753 
1573	 0.12995298788463 
1574	 0.129952888122271 
1575	 0.129962223527664 
1576	 0.12996688941585 
1577	 0.129967671946231 
1578	 0.129971424756548 
1579	 0.12997689078786 
1580	 0.12998503395356 
1581	 0.12999407638803 
1582	 0.130007450298281 
1583	 0.13002890251344 
1584	 0.130041564874371 
1585	 0.130053585899744 
1586	 0.130061230091247 
1587	 0.130060815164909 
1588	 0.130063002803296 
1589	 0.130063668415959 
1590	 0.130068026522473 
1591	 0.130073501863029 
1592	 0.130080726036708 
1593	 0.13009319831486 
1594	 0.130100784138019 
1595	 0.130100161269523 
1596	 0.130109246695476 
1597	 0.13012846868997 
1598	 0.130136085001565 
1599	 0.130150332163611 
1600	 0.130154337378227 
1601	 0.130134018691731 
1602	 0.130130382867554 
1603	 0.130129255333767 
1604	 0.130132385416514 
1605	 0.130153164308179 
1606	 0.130161676175017 
1607	 0.130168323017491 
1608	 0.130167274659169 
1609	 0.130165157629373 
1610	 0.13015582514403 
1611	 0.130142327424009 
1612	 0.130158384983352 
1613	 0.13015917552305 
1614	 0.130150360388777 
1615	 0.130157968568482 
1616	 0.130152068312796 
1617	 0.13015607475938 
1618	 0.130180833730975 
1619	 0.130197051931521 
1620	 0.130194364462419 
1621	 0.130208844892467 
1622	 0.130228191937891 
1623	 0.130239829895275 
1624	 0.13026152779397 
1625	 0.130260108050015 
1626	 0.1302337590542 
1627	 0.130238486016381 
1628	 0.13024565827573 
1629	 0.130257028892652 
1630	 0.130293692125673 
1631	 0.130299331436247 
1632	 0.130284371629687 
1633	 0.130286852096958 
1634	 0.130284618622909 
1635	 0.130292386668235 
1636	 0.130319113439613 
1637	 0.130320125282186 
1638	 0.130307798909291 
1639	 0.130308973617139 
1640	 0.130303102654793 
1641	 0.130305321999822 
1642	 0.130319745846498 
1643	 0.130329483694722 
1644	 0.130335069767278 
1645	 0.130345361919518 
1646	 0.130369059383978 
1647	 0.130372271773477 
1648	 0.130355001948497 
1649	 0.130365548149111 
1650	 0.130380657954626 
1651	 0.130394623685922 
1652	 0.130434462252126 
1653	 0.13044543605087 
1654	 0.130436342428128 
1655	 0.1304306519589 
1656	 0.130413244398496 
1657	 0.130408893585528 
1658	 0.130407224586297 
1659	 0.130404970625526 
1660	 0.130407087963454 
1661	 0.130413168385061 
1662	 0.13042203443155 
1663	 0.130425081105644 
1664	 0.130435741011323 
1665	 0.13043493723645 
1666	 0.130413515335237 
1667	 0.130414559187284 
1668	 0.130425006815652 
1669	 0.130432263588931 
1670	 0.130449180245752 
1671	 0.130461432617565 
1672	 0.130476727830855 
1673	 0.130475277362403 
1674	 0.130463473642798 
1675	 0.130458969220573 
1676	 0.130430874079288 
1677	 0.130438018882048 
1678	 0.130482666381462 
1679	 0.130496140612035 
1680	 0.13051501762342 
1681	 0.130517716336212 
1682	 0.13049063559868 
1683	 0.130482276562975 
1684	 0.130476980075005 
1685	 0.130475350395774 
1686	 0.130473717627699 
1687	 0.130484330467749 
1688	 0.13051170429716 
1689	 0.130521028933483 
1690	 0.130530603528039 
1691	 0.130538605120564 
1692	 0.130528878042566 
1693	 0.130536176582806 
1694	 0.130562584721554 
1695	 0.130569604328153 
1696	 0.130569814889608 
1697	 0.130572418594846 
1698	 0.130576938622026 
1699	 0.130563842819676 
1700	 0.130538894619475 
1701	 0.130520704733619 
1702	 0.13047430491258 
1703	 0.130468907723059 
1704	 0.130498309700024 
1705	 0.130513382713131 
1706	 0.130552446020187 
1707	 0.130555983987868 
1708	 0.130522034448135 
1709	 0.130527476333932 
1710	 0.130539081884106 
1711	 0.13054700278633 
1712	 0.130582452362867 
1713	 0.13059262942345 
1714	 0.130570477314105 
1715	 0.1305814729842 
1716	 0.130616507782821 
1717	 0.130624501593496 
1718	 0.130628188774018 
1719	 0.130634533679228 
1720	 0.130624024333816 
1721	 0.130624156647809 
1722	 0.130647139541158 
1723	 0.130640850070601 
1724	 0.130618320296519 
1725	 0.130591722095738 
1726	 0.130539888719739 
1727	 0.130522651770237 
1728	 0.130513947796253 
1729	 0.130510831788669 
1730	 0.130536862430162 
1731	 0.130537700606798 
1732	 0.13052601343582 
1733	 0.130521014333389 
1734	 0.130513301435067 
1735	 0.130503769255691 
1736	 0.130496393870172 
1737	 0.130483789576438 
1738	 0.130464117454738 
1739	 0.130449922096675 
1740	 0.130438744645195 
1741	 0.130418582605251 
1742	 0.13039575520742 
1743	 0.130371437941856 
1744	 0.130336080831447 
1745	 0.130327840793102 
1746	 0.130329282124334 
1747	 0.130331783443472 
1748	 0.130330777091927 
1749	 0.130312626623158 
1750	 0.130310793484234 
1751	 0.130310990620792 
1752	 0.130317193093212 
1753	 0.130319270629822 
1754	 0.130327429444289 
1755	 0.13032099426161 
1756	 0.130298762413407 
1757	 0.130282117618498 
1758	 0.130257705739498 
1759	 0.130244993827701 
1760	 0.130248930278337 
1761	 0.130250504725773 
1762	 0.130245992109096 
1763	 0.130239887335246 
1764	 0.130224507198539 
1765	 0.130215481932181 
1766	 0.130213629939179 
1767	 0.130214078261752 
1768	 0.130224216102216 
1769	 0.13021726419874 
1770	 0.130208907426724 
1771	 0.130210733463474 
1772	 0.13020346241871 
1773	 0.130192697631366 
1774	 0.130189127533217 
1775	 0.13018927249928 
1776	 0.130188650974578 
1777	 0.130196242076078 
1778	 0.13018176175243 
1779	 0.130161599622343 
1780	 0.130157979030845 
1781	 0.130161705067295 
1782	 0.130196095176171 
1783	 0.1301823383221 
1784	 0.130181289808324 
1785	 0.130176118252321 
1786	 0.130161821812492 
1787	 0.130156546280225 
1788	 0.130162787186566 
1789	 0.130158885394943 
1790	 0.130150837032746 
1791	 0.130155836633839 
1792	 0.130159573052575 
1793	 0.130136941784994 
1794	 0.130157470078938 
1795	 0.130230351319033 
1796	 0.130250711504394 
1797	 0.130256993178007 
1798	 0.130262780791284 
1799	 0.130237429933099 
1800	 0.13024099787539 
1801	 0.127606356903748 
1802	 0.127606398113216 
1803	 0.127559134761276 
1804	 0.127597380300648 
1805	 0.12765528611662 
1806	 0.12766855857785 
1807	 0.127693247159234 
1808	 0.127707929002237 
1809	 0.127685421884993 
1810	 0.127689803862753 
1811	 0.127703561629374 
1812	 0.1277358644223 
1813	 0.127754449276989 
1814	 0.127769485641837 
1815	 0.127789980522968 
1816	 0.127827093711047 
1817	 0.127861449167392 
1818	 0.127914868201693 
1819	 0.127941438984978 
1820	 0.127969869832844 
1821	 0.127959178099836 
1822	 0.127941695318866 
1823	 0.127952748249278 
1824	 0.127964027544058 
1825	 0.127999812652816 
1826	 0.12804429602789 
1827	 0.128074841091837 
1828	 0.12809211249316 
1829	 0.128086352259761 
1830	 0.128093981445988 
1831	 0.128098534690407 
1832	 0.128106039911106 
1833	 0.128101595637436 
1834	 0.128127558628563 
1835	 0.128157131480708 
1836	 0.128165971234528 
1837	 0.128191960459594 
1838	 0.128217401676821 
1839	 0.128221766015892 
1840	 0.128202052997122 
1841	 0.128191368208741 
1842	 0.128186191420496 
1843	 0.128169612893219 
1844	 0.128171008375112 
1845	 0.128178012191533 
1846	 0.128188434918089 
1847	 0.128212687186199 
1848	 0.128216343979096 
1849	 0.128206669988699 
1850	 0.128208742925128 
1851	 0.128214810632403 
1852	 0.128195224174101 
1853	 0.128185077995498 
1854	 0.128195617630155 
1855	 0.128167844425783 
1856	 0.128148665378689 
1857	 0.128129252186528 
1858	 0.128098757167582 
1859	 0.128087083265382 
1860	 0.128065228533803 
1861	 0.128042842560601 
1862	 0.128011527668325 
1863	 0.127970685866329 
1864	 0.127922834991091 
1865	 0.127879369662866 
1866	 0.127851417699011 
1867	 0.127836886816241 
1868	 0.127820541603474 
1869	 0.127777905992528 
1870	 0.127727034316463 
1871	 0.127679440895988 
1872	 0.127628748361292 
1873	 0.127563511651248 
1874	 0.127505525563044 
1875	 0.127441472198589 
1876	 0.127346430762116 
1877	 0.127232147676946 
1878	 0.127104329085192 
1879	 0.126966024718605 
1880	 0.126835627006231 
1881	 0.126707611050635 
1882	 0.126574796272565 
1883	 0.126445619668236 
1884	 0.126310480394229 
1885	 0.126157444721315 
1886	 0.125967395501498 
1887	 0.125782498862894 
1888	 0.125602488933545 
1889	 0.125396028041896 
1890	 0.125200167319397 
1891	 0.12498083315176 
1892	 0.12473234003953 
1893	 0.124474489823714 
1894	 0.124203086762181 
1895	 0.123925124347286 
1896	 0.123641358938482 
1897	 0.123379903591898 
1898	 0.123094993120115 
1899	 0.122792170132802 
1900	 0.12248299976323 
1901	 0.122178782657557 
1902	 0.121890730827106 
1903	 0.121617438095293 
1904	 0.121352213620114 
1905	 0.121103366662283 
1906	 0.120854552307399 
1907	 0.120603167116794 
1908	 0.120374676270185 
1909	 0.12014647104248 
1910	 0.119912729503911 
1911	 0.119694535467867 
1912	 0.119476018456866 
1913	 0.119277378583971 
1914	 0.119096937373625 
1915	 0.118918445121217 
1916	 0.118745985524766 
1917	 0.118595131835086 
1918	 0.118439504484253 
1919	 0.118287723406867 
1920	 0.11816465439694 
1921	 0.1180476541162 
1922	 0.117930078790032 
1923	 0.117819094108557 
1924	 0.117717816744474 
1925	 0.117619341247405 
1926	 0.117525575476069 
1927	 0.117443034054721 
1928	 0.117360859207295 
1929	 0.117285586563782 
1930	 0.117240087763645 
1931	 0.11719242188582 
1932	 0.117166656472424 
1933	 0.117162119781488 
1934	 0.117145466247724 
1935	 0.117137443432529 
1936	 0.117144746956212 
1937	 0.117155013676137 
1938	 0.117156561913008 
1939	 0.117177548644964 
1940	 0.117224766658951 
1941	 0.117257270899504 
1942	 0.117287330399835 
1943	 0.117332505427304 
1944	 0.117378270710199 
1945	 0.117438732506832 
1946	 0.117488786003283 
1947	 0.117542418788607 
1948	 0.117595692594932 
1949	 0.117628260369085 
1950	 0.117687477303902 
1951	 0.117764050598934 
1952	 0.117854431237092 
1953	 0.117932917452011 
1954	 0.118006831684845 
1955	 0.118068842296797 
1956	 0.118113843033366 
1957	 0.118181027490906 
1958	 0.118264143913011 
1959	 0.11833616698753 
1960	 0.118420063705378 
1961	 0.11848490286339 
1962	 0.118530119396954 
1963	 0.118577463955227 
1964	 0.118606243581966 
1965	 0.118655511991259 
1966	 0.118728277810509 
1967	 0.118801451559224 
1968	 0.118878940016647 
1969	 0.118982525152014 
1970	 0.119063477510117 
1971	 0.119136163074688 
1972	 0.119207649839442 
1973	 0.119267116001025 
1974	 0.119338458191777 
1975	 0.119414081484997 
1976	 0.119474860107439 
1977	 0.11957582191596 
1978	 0.119678576917159 
1979	 0.119779147535714 
1980	 0.11991841235197 
1981	 0.120019979092039 
1982	 0.120106043847159 
1983	 0.120193884457245 
1984	 0.120270922885171 
1985	 0.120344636196788 
1986	 0.120412936940069 
1987	 0.120483134560491 
1988	 0.120548771764965 
1989	 0.120609537517078 
1990	 0.120682917761629 
1991	 0.120763112160108 
1992	 0.120844088044628 
1993	 0.120933748694155 
1994	 0.121019760345308 
1995	 0.121106273750274 
1996	 0.121191878084746 
1997	 0.121284409163105 
1998	 0.121361200479565 
1999	 0.121430358291569 
2000	 0.121500270031524 
2001	 0.12156238538115 
2002	 0.121617782186281 
2003	 0.121682735931688 
2004	 0.121751071699051 
2005	 0.121834060531607 
2006	 0.121938676851337 
2007	 0.122023805775241 
2008	 0.122110286370656 
2009	 0.122194101503465 
2010	 0.12226163036266 
2011	 0.122340924570703 
2012	 0.122421489738554 
2013	 0.122516756078691 
2014	 0.122627626317901 
2015	 0.122732719049716 
2016	 0.122835366892258 
2017	 0.12293945267337 
2018	 0.123045203301813 
2019	 0.123140115228723 
2020	 0.123245894363927 
2021	 0.123364841146434 
2022	 0.123478956568235 
2023	 0.123588207155949 
2024	 0.123700163654291 
2025	 0.123814858586151 
2026	 0.123933879782576 
2027	 0.1240552184558 
2028	 0.12418061601728 
2029	 0.124297072856225 
2030	 0.124414346902963 
2031	 0.124526174598757 
2032	 0.124630729750267 
2033	 0.124736208659831 
2034	 0.124836047319825 
2035	 0.124946567285127 
2036	 0.125070384008429 
2037	 0.125171572904227 
2038	 0.12526830613609 
2039	 0.125364325487667 
2040	 0.125437942179802 
2041	 0.125516529743409 
2042	 0.125629700549232 
2043	 0.125736993085478 
2044	 0.125829571398271 
2045	 0.125917060397046 
2046	 0.126008043487028 
2047	 0.126093598021646 
2048	 0.126170939764592 
2049	 0.126256965205726 
2050	 0.126326350704684 
2051	 0.126348853808677 
2052	 0.126416003853267 
2053	 0.126518092545755 
2054	 0.12659667965928 
2055	 0.126689398931108 
2056	 0.126773453773681 
2057	 0.126841846440338 
2058	 0.12688743836039 
2059	 0.126932503538032 
2060	 0.126966847747504 
2061	 0.127007905098218 
2062	 0.127021300320563 
2063	 0.127073652665602 
2064	 0.127163127646742 
2065	 0.127232091562372 
2066	 0.127308958031529 
2067	 0.127383432265952 
2068	 0.127443911166644 
2069	 0.127510080231653 
2070	 0.127584689873353 
2071	 0.127672458365917 
2072	 0.127751691191334 
2073	 0.127843961149629 
2074	 0.127900993921043 
2075	 0.127937936117216 
2076	 0.12798181166565 
2077	 0.127987942870306 
2078	 0.128037073454961 
2079	 0.128114236177524 
2080	 0.128185756651234 
2081	 0.128290301324496 
2082	 0.128363818449392 
2083	 0.128409549341164 
2084	 0.128476454379778 
2085	 0.12852980545461 
2086	 0.128565348324178 
2087	 0.128612231189542 
2088	 0.128657306503709 
2089	 0.128719506772091 
2090	 0.128782190300165 
2091	 0.128858376335195 
2092	 0.128972736211318 
2093	 0.129052663900133 
2094	 0.129127892235068 
2095	 0.129191939277349 
2096	 0.129214207493231 
2097	 0.129269492370529 
2098	 0.129326444849981 
2099	 0.129402364195426 
2100	 0.129489666042176 
2101	 0.129611757078106 
2102	 0.129697414860451 
2103	 0.12978458783794 
2104	 0.129854207872766 
2105	 0.129901049487327 
2106	 0.129955591328633 
2107	 0.129995257524191 
2108	 0.130051853888291 
2109	 0.13010378539056 
2110	 0.13017638322461 
2111	 0.130273422704892 
2112	 0.130365146115209 
2113	 0.130469656949438 
2114	 0.13057310061358 
2115	 0.130667317679208 
2116	 0.130757331181981 
2117	 0.130842609979411 
2118	 0.130927306808709 
2119	 0.130998008673749 
2120	 0.13106032745675 
2121	 0.131115701737728 
2122	 0.131151826308891 
2123	 0.131200104194294 
2124	 0.13124077967365 
2125	 0.131294783660123 
2126	 0.131367162725399 
2127	 0.131425956061912 
2128	 0.131490058788032 
2129	 0.131546179544687 
2130	 0.131600605623404 
2131	 0.131630251065533 
2132	 0.131672747325199 
2133	 0.131712214294285 
2134	 0.1317544126135 
2135	 0.131809364571705 
2136	 0.131837185782672 
2137	 0.131855383443686 
2138	 0.131865480029711 
2139	 0.131851497637908 
2140	 0.131846180566979 
2141	 0.13185146907698 
2142	 0.131836395526515 
2143	 0.131819470793301 
2144	 0.131779514660341 
2145	 0.131688518484644 
2146	 0.131634709191719 
2147	 0.131577016075706 
2148	 0.131547463811781 
2149	 0.13150380018979 
2150	 0.131486543965076 
2151	 0.131442509704812 
2152	 0.131381500067591 
2153	 0.131314849082013 
2154	 0.131232760445065 
2155	 0.131172770363558 
2156	 0.131121366927869 
2157	 0.131050281801127 
2158	 0.13099705834887 
2159	 0.130917486728814 
2160	 0.130792269663114 
2161	 0.130689343355462 
2162	 0.130595235939414 
2163	 0.130492221152036 
2164	 0.130379182064252 
2165	 0.130281976849312 
2166	 0.130185117175506 
2167	 0.130086883436319 
2168	 0.129992327828998 
2169	 0.129910020014751 
2170	 0.129816897969347 
2171	 0.129705694517621 
2172	 0.129622756269224 
2173	 0.129567111289914 
2174	 0.12948131040504 
2175	 0.129390490381325 
2176	 0.129305353553976 
2177	 0.129199173984887 
2178	 0.129105339327666 
2179	 0.129027238448959 
2180	 0.128949312769904 
2181	 0.1288842628052 
2182	 0.128798468977284 
2183	 0.128695848260377 
2184	 0.128612235269389 
2185	 0.128517966170087 
2186	 0.12839905889391 
2187	 0.128304979563864 
2188	 0.128227793533825 
2189	 0.128146370189858 
2190	 0.12806136742015 
2191	 0.127990826047577 
2192	 0.127929899000707 
2193	 0.127872860172821 
2194	 0.12782929130708 
2195	 0.127781129418297 
2196	 0.127756776637852 
2197	 0.127691738936027 
2198	 0.127571015052648 
2199	 0.127504762534921 
2200	 0.127434901075165 
2201	 0.127385298441808 
2202	 0.127373687216727 
2203	 0.12739429405487 
2204	 0.12739183586836 
2205	 0.127384919278679 
2206	 0.127373994353993 
2207	 0.127367295525572 
2208	 0.127349665820669 
2209	 0.127312364578456 
2210	 0.127296615283354 
2211	 0.127279434504874 
2212	 0.127283209122128 
2213	 0.127308780351131 
2214	 0.127326093597867 
2215	 0.127361595036703 
2216	 0.127379422789316 
2217	 0.127375791567332 
2218	 0.127393093896054 
2219	 0.12741166445607 
2220	 0.127437246617758 
2221	 0.127482673364923 
2222	 0.127528894438494 
2223	 0.127542482351904 
2224	 0.127543604342035 
2225	 0.127567518697624 
2226	 0.12758461381772 
2227	 0.127605392051442 
2228	 0.127653530802199 
2229	 0.127671743810103 
2230	 0.127656136066218 
2231	 0.127682159895669 
2232	 0.127723263556508 
2233	 0.127757197783943 
2234	 0.12780432367226 
2235	 0.127843112839446 
2236	 0.127879801361263 
2237	 0.127913246129917 
2238	 0.127945366117838 
2239	 0.127984817573861 
2240	 0.128014452341005 
2241	 0.128050933750771 
2242	 0.128122365688167 
2243	 0.128153279376234 
2244	 0.12815283515432 
2245	 0.12816714419982 
2246	 0.128160947574129 
2247	 0.128154444634984 
2248	 0.128157379143938 
2249	 0.128169919401923 
2250	 0.128189027417679 
2251	 0.128205885819752 
2252	 0.128241263659236 
2253	 0.128306638970266 
2254	 0.128345999715691 
2255	 0.128384396324365 
2256	 0.128410621933014 
2257	 0.128421399870859 
2258	 0.128437923904371 
2259	 0.128448389961367 
2260	 0.128465209107147 
2261	 0.128479004398623 
2262	 0.128499780610906 
2263	 0.128516094658515 
2264	 0.128555536930137 
2265	 0.128631826700139 
2266	 0.128677471145717 
2267	 0.128723344182553 
2268	 0.128760540549896 
2269	 0.12877373885373 
2270	 0.128786917055357 
2271	 0.128806001178883 
2272	 0.128815277898066 
2273	 0.128826605118773 
2274	 0.128828598578494 
2275	 0.128841036514162 
2276	 0.128866156041854 
2277	 0.128885203996058 
2278	 0.128899841282749 
2279	 0.128917248961115 
2280	 0.12893551089554 
2281	 0.128952891608213 
2282	 0.128968976553627 
2283	 0.128998900070548 
2284	 0.129029844026571 
2285	 0.129066128737455 
2286	 0.12911311799167 
2287	 0.129156369909802 
2288	 0.129219888745232 
2289	 0.129257894118228 
2290	 0.129271163748594 
2291	 0.129303936910404 
2292	 0.129334474553894 
2293	 0.12935935623839 
2294	 0.129400906031515 
2295	 0.129427965471722 
2296	 0.12946128064734 
2297	 0.129441578437615 
2298	 0.129402380697306 
2299	 0.129405557625743 
2300	 0.129387594549351 
2301	 0.129381534298285 
2302	 0.129431128884272 
2303	 0.129468687133465 
2304	 0.129435947986205 
2305	 0.129412551199477 
2306	 0.129385772747214 
2307	 0.129301900547083 
2308	 0.129270053946009 
2309	 0.129288978625626 
2310	 0.129275672058004 
2311	 0.129246019609628 
2312	 0.129245270808163 
2313	 0.129253466031413 
2314	 0.129256281676324 
2315	 0.129269762260875 
2316	 0.129292188149023 
2317	 0.129333719542901 
2318	 0.129338685789875 
2319	 0.129332731681591 
2320	 0.129330122312468 
2321	 0.12928903580254 
2322	 0.129279070244515 
2323	 0.129298093368071 
2324	 0.129310905939736 
2325	 0.129291408338581 
2326	 0.129329065297227 
2327	 0.129422091425843 
2328	 0.12950320076488 
2329	 0.129523841792694 
2330	 0.129591305249867 
2331	 0.129581497827216 
2332	 0.129496853853282 
2333	 0.129480517143598 
2334	 0.129498147667438 
2335	 0.129515808750306 
2336	 0.129562567670076 
2337	 0.129568760390788 
2338	 0.129560669060821 
2339	 0.129593701336903 
2340	 0.129573184815956 
2341	 0.129537589459133 
2342	 0.129513549232138 
2343	 0.129429653054574 
2344	 0.129347154250549 
2345	 0.129298833553123 
2346	 0.129286730135579 
2347	 0.129267549650257 
2348	 0.129251427626135 
2349	 0.129252238988069 
2350	 0.129288950481669 
2351	 0.129274985474716 
2352	 0.12925990000685 
2353	 0.129223181994917 
2354	 0.129131449818595 
2355	 0.129080110859069 
2356	 0.129046119613883 
2357	 0.128983774652385 
2358	 0.12892223500228 
2359	 0.128862155519315 
2360	 0.12875892856304 
2361	 0.128720204565803 
2362	 0.128752347184174 
2363	 0.128698158618849 
2364	 0.128624891786526 
2365	 0.128569623510846 
2366	 0.128449165674275 
2367	 0.128389494192651 
2368	 0.128404523528145 
2369	 0.128372549145544 
2370	 0.128312571442886 
2371	 0.128302602980562 
2372	 0.128261063061208 
2373	 0.128189678051371 
2374	 0.128156917266727 
2375	 0.128058915742198 
2376	 0.127908649737755 
2377	 0.127832686967467 
2378	 0.127726476304884 
2379	 0.127617250079194 
2380	 0.127616685853329 
2381	 0.127589814824804 
2382	 0.127545469732517 
2383	 0.127536146088922 
2384	 0.127470041529089 
2385	 0.127380578356866 
2386	 0.127288132337016 
2387	 0.127218524441204 
2388	 0.127177436331776 
2389	 0.127108671508522 
2390	 0.127104839401949 
2391	 0.127113435823065 
2392	 0.127034809743336 
2393	 0.126943573130586 
2394	 0.126880910573484 
2395	 0.126756854583217 
2396	 0.126714136355894 
2397	 0.126748089949043 
2398	 0.126711490479491 
2399	 0.126703304177943 
2400	 0.126574605988254 
2401	 0.126481207690468 
2402	 0.126473123873931 
2403	 0.126353840359076 
2404	 0.126367456070518 
2405	 0.126402993951592 
2406	 0.126272021750105 
2407	 0.126151179992398 
2408	 0.126006950758177 
2409	 0.125858498394547 
2410	 0.125810774004593 
2411	 0.125835043943651 
2412	 0.125861763516796 
2413	 0.125775057803117 
2414	 0.125648814676507 
2415	 0.12550418469135 
2416	 0.12538257780988 
2417	 0.125270091175883 
2418	 0.125194101701089 
2419	 0.125115814511511 
2420	 0.125067673560263 
2421	 0.125093380091515 
2422	 0.125021401478961 
2423	 0.124904059276861 
2424	 0.124864901301854 
2425	 0.124794168625168 
2426	 0.124758744094989 
2427	 0.124868175579727 
2428	 0.124830838418974 
2429	 0.124689092732598 
2430	 0.124532543881987 
2431	 0.124247079180914 
2432	 0.12411170965948 
2433	 0.124058201200138 
2434	 0.124016429763191 
2435	 0.124128289866284 
2436	 0.124062504280749 
2437	 0.123847734134631 
2438	 0.123714626546592 
2439	 0.12352886527248 
2440	 0.123426348040469 
2441	 0.123417482787569 
2442	 0.123377559911131 
2443	 0.12334837909299 
2444	 0.123317191595106 
2445	 0.123334520709692 
2446	 0.123272155727742 
2447	 0.123138311516636 
2448	 0.123012924840344 
2449	 0.122835797749804 
2450	 0.122715356497367 
2451	 0.122628193651225 
2452	 0.122545055320939 
2453	 0.122461885143081 
2454	 0.122367394346622 
2455	 0.122323433813281 
2456	 0.122309703084803 
2457	 0.122303828235012 
2458	 0.122257511335704 
2459	 0.122200685447772 
2460	 0.122077497384856 
2461	 0.121851127055428 
2462	 0.121663647900117 
2463	 0.121550344243444 
2464	 0.12141640200301 
2465	 0.121230952169827 
2466	 0.121188721395123 
2467	 0.12117696076027 
2468	 0.121104251648641 
2469	 0.121126749584144 
2470	 0.121161769072713 
2471	 0.12103570748764 
2472	 0.120948942908159 
2473	 0.12088502779843 
2474	 0.120837741067154 
2475	 0.120811147843929 
2476	 0.120737879838616 
2477	 0.120680660193208 
2478	 0.120513533347841 
2479	 0.120394744394414 
2480	 0.120468769379767 
2481	 0.120458394295512 
2482	 0.120495050939113 
2483	 0.120528317797623 
2484	 0.1202754495714 
2485	 0.120134982241929 
2486	 0.120160604868253 
2487	 0.119964256385903 
2488	 0.119879510204403 
2489	 0.119926965265101 
2490	 0.119763170846729 
2491	 0.119719825425011 
2492	 0.119781210837311 
2493	 0.11976316393657 
2494	 0.119854266011584 
2495	 0.119978581646802 
2496	 0.12003295057325 
2497	 0.120126505830561 
2498	 0.119978851885309 
2499	 0.119698158901572 
2500	 0.119590865350058 
