Wavelength	LMW_1600005.asd
350	 9.90072581318736E-02 
351	 0.102913943971282 
352	 9.33008050173242E-02 
353	 8.29587111935078E-02 
354	 8.59620596471884E-02 
355	 9.22878838645528E-02 
356	 0.094484263657485 
357	 9.03202600769225E-02 
358	 9.36817183416357E-02 
359	 9.40206582172328E-02 
360	 9.27451008531818E-02 
361	 9.78951731907658E-02 
362	 9.69635887515636E-02 
363	 9.51656262358207E-02 
364	 9.55763363893635E-02 
365	 9.44434931376945E-02 
366	 9.26020224433158E-02 
367	 9.44950725350034E-02 
368	 0.101699463296319 
369	 0.101685630394023 
370	 0.099669333752699 
371	 9.83402355994875E-02 
372	 9.83590433925868E-02 
373	 0.101069420272235 
374	 0.103491120392882 
375	 0.104704262767828 
376	 0.108438861506109 
377	 0.109215575182729 
378	 0.108749517387849 
379	 0.110182284816152 
380	 0.113043793292151 
381	 0.114161480198634 
382	 0.115114141697473 
383	 0.120391979115318 
384	 0.12346328820499 
385	 0.123122734309914 
386	 0.121262260875045 
387	 0.12405617472611 
388	 0.126170892338035 
389	 0.127895962206841 
390	 0.130674059710623 
391	 0.132794289409599 
392	 0.133637027508569 
393	 0.134863683794766 
394	 0.139525959914358 
395	 0.142246168055528 
396	 0.144222324017505 
397	 0.146536238950584 
398	 0.147378101303045 
399	 0.148997685912642 
400	 0.152132170451036 
401	 0.15617052140528 
402	 0.15698789329996 
403	 0.15816994218976 
404	 0.160811472985219 
405	 0.163070963001604 
406	 0.164171630317895 
407	 0.166609786274338 
408	 0.171144195700946 
409	 0.172585912990165 
410	 0.173064090152741 
411	 0.174061046793577 
412	 0.176267657145581 
413	 0.176957617814236 
414	 0.177447420325108 
415	 0.178462261458017 
416	 0.179487151835961 
417	 0.180797945846659 
418	 0.182478922717769 
419	 0.18422143057214 
420	 0.184649912486659 
421	 0.184149852041078 
422	 0.184051989771606 
423	 0.185846030346865 
424	 0.186228781433376 
425	 0.185861723113764 
426	 0.185677871476287 
427	 0.1861418662362 
428	 0.186442150587219 
429	 0.186194355161049 
430	 0.185447329217424 
431	 0.185526903025172 
432	 0.185472763118527 
433	 0.185172709348743 
434	 0.185407908091669 
435	 0.186121453418022 
436	 0.186860433663104 
437	 0.187390951111335 
438	 0.188230277138321 
439	 0.189408963507146 
440	 0.190735636047016 
441	 0.191938275812422 
442	 0.193099685429508 
443	 0.194618365239297 
444	 0.196482325014033 
445	 0.198025401414162 
446	 0.199929841978966 
447	 0.201687957142976 
448	 0.202895380331435 
449	 0.205081968772448 
450	 0.207074248665007 
451	 0.208512923711536 
452	 0.209839135754395 
453	 0.211675777190314 
454	 0.213326831917036 
455	 0.214418813680441 
456	 0.215991315448034 
457	 0.217318938033917 
458	 0.218417272581291 
459	 0.219601573100442 
460	 0.220735532995826 
461	 0.221823163373606 
462	 0.222910292769942 
463	 0.224085759706159 
464	 0.22513681181589 
465	 0.226142810541174 
466	 0.227174691802246 
467	 0.227907681713074 
468	 0.228643852060329 
469	 0.229455256622649 
470	 0.230221629062366 
471	 0.231086052194314 
472	 0.231871292288847 
473	 0.232482581322582 
474	 0.233094775538641 
475	 0.233999366151082 
476	 0.23493530294619 
477	 0.235497388949589 
478	 0.236232044131408 
479	 0.237145443453246 
480	 0.238057318400658 
481	 0.238594911944446 
482	 0.239458494069505 
483	 0.240452219123694 
484	 0.241246679718205 
485	 0.242089426391598 
486	 0.242784483553597 
487	 0.243406828882482 
488	 0.24424318186536 
489	 0.245052708569566 
490	 0.245864578611918 
491	 0.246736328998388 
492	 0.247702570604069 
493	 0.248533417498924 
494	 0.249301151357052 
495	 0.250201763567941 
496	 0.251148415307612 
497	 0.2521215130968 
498	 0.253038479185922 
499	 0.25370316040518 
500	 0.254610136425111 
501	 0.255538388260704 
502	 0.256182694802456 
503	 0.256837546083806 
504	 0.257758842853556 
505	 0.258810303301367 
506	 0.25953643963946 
507	 0.260398909390795 
508	 0.261366477251909 
509	 0.262306403297541 
510	 0.263082498123449 
511	 0.263815436193118 
512	 0.264588300105148 
513	 0.265446414463721 
514	 0.266300891154264 
515	 0.267044423435377 
516	 0.26774397331151 
517	 0.268790342441696 
518	 0.269550399407887 
519	 0.270160888723713 
520	 0.270959896119321 
521	 0.271890190002626 
522	 0.272790345287249 
523	 0.273605876373735 
524	 0.274400486714681 
525	 0.275035013546084 
526	 0.275723054295846 
527	 0.276610883147826 
528	 0.277381898960524 
529	 0.278233655722756 
530	 0.279111743862776 
531	 0.279825483979376 
532	 0.280649432577189 
533	 0.281559834115634 
534	 0.28246076528639 
535	 0.283181961091923 
536	 0.283961871931134 
537	 0.284846550828938 
538	 0.28577628729253 
539	 0.286555906791022 
540	 0.287306226012813 
541	 0.288107077606386 
542	 0.288943536730491 
543	 0.289867483699469 
544	 0.290799158368675 
545	 0.291661557774025 
546	 0.292540222153606 
547	 0.29344087487845 
548	 0.2943814785202 
549	 0.295385690831256 
550	 0.296332064125207 
551	 0.297257024051468 
552	 0.298207325182586 
553	 0.299184697298007 
554	 0.300063100764747 
555	 0.300941009516712 
556	 0.301988234786859 
557	 0.302860684687456 
558	 0.303608097097007 
559	 0.304334148921743 
560	 0.305151734077231 
561	 0.305979545414674 
562	 0.306892836643266 
563	 0.307960634823608 
564	 0.308940456525473 
565	 0.309897504324873 
566	 0.310977643642842 
567	 0.312384734914797 
568	 0.313661941164085 
569	 0.314651687820879 
570	 0.315337620781936 
571	 0.315821249862977 
572	 0.316478734151886 
573	 0.317381338859029 
574	 0.3183530199898 
575	 0.319191676908493 
576	 0.319816722316853 
577	 0.320301531715442 
578	 0.320959697506779 
579	 0.321870569334669 
580	 0.322995306678304 
581	 0.324221330834531 
582	 0.325507961114627 
583	 0.32663342688088 
584	 0.327436587292281 
585	 0.327850912806176 
586	 0.32825661205735 
587	 0.328630699968947 
588	 0.328896483214147 
589	 0.329329585210651 
590	 0.329741805350338 
591	 0.330084704574565 
592	 0.330449790478716 
593	 0.330749270395932 
594	 0.331124217169087 
595	 0.331740844675605 
596	 0.332734234901568 
597	 0.333934519359012 
598	 0.335181828448434 
599	 0.336336493201379 
600	 0.337407832957934 
601	 0.338181679295075 
602	 0.338646464066484 
603	 0.339186286533429 
604	 0.339668522310323 
605	 0.340154659972991 
606	 0.340744552285728 
607	 0.341423673165014 
608	 0.342054969953895 
609	 0.342612019945085 
610	 0.343203342168657 
611	 0.343852108629643 
612	 0.344598757568285 
613	 0.345415064917836 
614	 0.346063238747722 
615	 0.346691661251773 
616	 0.347317176452096 
617	 0.347867125320404 
618	 0.348421782992936 
619	 0.348953333239402 
620	 0.34947052920317 
621	 0.350109380621468 
622	 0.350667124867647 
623	 0.351196185416643 
624	 0.351813742108875 
625	 0.35231496777151 
626	 0.352779288164957 
627	 0.353278643879025 
628	 0.353843669764601 
629	 0.354355810870511 
630	 0.35480557896707 
631	 0.355250345726133 
632	 0.355874369895952 
633	 0.35645742401425 
634	 0.35690431115338 
635	 0.357254534404572 
636	 0.357838916976753 
637	 0.358402537062609 
638	 0.358754250313727 
639	 0.35910319156773 
640	 0.359566756865735 
641	 0.360085471397083 
642	 0.360533650817201 
643	 0.361074617875447 
644	 0.361571473389256 
645	 0.361968835718147 
646	 0.362365633100102 
647	 0.362770487943754 
648	 0.363196445033913 
649	 0.363649965630433 
650	 0.364128926542578 
651	 0.364582591969049 
652	 0.365001017774786 
653	 0.365415419423488 
654	 0.365892680497508 
655	 0.366373365849865 
656	 0.366808352998508 
657	 0.367234708580119 
658	 0.367635141933515 
659	 0.368055428757493 
660	 0.368547506314918 
661	 0.368989342874044 
662	 0.369336695500075 
663	 0.369664216551506 
664	 0.370204887363205 
665	 0.370728488179007 
666	 0.371125617864343 
667	 0.371402049502887 
668	 0.371859499888225 
669	 0.372351487934371 
670	 0.372786811393859 
671	 0.373140144943782 
672	 0.37351258330687 
673	 0.373955477119959 
674	 0.374454031049332 
675	 0.374874575253014 
676	 0.375213946619472 
677	 0.375546724019666 
678	 0.375968064975493 
679	 0.37641703781816 
680	 0.376831982936456 
681	 0.377200398952527 
682	 0.37757323871276 
683	 0.377953676076844 
684	 0.378328962393077 
685	 0.378695361293963 
686	 0.379103353211282 
687	 0.379511103080846 
688	 0.379894808326126 
689	 0.380248160913334 
690	 0.380596369723092 
691	 0.380956837245733 
692	 0.381342237954237 
693	 0.381770424942787 
694	 0.382119386147543 
695	 0.382437450706027 
696	 0.38282002222488 
697	 0.383238052020284 
698	 0.383586844434511 
699	 0.383901244423766 
700	 0.384354426877689 
701	 0.384609227810655 
702	 0.384848611279766 
703	 0.385231501924979 
704	 0.385528441773847 
705	 0.38581930139555 
706	 0.386086644745731 
707	 0.386296506205698 
708	 0.386697848251141 
709	 0.387057425321335 
710	 0.387302488638321 
711	 0.387668676353453 
712	 0.387927783530576 
713	 0.388113451964733 
714	 0.388326912932379 
715	 0.388625389732802 
716	 0.388939288604547 
717	 0.389237281628033 
718	 0.389511363614854 
719	 0.389643599508051 
720	 0.389795272679927 
721	 0.390037404482499 
722	 0.39018083654618 
723	 0.390434568932834 
724	 0.390761736144664 
725	 0.391048546493333 
726	 0.39127780845933 
727	 0.391385150661718 
728	 0.391442692107736 
729	 0.391633995390832 
730	 0.391789389631086 
731	 0.391955484874471 
732	 0.392164245834207 
733	 0.392317777264029 
734	 0.392486403289018 
735	 0.392651212234336 
736	 0.392772832881659 
737	 0.392919887659743 
738	 0.393065582141649 
739	 0.393197384956752 
740	 0.393325975534391 
741	 0.393459554796377 
742	 0.393547551066629 
743	 0.393577247334773 
744	 0.393660714784267 
745	 0.393829186148965 
746	 0.394003682105006 
747	 0.394065664696658 
748	 0.394057363081072 
749	 0.394006298323734 
750	 0.394001321282398 
751	 0.394196549770168 
752	 0.394339870774561 
753	 0.394417973126258 
754	 0.39446785140009 
755	 0.394491464791016 
756	 0.394489505935148 
757	 0.394479167096739 
758	 0.394492640566913 
759	 0.394621710454248 
760	 0.394630744699194 
761	 0.394498067501669 
762	 0.39450027927354 
763	 0.394549253504264 
764	 0.394577816671563 
765	 0.394563694631254 
766	 0.394617540316994 
767	 0.394647534413056 
768	 0.394601560066479 
769	 0.394483023637299 
770	 0.39450948528309 
771	 0.394539819075586 
772	 0.394490338602152 
773	 0.394389887349869 
774	 0.394297712689449 
775	 0.394279131505651 
776	 0.394335292094876 
777	 0.394306965113468 
778	 0.394237624220843 
779	 0.394185592859327 
780	 0.394191387807591 
781	 0.394125277438998 
782	 0.394028554769997 
783	 0.393929409759334 
784	 0.393829237468857 
785	 0.39378555795337 
786	 0.393728702646618 
787	 0.393625870441534 
788	 0.393591438559835 
789	 0.393590675731133 
790	 0.393543762726998 
791	 0.393374746705463 
792	 0.393106923615059 
793	 0.393017263582971 
794	 0.393105370121884 
795	 0.393118469763723 
796	 0.39297024057505 
797	 0.392816324182811 
798	 0.392744459700723 
799	 0.392639602318782 
800	 0.392529906166225 
801	 0.392388695347715 
802	 0.392222522078734 
803	 0.392217136519477 
804	 0.392209036522108 
805	 0.392148551822471 
806	 0.392067472796925 
807	 0.391976951768517 
808	 0.391849168791174 
809	 0.391701827687735 
810	 0.391614147656661 
811	 0.391639037099192 
812	 0.391557779463505 
813	 0.39127248182834 
814	 0.39116728673266 
815	 0.391085324051775 
816	 0.391021896943983 
817	 0.391004787733748 
818	 0.390925550535763 
819	 0.390836543937857 
820	 0.390730742663898 
821	 0.39055691478564 
822	 0.390453483989626 
823	 0.390362332744737 
824	 0.390217813970182 
825	 0.389990185332041 
826	 0.389954488972396 
827	 0.389948411518976 
828	 0.389801231322667 
829	 0.389739009593734 
830	 0.389582453645419 
831	 0.389466683096541 
832	 0.389582534025839 
833	 0.389481075066092 
834	 0.389332553112501 
835	 0.389197932551558 
836	 0.389009781030614 
837	 0.388984626838145 
838	 0.389030836298625 
839	 0.389015319440548 
840	 0.388829342488933 
841	 0.388683603354953 
842	 0.388539794004588 
843	 0.388359794684459 
844	 0.388349169460257 
845	 0.388271662151277 
846	 0.388148687177504 
847	 0.38810106046222 
848	 0.38805189318081 
849	 0.387975832920674 
850	 0.387897876799516 
851	 0.387871425751101 
852	 0.387796886426392 
853	 0.387719821841538 
854	 0.38764652431847 
855	 0.387499964318834 
856	 0.387474601224819 
857	 0.387474783685588 
858	 0.387384189121842 
859	 0.387198457549131 
860	 0.38717510066241 
861	 0.387270137223476 
862	 0.387318454133723 
863	 0.387193859788295 
864	 0.387093880035417 
865	 0.387099077600178 
866	 0.387170532546078 
867	 0.387086545168703 
868	 0.386917233771792 
869	 0.386829666012484 
870	 0.387009265201082 
871	 0.386990885875241 
872	 0.386986124933142 
873	 0.387081210124503 
874	 0.386983651344024 
875	 0.386773900501843 
876	 0.386654095381622 
877	 0.386726889728793 
878	 0.386758699329676 
879	 0.386814813079546 
880	 0.386817530275625 
881	 0.386725248824243 
882	 0.386815641075064 
883	 0.386912980903536 
884	 0.386952506987195 
885	 0.386951935752052 
886	 0.386966132898263 
887	 0.386984704333456 
888	 0.387036076862368 
889	 0.38716412969164 
890	 0.387209037484665 
891	 0.38722337546958 
892	 0.387250911447514 
893	 0.387283869047245 
894	 0.387258019210676 
895	 0.387275367737509 
896	 0.387397078607559 
897	 0.387554974522052 
898	 0.387595482297066 
899	 0.387686293673025 
900	 0.387914422069837 
901	 0.387916379146674 
902	 0.38790120008205 
903	 0.387944525029311 
904	 0.388058197479563 
905	 0.388196784609474 
906	 0.388310358069984 
907	 0.388380604060193 
908	 0.388421226066565 
909	 0.388488558043667 
910	 0.388610861240963 
911	 0.388779795158829 
912	 0.38895836910093 
913	 0.389113588458014 
914	 0.389157743106927 
915	 0.389220474538361 
916	 0.38955899731329 
917	 0.389783527902337 
918	 0.389856321378385 
919	 0.389844582774316 
920	 0.389877978671058 
921	 0.390032452704562 
922	 0.39023326359723 
923	 0.390458122784771 
924	 0.390792324079724 
925	 0.390812944882181 
926	 0.390796601368058 
927	 0.390971487469771 
928	 0.391183533749323 
929	 0.391386648525062 
930	 0.391574918317564 
931	 0.391752884758537 
932	 0.391912155303685 
933	 0.392065124233865 
934	 0.392184421471434 
935	 0.39229006647539 
936	 0.392578068047117 
937	 0.392739093975671 
938	 0.392935362050324 
939	 0.393347698880149 
940	 0.39367231288656 
941	 0.393770659959995 
942	 0.39387182080009 
943	 0.394214008532954 
944	 0.394452157855289 
945	 0.394553406391669 
946	 0.394648862353712 
947	 0.39486237206564 
948	 0.394918456253776 
949	 0.395061485692522 
950	 0.395298350731448 
951	 0.39551878574611 
952	 0.395751846552819 
953	 0.396020355889493 
954	 0.396231545115502 
955	 0.396297685971025 
956	 0.396477829927198 
957	 0.396846848574928 
958	 0.397135827710691 
959	 0.397049875320841 
960	 0.397299508600929 
961	 0.397594057720913 
962	 0.397902491737963 
963	 0.398322805690085 
964	 0.398428997630735 
965	 0.398661821571373 
966	 0.39903576190306 
967	 0.399296077457926 
968	 0.399706448743361 
969	 0.400021819822269 
970	 0.400214346498202 
971	 0.400438091660612 
972	 0.400817849867734 
973	 0.401093768097659 
974	 0.401322560463419 
975	 0.401722741229496 
976	 0.401992559365717 
977	 0.402360068407068 
978	 0.402746126841129 
979	 0.402920406323177 
980	 0.403139282211481 
981	 0.403209650290092 
982	 0.403293867995367 
983	 0.403717047084433 
984	 0.404392476089616 
985	 0.404864929667666 
986	 0.405038783099862 
987	 0.405112389889125 
988	 0.405396911371447 
989	 0.405823329485787 
990	 0.406211682245194 
991	 0.406448452310655 
992	 0.406940307912156 
993	 0.407102787828539 
994	 0.407146505633236 
995	 0.40748846665945 
996	 0.407705754298432 
997	 0.408089348239622 
998	 0.408538567236722 
999	 0.408882091040512 
1000	 0.40930123749771 
1001	 0.407144220982731 
1002	 0.407370552615779 
1003	 0.407524555382507 
1004	 0.407702261929661 
1005	 0.407901193634971 
1006	 0.408083166029208 
1007	 0.408241064726337 
1008	 0.408442949810304 
1009	 0.40860962839919 
1010	 0.408814057535988 
1011	 0.409081222468112 
1012	 0.409332312951958 
1013	 0.409552937168618 
1014	 0.409778287180865 
1015	 0.409994306318422 
1016	 0.410144148261159 
1017	 0.410321002085797 
1018	 0.410517743171779 
1019	 0.410741032490593 
1020	 0.410906840334189 
1021	 0.411071955744846 
1022	 0.411265047802844 
1023	 0.411464168688329 
1024	 0.411651106052507 
1025	 0.411870262970366 
1026	 0.412119946320197 
1027	 0.412342574518655 
1028	 0.412542615788112 
1029	 0.412755420831208 
1030	 0.413015178704458 
1031	 0.413212390047951 
1032	 0.413371640970801 
1033	 0.413516574148696 
1034	 0.413697685733387 
1035	 0.413823747949527 
1036	 0.413983009314108 
1037	 0.414208402558468 
1038	 0.41442371627896 
1039	 0.414615487962494 
1040	 0.414808412223235 
1041	 0.41500428179741 
1042	 0.415235915885729 
1043	 0.415464050598349 
1044	 0.415648435114846 
1045	 0.415816021208532 
1046	 0.415999106360124 
1047	 0.41615258304143 
1048	 0.416317719298199 
1049	 0.41655093777198 
1050	 0.416771116166769 
1051	 0.416968481215093 
1052	 0.417169356202161 
1053	 0.417382784907953 
1054	 0.417589300897963 
1055	 0.417771324899358 
1056	 0.417944915748015 
1057	 0.418120757786986 
1058	 0.418254756439203 
1059	 0.418446360017765 
1060	 0.418667977813928 
1061	 0.418911479590365 
1062	 0.419140608094409 
1063	 0.419332249365122 
1064	 0.419492323613168 
1065	 0.419626794068983 
1066	 0.419777229540316 
1067	 0.420006796903367 
1068	 0.420235079402129 
1069	 0.420420972319659 
1070	 0.42062346059606 
1071	 0.42082155568436 
1072	 0.421003898553037 
1073	 0.421188503410698 
1074	 0.421388489435012 
1075	 0.421596517244631 
1076	 0.42175765339268 
1077	 0.421933347042512 
1078	 0.422101233151914 
1079	 0.422256454506027 
1080	 0.422412179738832 
1081	 0.422576876664916 
1082	 0.422724312554521 
1083	 0.422867368480983 
1084	 0.423007257261637 
1085	 0.423137708488463 
1086	 0.423247654147896 
1087	 0.423373189362599 
1088	 0.423500385951984 
1089	 0.423602640579469 
1090	 0.423748508173679 
1091	 0.423889438174714 
1092	 0.424036767367099 
1093	 0.424179815429427 
1094	 0.424240502434769 
1095	 0.42432093249069 
1096	 0.424425695896572 
1097	 0.42447922988774 
1098	 0.424553215731208 
1099	 0.42465175298203 
1100	 0.424751116316785 
1101	 0.424839131764794 
1102	 0.424944641125782 
1103	 0.425085354148995 
1104	 0.425191008470706 
1105	 0.425297613125224 
1106	 0.42537248132524 
1107	 0.425444804835745 
1108	 0.425553662704382 
1109	 0.425680768879252 
1110	 0.425794769047099 
1111	 0.425891497824906 
1112	 0.425993702633118 
1113	 0.426074478840756 
1114	 0.426106779544185 
1115	 0.426186732088586 
1116	 0.426277042785967 
1117	 0.426372363895528 
1118	 0.426482769124612 
1119	 0.426612503138927 
1120	 0.426714475087246 
1121	 0.426805860580391 
1122	 0.426933767668792 
1123	 0.427058960113521 
1124	 0.427183635978637 
1125	 0.427344364617421 
1126	 0.427456500522602 
1127	 0.427525471910704 
1128	 0.427624604454404 
1129	 0.427720416263753 
1130	 0.427816799952867 
1131	 0.427922619590154 
1132	 0.42803271443212 
1133	 0.428147445297801 
1134	 0.428243612694355 
1135	 0.428328700732992 
1136	 0.428434782451072 
1137	 0.428529892128318 
1138	 0.428638511209084 
1139	 0.42871985845759 
1140	 0.428814197585709 
1141	 0.428876400247853 
1142	 0.428873804105737 
1143	 0.428936761191184 
1144	 0.429041614857135 
1145	 0.429105231102308 
1146	 0.429184781395887 
1147	 0.429239031663221 
1148	 0.429241933042577 
1149	 0.429271910658606 
1150	 0.429295487835939 
1151	 0.429350900140621 
1152	 0.429414866459245 
1153	 0.429461973180011 
1154	 0.429529361035484 
1155	 0.429619580322047 
1156	 0.429684703594709 
1157	 0.429736600967894 
1158	 0.429811021240477 
1159	 0.429892536516338 
1160	 0.429958264450984 
1161	 0.430034546900261 
1162	 0.430104657512735 
1163	 0.430152638947217 
1164	 0.430208411473234 
1165	 0.430272114579228 
1166	 0.430334850591404 
1167	 0.430392240154576 
1168	 0.430463275526437 
1169	 0.430551397045867 
1170	 0.430671140157426 
1171	 0.430755172252629 
1172	 0.430838306328917 
1173	 0.430915312118885 
1174	 0.430965850430566 
1175	 0.431035365189103 
1176	 0.431118832866632 
1177	 0.431194367652648 
1178	 0.431264798812736 
1179	 0.431341267877479 
1180	 0.431410186087855 
1181	 0.431496202649124 
1182	 0.431611226758381 
1183	 0.431701668435895 
1184	 0.43178850235537 
1185	 0.431880049929739 
1186	 0.431962328598785 
1187	 0.432026311003459 
1188	 0.432101124619159 
1189	 0.432185555272228 
1190	 0.432255891749591 
1191	 0.432315394936963 
1192	 0.43237875281237 
1193	 0.432417870455663 
1194	 0.432496531063191 
1195	 0.432616400117043 
1196	 0.432704602635098 
1197	 0.432807814876272 
1198	 0.432894635549768 
1199	 0.432965915616809 
1200	 0.432993318569975 
1201	 0.433071180044433 
1202	 0.433161387482524 
1203	 0.4332567932286 
1204	 0.433384561969804 
1205	 0.433475365514489 
1206	 0.433548195718702 
1207	 0.433634513324272 
1208	 0.433716977765579 
1209	 0.433791730451788 
1210	 0.433870550073719 
1211	 0.433947586505953 
1212	 0.434002066005038 
1213	 0.434074258723389 
1214	 0.434174004953677 
1215	 0.43425432163331 
1216	 0.434329022409697 
1217	 0.434400889105296 
1218	 0.43447084258886 
1219	 0.434522481326427 
1220	 0.434597373162347 
1221	 0.434692882433792 
1222	 0.434764645584363 
1223	 0.434842861606528 
1224	 0.434900370099127 
1225	 0.43492701632558 
1226	 0.434971688373545 
1227	 0.435009554407141 
1228	 0.435058534540808 
1229	 0.435113455715625 
1230	 0.435177765382057 
1231	 0.435264306246207 
1232	 0.435333915845262 
1233	 0.435399903237392 
1234	 0.435470187639708 
1235	 0.43552759786768 
1236	 0.435568414798376 
1237	 0.435618377374188 
1238	 0.435672894016401 
1239	 0.435717542425277 
1240	 0.435758891164531 
1241	 0.435795028250975 
1242	 0.435810321220223 
1243	 0.435850830122493 
1244	 0.435895986138881 
1245	 0.435948679177373 
1246	 0.436015624675104 
1247	 0.436091130739222 
1248	 0.436179108080998 
1249	 0.436268176203754 
1250	 0.436349096166622 
1251	 0.43642010751515 
1252	 0.436492367422187 
1253	 0.436554277525988 
1254	 0.43660842928436 
1255	 0.43665272929993 
1256	 0.43671698394828 
1257	 0.436767331130643 
1258	 0.43684193240065 
1259	 0.436964350257903 
1260	 0.437047652510826 
1261	 0.437121436343097 
1262	 0.437188504552928 
1263	 0.437227845153628 
1264	 0.437285048480779 
1265	 0.437348144511147 
1266	 0.437406874925732 
1267	 0.437474281342036 
1268	 0.43753952316632 
1269	 0.437588237921328 
1270	 0.437632917445768 
1271	 0.437662315940077 
1272	 0.437660204482963 
1273	 0.4376969521594 
1274	 0.437734259614462 
1275	 0.437783661381815 
1276	 0.437870288919798 
1277	 0.437928502341095 
1278	 0.437969283795316 
1279	 0.438024439003506 
1280	 0.43809237217106 
1281	 0.438138105774585 
1282	 0.438185802355741 
1283	 0.438219651442373 
1284	 0.438226275489607 
1285	 0.438230484220771 
1286	 0.438244349866208 
1287	 0.438277124101938 
1288	 0.438322409014538 
1289	 0.438386328018494 
1290	 0.43844357155249 
1291	 0.438498462570541 
1292	 0.438582553526827 
1293	 0.43868652423307 
1294	 0.438781357575402 
1295	 0.438916795410534 
1296	 0.438999469026375 
1297	 0.439036638008458 
1298	 0.439100023173619 
1299	 0.439157149533708 
1300	 0.439214022968945 
1301	 0.439285159850077 
1302	 0.439342488498134 
1303	 0.439383346610164 
1304	 0.439425714713627 
1305	 0.439481690813359 
1306	 0.439531595222559 
1307	 0.439554415014354 
1308	 0.439559543555953 
1309	 0.439560368742098 
1310	 0.439534892477497 
1311	 0.439519987341483 
1312	 0.439515715059713 
1313	 0.4394874471338 
1314	 0.439439401131166 
1315	 0.439396316000686 
1316	 0.439333829377912 
1317	 0.439294645523041 
1318	 0.439274506240564 
1319	 0.439240842593195 
1320	 0.439216362681759 
1321	 0.439176122252606 
1322	 0.439120729843613 
1323	 0.439065003276332 
1324	 0.438995412867885 
1325	 0.438957451999882 
1326	 0.438913302388651 
1327	 0.438844956771852 
1328	 0.438791282836079 
1329	 0.438715138860446 
1330	 0.438637942172408 
1331	 0.438542312413568 
1332	 0.438474571139595 
1333	 0.438412809912791 
1334	 0.43835797402096 
1335	 0.438324557763591 
1336	 0.438278851931998 
1337	 0.438219569326662 
1338	 0.438174694796419 
1339	 0.438164823785305 
1340	 0.438108096539255 
1341	 0.438022215061926 
1342	 0.437954537048987 
1343	 0.437876032372021 
1344	 0.437778175721465 
1345	 0.437724329620173 
1346	 0.437658012532491 
1347	 0.43753955881434 
1348	 0.437396555839535 
1349	 0.437187092728295 
1350	 0.436950246137447 
1351	 0.436729934026122 
1352	 0.436483131633774 
1353	 0.436251658797721 
1354	 0.436057035678107 
1355	 0.435797783071068 
1356	 0.43547577232718 
1357	 0.435222176529318 
1358	 0.434930177833073 
1359	 0.434722814849516 
1360	 0.434585689556963 
1361	 0.434464736339405 
1362	 0.434386782871085 
1363	 0.434325045685949 
1364	 0.434282507676276 
1365	 0.434275826019488 
1366	 0.434297623231939 
1367	 0.43434142205988 
1368	 0.434442338961084 
1369	 0.434532634786937 
1370	 0.434552109379108 
1371	 0.434547845257996 
1372	 0.434482154659367 
1373	 0.434335484087258 
1374	 0.434142478739642 
1375	 0.433934546508102 
1376	 0.433589130630651 
1377	 0.433138097581694 
1378	 0.432648795694959 
1379	 0.432015229013763 
1380	 0.431463664726421 
1381	 0.430864213554489 
1382	 0.430339176630909 
1383	 0.429917683130413 
1384	 0.429400949730228 
1385	 0.428949210345194 
1386	 0.428354574175031 
1387	 0.427688491374254 
1388	 0.426919122822783 
1389	 0.426089392427158 
1390	 0.425115341106244 
1391	 0.423992442012668 
1392	 0.422745465989302 
1393	 0.421337517103526 
1394	 0.419886915016345 
1395	 0.418391125380189 
1396	 0.416865994359908 
1397	 0.415387361661141 
1398	 0.413894172449952 
1399	 0.412442893989238 
1400	 0.411009087951622 
1401	 0.409628348848461 
1402	 0.408243032412823 
1403	 0.406981944970556 
1404	 0.405781513944198 
1405	 0.404674668371335 
1406	 0.403654509517975 
1407	 0.402710016379535 
1408	 0.401769765869961 
1409	 0.401060699685864 
1410	 0.400368577779504 
1411	 0.40003110841244 
1412	 0.399924818922297 
1413	 0.400063472052793 
1414	 0.400546042301818 
1415	 0.401258162666634 
1416	 0.402179175953409 
1417	 0.403277350538509 
1418	 0.404456224254323 
1419	 0.40564888848382 
1420	 0.406845339128455 
1421	 0.407978100106116 
1422	 0.408964795839839 
1423	 0.409868419274937 
1424	 0.41060204984338 
1425	 0.41116214777705 
1426	 0.411665460900202 
1427	 0.41201332150716 
1428	 0.412361345848034 
1429	 0.412634798201016 
1430	 0.412886605072125 
1431	 0.413120857335079 
1432	 0.413279221253818 
1433	 0.413362212592133 
1434	 0.41344302867589 
1435	 0.413443522089137 
1436	 0.413476819565177 
1437	 0.413533949083615 
1438	 0.413555098351929 
1439	 0.413560554521898 
1440	 0.413567350622007 
1441	 0.413513766796653 
1442	 0.41344254808771 
1443	 0.413385479619111 
1444	 0.413319286359279 
1445	 0.413317172932409 
1446	 0.413320640505527 
1447	 0.413271326330484 
1448	 0.413218536787005 
1449	 0.413121912539371 
1450	 0.413016954912073 
1451	 0.412943616018952 
1452	 0.412888140308662 
1453	 0.412835360239656 
1454	 0.412815522927963 
1455	 0.412742323048212 
1456	 0.412661157038763 
1457	 0.412556010445887 
1458	 0.412390015737236 
1459	 0.412279531877106 
1460	 0.41216160755813 
1461	 0.412085827250104 
1462	 0.412066382267676 
1463	 0.412018487280785 
1464	 0.411997755441987 
1465	 0.411946742563277 
1466	 0.41183940005479 
1467	 0.41179125247527 
1468	 0.411727782880717 
1469	 0.411729003841824 
1470	 0.41180415716192 
1471	 0.411877586441185 
1472	 0.411967180868713 
1473	 0.412075375249731 
1474	 0.41212468800107 
1475	 0.412203365973904 
1476	 0.412295928835111 
1477	 0.412368006301199 
1478	 0.412511140133326 
1479	 0.412655594472721 
1480	 0.412798849432137 
1481	 0.412968617705682 
1482	 0.413087125942994 
1483	 0.413165838653152 
1484	 0.413281555447504 
1485	 0.413376908822831 
1486	 0.413499974289392 
1487	 0.413662543244439 
1488	 0.413795820999802 
1489	 0.413936004841904 
1490	 0.414049227768894 
1491	 0.414152838226754 
1492	 0.414233973900035 
1493	 0.414271342476647 
1494	 0.414336520244722 
1495	 0.414400038553492 
1496	 0.414464281708535 
1497	 0.414550756036089 
1498	 0.414611852179306 
1499	 0.414659950754277 
1500	 0.414701741641214 
1501	 0.414727129872598 
1502	 0.414754714157316 
1503	 0.414769166181642 
1504	 0.414791320332946 
1505	 0.414834525540689 
1506	 0.414887290411207 
1507	 0.41495359082014 
1508	 0.414994684556468 
1509	 0.415010547407069 
1510	 0.415019630493662 
1511	 0.415020040393272 
1512	 0.415031387658012 
1513	 0.415052900303474 
1514	 0.415075250163094 
1515	 0.415107417473646 
1516	 0.415134923997527 
1517	 0.415129339410192 
1518	 0.415100153150841 
1519	 0.415081977065614 
1520	 0.415034437882095 
1521	 0.415017125682224 
1522	 0.415029425423824 
1523	 0.415012192109669 
1524	 0.414992595879051 
1525	 0.41495929699092 
1526	 0.414901449807324 
1527	 0.414859901814421 
1528	 0.414819809373094 
1529	 0.414776762275882 
1530	 0.414740070197563 
1531	 0.414703418646173 
1532	 0.414663593489222 
1533	 0.41461820345684 
1534	 0.41456352600664 
1535	 0.414523844830276 
1536	 0.414481611643522 
1537	 0.414452813075187 
1538	 0.414443024542469 
1539	 0.4144315028303 
1540	 0.414431281226155 
1541	 0.414420578018742 
1542	 0.414412996819869 
1543	 0.414397446706161 
1544	 0.414382057799932 
1545	 0.414345368818621 
1546	 0.414289297446092 
1547	 0.414236432542641 
1548	 0.414179742622914 
1549	 0.414110810112561 
1550	 0.414060402080177 
1551	 0.41401781389384 
1552	 0.413976839763206 
1553	 0.413942719071212 
1554	 0.413898620655631 
1555	 0.413855298835302 
1556	 0.413795781547734 
1557	 0.413716185558737 
1558	 0.413665238024497 
1559	 0.413615937727992 
1560	 0.413563940016228 
1561	 0.413521228416407 
1562	 0.413472339093665 
1563	 0.413415376178419 
1564	 0.413365502239405 
1565	 0.413324008566577 
1566	 0.413276333677867 
1567	 0.413224871207797 
1568	 0.413169259705048 
1569	 0.413118732709043 
1570	 0.41304795434698 
1571	 0.412970465596476 
1572	 0.412879572387735 
1573	 0.412747881855567 
1574	 0.412671005993772 
1575	 0.412605451560696 
1576	 0.41254783244674 
1577	 0.412535081278247 
1578	 0.41249343830257 
1579	 0.412439960419851 
1580	 0.412390645560915 
1581	 0.412353846948859 
1582	 0.412286882216875 
1583	 0.412191711084698 
1584	 0.412111148372394 
1585	 0.412017035513197 
1586	 0.41193262638669 
1587	 0.411867537897869 
1588	 0.411792112438854 
1589	 0.41171155884547 
1590	 0.411627419298519 
1591	 0.411538079611804 
1592	 0.41144708710788 
1593	 0.41135493237844 
1594	 0.411256962205235 
1595	 0.411157965803678 
1596	 0.411056407919698 
1597	 0.410948742956808 
1598	 0.410835667810453 
1599	 0.41072094114648 
1600	 0.410598403859565 
1601	 0.410454901687854 
1602	 0.410335289251159 
1603	 0.410217102960071 
1604	 0.410110519443807 
1605	 0.410020942730847 
1606	 0.409936921081421 
1607	 0.409867353476028 
1608	 0.40979810179026 
1609	 0.409706068990609 
1610	 0.409619119433126 
1611	 0.409509418930253 
1612	 0.409390857768666 
1613	 0.409285167330713 
1614	 0.40918764607196 
1615	 0.409087537132691 
1616	 0.409005475733772 
1617	 0.408958340095593 
1618	 0.408896873472708 
1619	 0.408835595992517 
1620	 0.408761945757313 
1621	 0.408659388466051 
1622	 0.408523615646764 
1623	 0.408404200418413 
1624	 0.408267457075812 
1625	 0.408153905333127 
1626	 0.408046340407277 
1627	 0.407951441865655 
1628	 0.40786993996724 
1629	 0.407786273425298 
1630	 0.407718773252293 
1631	 0.407628447866267 
1632	 0.407536065197147 
1633	 0.407422555452146 
1634	 0.407290432416403 
1635	 0.40715817443088 
1636	 0.407010479499494 
1637	 0.40687164019699 
1638	 0.406720060012481 
1639	 0.406602046668355 
1640	 0.406499003642806 
1641	 0.406396588898442 
1642	 0.406329879297104 
1643	 0.406220528184644 
1644	 0.40609501048115 
1645	 0.405959536735927 
1646	 0.405796340203221 
1647	 0.405652774409989 
1648	 0.405503214653376 
1649	 0.405370521250651 
1650	 0.405248213121629 
1651	 0.405132997392873 
1652	 0.405036165788027 
1653	 0.404920770555469 
1654	 0.404803501656179 
1655	 0.40468751946009 
1656	 0.404570427400151 
1657	 0.404436194145117 
1658	 0.404297810627578 
1659	 0.404156786056212 
1660	 0.403979360623563 
1661	 0.403850265330915 
1662	 0.403754766539071 
1663	 0.40364057692193 
1664	 0.40355595772914 
1665	 0.40342510091223 
1666	 0.403269820687517 
1667	 0.403101614913716 
1668	 0.402894286030448 
1669	 0.40271641070455 
1670	 0.402529021465216 
1671	 0.402366619250779 
1672	 0.402219814104897 
1673	 0.402091724069647 
1674	 0.401988750641439 
1675	 0.401876936965438 
1676	 0.401799746644716 
1677	 0.401673574102022 
1678	 0.40151639194176 
1679	 0.401367594959878 
1680	 0.401197610964837 
1681	 0.401033597811564 
1682	 0.400867785902943 
1683	 0.40071595111609 
1684	 0.400566687322678 
1685	 0.400416165024092 
1686	 0.400275430200647 
1687	 0.400136688460196 
1688	 0.399996256034701 
1689	 0.399853487761144 
1690	 0.399726500503057 
1691	 0.399580535256498 
1692	 0.399418450877612 
1693	 0.399255158664015 
1694	 0.399079698613589 
1695	 0.398917162193274 
1696	 0.398743176060232 
1697	 0.398598958474927 
1698	 0.39849262158016 
1699	 0.398351191279108 
1700	 0.398208437949194 
1701	 0.3980618575841 
1702	 0.397886512440898 
1703	 0.397735537168731 
1704	 0.397612753918295 
1705	 0.397457222562215 
1706	 0.397280547490495 
1707	 0.397128071058342 
1708	 0.396974549896628 
1709	 0.396821883341368 
1710	 0.396694610176219 
1711	 0.396541237226077 
1712	 0.396357719683628 
1713	 0.39619607222728 
1714	 0.3960402607187 
1715	 0.395883545112395 
1716	 0.395725770479487 
1717	 0.395586735510051 
1718	 0.39546922350389 
1719	 0.395315715026034 
1720	 0.395168354807829 
1721	 0.395000210051952 
1722	 0.394786923707358 
1723	 0.39460631377606 
1724	 0.394447193095312 
1725	 0.394255001800723 
1726	 0.39404494624735 
1727	 0.39385674251699 
1728	 0.393654080214071 
1729	 0.39347016701008 
1730	 0.393300805856915 
1731	 0.393160504083109 
1732	 0.393036073525672 
1733	 0.392913132749673 
1734	 0.39283912276294 
1735	 0.392704719362125 
1736	 0.392559639181215 
1737	 0.392361013503442 
1738	 0.392100597654913 
1739	 0.391881191222696 
1740	 0.391624071835258 
1741	 0.391422484598481 
1742	 0.391264557620582 
1743	 0.391115437618467 
1744	 0.390986416709198 
1745	 0.390847178507339 
1746	 0.390731263525243 
1747	 0.390594461941098 
1748	 0.39043606043883 
1749	 0.390266606396584 
1750	 0.390102786937769 
1751	 0.389931831957907 
1752	 0.389750710522569 
1753	 0.389581458920116 
1754	 0.389417694366891 
1755	 0.389214867517169 
1756	 0.389012921966658 
1757	 0.38882996480749 
1758	 0.388634301788806 
1759	 0.388475005254455 
1760	 0.388347088372455 
1761	 0.388189033255747 
1762	 0.388040183119892 
1763	 0.387905109580625 
1764	 0.387743681463626 
1765	 0.387606483543574 
1766	 0.387482359772689 
1767	 0.387352485848966 
1768	 0.387217334510987 
1769	 0.387082592121734 
1770	 0.386960278490504 
1771	 0.386812144770818 
1772	 0.386679654343089 
1773	 0.386555453945472 
1774	 0.386396103411489 
1775	 0.386234696629763 
1776	 0.386080193874392 
1777	 0.385929564344359 
1778	 0.385777958514276 
1779	 0.385647896463583 
1780	 0.385517619747166 
1781	 0.385356152868158 
1782	 0.385254093228113 
1783	 0.385174749094694 
1784	 0.385067123892521 
1785	 0.38498691253345 
1786	 0.384884476555124 
1787	 0.384758847780022 
1788	 0.384629509541527 
1789	 0.384486645452382 
1790	 0.384349451282666 
1791	 0.384202017684784 
1792	 0.384052901525226 
1793	 0.383909538584581 
1794	 0.383774979187169 
1795	 0.383615406129413 
1796	 0.383483297781118 
1797	 0.383386971101444 
1798	 0.383285304609791 
1799	 0.3831936750991 
1800	 0.383101323532198 
1801	 0.375924608654502 
1802	 0.376234968799614 
1803	 0.376604160670843 
1804	 0.3770159334663 
1805	 0.377401921121577 
1806	 0.377751356713636 
1807	 0.378119817542085 
1808	 0.378385352138796 
1809	 0.378566660444523 
1810	 0.378721706211678 
1811	 0.378830670237592 
1812	 0.378904946437936 
1813	 0.378917712858354 
1814	 0.378913215561242 
1815	 0.378882731468238 
1816	 0.378817799174096 
1817	 0.378753563616267 
1818	 0.378649361223856 
1819	 0.378598278384003 
1820	 0.378582527514149 
1821	 0.378515317023098 
1822	 0.378455507322584 
1823	 0.378396298602625 
1824	 0.378279903472343 
1825	 0.378145748355573 
1826	 0.378032903201055 
1827	 0.377930940687776 
1828	 0.377789532759199 
1829	 0.377655645466167 
1830	 0.377462058416217 
1831	 0.377215176413369 
1832	 0.376951203361171 
1833	 0.376688136308208 
1834	 0.376435524704916 
1835	 0.376244408217928 
1836	 0.376065397513129 
1837	 0.375888250822702 
1838	 0.375747416550416 
1839	 0.375624112431034 
1840	 0.375518765347908 
1841	 0.375424413494845 
1842	 0.375372642519941 
1843	 0.375316340499656 
1844	 0.375251415853494 
1845	 0.3751973900504 
1846	 0.375152657050476 
1847	 0.375127766001106 
1848	 0.375099597820888 
1849	 0.375092639875474 
1850	 0.375095474487686 
1851	 0.375113091899525 
1852	 0.375109258950795 
1853	 0.375119989608718 
1854	 0.375131715461125 
1855	 0.375104777198343 
1856	 0.375063583672926 
1857	 0.375031401813738 
1858	 0.374983217422049 
1859	 0.374921262314712 
1860	 0.374806026242658 
1861	 0.374670244441942 
1862	 0.374487324155735 
1863	 0.374218344971718 
1864	 0.373841488893262 
1865	 0.373435872245479 
1866	 0.372925315978769 
1867	 0.372404012367396 
1868	 0.371942896990753 
1869	 0.371489105094576 
1870	 0.371107834875368 
1871	 0.370761415640228 
1872	 0.370468468219462 
1873	 0.370192087952459 
1874	 0.369958263406558 
1875	 0.369782981929909 
1876	 0.369544601441082 
1877	 0.369266316183731 
1878	 0.368931518545702 
1879	 0.368446122671193 
1880	 0.367846098526199 
1881	 0.367144743176991 
1882	 0.366332929936555 
1883	 0.365406759219513 
1884	 0.364337160773972 
1885	 0.363196667450033 
1886	 0.361986851567526 
1887	 0.360655750376871 
1888	 0.359276526219965 
1889	 0.357816763805474 
1890	 0.356285885655206 
1891	 0.354695727673999 
1892	 0.353006155965596 
1893	 0.351301146657347 
1894	 0.349551407950547 
1895	 0.347741038671996 
1896	 0.345892551294193 
1897	 0.344039655592674 
1898	 0.342153871884227 
1899	 0.340338625573505 
1900	 0.338630156542758 
1901	 0.336984936143205 
1902	 0.335446627733202 
1903	 0.334057149460544 
1904	 0.332689690682922 
1905	 0.331375599402753 
1906	 0.330156189388745 
1907	 0.32902293506647 
1908	 0.327913624895857 
1909	 0.326871763110205 
1910	 0.325886205324107 
1911	 0.324941872577656 
1912	 0.32405225863972 
1913	 0.323220035925638 
1914	 0.322456047327372 
1915	 0.321736155344952 
1916	 0.321064528266327 
1917	 0.320433181778612 
1918	 0.319876269858392 
1919	 0.31939068720315 
1920	 0.318986815935066 
1921	 0.318650188154517 
1922	 0.318357403084835 
1923	 0.318111952317151 
1924	 0.317886219974061 
1925	 0.317701661850223 
1926	 0.31752882145903 
1927	 0.317386957890812 
1928	 0.317253675127467 
1929	 0.317125220030903 
1930	 0.317008019143704 
1931	 0.316910491180398 
1932	 0.316834795466211 
1933	 0.316786714894022 
1934	 0.316777392825235 
1935	 0.316781988160366 
1936	 0.316804932886178 
1937	 0.316849701859197 
1938	 0.316901655422632 
1939	 0.317003540636098 
1940	 0.317141196828558 
1941	 0.317311517869334 
1942	 0.317498922193959 
1943	 0.317713600649769 
1944	 0.31792652596256 
1945	 0.31813320681193 
1946	 0.318363599607871 
1947	 0.318630917447854 
1948	 0.318868586251026 
1949	 0.319099755053927 
1950	 0.319341505196642 
1951	 0.319584270522046 
1952	 0.319807181007856 
1953	 0.320047996304934 
1954	 0.320321968586234 
1955	 0.320607773296991 
1956	 0.320906675249881 
1957	 0.321213855473166 
1958	 0.321550474987407 
1959	 0.321873834023427 
1960	 0.322192330293792 
1961	 0.3225199356531 
1962	 0.32286618170082 
1963	 0.323192667847136 
1964	 0.323505326478521 
1965	 0.32383271660344 
1966	 0.324163104586278 
1967	 0.32449031071151 
1968	 0.324802810686078 
1969	 0.325120922467945 
1970	 0.32542217524035 
1971	 0.325694763741507 
1972	 0.325977717019422 
1973	 0.326246232495768 
1974	 0.326541385586889 
1975	 0.326848624494148 
1976	 0.327159935846808 
1977	 0.327460348822571 
1978	 0.32778714619223 
1979	 0.328106641500413 
1980	 0.328415299712488 
1981	 0.328729787852819 
1982	 0.329063382548668 
1983	 0.329380794710535 
1984	 0.329687314693597 
1985	 0.329988227142128 
1986	 0.330280978239326 
1987	 0.330580211402091 
1988	 0.33086469696378 
1989	 0.331171775060744 
1990	 0.331480975557659 
1991	 0.331777985123851 
1992	 0.332087635493119 
1993	 0.332402353660776 
1994	 0.332706323982818 
1995	 0.333025994264916 
1996	 0.333322307185926 
1997	 0.33359286885813 
1998	 0.333873273366401 
1999	 0.334146657224891 
2000	 0.334418069332254 
2001	 0.334674467134576 
2002	 0.334956085993892 
2003	 0.335249226927339 
2004	 0.335557109291302 
2005	 0.335866015227605 
2006	 0.336207108759128 
2007	 0.336520331392779 
2008	 0.336811719651999 
2009	 0.337121857525708 
2010	 0.337443776987176 
2011	 0.337748930634071 
2012	 0.338051908103174 
2013	 0.338357404720311 
2014	 0.338645546600492 
2015	 0.338942701802235 
2016	 0.339278667805213 
2017	 0.339618803509276 
2018	 0.339911993508801 
2019	 0.34019839836821 
2020	 0.340462566582734 
2021	 0.340663888503976 
2022	 0.340906049866883 
2023	 0.341163543131616 
2024	 0.341412742428716 
2025	 0.341657460549877 
2026	 0.34191326617158 
2027	 0.342158829693781 
2028	 0.342435485864053 
2029	 0.342704752106336 
2030	 0.3429968097844 
2031	 0.343246921330741 
2032	 0.343491091145347 
2033	 0.343709162247521 
2034	 0.343891331948404 
2035	 0.344084269180162 
2036	 0.344264325041919 
2037	 0.344445803250435 
2038	 0.344622154229987 
2039	 0.344802679502911 
2040	 0.344972770696558 
2041	 0.345161140447387 
2042	 0.345369071786741 
2043	 0.345536403894372 
2044	 0.345706552250402 
2045	 0.345873854976892 
2046	 0.346026781165194 
2047	 0.346158041673429 
2048	 0.346304452248068 
2049	 0.346437225994546 
2050	 0.346591956018481 
2051	 0.346764783816601 
2052	 0.346930101953622 
2053	 0.347122320160075 
2054	 0.347285833734783 
2055	 0.347444518381169 
2056	 0.347574944409399 
2057	 0.347694626285397 
2058	 0.347788008374612 
2059	 0.347891235315698 
2060	 0.347975569889076 
2061	 0.348078090315113 
2062	 0.348194705974494 
2063	 0.348293868102512 
2064	 0.348398234701377 
2065	 0.348489836407579 
2066	 0.348544273544109 
2067	 0.348632327671678 
2068	 0.348732611268559 
2069	 0.348835331944783 
2070	 0.348945722051316 
2071	 0.3490867916472 
2072	 0.349193319830489 
2073	 0.349282854715856 
2074	 0.349379234226337 
2075	 0.349463890349776 
2076	 0.349558622937223 
2077	 0.349676242459726 
2078	 0.349761032954692 
2079	 0.349831472983825 
2080	 0.349900069057186 
2081	 0.349936676259281 
2082	 0.349991919065637 
2083	 0.35004669740965 
2084	 0.350120774216406 
2085	 0.350196092632325 
2086	 0.35029471944375 
2087	 0.350348740908991 
2088	 0.350391699250772 
2089	 0.350429258989821 
2090	 0.350431330411956 
2091	 0.35045353046661 
2092	 0.350485439420154 
2093	 0.350516062978163 
2094	 0.350540635625539 
2095	 0.350573246808409 
2096	 0.350619582277816 
2097	 0.35065675915045 
2098	 0.350690247207769 
2099	 0.350722494896915 
2100	 0.350762943651049 
2101	 0.3507994041018 
2102	 0.350852040093802 
2103	 0.350910359169626 
2104	 0.350985731045298 
2105	 0.351075100178317 
2106	 0.351168382427707 
2107	 0.351283081192462 
2108	 0.35138848678155 
2109	 0.351488944182894 
2110	 0.351599303272116 
2111	 0.351712014727151 
2112	 0.351832790451219 
2113	 0.351973475686511 
2114	 0.352104860226506 
2115	 0.352218727483814 
2116	 0.352321499232845 
2117	 0.352434808902695 
2118	 0.35252278066512 
2119	 0.352653571631162 
2120	 0.352823656145981 
2121	 0.352966627694018 
2122	 0.353130299656571 
2123	 0.353258322448374 
2124	 0.353360769060826 
2125	 0.353459356565699 
2126	 0.353548966462527 
2127	 0.353621140041988 
2128	 0.353667763770981 
2129	 0.35372353327987 
2130	 0.353770943091319 
2131	 0.353809606246245 
2132	 0.353856141435453 
2133	 0.353928132627321 
2134	 0.353947609362396 
2135	 0.353948036688244 
2136	 0.353932051878418 
2137	 0.353897939301179 
2138	 0.353828980907755 
2139	 0.353747731990933 
2140	 0.353627181202777 
2141	 0.353463059866027 
2142	 0.353276343377607 
2143	 0.353063579674195 
2144	 0.352824161900056 
2145	 0.352555838475391 
2146	 0.352256551839793 
2147	 0.351915682073626 
2148	 0.351566500401401 
2149	 0.351204245692404 
2150	 0.350804982491241 
2151	 0.350430864463409 
2152	 0.350068443810223 
2153	 0.349679735948971 
2154	 0.349299294947159 
2155	 0.348875798614234 
2156	 0.348437040070172 
2157	 0.347954570655472 
2158	 0.347428435748233 
2159	 0.346890444134452 
2160	 0.346307324019588 
2161	 0.345726240865241 
2162	 0.345136708436945 
2163	 0.344533480509266 
2164	 0.343915245269282 
2165	 0.343292288443418 
2166	 0.342651795889567 
2167	 0.342005192189823 
2168	 0.341324029548986 
2169	 0.340617773600007 
2170	 0.339904431310817 
2171	 0.339178987498973 
2172	 0.338412368920239 
2173	 0.337623431734965 
2174	 0.336814821340146 
2175	 0.335976537409002 
2176	 0.335105169572082 
2177	 0.334232228685198 
2178	 0.333297485396017 
2179	 0.332303677931093 
2180	 0.331281576551539 
2181	 0.330197847675452 
2182	 0.329114456364354 
2183	 0.328011877291223 
2184	 0.326866229477964 
2185	 0.325746103240356 
2186	 0.324613031585174 
2187	 0.323509553219626 
2188	 0.322405930751131 
2189	 0.321334094950049 
2190	 0.320253583908444 
2191	 0.319263273892997 
2192	 0.318287411713889 
2193	 0.31741950189933 
2194	 0.31663000385008 
2195	 0.315922530726617 
2196	 0.315293171446376 
2197	 0.314751136621294 
2198	 0.314300351222138 
2199	 0.313927238122617 
2200	 0.313646751036637 
2201	 0.313437641233274 
2202	 0.313308310326058 
2203	 0.313249614429546 
2204	 0.313291225317213 
2205	 0.313396511549823 
2206	 0.313644053094838 
2207	 0.314001517976767 
2208	 0.314478565034788 
2209	 0.315114820975037 
2210	 0.315779044793932 
2211	 0.31656131574645 
2212	 0.317357446003778 
2213	 0.318234811238643 
2214	 0.319096073831833 
2215	 0.320034825165609 
2216	 0.320904430819968 
2217	 0.321807225692436 
2218	 0.322589493881545 
2219	 0.323287865673823 
2220	 0.323955237435984 
2221	 0.324533205452944 
2222	 0.325089421337847 
2223	 0.325627689363741 
2224	 0.326124266254941 
2225	 0.326546438102444 
2226	 0.326906204965431 
2227	 0.327213138311507 
2228	 0.327432674161551 
2229	 0.327680393375102 
2230	 0.327893453349534 
2231	 0.328094786053771 
2232	 0.328316221805888 
2233	 0.328457192869281 
2234	 0.328543306277918 
2235	 0.328602784456486 
2236	 0.328625181442232 
2237	 0.328603309305308 
2238	 0.328507627474924 
2239	 0.328438495054734 
2240	 0.328325538145874 
2241	 0.328236238786206 
2242	 0.328185611971426 
2243	 0.328110099305496 
2244	 0.328059832225317 
2245	 0.327945138447015 
2246	 0.327765936189328 
2247	 0.327554602558751 
2248	 0.327349340129473 
2249	 0.327067502500932 
2250	 0.326885351353458 
2251	 0.326759386753511 
2252	 0.326600523344877 
2253	 0.326453287725551 
2254	 0.32631467814799 
2255	 0.326147116093532 
2256	 0.326049808814079 
2257	 0.326016905498442 
2258	 0.32595296956058 
2259	 0.325923283827067 
2260	 0.325863500967922 
2261	 0.325755722820864 
2262	 0.325695998370323 
2263	 0.325633317346501 
2264	 0.325614127661644 
2265	 0.325643918141008 
2266	 0.325676482595201 
2267	 0.325747993913957 
2268	 0.325809453976033 
2269	 0.325887190398494 
2270	 0.325946171868195 
2271	 0.325981514790685 
2272	 0.326026109279076 
2273	 0.326087357988343 
2274	 0.326154882468967 
2275	 0.326239156322142 
2276	 0.326378265065834 
2277	 0.326435784826269 
2278	 0.326457176801921 
2279	 0.326497096323785 
2280	 0.326482788289371 
2281	 0.32653244177803 
2282	 0.326638685504746 
2283	 0.32672071221713 
2284	 0.326831551232796 
2285	 0.326889140529976 
2286	 0.32692846125994 
2287	 0.326936058894713 
2288	 0.326881807211222 
2289	 0.326867794265193 
2290	 0.326848973495216 
2291	 0.326834535360014 
2292	 0.326859339875877 
2293	 0.326840410750784 
2294	 0.326771219366859 
2295	 0.326736448958684 
2296	 0.326695792245626 
2297	 0.326674882278307 
2298	 0.326626052201552 
2299	 0.326600123245006 
2300	 0.326541691773677 
2301	 0.326425325901451 
2302	 0.326380122374235 
2303	 0.32632486710201 
2304	 0.326204952149181 
2305	 0.326057708053059 
2306	 0.325867739275431 
2307	 0.325588318155828 
2308	 0.325370506152047 
2309	 0.325139174157506 
2310	 0.32493815209707 
2311	 0.324774206874538 
2312	 0.324575805777915 
2313	 0.324401925419939 
2314	 0.324175530700682 
2315	 0.323904178608883 
2316	 0.323639971049457 
2317	 0.323351283279935 
2318	 0.323048890149388 
2319	 0.322719179062279 
2320	 0.322423690790026 
2321	 0.322107006533681 
2322	 0.321838602988504 
2323	 0.321644599060125 
2324	 0.321400260577087 
2325	 0.321140197972597 
2326	 0.320898772021717 
2327	 0.320641773344755 
2328	 0.320408494213242 
2329	 0.320194741442464 
2330	 0.319951819402854 
2331	 0.319674746179794 
2332	 0.31936648377909 
2333	 0.319061671415328 
2334	 0.318784498947173 
2335	 0.318424473730652 
2336	 0.318022019020832 
2337	 0.317653162098389 
2338	 0.31722629802904 
2339	 0.316874445923278 
2340	 0.316627234883509 
2341	 0.316314015194689 
2342	 0.316035427735132 
2343	 0.315784472623596 
2344	 0.315459684015765 
2345	 0.315174425714211 
2346	 0.314910263404461 
2347	 0.314634993799758 
2348	 0.314349420447675 
2349	 0.314085307969168 
2350	 0.31383580618349 
2351	 0.313567426943584 
2352	 0.3132862159591 
2353	 0.313056694492434 
2354	 0.312807160392843 
2355	 0.312624034809684 
2356	 0.312550755201898 
2357	 0.312408143569243 
2358	 0.312290679810932 
2359	 0.312124450725884 
2360	 0.311886053896025 
2361	 0.311679065778687 
2362	 0.311467614014997 
2363	 0.311268723805233 
2364	 0.311104612161327 
2365	 0.310872732997288 
2366	 0.310629645133343 
2367	 0.310341857992515 
2368	 0.309935892586501 
2369	 0.30963119238484 
2370	 0.309372924809442 
2371	 0.309081629402 
2372	 0.308801591119016 
2373	 0.308634638061172 
2374	 0.308322072910618 
2375	 0.307901327394991 
2376	 0.307499971067055 
2377	 0.306998050045061 
2378	 0.306573010738707 
2379	 0.306229984485134 
2380	 0.305806979598137 
2381	 0.305396645693072 
2382	 0.304998492296587 
2383	 0.304598084225653 
2384	 0.304275700771796 
2385	 0.303967084519481 
2386	 0.303560329340342 
2387	 0.303135674716913 
2388	 0.302700929172341 
2389	 0.302254245119705 
2390	 0.301889304996663 
2391	 0.301532110420527 
2392	 0.301145797110307 
2393	 0.300757769477731 
2394	 0.300341789605315 
2395	 0.299918078831777 
2396	 0.299532327255223 
2397	 0.299190210504939 
2398	 0.298858407743239 
2399	 0.298530318945915 
2400	 0.298167052290958 
2401	 0.29768659519205 
2402	 0.297178530576027 
2403	 0.296619409842582 
2404	 0.295975901410479 
2405	 0.295467565720076 
2406	 0.294970859942345 
2407	 0.294439857686652 
2408	 0.293957590889834 
2409	 0.29337909899738 
2410	 0.292787662412217 
2411	 0.292147481572853 
2412	 0.291548979310727 
2413	 0.291053295621906 
2414	 0.290416489328447 
2415	 0.289834488407443 
2416	 0.289283973096825 
2417	 0.288686551491915 
2418	 0.288119774168261 
2419	 0.287645964358893 
2420	 0.287126153240151 
2421	 0.286587990962582 
2422	 0.286058479298044 
2423	 0.285534578839851 
2424	 0.285007797213197 
2425	 0.284483898114114 
2426	 0.283928088823629 
2427	 0.2833662887122 
2428	 0.282772215771563 
2429	 0.282088389177342 
2430	 0.281528483693642 
2431	 0.281045958577733 
2432	 0.280584463787468 
2433	 0.28021443140937 
2434	 0.27973953559126 
2435	 0.279196899509259 
2436	 0.278680244770022 
2437	 0.278113311449712 
2438	 0.277644806600198 
2439	 0.277234124196406 
2440	 0.276812270747855 
2441	 0.276466585304448 
2442	 0.276063396434373 
2443	 0.275626606279451 
2444	 0.275282579228071 
2445	 0.274997218785687 
2446	 0.274645447251635 
2447	 0.274280645411381 
2448	 0.273883745828337 
2449	 0.273374898702564 
2450	 0.272955641272837 
2451	 0.272699586453344 
2452	 0.272305198132151 
2453	 0.271798576307859 
2454	 0.271403904796888 
2455	 0.270967355755214 
2456	 0.27063763415872 
2457	 0.270495573324667 
2458	 0.270216869197309 
2459	 0.26985032473901 
2460	 0.269476204821929 
2461	 0.269039640885349 
2462	 0.268645188678092 
2463	 0.268319462935924 
2464	 0.268059947533298 
2465	 0.267793457981258 
2466	 0.267592521370467 
2467	 0.267587931942109 
2468	 0.267211285093844 
2469	 0.266588541961779 
2470	 0.266154563881995 
2471	 0.265805498269104 
2472	 0.265614921672612 
2473	 0.265561456833247 
2474	 0.265458997735602 
2475	 0.26510514650304 
2476	 0.264740418339716 
2477	 0.264316436997364 
2478	 0.263922386945728 
2479	 0.263541069722344 
2480	 0.263114936685914 
2481	 0.262851154917208 
2482	 0.262670296990174 
2483	 0.262504094752061 
2484	 0.262408317937394 
2485	 0.262163075917686 
2486	 0.261908395630317 
2487	 0.261759808425811 
2488	 0.261404334832855 
2489	 0.261074059812532 
2490	 0.26066392581494 
2491	 0.260164149612095 
2492	 0.259730040213591 
2493	 0.259292271279505 
2494	 0.258969672187328 
2495	 0.258583872867981 
2496	 0.258166622069837 
2497	 0.257889697598969 
2498	 0.257724882133438 
2499	 0.25770787267181 
2500	 0.257828806569581 
