Wavelength	LMW_12_00009.asd
350	 0.122593174421768 
351	 0.118828006223289 
352	 0.114660025559876 
353	 0.114033984713672 
354	 0.11169732421396 
355	 0.116294646466729 
356	 0.120526520633973 
357	 0.117091600304256 
358	 0.113742388021246 
359	 0.113816375019418 
360	 0.116183321535683 
361	 0.11676808197109 
362	 0.110886842758354 
363	 0.110245782376358 
364	 0.11743351793335 
365	 0.118303011555348 
366	 0.118034872352602 
367	 0.117185628506714 
368	 0.116171057165928 
369	 0.119186427268967 
370	 0.120850733652332 
371	 0.120160903609304 
372	 0.119349593918868 
373	 0.119562339503486 
374	 0.122522816030548 
375	 0.127201520193793 
376	 0.12805683338152 
377	 0.126206048018757 
378	 0.125256216001955 
379	 0.128131895452734 
380	 0.131849528724521 
381	 0.13238411512322 
382	 0.131292304932327 
383	 0.133942951757579 
384	 0.137459286992792 
385	 0.139633204080397 
386	 0.139978854487348 
387	 0.14081319512686 
388	 0.143378976374484 
389	 0.145034317769455 
390	 0.143623653082175 
391	 0.145761402460366 
392	 0.147425752661132 
393	 0.148397546420918 
394	 0.151724888577084 
395	 0.152797732083195 
396	 0.153983964728808 
397	 0.15668143877894 
398	 0.157629810909669 
399	 0.15946798798109 
400	 0.161943422607492 
401	 0.16388448638328 
402	 0.165501619171899 
403	 0.167006842492588 
404	 0.168447328452309 
405	 0.169741903993902 
406	 0.171646726043248 
407	 0.17343714722186 
408	 0.174496440356602 
409	 0.175143528248073 
410	 0.17558489277959 
411	 0.176316072646882 
412	 0.177789046035606 
413	 0.17946763051004 
414	 0.180472418181679 
415	 0.180524221879692 
416	 0.18002850299886 
417	 0.181214014737093 
418	 0.18283485779648 
419	 0.183295110906124 
420	 0.182936720923032 
421	 0.182260950760432 
422	 0.182096664156845 
423	 0.183222915194387 
424	 0.183902509048647 
425	 0.183783468704991 
426	 0.183183847576419 
427	 0.183251393532462 
428	 0.182767183214205 
429	 0.182165516421132 
430	 0.182141582379014 
431	 0.18186637471236 
432	 0.182012305012056 
433	 0.182442019608222 
434	 0.18224258624954 
435	 0.182441658578005 
436	 0.182958345018889 
437	 0.183476925757989 
438	 0.183556802378552 
439	 0.184472045193319 
440	 0.18573183933242 
441	 0.186156724995116 
442	 0.186824315981994 
443	 0.187729813087824 
444	 0.188687657187808 
445	 0.189397004306516 
446	 0.190462491811635 
447	 0.191771176272878 
448	 0.193002844391862 
449	 0.193970756794916 
450	 0.194726803579081 
451	 0.195600722784544 
452	 0.197070304218798 
453	 0.198131403004578 
454	 0.198671327947293 
455	 0.199016788250832 
456	 0.200159340512786 
457	 0.201177013974878 
458	 0.201923341908071 
459	 0.202610175498227 
460	 0.203271951686785 
461	 0.203905330521454 
462	 0.204517985574113 
463	 0.205140182825649 
464	 0.205743463140523 
465	 0.206303707458564 
466	 0.206814076700661 
467	 0.207313064385749 
468	 0.207886846142196 
469	 0.208466730880088 
470	 0.208880854150074 
471	 0.209437872459443 
472	 0.209866516739542 
473	 0.210020725857948 
474	 0.210220830084844 
475	 0.210743240416776 
476	 0.211472532938442 
477	 0.212104065861678 
478	 0.212548228066961 
479	 0.212824706732889 
480	 0.213097272828329 
481	 0.213708380901575 
482	 0.214172547846678 
483	 0.21455970238492 
484	 0.215046963260167 
485	 0.215589011349765 
486	 0.216040555226351 
487	 0.216411215459842 
488	 0.216836016417886 
489	 0.217218925697067 
490	 0.217637883052173 
491	 0.218138566887434 
492	 0.21862453685075 
493	 0.219085198840545 
494	 0.219619726805397 
495	 0.220319305927032 
496	 0.220818274431294 
497	 0.221050392261256 
498	 0.221229172085098 
499	 0.221935368018806 
500	 0.222524754690454 
501	 0.22297449365795 
502	 0.22342714890547 
503	 0.223870668850229 
504	 0.224423022650047 
505	 0.224982107330686 
506	 0.22527156389145 
507	 0.225721351504158 
508	 0.226263946745859 
509	 0.226778271795527 
510	 0.227278852983711 
511	 0.22780735364 
512	 0.228250650017475 
513	 0.228486487748272 
514	 0.229103352496932 
515	 0.229669105689356 
516	 0.230001362525154 
517	 0.230539552667346 
518	 0.231038332955635 
519	 0.23153312478189 
520	 0.232095532370362 
521	 0.232522151900681 
522	 0.232957139479463 
523	 0.233421695667305 
524	 0.23379177637012 
525	 0.234152149742776 
526	 0.234584106270649 
527	 0.235109124030309 
528	 0.235574830714942 
529	 0.236025819951602 
530	 0.236515404248669 
531	 0.237077052915966 
532	 0.237403776198697 
533	 0.237847775213071 
534	 0.238545601113371 
535	 0.238991793029783 
536	 0.239461381074053 
537	 0.239971104798958 
538	 0.240444944998101 
539	 0.24084025915298 
540	 0.241274054345405 
541	 0.241787511629064 
542	 0.242304782864451 
543	 0.242855784463108 
544	 0.243389407183494 
545	 0.243879331852844 
546	 0.244486518398628 
547	 0.245064207332225 
548	 0.245599364214963 
549	 0.246194239939363 
550	 0.246759446313366 
551	 0.247320346327016 
552	 0.247915263009657 
553	 0.248567542474678 
554	 0.249211148648923 
555	 0.249809173414929 
556	 0.250350963451269 
557	 0.250893822453856 
558	 0.25146362672237 
559	 0.252072519406038 
560	 0.252720752351757 
561	 0.253365774132214 
562	 0.254072839763924 
563	 0.254907682106938 
564	 0.255711372587874 
565	 0.256615494156264 
566	 0.257679053215297 
567	 0.258859313324476 
568	 0.260011198965625 
569	 0.260912447276827 
570	 0.261465837654581 
571	 0.261957140237569 
572	 0.262639214110103 
573	 0.263545453090464 
574	 0.264521720828644 
575	 0.265277707098242 
576	 0.26600725427191 
577	 0.266860765873591 
578	 0.267678294583253 
579	 0.268799644457592 
580	 0.270185528830932 
581	 0.271631170661871 
582	 0.273136113544538 
583	 0.274439330342188 
584	 0.275421608117724 
585	 0.276182480266601 
586	 0.276970153190105 
587	 0.277753339298902 
588	 0.278452674821413 
589	 0.279220534914456 
590	 0.279944463326045 
591	 0.280599514455817 
592	 0.281248955200816 
593	 0.281819960384246 
594	 0.282418084680646 
595	 0.283209040887605 
596	 0.284438358585291 
597	 0.285918760406186 
598	 0.287456095148014 
599	 0.288874694135944 
600	 0.290222687215448 
601	 0.2913925825455 
602	 0.292334736814044 
603	 0.293121881982299 
604	 0.293875786923013 
605	 0.294695425476341 
606	 0.295629060123481 
607	 0.296565624846563 
608	 0.297379480451371 
609	 0.298077830417326 
610	 0.298819548523728 
611	 0.299715592326245 
612	 0.300737098097711 
613	 0.301768251668272 
614	 0.302563154710507 
615	 0.303392729023809 
616	 0.304256796085158 
617	 0.304976328207683 
618	 0.305756601826174 
619	 0.306479486370093 
620	 0.307095246414239 
621	 0.307799131545519 
622	 0.308515976739393 
623	 0.309245663226347 
624	 0.309992956406986 
625	 0.310612218739244 
626	 0.311290761202967 
627	 0.312044590483221 
628	 0.312628490460899 
629	 0.31329856261696 
630	 0.313972672515725 
631	 0.314554492574609 
632	 0.315263982355782 
633	 0.315964529082275 
634	 0.316599465428291 
635	 0.317195420311516 
636	 0.317896892037858 
637	 0.318623931474001 
638	 0.319278092761245 
639	 0.31980586307732 
640	 0.320416649197835 
641	 0.3211159443621 
642	 0.321809122556459 
643	 0.32248374701604 
644	 0.3231441790442 
645	 0.323792576458927 
646	 0.324421319227984 
647	 0.325053617877115 
648	 0.325695177296333 
649	 0.326353071764341 
650	 0.327073926630407 
651	 0.327746116556629 
652	 0.328368603894513 
653	 0.329040990917845 
654	 0.329793834452098 
655	 0.330510724934217 
656	 0.331135974276344 
657	 0.331829294113223 
658	 0.332541350883389 
659	 0.333273205850854 
660	 0.334025472406807 
661	 0.334645457918113 
662	 0.335267015420131 
663	 0.335980380039041 
664	 0.336772336539406 
665	 0.337607420689375 
666	 0.338350628038425 
667	 0.338939819296214 
668	 0.339699457627941 
669	 0.340521603384743 
670	 0.341296778108876 
671	 0.341941219152179 
672	 0.342671950004311 
673	 0.343466782228614 
674	 0.344274052191087 
675	 0.345094805595292 
676	 0.345809396580954 
677	 0.34650517634088 
678	 0.347331111675866 
679	 0.348141527184443 
680	 0.348937252491292 
681	 0.349732014860071 
682	 0.350540777522894 
683	 0.351334381841835 
684	 0.352120135577626 
685	 0.352916728833822 
686	 0.353748168551417 
687	 0.354569562690354 
688	 0.355353144332711 
689	 0.356100295969006 
690	 0.357007893986435 
691	 0.357867590999015 
692	 0.358586709395078 
693	 0.359427425465548 
694	 0.360211045776633 
695	 0.36097088864606 
696	 0.361804672152429 
697	 0.36273373634812 
698	 0.363615203677541 
699	 0.364420855808676 
700	 0.365250870635325 
701	 0.365985744451042 
702	 0.366800130461686 
703	 0.367766659497374 
704	 0.368491238290938 
705	 0.369297231718813 
706	 0.370128170551338 
707	 0.370782467277036 
708	 0.371621345708039 
709	 0.372480272629293 
710	 0.373268283567798 
711	 0.374086623156037 
712	 0.374856809101974 
713	 0.375594175654005 
714	 0.376334878744718 
715	 0.377081110046994 
716	 0.377822565821171 
717	 0.378584319864343 
718	 0.379397285503262 
719	 0.380062545328523 
720	 0.380649909819544 
721	 0.381251132238592 
722	 0.381912755122379 
723	 0.382676607506185 
724	 0.38346165460621 
725	 0.384169564890766 
726	 0.384880934517425 
727	 0.38543625162485 
728	 0.38587882144131 
729	 0.386436977574449 
730	 0.38701475586002 
731	 0.38764836775928 
732	 0.388314378725775 
733	 0.388794275723262 
734	 0.389255612137575 
735	 0.389727125356458 
736	 0.390189413224363 
737	 0.390690347314379 
738	 0.391181645885435 
739	 0.391652468780734 
740	 0.392137980718686 
741	 0.392554998379757 
742	 0.392916262863083 
743	 0.393251932025014 
744	 0.393573933469775 
745	 0.393893408393971 
746	 0.394229358540478 
747	 0.39458475650607 
748	 0.394839839114338 
749	 0.395094247602312 
750	 0.395363733139247 
751	 0.395542202190648 
752	 0.395833414095028 
753	 0.39612773669174 
754	 0.396318833564769 
755	 0.396535376533996 
756	 0.396718380438765 
757	 0.396880691397389 
758	 0.39706061446871 
759	 0.397216734163054 
760	 0.39724924292231 
761	 0.39721850290774 
762	 0.397380743556877 
763	 0.397520916823368 
764	 0.39764162581663 
765	 0.397768405585559 
766	 0.397848312730718 
767	 0.39783888041538 
768	 0.397838393329835 
769	 0.39796565028558 
770	 0.397929258561246 
771	 0.397918440730244 
772	 0.397973723264007 
773	 0.397911765154325 
774	 0.397856225097258 
775	 0.397874706065392 
776	 0.397955234126939 
777	 0.397906605115723 
778	 0.397852386293729 
779	 0.397807827166856 
780	 0.397753375007794 
781	 0.397786232557982 
782	 0.397732143549332 
783	 0.397600659756211 
784	 0.397604240565316 
785	 0.397561388355048 
786	 0.397455528971521 
787	 0.397335945415917 
788	 0.397329745819844 
789	 0.397354121304148 
790	 0.397339189182756 
791	 0.397232392204656 
792	 0.397035730563131 
793	 0.396939599430455 
794	 0.396972093806647 
795	 0.397003643144984 
796	 0.396914708781782 
797	 0.396765543668425 
798	 0.396635754234231 
799	 0.396577990864207 
800	 0.396523577155295 
801	 0.396404493719901 
802	 0.396222850352075 
803	 0.396236349895827 
804	 0.396238534866219 
805	 0.396172660559225 
806	 0.396091032176808 
807	 0.396038256458348 
808	 0.395945584418731 
809	 0.395809237944017 
810	 0.395724112153744 
811	 0.395736443964245 
812	 0.395718508731192 
813	 0.395588974771253 
814	 0.395495297565257 
815	 0.395439177940318 
816	 0.395437849242385 
817	 0.395474531472437 
818	 0.395359098960029 
819	 0.395254727547051 
820	 0.395203606803868 
821	 0.395133744276316 
822	 0.39513708990953 
823	 0.395111067087252 
824	 0.395008118895864 
825	 0.394914825924327 
826	 0.394898112539668 
827	 0.394866320888867 
828	 0.394773080332187 
829	 0.394892166372404 
830	 0.394811411497999 
831	 0.394659336169029 
832	 0.394768157876635 
833	 0.394939930312748 
834	 0.394927992524458 
835	 0.394738364916914 
836	 0.394624612304164 
837	 0.394754921218993 
838	 0.394872926386353 
839	 0.394838145475487 
840	 0.394836248550741 
841	 0.39484343239755 
842	 0.39481296420825 
843	 0.394736606884198 
844	 0.394752952881403 
845	 0.394817567752148 
846	 0.394831139523908 
847	 0.394727376937072 
848	 0.394753595517171 
849	 0.394886261284151 
850	 0.395040667748718 
851	 0.395106195034127 
852	 0.395104297234165 
853	 0.395130632318326 
854	 0.395211618793016 
855	 0.395258618351018 
856	 0.395313215955046 
857	 0.395441339957263 
858	 0.395605479360932 
859	 0.395471212841808 
860	 0.39549916428389 
861	 0.395694521666432 
862	 0.395894475134137 
863	 0.396027296561987 
864	 0.396089334231929 
865	 0.396161754109782 
866	 0.396344050315113 
867	 0.396510354644788 
868	 0.39651426749156 
869	 0.39647011832445 
870	 0.396712890681743 
871	 0.396890800196854 
872	 0.397085498846402 
873	 0.397342965314081 
874	 0.397541422509269 
875	 0.397560153060845 
876	 0.397518229674878 
877	 0.397586686183057 
878	 0.397906277635597 
879	 0.398206583265873 
880	 0.398373148193477 
881	 0.398435245067015 
882	 0.398711395904692 
883	 0.398978185733635 
884	 0.399166065869458 
885	 0.399331798719341 
886	 0.399670258265696 
887	 0.399945101462241 
888	 0.400129250946881 
889	 0.400388174247995 
890	 0.400633910848978 
891	 0.400929838009649 
892	 0.401213858777074 
893	 0.401275107661183 
894	 0.401475363754155 
895	 0.401737111757897 
896	 0.402002143139137 
897	 0.402408927284711 
898	 0.402698077568543 
899	 0.40294323019071 
900	 0.403235102103743 
901	 0.403453795071199 
902	 0.403674953195105 
903	 0.403956296037151 
904	 0.404322471185962 
905	 0.404721663987971 
906	 0.405015121164086 
907	 0.405263390601912 
908	 0.405606329751611 
909	 0.406027910176836 
910	 0.406428118717916 
911	 0.406805114696194 
912	 0.407203385776915 
913	 0.407464425862903 
914	 0.407761600035211 
915	 0.408151549203553 
916	 0.4085645832156 
917	 0.409056181528592 
918	 0.40947612989468 
919	 0.409780365168793 
920	 0.410082242440899 
921	 0.410535505197379 
922	 0.410984808132227 
923	 0.411377198175229 
924	 0.41188435813716 
925	 0.412352797121554 
926	 0.412780056745127 
927	 0.413199271342591 
928	 0.413643899492808 
929	 0.414061045180478 
930	 0.414500341816935 
931	 0.414999047911314 
932	 0.415507889577614 
933	 0.416037266496347 
934	 0.416489378787596 
935	 0.416828323270927 
936	 0.41726043601242 
937	 0.41781746347035 
938	 0.41845132652031 
939	 0.419089435694676 
940	 0.419724258769267 
941	 0.42023701718991 
942	 0.42070861900378 
943	 0.421240212548762 
944	 0.421653448728467 
945	 0.42212331550453 
946	 0.422710049867474 
947	 0.423360826740917 
948	 0.423846531991624 
949	 0.424235708012129 
950	 0.424707456435643 
951	 0.425390485014093 
952	 0.4259434893133 
953	 0.426481407993805 
954	 0.427036971711832 
955	 0.427580841865302 
956	 0.428076369052106 
957	 0.428677675977762 
958	 0.42926823050271 
959	 0.429641370671387 
960	 0.430076925678141 
961	 0.43071053787195 
962	 0.431538930761338 
963	 0.432408850380201 
964	 0.432919348767933 
965	 0.43343036714885 
966	 0.434052532654748 
967	 0.434704842473011 
968	 0.435526157172061 
969	 0.436249632439077 
970	 0.436836674246279 
971	 0.43744058416103 
972	 0.438203297239055 
973	 0.438933945862053 
974	 0.439583410477083 
975	 0.440230911743718 
976	 0.440956172358486 
977	 0.441666021688337 
978	 0.442243896621051 
979	 0.442652702419177 
980	 0.443296583909272 
981	 0.443758103832111 
982	 0.444194272967965 
983	 0.445017226428505 
984	 0.44582769856542 
985	 0.446556546908327 
986	 0.447166806455851 
987	 0.447687194460831 
988	 0.448329181840253 
989	 0.449049950864531 
990	 0.449807926801549 
991	 0.450556751719157 
992	 0.451229311469396 
993	 0.451728139937791 
994	 0.452238724101605 
995	 0.452950235428727 
996	 0.453533490753613 
997	 0.454144840016815 
998	 0.454765760889526 
999	 0.455372299368808 
1000	 0.456192127601778 
1001	 0.459836932615928 
1002	 0.460412349069433 
1003	 0.460929726648855 
1004	 0.461433356560322 
1005	 0.461876918012176 
1006	 0.46237492539846 
1007	 0.462866333694342 
1008	 0.46340578631828 
1009	 0.463941320927474 
1010	 0.464502739988721 
1011	 0.465033010583266 
1012	 0.465491036668389 
1013	 0.465999419955804 
1014	 0.466524427165517 
1015	 0.467003270188302 
1016	 0.467425632649414 
1017	 0.467874834239927 
1018	 0.468320898961033 
1019	 0.468711327105764 
1020	 0.46910870120596 
1021	 0.469656616914343 
1022	 0.470070844974356 
1023	 0.470428961470487 
1024	 0.470895075960045 
1025	 0.47127284884317 
1026	 0.471651513354576 
1027	 0.472112999608028 
1028	 0.472531241374809 
1029	 0.472855025289708 
1030	 0.473233951179243 
1031	 0.473635749372966 
1032	 0.474054425214046 
1033	 0.474405033419143 
1034	 0.474801973177731 
1035	 0.475189130870335 
1036	 0.475551249390641 
1037	 0.475938707875973 
1038	 0.47628103492468 
1039	 0.476669243703715 
1040	 0.477034656307534 
1041	 0.477297405313574 
1042	 0.477653382827302 
1043	 0.478071929636239 
1044	 0.478431003976375 
1045	 0.478751180621207 
1046	 0.479122056891499 
1047	 0.479526162462581 
1048	 0.479853296811715 
1049	 0.480226510990388 
1050	 0.480655919062051 
1051	 0.48098391468341 
1052	 0.481247774070979 
1053	 0.481607558141806 
1054	 0.482015845008901 
1055	 0.482363592905233 
1056	 0.482737165952513 
1057	 0.483094247502904 
1058	 0.483360095180458 
1059	 0.483676841646342 
1060	 0.484034716696257 
1061	 0.484412662973833 
1062	 0.484695311525659 
1063	 0.484932710277943 
1064	 0.485204166574834 
1065	 0.485505573176544 
1066	 0.485797860602718 
1067	 0.486139988971969 
1068	 0.486471751052366 
1069	 0.486749003347048 
1070	 0.487039579060239 
1071	 0.48735185952928 
1072	 0.487619062225403 
1073	 0.487838435556329 
1074	 0.488101213338034 
1075	 0.488358737842701 
1076	 0.488648779923819 
1077	 0.488936812073177 
1078	 0.489215678419339 
1079	 0.489437135045704 
1080	 0.489652348929844 
1081	 0.489882544354758 
1082	 0.49004421541996 
1083	 0.490245298124418 
1084	 0.49045681778166 
1085	 0.490670425329912 
1086	 0.490925420126296 
1087	 0.491130225939139 
1088	 0.491307711556827 
1089	 0.491462197652956 
1090	 0.491681658921633 
1091	 0.491886923578059 
1092	 0.492144520925758 
1093	 0.492418169092907 
1094	 0.492574199251908 
1095	 0.492700702815908 
1096	 0.492856983713639 
1097	 0.492997918838532 
1098	 0.49314811878297 
1099	 0.493320146341386 
1100	 0.493503679267353 
1101	 0.493669859768568 
1102	 0.493862356127667 
1103	 0.494091613382062 
1104	 0.494312959195811 
1105	 0.494545989130018 
1106	 0.494775070442772 
1107	 0.494980287823252 
1108	 0.495181192510432 
1109	 0.495353401166493 
1110	 0.495544545158583 
1111	 0.495749877637335 
1112	 0.495982891236506 
1113	 0.49619765689532 
1114	 0.496393060499712 
1115	 0.49662078220963 
1116	 0.496868593370708 
1117	 0.497111571633187 
1118	 0.497358805834419 
1119	 0.497637689992325 
1120	 0.497912153942856 
1121	 0.498137937041394 
1122	 0.498415893592975 
1123	 0.498690263392973 
1124	 0.498935413334599 
1125	 0.499163562915221 
1126	 0.499406996272753 
1127	 0.499627406335912 
1128	 0.499877094275787 
1129	 0.500165708519693 
1130	 0.50041325953828 
1131	 0.500658257703296 
1132	 0.500883907811803 
1133	 0.501057812710768 
1134	 0.501271383153242 
1135	 0.501495271509382 
1136	 0.501727318771349 
1137	 0.501969156382066 
1138	 0.502227892872853 
1139	 0.502438961560648 
1140	 0.502631264666554 
1141	 0.502802919319085 
1142	 0.502935861760956 
1143	 0.50308946982498 
1144	 0.503222773551591 
1145	 0.503384500078242 
1146	 0.503573378453388 
1147	 0.503737673186896 
1148	 0.503923648102859 
1149	 0.504075537913989 
1150	 0.504187028839534 
1151	 0.504308237753119 
1152	 0.504433241170531 
1153	 0.504564576326705 
1154	 0.504718865534589 
1155	 0.504912608758395 
1156	 0.505070444713881 
1157	 0.505228999547209 
1158	 0.505373977662714 
1159	 0.505510524313887 
1160	 0.505625757226963 
1161	 0.505705683192951 
1162	 0.505823852805112 
1163	 0.505949471916834 
1164	 0.506067747641554 
1165	 0.506205220628415 
1166	 0.506344821028047 
1167	 0.506451082663347 
1168	 0.506555438333463 
1169	 0.50667175448582 
1170	 0.506788035656955 
1171	 0.506923101981211 
1172	 0.507076451463757 
1173	 0.50721273388298 
1174	 0.507367304849026 
1175	 0.507496256770468 
1176	 0.507596193118095 
1177	 0.507710221441584 
1178	 0.507835115507077 
1179	 0.507937092462183 
1180	 0.508021025375325 
1181	 0.508118261731875 
1182	 0.508207928652007 
1183	 0.508288501882878 
1184	 0.50839563636995 
1185	 0.508525018222601 
1186	 0.508642494763985 
1187	 0.508772092642506 
1188	 0.508885542434102 
1189	 0.509003352318399 
1190	 0.509096610884146 
1191	 0.509159119647145 
1192	 0.509242822610321 
1193	 0.509322057294716 
1194	 0.509403771813983 
1195	 0.509496983643299 
1196	 0.509588250143794 
1197	 0.509678866096401 
1198	 0.509760919001898 
1199	 0.509840994484451 
1200	 0.509919654313986 
1201	 0.510013937109352 
1202	 0.510111670316162 
1203	 0.51019949416064 
1204	 0.510291762404917 
1205	 0.510391371257915 
1206	 0.510483980706381 
1207	 0.510578246026183 
1208	 0.510699071054521 
1209	 0.510793530929611 
1210	 0.510854788233881 
1211	 0.510937963227924 
1212	 0.511030500691073 
1213	 0.511115392315795 
1214	 0.511213139372353 
1215	 0.511296062729736 
1216	 0.511369795713725 
1217	 0.511435305512676 
1218	 0.511486158898452 
1219	 0.511511494875322 
1220	 0.511568707286783 
1221	 0.511613561392714 
1222	 0.511691603249066 
1223	 0.511826748090426 
1224	 0.511906756736133 
1225	 0.511959471616734 
1226	 0.512040334141306 
1227	 0.512105955496154 
1228	 0.512184849879018 
1229	 0.512306560298676 
1230	 0.51240288654575 
1231	 0.512471675874149 
1232	 0.512555915296111 
1233	 0.512643827097073 
1234	 0.512741168539545 
1235	 0.512815756325111 
1236	 0.51289881943269 
1237	 0.512952955318964 
1238	 0.512969153229313 
1239	 0.513009117691638 
1240	 0.513049532510184 
1241	 0.513086337561443 
1242	 0.513126248647929 
1243	 0.513164597070031 
1244	 0.51319277608325 
1245	 0.513227238173345 
1246	 0.513263641802434 
1247	 0.513310315777007 
1248	 0.513370612989805 
1249	 0.513415111682049 
1250	 0.513484720910334 
1251	 0.513548789892243 
1252	 0.513622078713713 
1253	 0.513704119595869 
1254	 0.513778901862674 
1255	 0.513865022919419 
1256	 0.513928514910569 
1257	 0.513980675514325 
1258	 0.514027483375023 
1259	 0.514051232858358 
1260	 0.514091476239535 
1261	 0.514131117433936 
1262	 0.514177800268415 
1263	 0.514236123947158 
1264	 0.514293152456303 
1265	 0.514351620293678 
1266	 0.514410415525673 
1267	 0.514479920709405 
1268	 0.514532059987908 
1269	 0.514591830802924 
1270	 0.514649039761821 
1271	 0.514719944664554 
1272	 0.514801815851992 
1273	 0.514869355561448 
1274	 0.514942421921718 
1275	 0.515005440127585 
1276	 0.515047028791976 
1277	 0.515106313958248 
1278	 0.515178857664175 
1279	 0.515238660130185 
1280	 0.51530587001103 
1281	 0.515355657656453 
1282	 0.515385049534328 
1283	 0.515420156392479 
1284	 0.515440751705318 
1285	 0.515466941767494 
1286	 0.515511201449788 
1287	 0.515597999096993 
1288	 0.51569099094314 
1289	 0.515824306516918 
1290	 0.515918098711393 
1291	 0.516013857189355 
1292	 0.516092616874171 
1293	 0.516157474350275 
1294	 0.516210252078578 
1295	 0.516259079634753 
1296	 0.516289576272546 
1297	 0.516274202863559 
1298	 0.516299621546321 
1299	 0.516345407318451 
1300	 0.516368254090602 
1301	 0.516413335351355 
1302	 0.516432458039904 
1303	 0.516406417968072 
1304	 0.516404909494388 
1305	 0.516428331407153 
1306	 0.516403912553399 
1307	 0.516373253572139 
1308	 0.516324953103386 
1309	 0.516261600370756 
1310	 0.51615784594987 
1311	 0.516078694357793 
1312	 0.515999544358794 
1313	 0.515927223991404 
1314	 0.515856224385895 
1315	 0.51579036413152 
1316	 0.515737471382226 
1317	 0.515670236710746 
1318	 0.515596531240958 
1319	 0.515530650474061 
1320	 0.515469666807106 
1321	 0.515392986301898 
1322	 0.515298511347906 
1323	 0.515224486018047 
1324	 0.515170259882996 
1325	 0.515142913887933 
1326	 0.515126334131833 
1327	 0.515103151632002 
1328	 0.515052588763642 
1329	 0.514988429749919 
1330	 0.5149485237921 
1331	 0.514916861304684 
1332	 0.514902350160179 
1333	 0.514897303756482 
1334	 0.514903917906336 
1335	 0.514923967719277 
1336	 0.514957390352016 
1337	 0.515002795663507 
1338	 0.515056455394208 
1339	 0.515151379077202 
1340	 0.515202021553233 
1341	 0.515231083932158 
1342	 0.515269334401642 
1343	 0.515297131386673 
1344	 0.515310211196897 
1345	 0.515348695593258 
1346	 0.515371096523984 
1347	 0.515355818855678 
1348	 0.515342674172017 
1349	 0.515337423935942 
1350	 0.515307015467575 
1351	 0.515277836994989 
1352	 0.515257319275817 
1353	 0.515213380395047 
1354	 0.515148460846564 
1355	 0.515090447181109 
1356	 0.51501809060178 
1357	 0.514958710281757 
1358	 0.514884781521216 
1359	 0.514847989851469 
1360	 0.514831380471906 
1361	 0.51482806963334 
1362	 0.51485612412377 
1363	 0.514878827153221 
1364	 0.514898747177179 
1365	 0.514937142735134 
1366	 0.514992655284695 
1367	 0.515050369993075 
1368	 0.515127578870998 
1369	 0.515179860667733 
1370	 0.515156503895775 
1371	 0.515116664784492 
1372	 0.515045852940213 
1373	 0.514933204018352 
1374	 0.51478612387989 
1375	 0.514647889230314 
1376	 0.514390702615881 
1377	 0.514055962908637 
1378	 0.513673998438034 
1379	 0.513180287359368 
1380	 0.51273713760081 
1381	 0.512268848420306 
1382	 0.511796336751322 
1383	 0.511365909691523 
1384	 0.510848887397695 
1385	 0.510344655305032 
1386	 0.509710698130041 
1387	 0.509042742295927 
1388	 0.508226773541058 
1389	 0.507327175060088 
1390	 0.506251012790223 
1391	 0.505014244087664 
1392	 0.503623265529046 
1393	 0.502063788207898 
1394	 0.500416102782548 
1395	 0.498696346910749 
1396	 0.496935429269329 
1397	 0.495192229415684 
1398	 0.493389211644819 
1399	 0.491664853620736 
1400	 0.489930323971571 
1401	 0.488308960518621 
1402	 0.486706175982812 
1403	 0.485266403215256 
1404	 0.483923129260999 
1405	 0.48269781978175 
1406	 0.481588604449942 
1407	 0.480583888492982 
1408	 0.47959050481057 
1409	 0.478897416141111 
1410	 0.478271648374079 
1411	 0.478031956303266 
1412	 0.478089582533429 
1413	 0.478404418092411 
1414	 0.47903888951363 
1415	 0.479928888269147 
1416	 0.481045306218667 
1417	 0.482336323702143 
1418	 0.483743696133643 
1419	 0.485166241872828 
1420	 0.486554962427265 
1421	 0.487890054065546 
1422	 0.489077089792654 
1423	 0.490148162860338 
1424	 0.491049905345582 
1425	 0.491773775504991 
1426	 0.492438089118967 
1427	 0.49294166420318 
1428	 0.493433211973501 
1429	 0.493862839959302 
1430	 0.494222985119295 
1431	 0.494521267426354 
1432	 0.494757625429965 
1433	 0.494894756702889 
1434	 0.495039455387275 
1435	 0.49512073348154 
1436	 0.495214726001976 
1437	 0.495322899889277 
1438	 0.495391113900897 
1439	 0.495431506408748 
1440	 0.49545802330878 
1441	 0.495480513304914 
1442	 0.495480415548024 
1443	 0.495505482276852 
1444	 0.495524010710977 
1445	 0.495531246190381 
1446	 0.495544348886459 
1447	 0.495511663157 
1448	 0.495498229354011 
1449	 0.49548626462274 
1450	 0.4954305532717 
1451	 0.49540189930713 
1452	 0.49538710569235 
1453	 0.495364202249359 
1454	 0.495358702544353 
1455	 0.495311870469943 
1456	 0.49524435746772 
1457	 0.495172504711184 
1458	 0.495046219875074 
1459	 0.494982577298929 
1460	 0.494936712354393 
1461	 0.494918400345913 
1462	 0.494946408934518 
1463	 0.49495832607329 
1464	 0.494988517977421 
1465	 0.495010484097042 
1466	 0.495016942945026 
1467	 0.495046489760197 
1468	 0.49506914010928 
1469	 0.495124101436041 
1470	 0.495211526383004 
1471	 0.495299999793333 
1472	 0.495405488036094 
1473	 0.495527162010006 
1474	 0.495604480800616 
1475	 0.495713557068291 
1476	 0.495861131775038 
1477	 0.496002986187465 
1478	 0.496220089564182 
1479	 0.496450685322097 
1480	 0.49663922129006 
1481	 0.496833461757469 
1482	 0.496988109304136 
1483	 0.497086926839508 
1484	 0.497232099253035 
1485	 0.497377316275838 
1486	 0.497526329751404 
1487	 0.497698550538007 
1488	 0.497848839948985 
1489	 0.497991755099933 
1490	 0.498125357567474 
1491	 0.49825089789891 
1492	 0.498374468416128 
1493	 0.498463279380441 
1494	 0.498599697400309 
1495	 0.498774657079362 
1496	 0.498919520327771 
1497	 0.49909995816821 
1498	 0.499230739475814 
1499	 0.499310258656434 
1500	 0.499400948463782 
1501	 0.499469805293586 
1502	 0.49954367578037 
1503	 0.499610232524431 
1504	 0.499690960650419 
1505	 0.499774263838776 
1506	 0.499852532046753 
1507	 0.49994091877924 
1508	 0.500023755106609 
1509	 0.500102425986297 
1510	 0.500195955845016 
1511	 0.500282340866864 
1512	 0.500346232392291 
1513	 0.500389757184168 
1514	 0.500442150471333 
1515	 0.500523443119677 
1516	 0.500609345935541 
1517	 0.500685611335272 
1518	 0.500774671955253 
1519	 0.50086200716375 
1520	 0.500933601212701 
1521	 0.501015709497749 
1522	 0.501124231608101 
1523	 0.501203451027635 
1524	 0.501261160516976 
1525	 0.501328472803166 
1526	 0.501391989981153 
1527	 0.501451018882814 
1528	 0.501515148683336 
1529	 0.501562077319878 
1530	 0.501600076606109 
1531	 0.501633490966304 
1532	 0.50164676164623 
1533	 0.501675587606196 
1534	 0.501695318248329 
1535	 0.501739816636892 
1536	 0.501806369496625 
1537	 0.501865366485607 
1538	 0.501941301037653 
1539	 0.502006128083126 
1540	 0.502057428383408 
1541	 0.502120481983007 
1542	 0.5021939021364 
1543	 0.502255409507781 
1544	 0.502305907787986 
1545	 0.502373808115259 
1546	 0.502439116450809 
1547	 0.502518929434896 
1548	 0.502621899885136 
1549	 0.502695930064154 
1550	 0.502744309738569 
1551	 0.502778827364652 
1552	 0.502806368813258 
1553	 0.502838653466902 
1554	 0.502877517263559 
1555	 0.502925646751517 
1556	 0.502964619459442 
1557	 0.503011257157022 
1558	 0.503055304758993 
1559	 0.503086913146857 
1560	 0.503113496338842 
1561	 0.503126583672229 
1562	 0.503144455848751 
1563	 0.503149529920615 
1564	 0.503185187035054 
1565	 0.503238581319339 
1566	 0.503284911295722 
1567	 0.503346553683942 
1568	 0.503400097635745 
1569	 0.503445397721854 
1570	 0.503491593025984 
1571	 0.503550819531247 
1572	 0.503586394557371 
1573	 0.503610072005574 
1574	 0.503627739408976 
1575	 0.5036147674549 
1576	 0.503634392522372 
1577	 0.503663564860285 
1578	 0.503693314762728 
1579	 0.503748930373202 
1580	 0.503789790082167 
1581	 0.503815359373277 
1582	 0.503850968907202 
1583	 0.503897782552732 
1584	 0.503926813009753 
1585	 0.503959599373738 
1586	 0.503974398580616 
1587	 0.503971019395364 
1588	 0.50396077823645 
1589	 0.503924337199753 
1590	 0.503911460751841 
1591	 0.503900738655553 
1592	 0.503893297573397 
1593	 0.503908236306475 
1594	 0.503906694250702 
1595	 0.503898655426345 
1596	 0.50388365387632 
1597	 0.503862542865645 
1598	 0.50383806131894 
1599	 0.503796662575132 
1600	 0.503770184660636 
1601	 0.503731631554192 
1602	 0.503723298846376 
1603	 0.503756868853181 
1604	 0.503762954778378 
1605	 0.503775851535653 
1606	 0.503784047905549 
1607	 0.503778004528167 
1608	 0.503757952101528 
1609	 0.503762407548145 
1610	 0.503755300858332 
1611	 0.503746313924464 
1612	 0.503732096671475 
1613	 0.503710358889714 
1614	 0.503699753711625 
1615	 0.503643342768126 
1616	 0.503607928940028 
1617	 0.503602203094885 
1618	 0.503574309338812 
1619	 0.503569108081916 
1620	 0.503557956271458 
1621	 0.503539623264777 
1622	 0.503501890805694 
1623	 0.50347070904875 
1624	 0.503453171965146 
1625	 0.503405851036643 
1626	 0.503332466278001 
1627	 0.503282274235992 
1628	 0.503220779427969 
1629	 0.503184203162611 
1630	 0.503169390073653 
1631	 0.503147653989032 
1632	 0.503135942594246 
1633	 0.503115018106721 
1634	 0.503088572426944 
1635	 0.503074039336342 
1636	 0.503062876363027 
1637	 0.503047907746019 
1638	 0.503047340013285 
1639	 0.503020584165186 
1640	 0.502970201074907 
1641	 0.502941897378835 
1642	 0.502921570424089 
1643	 0.502878365305976 
1644	 0.502837385106179 
1645	 0.502783907606856 
1646	 0.50269189843229 
1647	 0.502639855940978 
1648	 0.50260817934081 
1649	 0.502570608369606 
1650	 0.502554673847996 
1651	 0.502508975870044 
1652	 0.502438980913777 
1653	 0.50239409481648 
1654	 0.502338355035461 
1655	 0.502308786296751 
1656	 0.502326398367044 
1657	 0.502289576370555 
1658	 0.502237897930757 
1659	 0.502181427641617 
1660	 0.502083276121108 
1661	 0.50202382207136 
1662	 0.501994522554781 
1663	 0.501933846343119 
1664	 0.50187333034632 
1665	 0.501800445093621 
1666	 0.501699331097736 
1667	 0.501616039859723 
1668	 0.501539646870484 
1669	 0.501458465547075 
1670	 0.501362911124474 
1671	 0.501301741606426 
1672	 0.501242436356548 
1673	 0.501217817659664 
1674	 0.501251355984799 
1675	 0.501239761494574 
1676	 0.501250764789936 
1677	 0.501203037314786 
1678	 0.501098136725988 
1679	 0.501017557770486 
1680	 0.500908297956293 
1681	 0.500822377652773 
1682	 0.500763788481046 
1683	 0.500680191790458 
1684	 0.50057392930226 
1685	 0.500501161360012 
1686	 0.50042926142113 
1687	 0.500372189607301 
1688	 0.500349951930599 
1689	 0.500311615025974 
1690	 0.500277730445629 
1691	 0.500227413298227 
1692	 0.500174147232598 
1693	 0.50010899234444 
1694	 0.500030791082544 
1695	 0.499942597319805 
1696	 0.499817408518219 
1697	 0.499749525666261 
1698	 0.499698742560154 
1699	 0.499652122803469 
1700	 0.499647274343511 
1701	 0.499629383309926 
1702	 0.499617971076572 
1703	 0.499568229313536 
1704	 0.499508480662021 
1705	 0.499449408034607 
1706	 0.499354943178823 
1707	 0.49927212587185 
1708	 0.499211032687429 
1709	 0.499131390860419 
1710	 0.499026166641798 
1711	 0.498933291962892 
1712	 0.4988434291434 
1713	 0.498756826579489 
1714	 0.49866952043139 
1715	 0.498590796671208 
1716	 0.498520263167819 
1717	 0.498447166133121 
1718	 0.498391799353786 
1719	 0.498293175621896 
1720	 0.498176274554798 
1721	 0.498065939168091 
1722	 0.497921074703199 
1723	 0.497802992901756 
1724	 0.4977085379944 
1725	 0.497595475278535 
1726	 0.497478724229402 
1727	 0.497362690750316 
1728	 0.497238875766774 
1729	 0.497117085965793 
1730	 0.496991785983642 
1731	 0.496878748173084 
1732	 0.496783980368059 
1733	 0.496661390255473 
1734	 0.496539875626903 
1735	 0.496396172764841 
1736	 0.496215972279136 
1737	 0.496058655883092 
1738	 0.495900074487546 
1739	 0.49574728345521 
1740	 0.495599641620959 
1741	 0.495465808109231 
1742	 0.495342703282092 
1743	 0.495209721029353 
1744	 0.495079761773641 
1745	 0.494956347496387 
1746	 0.494834768549919 
1747	 0.494719237053213 
1748	 0.49458928232439 
1749	 0.494432417504205 
1750	 0.494267614997868 
1751	 0.494108489288634 
1752	 0.493937977906251 
1753	 0.493770124462096 
1754	 0.493623797892391 
1755	 0.493484824702541 
1756	 0.493350689403207 
1757	 0.493253482583658 
1758	 0.49315918723822 
1759	 0.493038059751798 
1760	 0.492931255268241 
1761	 0.492822373616834 
1762	 0.492674648795616 
1763	 0.492540027191376 
1764	 0.492410760522437 
1765	 0.492240616240023 
1766	 0.49208366203225 
1767	 0.491952020414026 
1768	 0.491831084489525 
1769	 0.491741697572883 
1770	 0.491654528678138 
1771	 0.491522174376354 
1772	 0.491392409282644 
1773	 0.49128114439106 
1774	 0.491187733635655 
1775	 0.49113502124436 
1776	 0.491044738993859 
1777	 0.490927176495686 
1778	 0.490803649466796 
1779	 0.49065756965907 
1780	 0.490544792662413 
1781	 0.490450172349302 
1782	 0.490352377444901 
1783	 0.490319963138646 
1784	 0.490259889624831 
1785	 0.490197614695073 
1786	 0.490140850360157 
1787	 0.490066314451714 
1788	 0.490007378049119 
1789	 0.489982796573486 
1790	 0.48992651563969 
1791	 0.489849559076215 
1792	 0.489779708705917 
1793	 0.489697386440271 
1794	 0.489616040638227 
1795	 0.489536788671948 
1796	 0.489457487201853 
1797	 0.489369981284295 
1798	 0.489312471001188 
1799	 0.48928103971548 
1800	 0.489226613485031 
1801	 0.488897045557401 
1802	 0.489141868911476 
1803	 0.489389128111303 
1804	 0.489662962290752 
1805	 0.489878728884333 
1806	 0.490004597013 
1807	 0.490153941739655 
1808	 0.490271462062113 
1809	 0.490350563040673 
1810	 0.49040852462306 
1811	 0.49046359163884 
1812	 0.490485218676518 
1813	 0.490453884757075 
1814	 0.490408703052865 
1815	 0.490356464239855 
1816	 0.490290305777386 
1817	 0.490232940790522 
1818	 0.49015233391687 
1819	 0.490109791989891 
1820	 0.490098895362535 
1821	 0.490069252488968 
1822	 0.490008760560955 
1823	 0.489963424415354 
1824	 0.489921914476325 
1825	 0.489840660035325 
1826	 0.489724555551007 
1827	 0.489583990271982 
1828	 0.489437055912698 
1829	 0.489226226296782 
1830	 0.48905611200545 
1831	 0.488898635048167 
1832	 0.488765258669028 
1833	 0.488612273428665 
1834	 0.488423500919548 
1835	 0.488248785842136 
1836	 0.488089437107197 
1837	 0.487967848539182 
1838	 0.487854736365489 
1839	 0.487744358615867 
1840	 0.487649204000976 
1841	 0.48756808860934 
1842	 0.487481524361478 
1843	 0.487443280321756 
1844	 0.487473649063836 
1845	 0.48749195807762 
1846	 0.487518085151726 
1847	 0.487525607832796 
1848	 0.487448454190823 
1849	 0.487384528035579 
1850	 0.487329287249412 
1851	 0.487261693245993 
1852	 0.487182048260601 
1853	 0.487153738604468 
1854	 0.487112538800279 
1855	 0.487039789201836 
1856	 0.4869801944602 
1857	 0.486899933389041 
1858	 0.486775982442382 
1859	 0.486652422643662 
1860	 0.48647969120382 
1861	 0.48627057115293 
1862	 0.486016054312378 
1863	 0.485730718610661 
1864	 0.485385860097526 
1865	 0.484999680047005 
1866	 0.484542421339232 
1867	 0.484068092667375 
1868	 0.483560055357017 
1869	 0.483034284289535 
1870	 0.482539543922479 
1871	 0.482040010830657 
1872	 0.481536097900994 
1873	 0.481067458139241 
1874	 0.480584847604484 
1875	 0.480091096358174 
1876	 0.479599542591189 
1877	 0.479032171151059 
1878	 0.478354112674747 
1879	 0.477572820766282 
1880	 0.476663914343643 
1881	 0.475611275823152 
1882	 0.47446879709772 
1883	 0.473237617180573 
1884	 0.471854615252088 
1885	 0.470368250655696 
1886	 0.468786361140379 
1887	 0.467059386271665 
1888	 0.465249817824541 
1889	 0.463321009981981 
1890	 0.461278294863486 
1891	 0.459209173708204 
1892	 0.457024751937302 
1893	 0.454847119736868 
1894	 0.452633508895093 
1895	 0.450406130284844 
1896	 0.448116336327733 
1897	 0.445854473937963 
1898	 0.443611008205472 
1899	 0.441444958634094 
1900	 0.439420799911087 
1901	 0.437516205604991 
1902	 0.435733470129214 
1903	 0.434107929642821 
1904	 0.432560948882311 
1905	 0.431110814440416 
1906	 0.429787600738126 
1907	 0.428568338441363 
1908	 0.427445457374459 
1909	 0.426399040922255 
1910	 0.425380726440364 
1911	 0.42441250785072 
1912	 0.423468806177586 
1913	 0.422585491260831 
1914	 0.421734386089068 
1915	 0.420961382211897 
1916	 0.420236455423106 
1917	 0.419599652070387 
1918	 0.419039645175489 
1919	 0.418551669552728 
1920	 0.418138265914502 
1921	 0.417752159539903 
1922	 0.417398396975984 
1923	 0.417129991369412 
1924	 0.416896897534304 
1925	 0.416726500146071 
1926	 0.416577921263631 
1927	 0.416484540320795 
1928	 0.416395114862704 
1929	 0.416319942715712 
1930	 0.416290467367019 
1931	 0.416268969338071 
1932	 0.416244073572791 
1933	 0.416269475564944 
1934	 0.416328736199732 
1935	 0.416409754305376 
1936	 0.416535849246641 
1937	 0.416670062018068 
1938	 0.416812538051401 
1939	 0.416986793130282 
1940	 0.417189222291669 
1941	 0.417398169912985 
1942	 0.417646385892374 
1943	 0.417935518117743 
1944	 0.418239855238107 
1945	 0.418545647166169 
1946	 0.418843545761661 
1947	 0.419144318089491 
1948	 0.419438026423832 
1949	 0.419712018425725 
1950	 0.420008312968935 
1951	 0.420309398929487 
1952	 0.420624704945851 
1953	 0.42094041271454 
1954	 0.421288338934492 
1955	 0.421628233609817 
1956	 0.42194971622304 
1957	 0.422298515283131 
1958	 0.422644730965808 
1959	 0.423023353613139 
1960	 0.423443375178606 
1961	 0.423843988960036 
1962	 0.424245271894414 
1963	 0.424661371888901 
1964	 0.425069684811502 
1965	 0.425502908761711 
1966	 0.425955758532848 
1967	 0.426436441208081 
1968	 0.426899252652482 
1969	 0.427372604102306 
1970	 0.427819097538223 
1971	 0.428247010051482 
1972	 0.428683857531998 
1973	 0.429098021935617 
1974	 0.429540393553546 
1975	 0.43000968410625 
1976	 0.430461177959721 
1977	 0.430906109580278 
1978	 0.431395580169251 
1979	 0.431862305103864 
1980	 0.432336660177196 
1981	 0.432807674436628 
1982	 0.433276482830972 
1983	 0.433749438059996 
1984	 0.434228802287108 
1985	 0.43469627435442 
1986	 0.435173760968073 
1987	 0.435636390148505 
1988	 0.43607651325051 
1989	 0.436525977056181 
1990	 0.436986415628361 
1991	 0.437411010655561 
1992	 0.4378416181377 
1993	 0.438264225704917 
1994	 0.43869611675196 
1995	 0.439113977710786 
1996	 0.439557629371618 
1997	 0.440017228473396 
1998	 0.44048000948903 
1999	 0.440959276430764 
2000	 0.441433840761537 
2001	 0.441923769719218 
2002	 0.442392374881475 
2003	 0.442857366070283 
2004	 0.443336264408021 
2005	 0.443788688610448 
2006	 0.444219543051513 
2007	 0.444666460848891 
2008	 0.445097592046434 
2009	 0.445548929720246 
2010	 0.446026054984207 
2011	 0.446487570980849 
2012	 0.446947739915001 
2013	 0.447405147196009 
2014	 0.447857451263051 
2015	 0.448313933972582 
2016	 0.448761334702964 
2017	 0.449196282494797 
2018	 0.449602408301276 
2019	 0.449968199157498 
2020	 0.450358882960384 
2021	 0.450737277974335 
2022	 0.451121514896503 
2023	 0.45151828048412 
2024	 0.451910657059104 
2025	 0.452298856066778 
2026	 0.452681969822571 
2027	 0.45306396026771 
2028	 0.453453670183311 
2029	 0.453826103173375 
2030	 0.454195803556045 
2031	 0.45453374981369 
2032	 0.454857334808408 
2033	 0.455162523065525 
2034	 0.455417702000029 
2035	 0.455712601275562 
2036	 0.456008523803512 
2037	 0.456314147877341 
2038	 0.456650772375107 
2039	 0.456963985526611 
2040	 0.457261575950354 
2041	 0.45757901752075 
2042	 0.457874700088566 
2043	 0.458149471066444 
2044	 0.45841742887079 
2045	 0.458668461504002 
2046	 0.458921787100594 
2047	 0.459182766669611 
2048	 0.459406904180347 
2049	 0.459606276557258 
2050	 0.459811341327875 
2051	 0.459974714890014 
2052	 0.460168329853775 
2053	 0.460376933373975 
2054	 0.460593722303822 
2055	 0.460822478184045 
2056	 0.461059439379533 
2057	 0.461290511811921 
2058	 0.461545320057861 
2059	 0.461757371082443 
2060	 0.461958126206669 
2061	 0.462130820785107 
2062	 0.462269169989315 
2063	 0.462405184152187 
2064	 0.462514486960645 
2065	 0.462632658170215 
2066	 0.46272602022615 
2067	 0.462850157503735 
2068	 0.462978919917658 
2069	 0.46313765578595 
2070	 0.463286275040722 
2071	 0.46345484182393 
2072	 0.463609157979656 
2073	 0.463766161515433 
2074	 0.463899320397504 
2075	 0.464024941137576 
2076	 0.464143841592013 
2077	 0.464223599317202 
2078	 0.464338984069265 
2079	 0.464473072787059 
2080	 0.464603331228964 
2081	 0.464762372430935 
2082	 0.464892217001616 
2083	 0.465017959016264 
2084	 0.465115864260311 
2085	 0.465211574889598 
2086	 0.465289333269674 
2087	 0.465364040911806 
2088	 0.465418037886273 
2089	 0.465500129448003 
2090	 0.465574933721223 
2091	 0.465673047398551 
2092	 0.465819340763697 
2093	 0.465923844407429 
2094	 0.466011509346888 
2095	 0.466107550498552 
2096	 0.466209483235567 
2097	 0.466280801871839 
2098	 0.46633005330618 
2099	 0.46640103290779 
2100	 0.4664441522905 
2101	 0.46643493502343 
2102	 0.466487983598438 
2103	 0.466547931727682 
2104	 0.466647268248378 
2105	 0.466789723960716 
2106	 0.466924706005959 
2107	 0.467090565003121 
2108	 0.467245672145152 
2109	 0.467392447006724 
2110	 0.467553189152028 
2111	 0.467723799739288 
2112	 0.467900261949138 
2113	 0.468104965652607 
2114	 0.468282562469605 
2115	 0.4684510879816 
2116	 0.468607346938206 
2117	 0.468778080729136 
2118	 0.468930022292957 
2119	 0.469113557689662 
2120	 0.469337606333229 
2121	 0.46952320399187 
2122	 0.469698517789131 
2123	 0.469876976856494 
2124	 0.470041787228993 
2125	 0.470210884673811 
2126	 0.470409352371976 
2127	 0.47056474379655 
2128	 0.47070482884202 
2129	 0.470819434518498 
2130	 0.470909082418322 
2131	 0.470975423896426 
2132	 0.471005272320404 
2133	 0.470996484240683 
2134	 0.470996122487271 
2135	 0.470961637758575 
2136	 0.470937422691749 
2137	 0.470956783135074 
2138	 0.470882301934787 
2139	 0.470777970103173 
2140	 0.470620090269705 
2141	 0.470369920081894 
2142	 0.470138387799209 
2143	 0.46990020940298 
2144	 0.469615956919481 
2145	 0.469285829354078 
2146	 0.468965008869134 
2147	 0.468614472507139 
2148	 0.468254567012496 
2149	 0.467891562220921 
2150	 0.467569000257156 
2151	 0.467151092152085 
2152	 0.466704579718327 
2153	 0.466185723230936 
2154	 0.465587953901371 
2155	 0.464981742772467 
2156	 0.464327036157906 
2157	 0.463647046964429 
2158	 0.462919505229779 
2159	 0.462204492219957 
2160	 0.461491319212071 
2161	 0.460723609218965 
2162	 0.459973544121381 
2163	 0.459144258995237 
2164	 0.458243398725778 
2165	 0.457280169351022 
2166	 0.456309724512667 
2167	 0.455293676034371 
2168	 0.454267124549042 
2169	 0.453226285285248 
2170	 0.452140313314474 
2171	 0.451032765029164 
2172	 0.449868867986663 
2173	 0.448671654833872 
2174	 0.447407784214258 
2175	 0.446068236479697 
2176	 0.444716314572977 
2177	 0.443304308160513 
2178	 0.441882810038575 
2179	 0.440451904151631 
2180	 0.438980187740777 
2181	 0.437485341495969 
2182	 0.435941595736425 
2183	 0.434332502603916 
2184	 0.432707346359554 
2185	 0.431099578438826 
2186	 0.429435040294 
2187	 0.427860665971497 
2188	 0.426317128808592 
2189	 0.424818345015404 
2190	 0.423310991707273 
2191	 0.421952275485287 
2192	 0.420637296747086 
2193	 0.419475414314619 
2194	 0.418438288980736 
2195	 0.41752218898515 
2196	 0.416711014010477 
2197	 0.416047674641011 
2198	 0.415529988722441 
2199	 0.415135370657812 
2200	 0.414882566601946 
2201	 0.414754134900753 
2202	 0.41477854369205 
2203	 0.414879887563127 
2204	 0.415137541443781 
2205	 0.415542587274425 
2206	 0.416039630263409 
2207	 0.416650699559225 
2208	 0.417405657490751 
2209	 0.418295048762011 
2210	 0.419282937994412 
2211	 0.420471781155999 
2212	 0.421623792143851 
2213	 0.42288696551492 
2214	 0.424089653345478 
2215	 0.425320807606055 
2216	 0.426502446683464 
2217	 0.427681536489874 
2218	 0.428793443970173 
2219	 0.429884430124191 
2220	 0.430898975287271 
2221	 0.431850249788742 
2222	 0.432737115207095 
2223	 0.433598466036289 
2224	 0.434337675154452 
2225	 0.435010262216648 
2226	 0.435605447765624 
2227	 0.436144365948216 
2228	 0.43657740567885 
2229	 0.437007189224342 
2230	 0.43739154992951 
2231	 0.437746393161216 
2232	 0.438068488427605 
2233	 0.438342089823248 
2234	 0.438561770706859 
2235	 0.438768763818795 
2236	 0.438946470525771 
2237	 0.439081661463251 
2238	 0.439176361061153 
2239	 0.439258914063662 
2240	 0.439293401708297 
2241	 0.43932063827823 
2242	 0.439350924023974 
2243	 0.439349648239657 
2244	 0.439342638788713 
2245	 0.43926637439838 
2246	 0.439161842838991 
2247	 0.439022479898435 
2248	 0.438893719138576 
2249	 0.438728758499987 
2250	 0.438596685863588 
2251	 0.438485118137648 
2252	 0.438344787217835 
2253	 0.438171570032141 
2254	 0.438054365119992 
2255	 0.437952581290501 
2256	 0.437861558362073 
2257	 0.437831179079659 
2258	 0.437745531263425 
2259	 0.437606592317277 
2260	 0.437523255206884 
2261	 0.437427245886254 
2262	 0.437382338109039 
2263	 0.437370637488022 
2264	 0.437408838851053 
2265	 0.437504649683836 
2266	 0.437605650469288 
2267	 0.437773715432747 
2268	 0.437920485522747 
2269	 0.438086031561138 
2270	 0.438206522752856 
2271	 0.438343718107415 
2272	 0.438449097388738 
2273	 0.438519816608918 
2274	 0.43863144693394 
2275	 0.438719856099972 
2276	 0.438792488113954 
2277	 0.438872281117076 
2278	 0.438960200149535 
2279	 0.43902598429909 
2280	 0.43905959301722 
2281	 0.439156306935046 
2282	 0.43928341499014 
2283	 0.439380152153495 
2284	 0.439545623444515 
2285	 0.439603194615208 
2286	 0.439573130023869 
2287	 0.439559303704608 
2288	 0.439476385427798 
2289	 0.439453791231025 
2290	 0.439484819484463 
2291	 0.439462306371309 
2292	 0.439444360282218 
2293	 0.439397394142141 
2294	 0.439290187981786 
2295	 0.439192098676946 
2296	 0.439094036398537 
2297	 0.43900495596391 
2298	 0.438839279751775 
2299	 0.438672045516917 
2300	 0.438483414661575 
2301	 0.438278429473047 
2302	 0.438115113267677 
2303	 0.437924440399212 
2304	 0.437640825507829 
2305	 0.43733725762645 
2306	 0.437051144561827 
2307	 0.436689514110072 
2308	 0.43644903700351 
2309	 0.436303697472401 
2310	 0.436088931309105 
2311	 0.435932521562394 
2312	 0.435683478337235 
2313	 0.435367033340479 
2314	 0.435041474614363 
2315	 0.434653478624898 
2316	 0.434284899450487 
2317	 0.433892570815772 
2318	 0.433531157432101 
2319	 0.433200838137422 
2320	 0.432846855776608 
2321	 0.432478202404241 
2322	 0.432129141993232 
2323	 0.431788714804355 
2324	 0.431424576480445 
2325	 0.431069790103918 
2326	 0.430705619391754 
2327	 0.430289318800014 
2328	 0.429933268808944 
2329	 0.429575183028394 
2330	 0.429212754987579 
2331	 0.428886338012792 
2332	 0.428500462889826 
2333	 0.428093657126861 
2334	 0.427694632377479 
2335	 0.427292834470895 
2336	 0.426838485444903 
2337	 0.426381207021241 
2338	 0.425953013567158 
2339	 0.425529127273178 
2340	 0.425186621682454 
2341	 0.424833985265884 
2342	 0.424461141658305 
2343	 0.424164703737884 
2344	 0.423835761264365 
2345	 0.423549857366701 
2346	 0.423354603020214 
2347	 0.423142156524341 
2348	 0.422906439551219 
2349	 0.422705461000206 
2350	 0.422537171190402 
2351	 0.422376166765798 
2352	 0.422217999911093 
2353	 0.422099630558073 
2354	 0.422018449571371 
2355	 0.42195050175928 
2356	 0.421894188922103 
2357	 0.421870316270287 
2358	 0.421900974066937 
2359	 0.421935229536223 
2360	 0.422008097039957 
2361	 0.422044362516069 
2362	 0.422098536919888 
2363	 0.42208807145856 
2364	 0.422023145182786 
2365	 0.421945907421283 
2366	 0.421859651562587 
2367	 0.421703355289158 
2368	 0.421473571869062 
2369	 0.421294694145768 
2370	 0.421119002492774 
2371	 0.420851552259077 
2372	 0.420635034084318 
2373	 0.420429073697491 
2374	 0.420168762322851 
2375	 0.419861263638458 
2376	 0.419537227067135 
2377	 0.419213347943481 
2378	 0.418855016785003 
2379	 0.41862499070399 
2380	 0.418463640804147 
2381	 0.418261869187337 
2382	 0.418040133890073 
2383	 0.417718275542148 
2384	 0.417265407961838 
2385	 0.416785028447028 
2386	 0.416427445765481 
2387	 0.416074251519491 
2388	 0.415792035385102 
2389	 0.415609010627324 
2390	 0.415351261927202 
2391	 0.415059583613285 
2392	 0.41476037155919 
2393	 0.41441226703876 
2394	 0.41403162955791 
2395	 0.413728223083601 
2396	 0.413389283106723 
2397	 0.41298534127421 
2398	 0.412649083330386 
2399	 0.412209940968914 
2400	 0.411697227718627 
2401	 0.411294783043542 
2402	 0.410821097470758 
2403	 0.410238626339436 
2404	 0.409595502743852 
2405	 0.408890278772444 
2406	 0.408243560066519 
2407	 0.407607734900062 
2408	 0.407000499790555 
2409	 0.406433155631116 
2410	 0.405864316223552 
2411	 0.405182690424795 
2412	 0.40444542443969 
2413	 0.403800572771567 
2414	 0.40306714036934 
2415	 0.402245777878862 
2416	 0.401505789703722 
2417	 0.400833062164432 
2418	 0.400165981550622 
2419	 0.399554101486041 
2420	 0.398851008134642 
2421	 0.398076893930092 
2422	 0.397409891891359 
2423	 0.396715429518804 
2424	 0.396090402769676 
2425	 0.395638957767732 
2426	 0.395044432223 
2427	 0.394382543726236 
2428	 0.393701026928635 
2429	 0.392994802176375 
2430	 0.392315970886279 
2431	 0.391543743111416 
2432	 0.390904533840633 
2433	 0.390360154801577 
2434	 0.389772515915149 
2435	 0.38924118203527 
2436	 0.388736984973941 
2437	 0.388261207121584 
2438	 0.387803326936392 
2439	 0.387320552477646 
2440	 0.386874627381489 
2441	 0.38645447916443 
2442	 0.385990691200609 
2443	 0.385577297357948 
2444	 0.385225728161859 
2445	 0.384916635487303 
2446	 0.384546236322131 
2447	 0.384155501565647 
2448	 0.383781568383097 
2449	 0.383301758766072 
2450	 0.382888961307679 
2451	 0.382626676194064 
2452	 0.382283022043089 
2453	 0.381923628073287 
2454	 0.381578801232834 
2455	 0.381147029729527 
2456	 0.380871109223401 
2457	 0.380687379078902 
2458	 0.380411118866896 
2459	 0.380247829942869 
2460	 0.379919322371159 
2461	 0.379338346893022 
2462	 0.37901068685299 
2463	 0.378847373696856 
2464	 0.378543320231008 
2465	 0.378288297770303 
2466	 0.378067647335393 
2467	 0.377665046308262 
2468	 0.377359306072327 
2469	 0.377259198258074 
2470	 0.376885107451741 
2471	 0.376619866499515 
2472	 0.37633752885064 
2473	 0.375885072756932 
2474	 0.375416304925069 
2475	 0.375088498528193 
2476	 0.374812447696142 
2477	 0.374505584752958 
2478	 0.374227249035967 
2479	 0.373743307881578 
2480	 0.373097623156301 
2481	 0.372716211483706 
2482	 0.372565934575511 
2483	 0.372330244969607 
2484	 0.372221898483225 
2485	 0.37209995192515 
2486	 0.371666576563543 
2487	 0.371350114087847 
2488	 0.371035052705417 
2489	 0.370601479204017 
2490	 0.370308366934012 
2491	 0.370056170748121 
2492	 0.369752021863362 
2493	 0.369390245661576 
2494	 0.36893846481771 
2495	 0.368651085114249 
2496	 0.368618079985343 
2497	 0.368537062696147 
2498	 0.368432206973172 
2499	 0.368197144606338 
2500	 0.36778411582435 
