Wavelength	LMW_1600006.asd
350	 8.61373042430728E-02 
351	 9.19922697900388E-02 
352	 8.59933968921828E-02 
353	 7.68438675492936E-02 
354	 0.088670672273917 
355	 8.95506412898248E-02 
356	 8.31543496692632E-02 
357	 8.18526168770634E-02 
358	 9.50989220498404E-02 
359	 9.36962956084625E-02 
360	 8.44960637825617E-02 
361	 9.45780170789945E-02 
362	 9.78907596048766E-02 
363	 9.51302705461281E-02 
364	 9.16007835412087E-02 
365	 9.42646772422961E-02 
366	 9.61775794719574E-02 
367	 9.67739247831958E-02 
368	 9.70588011982793E-02 
369	 9.64962862738852E-02 
370	 9.70464917223314E-02 
371	 9.92446160314969E-02 
372	 0.102281420222507 
373	 0.103083423141273 
374	 0.103670141508804 
375	 0.105538830339841 
376	 0.108247784428663 
377	 0.109379266075042 
378	 0.108705124972697 
379	 0.107629179364462 
380	 0.110840452323476 
381	 0.113278826968333 
382	 0.114632174369637 
383	 0.117945912399536 
384	 0.117434195992829 
385	 0.117938015905569 
386	 0.12172815867883 
387	 0.123382437437638 
388	 0.126066553225878 
389	 0.129020687519986 
390	 0.130731289672784 
391	 0.132065961365306 
392	 0.133537427050347 
393	 0.135862660035066 
394	 0.13971173157634 
395	 0.141988988755866 
396	 0.143251510490174 
397	 0.144643746163429 
398	 0.147174827390355 
399	 0.149609814004995 
400	 0.152336590559995 
401	 0.155831654971774 
402	 0.157908661340877 
403	 0.159560393736806 
404	 0.161043203796373 
405	 0.161776795697782 
406	 0.165104323692518 
407	 0.168905857850396 
408	 0.170901958443996 
409	 0.170862555504502 
410	 0.172067094533229 
411	 0.174541395020383 
412	 0.176740220178741 
413	 0.17855657679335 
414	 0.179516822286172 
415	 0.179919492881631 
416	 0.181011417848225 
417	 0.181582799708532 
418	 0.182544661912309 
419	 0.184402621197183 
420	 0.184669983445121 
421	 0.184350756100078 
422	 0.184560066348232 
423	 0.186103446738411 
424	 0.186144588599061 
425	 0.185712274148377 
426	 0.185713729403687 
427	 0.185926448575172 
428	 0.185916783719673 
429	 0.185747759385072 
430	 0.185690591219137 
431	 0.18613028087918 
432	 0.186354221990971 
433	 0.1862643686116 
434	 0.186383020010935 
435	 0.186672238370349 
436	 0.187207961559137 
437	 0.187931489388749 
438	 0.188320638850929 
439	 0.189488932523775 
440	 0.191090152970461 
441	 0.192222872840056 
442	 0.194011449831027 
443	 0.195858169517042 
444	 0.197411260058054 
445	 0.198921388800267 
446	 0.200578401857858 
447	 0.202194082209396 
448	 0.203644373337947 
449	 0.205628398095048 
450	 0.207456652223912 
451	 0.209087474470693 
452	 0.211029395955531 
453	 0.212753186000169 
454	 0.214081715585929 
455	 0.215169944803114 
456	 0.216853370939798 
457	 0.218272117483041 
458	 0.219412834025061 
459	 0.220627548133958 
460	 0.221879106416735 
461	 0.222798959364874 
462	 0.223502111805198 
463	 0.224812809141779 
464	 0.225841953672678 
465	 0.226703287771443 
466	 0.227692709072743 
467	 0.228677069605329 
468	 0.229432393899965 
469	 0.230075705501652 
470	 0.230972934686866 
471	 0.23185974224007 
472	 0.232701655497606 
473	 0.233498090057123 
474	 0.234207255523091 
475	 0.235093834742631 
476	 0.235926230480914 
477	 0.236375011441072 
478	 0.237115010720162 
479	 0.238023060714952 
480	 0.238864770849619 
481	 0.23934971327525 
482	 0.240107197403494 
483	 0.241045081914769 
484	 0.241930055321489 
485	 0.242890275529075 
486	 0.243730377518907 
487	 0.244387922502167 
488	 0.244944367490908 
489	 0.245801012323771 
490	 0.246838208722333 
491	 0.24784946421652 
492	 0.248682607678863 
493	 0.249355162961044 
494	 0.250043321763716 
495	 0.250965216167854 
496	 0.252005862617313 
497	 0.25300481395014 
498	 0.253888909073483 
499	 0.25471314142963 
500	 0.255584749583615 
501	 0.256435767216441 
502	 0.257186273501995 
503	 0.257954225804458 
504	 0.258767932788807 
505	 0.259644138715356 
506	 0.260586100332647 
507	 0.26143892375433 
508	 0.262271500213046 
509	 0.263148172030333 
510	 0.264005741572848 
511	 0.264811567083563 
512	 0.265586175110401 
513	 0.266382449874922 
514	 0.267243018870107 
515	 0.268072449639275 
516	 0.268843482027474 
517	 0.269674791757387 
518	 0.270453382100695 
519	 0.27120425733369 
520	 0.271997125082106 
521	 0.272900043688849 
522	 0.273690180696843 
523	 0.274410218367871 
524	 0.27538380823141 
525	 0.276111622285553 
526	 0.27679694478567 
527	 0.277657431755198 
528	 0.278446143492345 
529	 0.279152866859568 
530	 0.279916221047827 
531	 0.280929666258805 
532	 0.281798004916705 
533	 0.282596949749675 
534	 0.283417122069713 
535	 0.284224600548784 
536	 0.285068599551244 
537	 0.285936897377895 
538	 0.286787673602731 
539	 0.287562808886661 
540	 0.288336846863872 
541	 0.289152666374291 
542	 0.289991432457594 
543	 0.290972124406229 
544	 0.291874742921418 
545	 0.292546327860863 
546	 0.293468553539159 
547	 0.294498336172623 
548	 0.295515981110098 
549	 0.296447979277444 
550	 0.297425600110333 
551	 0.298365449754926 
552	 0.299222245954527 
553	 0.300150092554416 
554	 0.301074192488408 
555	 0.301981406484889 
556	 0.302885463951973 
557	 0.303765791106587 
558	 0.30454758718636 
559	 0.305263749634567 
560	 0.306141882942991 
561	 0.307062237812853 
562	 0.308002512473515 
563	 0.308960829988877 
564	 0.309871874256067 
565	 0.310874723823577 
566	 0.31206089707328 
567	 0.313449981118715 
568	 0.314661625813288 
569	 0.315622257788673 
570	 0.316357048313444 
571	 0.31686240977536 
572	 0.317508995899205 
573	 0.31840321617988 
574	 0.319421398132529 
575	 0.320221205845965 
576	 0.3208453749537 
577	 0.321419769123869 
578	 0.322066000851759 
579	 0.322938820575037 
580	 0.324038605848882 
581	 0.325278304779383 
582	 0.326627185577724 
583	 0.327785286937077 
584	 0.328554920428603 
585	 0.328899944817956 
586	 0.329246177675914 
587	 0.329586526995962 
588	 0.329855736510352 
589	 0.330387248034297 
590	 0.330842882466186 
591	 0.331130154632132 
592	 0.33140509389457 
593	 0.331687127741449 
594	 0.332111087097142 
595	 0.332802005912585 
596	 0.333848679213217 
597	 0.335004588464787 
598	 0.336199088181457 
599	 0.337435383973289 
600	 0.338419839319618 
601	 0.339155401057029 
602	 0.339728828411003 
603	 0.340306765186116 
604	 0.340806218227639 
605	 0.34127847522936 
606	 0.341817724405482 
607	 0.342504463664985 
608	 0.343139981489585 
609	 0.343681038463556 
610	 0.34428048334052 
611	 0.344944296614649 
612	 0.345696231347659 
613	 0.346506653666454 
614	 0.347196553396498 
615	 0.347805267964509 
616	 0.348377847170086 
617	 0.348958555730163 
618	 0.349572309637665 
619	 0.350085827620121 
620	 0.350498872042974 
621	 0.351158727788799 
622	 0.351778680611183 
623	 0.352327538052619 
624	 0.352870283845255 
625	 0.353394470528145 
626	 0.3539183027773 
627	 0.354450229113153 
628	 0.354982738208656 
629	 0.355477760430091 
630	 0.355941861742769 
631	 0.356403484975561 
632	 0.35690951684017 
633	 0.357462434012506 
634	 0.357987741002443 
635	 0.358375365501613 
636	 0.358964912453781 
637	 0.35958012162877 
638	 0.360030858402264 
639	 0.360291586108668 
640	 0.360714738751696 
641	 0.361252793383579 
642	 0.36169345036002 
643	 0.362213567316585 
644	 0.362696561092003 
645	 0.363083853290084 
646	 0.363431942303762 
647	 0.363893623959601 
648	 0.364403891589989 
649	 0.364859981454195 
650	 0.365320789024538 
651	 0.365753173072456 
652	 0.366158183752123 
653	 0.366572063831195 
654	 0.367075293657614 
655	 0.36753749719953 
656	 0.367888514554782 
657	 0.368295518139684 
658	 0.368762656013792 
659	 0.369260823725773 
660	 0.369731108194515 
661	 0.370087171576859 
662	 0.370412257220709 
663	 0.370793391017699 
664	 0.371297647430392 
665	 0.371842554879275 
666	 0.372287999575193 
667	 0.372571158853353 
668	 0.372984186814072 
669	 0.373465347182322 
670	 0.373937767127935 
671	 0.374326906967974 
672	 0.374690286515496 
673	 0.375147785828136 
674	 0.375704120070024 
675	 0.376079020230858 
676	 0.376356165228283 
677	 0.37664230657804 
678	 0.37704636528819 
679	 0.377555301118431 
680	 0.378012421238457 
681	 0.378367254013523 
682	 0.378722376044758 
683	 0.379082101727918 
684	 0.379472044807354 
685	 0.379901272709124 
686	 0.380320029724155 
687	 0.38072093839811 
688	 0.38108653917306 
689	 0.381402080313132 
690	 0.381763098410175 
691	 0.382168683338939 
692	 0.382585189182016 
693	 0.382951577646672 
694	 0.383247646668696 
695	 0.383535992923368 
696	 0.383896088397742 
697	 0.384298055014622 
698	 0.384718941955019 
699	 0.385118978944181 
700	 0.385444888829132 
701	 0.385710732599019 
702	 0.385979754418232 
703	 0.386302246996806 
704	 0.38667353463004 
705	 0.386988824929863 
706	 0.387251259035657 
707	 0.387531485046899 
708	 0.387929927257206 
709	 0.388244206317294 
710	 0.388440774030516 
711	 0.388775182723781 
712	 0.389093975856548 
713	 0.389346533564263 
714	 0.389538366321107 
715	 0.389769207946035 
716	 0.390019105113631 
717	 0.390297327436475 
718	 0.390619653261526 
719	 0.390813620605942 
720	 0.390969833810347 
721	 0.391154252967539 
722	 0.391296097448376 
723	 0.391556042863407 
724	 0.391918283586086 
725	 0.392272880668306 
726	 0.392411138419822 
727	 0.39249030598224 
728	 0.392591595887688 
729	 0.392707088659065 
730	 0.392887297597949 
731	 0.393086911298573 
732	 0.393274701314285 
733	 0.393507598346886 
734	 0.39366801324875 
735	 0.393755454452877 
736	 0.393831542606264 
737	 0.393982031478963 
738	 0.394170071190009 
739	 0.394343249366439 
740	 0.394448061293173 
741	 0.394559471896485 
742	 0.394660896193266 
743	 0.394732801648553 
744	 0.394794608156501 
745	 0.394917974277505 
746	 0.395045038815387 
747	 0.39507932191389 
748	 0.39514556998565 
749	 0.395184454984651 
750	 0.3951971412269 
751	 0.395274032758899 
752	 0.395348096528103 
753	 0.395451772522729 
754	 0.395590290380834 
755	 0.395628896885556 
756	 0.395611854150976 
757	 0.395601611440175 
758	 0.395657353515471 
759	 0.395742755572181 
760	 0.395730282628027 
761	 0.395641905982796 
762	 0.39568908085331 
763	 0.395699705226353 
764	 0.395659973803626 
765	 0.395618539130813 
766	 0.395703177287125 
767	 0.395735509814998 
768	 0.395696571374146 
769	 0.395655216506133 
770	 0.395651236129981 
771	 0.395638929293257 
772	 0.395596901692686 
773	 0.395543265584102 
774	 0.395448510279289 
775	 0.395387961222025 
776	 0.395404363317691 
777	 0.395399573781864 
778	 0.395331176406413 
779	 0.395254948883174 
780	 0.395249294314337 
781	 0.395203872044998 
782	 0.395139968168665 
783	 0.395057269313025 
784	 0.394928004106316 
785	 0.394869704030233 
786	 0.394821593291141 
787	 0.394743420276261 
788	 0.394736875549343 
789	 0.394714488756367 
790	 0.394638963365108 
791	 0.394492002842015 
792	 0.394222852817464 
793	 0.394095471109893 
794	 0.394144774516439 
795	 0.394186201350992 
796	 0.39410424347787 
797	 0.39397453973234 
798	 0.393863656601736 
799	 0.393756054862574 
800	 0.39360026722538 
801	 0.393437457198768 
802	 0.393335713176786 
803	 0.393354813269296 
804	 0.393303130039129 
805	 0.393183098391186 
806	 0.39311949399184 
807	 0.393101714357497 
808	 0.392995370183546 
809	 0.392790601562911 
810	 0.392653584742407 
811	 0.392681318630292 
812	 0.392605545905995 
813	 0.392298571951798 
814	 0.39223852500551 
815	 0.392180508039645 
816	 0.39211464758949 
817	 0.392093553153719 
818	 0.391985235004563 
819	 0.391913305071892 
820	 0.391855723123104 
821	 0.391672594612754 
822	 0.391504915198092 
823	 0.391371706916736 
824	 0.39125663752815 
825	 0.391116345066187 
826	 0.39106157593733 
827	 0.390997097976712 
828	 0.39085336311798 
829	 0.390843299208317 
830	 0.390697282542859 
831	 0.390544355823594 
832	 0.390621924087303 
833	 0.39054437595242 
834	 0.390401199585585 
835	 0.390235900480966 
836	 0.39003853612699 
837	 0.390125783269003 
838	 0.390219781883922 
839	 0.390110348873685 
840	 0.389874892719856 
841	 0.389706765230036 
842	 0.389603687175825 
843	 0.389512959726351 
844	 0.389439475718428 
845	 0.389335244626426 
846	 0.389240301112905 
847	 0.389202889780678 
848	 0.389062488969426 
849	 0.388931204988134 
850	 0.388882699980349 
851	 0.388920765725792 
852	 0.388862771592956 
853	 0.388786337321284 
854	 0.388705331818797 
855	 0.388490654265936 
856	 0.388532542272655 
857	 0.388623886401168 
858	 0.388521631427824 
859	 0.388245431366796 
860	 0.388165185965671 
861	 0.388260385895803 
862	 0.388339949445712 
863	 0.388226970872462 
864	 0.388072790383303 
865	 0.388040882093326 
866	 0.388208949032065 
867	 0.38812125559194 
868	 0.387929408957275 
869	 0.387844916385716 
870	 0.388030219782779 
871	 0.388033121497771 
872	 0.388023982046765 
873	 0.388085782499503 
874	 0.387994282690105 
875	 0.38784650239979 
876	 0.387728927775642 
877	 0.387705270462686 
878	 0.387793301068112 
879	 0.387861505304952 
880	 0.387853507405362 
881	 0.387786013127971 
882	 0.387810383967804 
883	 0.387907071597641 
884	 0.388000334409823 
885	 0.388011959805461 
886	 0.388042297517038 
887	 0.38805624927839 
888	 0.388095236261524 
889	 0.388244763211844 
890	 0.388304650040469 
891	 0.388372696613298 
892	 0.388416017063741 
893	 0.388222007536621 
894	 0.388237794527771 
895	 0.388382956430285 
896	 0.388528805557725 
897	 0.388666336304709 
898	 0.388655544931951 
899	 0.388706654806242 
900	 0.388929712873794 
901	 0.38891939744968 
902	 0.388897752859862 
903	 0.388969157922047 
904	 0.389141836189446 
905	 0.389229079188568 
906	 0.389306808980756 
907	 0.389379900556947 
908	 0.389430275383517 
909	 0.389501174892402 
910	 0.389614252512739 
911	 0.389779125439651 
912	 0.389973927763225 
913	 0.390036568434946 
914	 0.390121505535457 
915	 0.390287217069998 
916	 0.390477494923159 
917	 0.390699387699761 
918	 0.39074136444461 
919	 0.390650777013012 
920	 0.390774339218407 
921	 0.391030548704468 
922	 0.391304926547732 
923	 0.391506886036976 
924	 0.391609467253123 
925	 0.391743557408598 
926	 0.391868541787383 
927	 0.391991266978954 
928	 0.392270252143864 
929	 0.392419721389664 
930	 0.392563089887127 
931	 0.392801596661535 
932	 0.392934000395391 
933	 0.393133401801644 
934	 0.393307157397547 
935	 0.393375770060236 
936	 0.393519523619857 
937	 0.393678561253021 
938	 0.393883333253613 
939	 0.394171953214719 
940	 0.394538397055667 
941	 0.394728953208974 
942	 0.394891717819436 
943	 0.395211887499122 
944	 0.39533272744813 
945	 0.39539616384176 
946	 0.395564534479202 
947	 0.395881536888491 
948	 0.395873398316943 
949	 0.395998908375166 
950	 0.396280189483261 
951	 0.396514637678963 
952	 0.396716463034726 
953	 0.396953705424033 
954	 0.397194946417146 
955	 0.39736761810105 
956	 0.397500892873987 
957	 0.397800384871958 
958	 0.398135433334785 
959	 0.398241265920368 
960	 0.398352159313092 
961	 0.398665688169248 
962	 0.399063693579484 
963	 0.399274292615377 
964	 0.399421049886421 
965	 0.399649016853162 
966	 0.399962643788038 
967	 0.400266250596222 
968	 0.400523841789493 
969	 0.400802167563721 
970	 0.40112328602507 
971	 0.401464436284694 
972	 0.401796898393082 
973	 0.402065109456238 
974	 0.402292875698881 
975	 0.402574937669781 
976	 0.403077774311631 
977	 0.40345648521532 
978	 0.403650613454705 
979	 0.403810993205452 
980	 0.403946576559366 
981	 0.404059970736838 
982	 0.404256506592101 
983	 0.40466175458025 
984	 0.405195936519764 
985	 0.405677171424164 
986	 0.40598686258754 
987	 0.406135803557208 
988	 0.40645272586051 
989	 0.406778854517509 
990	 0.407047445287915 
991	 0.407290498464101 
992	 0.407685607935278 
993	 0.407934818438547 
994	 0.408157422759022 
995	 0.408549459592808 
996	 0.408755056002607 
997	 0.409044208589315 
998	 0.409444744428904 
999	 0.4098684303979 
1000	 0.410226373553242 
1001	 0.408066939402431 
1002	 0.408265837172158 
1003	 0.40850696561731 
1004	 0.408724057938307 
1005	 0.409010458361854 
1006	 0.40923532697107 
1007	 0.409404406685247 
1008	 0.409562376872961 
1009	 0.409802359772592 
1010	 0.410004714265085 
1011	 0.410238911287606 
1012	 0.410399814214869 
1013	 0.410480206115651 
1014	 0.410636059557897 
1015	 0.410793983476939 
1016	 0.410973999361028 
1017	 0.411161361924053 
1018	 0.411383484775432 
1019	 0.411591293031089 
1020	 0.41182222410747 
1021	 0.412030419619643 
1022	 0.4122602214219 
1023	 0.412430594778157 
1024	 0.412509164494237 
1025	 0.412722858044554 
1026	 0.412990126167646 
1027	 0.413244835535634 
1028	 0.413554420821641 
1029	 0.413779058372977 
1030	 0.413934071936675 
1031	 0.414098651564352 
1032	 0.414231614954672 
1033	 0.414397340870863 
1034	 0.41454769648531 
1035	 0.414709558974066 
1036	 0.414967508500379 
1037	 0.415163897825996 
1038	 0.415356041571655 
1039	 0.415574305850663 
1040	 0.41574645298235 
1041	 0.415908821029399 
1042	 0.416087142451298 
1043	 0.416289281180292 
1044	 0.416486959430464 
1045	 0.416684528557463 
1046	 0.416882307522991 
1047	 0.417063269599467 
1048	 0.417254243871583 
1049	 0.41746689416785 
1050	 0.417670907360437 
1051	 0.41788143203837 
1052	 0.41806854906447 
1053	 0.41826280960312 
1054	 0.418442823393775 
1055	 0.418612704638149 
1056	 0.418824361319777 
1057	 0.419015322822683 
1058	 0.419163617796143 
1059	 0.419370179892911 
1060	 0.41963290197301 
1061	 0.419817709773031 
1062	 0.41999969053626 
1063	 0.420184825228867 
1064	 0.420308860794783 
1065	 0.420501841700203 
1066	 0.420761013574896 
1067	 0.420989823638828 
1068	 0.421185393870227 
1069	 0.421374380019847 
1070	 0.421569338152151 
1071	 0.421750721103458 
1072	 0.42191358132133 
1073	 0.422073909801289 
1074	 0.422235891572612 
1075	 0.422367487718127 
1076	 0.422520945809827 
1077	 0.422684678952195 
1078	 0.42284435663539 
1079	 0.422989424480839 
1080	 0.423102479466658 
1081	 0.423284143406807 
1082	 0.423526519188789 
1083	 0.423704310883676 
1084	 0.423887994906681 
1085	 0.424059318695732 
1086	 0.424181435353373 
1087	 0.424295001108564 
1088	 0.424390368321239 
1089	 0.424547839372432 
1090	 0.424662333324999 
1091	 0.424783960237455 
1092	 0.424979094635824 
1093	 0.425113633925908 
1094	 0.425170580037108 
1095	 0.425288293295732 
1096	 0.425391707613871 
1097	 0.425455046297976 
1098	 0.425536738391325 
1099	 0.425638774970426 
1100	 0.425722033115616 
1101	 0.425784152509998 
1102	 0.425865155906711 
1103	 0.425943492688948 
1104	 0.426046200810404 
1105	 0.426180691201941 
1106	 0.42632334359683 
1107	 0.426451567650048 
1108	 0.426547343450792 
1109	 0.426625377464306 
1110	 0.426686459749725 
1111	 0.426755025499374 
1112	 0.426836597583277 
1113	 0.42691267442189 
1114	 0.426957106158764 
1115	 0.427037789001584 
1116	 0.427149903709721 
1117	 0.42724952389029 
1118	 0.427348184892199 
1119	 0.427469358318536 
1120	 0.427581870391899 
1121	 0.427660374555444 
1122	 0.427787346240639 
1123	 0.427938061834953 
1124	 0.428075069059943 
1125	 0.428252685192164 
1126	 0.428359015313906 
1127	 0.428404954747593 
1128	 0.428498829415781 
1129	 0.42858600376589 
1130	 0.428669806155125 
1131	 0.428769461166593 
1132	 0.428879447700794 
1133	 0.428977512143931 
1134	 0.429084095893077 
1135	 0.429220591076198 
1136	 0.429349914150443 
1137	 0.429451282224776 
1138	 0.429528793390539 
1139	 0.429609998518785 
1140	 0.429682923716872 
1141	 0.429752660266107 
1142	 0.429813435957856 
1143	 0.429880119619405 
1144	 0.429934858481599 
1145	 0.430004834585851 
1146	 0.430110202466918 
1147	 0.430165654605812 
1148	 0.43019063672122 
1149	 0.430236646658906 
1150	 0.430244455208768 
1151	 0.430297274916739 
1152	 0.430367227843739 
1153	 0.430433407991735 
1154	 0.430499303519809 
1155	 0.430562526044346 
1156	 0.43061828281242 
1157	 0.430670398483402 
1158	 0.430734149981161 
1159	 0.430795450855963 
1160	 0.430862356285746 
1161	 0.430941686694706 
1162	 0.431020713279102 
1163	 0.431097267753899 
1164	 0.431172521835281 
1165	 0.431256706410382 
1166	 0.431334309627118 
1167	 0.431402591369687 
1168	 0.431483261831891 
1169	 0.431560369905788 
1170	 0.431642888387532 
1171	 0.431715223419919 
1172	 0.431780776426685 
1173	 0.431857568303655 
1174	 0.431935085350357 
1175	 0.432008947569993 
1176	 0.432078889629906 
1177	 0.432163957709457 
1178	 0.432255066616857 
1179	 0.432345445066553 
1180	 0.432467862434523 
1181	 0.43255762090756 
1182	 0.432624088917358 
1183	 0.432685423653202 
1184	 0.43275178719772 
1185	 0.432796491705566 
1186	 0.432875223597699 
1187	 0.43297641807219 
1188	 0.433065808347786 
1189	 0.433174827715113 
1190	 0.433257725038 
1191	 0.43332301166289 
1192	 0.433392648467128 
1193	 0.433437429177617 
1194	 0.433512115603187 
1195	 0.43361458477373 
1196	 0.433697861743535 
1197	 0.433786981521288 
1198	 0.433873165348173 
1199	 0.433953477805706 
1200	 0.434012322286511 
1201	 0.434095486655419 
1202	 0.434191135815181 
1203	 0.434283057542447 
1204	 0.434389566502774 
1205	 0.434469283884556 
1206	 0.434532602828405 
1207	 0.434608672596542 
1208	 0.434679345780264 
1209	 0.434745838834791 
1210	 0.434822015130802 
1211	 0.434889188905222 
1212	 0.434927362491752 
1213	 0.434990671155489 
1214	 0.435079272249652 
1215	 0.435152033263141 
1216	 0.435223245529048 
1217	 0.435301745313692 
1218	 0.435370012152904 
1219	 0.435420162642796 
1220	 0.435488136341466 
1221	 0.435564834366899 
1222	 0.435638059107124 
1223	 0.435730199103969 
1224	 0.435787375781354 
1225	 0.43580932490787 
1226	 0.435865976243829 
1227	 0.435923156193727 
1228	 0.435977941376198 
1229	 0.436073078503656 
1230	 0.436132611885797 
1231	 0.436132565024554 
1232	 0.436175839155295 
1233	 0.436232029046291 
1234	 0.436291807981468 
1235	 0.436364363681696 
1236	 0.436479106130577 
1237	 0.436552779919505 
1238	 0.436614803018965 
1239	 0.436669602859863 
1240	 0.43670917585469 
1241	 0.436751369917689 
1242	 0.436772575633574 
1243	 0.436821409079867 
1244	 0.436875795242228 
1245	 0.436942300400538 
1246	 0.437050776788291 
1247	 0.437126531634221 
1248	 0.437187759896207 
1249	 0.437252095995379 
1250	 0.437305083854908 
1251	 0.437368430414191 
1252	 0.437437999487935 
1253	 0.437529908667503 
1254	 0.437598994207475 
1255	 0.437654070084336 
1256	 0.437722727693483 
1257	 0.437801042752571 
1258	 0.437861472444231 
1259	 0.437912877609616 
1260	 0.437975852887895 
1261	 0.438031817689048 
1262	 0.438088242322213 
1263	 0.4381663251771 
1264	 0.438226304068836 
1265	 0.438266445174872 
1266	 0.43830859800274 
1267	 0.438341843695013 
1268	 0.438380174590068 
1269	 0.43842929373715 
1270	 0.438488397740287 
1271	 0.438534684743415 
1272	 0.438589917370558 
1273	 0.438631752480379 
1274	 0.438644025356075 
1275	 0.438687782422725 
1276	 0.438755439373187 
1277	 0.438799186846754 
1278	 0.438845062428437 
1279	 0.438889264816804 
1280	 0.438911017219651 
1281	 0.438947592854997 
1282	 0.439002680372291 
1283	 0.439044728711926 
1284	 0.439077845741482 
1285	 0.439114237873789 
1286	 0.439156672843013 
1287	 0.439217519358416 
1288	 0.439279426815498 
1289	 0.439354071622623 
1290	 0.439433952545199 
1291	 0.439515978465432 
1292	 0.439606163904223 
1293	 0.439724402504086 
1294	 0.439809417598225 
1295	 0.439887065442068 
1296	 0.43995418858256 
1297	 0.439988028116225 
1298	 0.440048556610989 
1299	 0.440128298029044 
1300	 0.440187518650251 
1301	 0.440247009898484 
1302	 0.440303471682592 
1303	 0.440347399924932 
1304	 0.440375149379865 
1305	 0.440452632292921 
1306	 0.440517274862998 
1307	 0.440560475660101 
1308	 0.440558360055884 
1309	 0.440543324373948 
1310	 0.440475839508624 
1311	 0.440439034950237 
1312	 0.44040378652685 
1313	 0.440367732702501 
1314	 0.440323293169543 
1315	 0.440289914806489 
1316	 0.440261537456975 
1317	 0.440234250702197 
1318	 0.440223410236737 
1319	 0.440194406658422 
1320	 0.440168477649233 
1321	 0.440118058599853 
1322	 0.440040974125284 
1323	 0.439969597796872 
1324	 0.43991069679507 
1325	 0.439845538020803 
1326	 0.439781520444449 
1327	 0.439722601503846 
1328	 0.439645293792383 
1329	 0.439565874903344 
1330	 0.439486636729466 
1331	 0.439399272033299 
1332	 0.439344238079088 
1333	 0.439304100613054 
1334	 0.439252169694253 
1335	 0.43921905781614 
1336	 0.439178585641594 
1337	 0.439117462154189 
1338	 0.439071651322193 
1339	 0.439052509941816 
1340	 0.43901309882354 
1341	 0.438976578800946 
1342	 0.438917606954327 
1343	 0.438843086723602 
1344	 0.438759155282326 
1345	 0.438680800548081 
1346	 0.438562282006057 
1347	 0.438438243909147 
1348	 0.438297498334177 
1349	 0.438093339952588 
1350	 0.437875633485686 
1351	 0.43765770200724 
1352	 0.437416899466319 
1353	 0.437177638887259 
1354	 0.436947755415983 
1355	 0.436686168063538 
1356	 0.436377480583628 
1357	 0.436123793377354 
1358	 0.435835881664552 
1359	 0.435639495140256 
1360	 0.435508670874877 
1361	 0.435395180169185 
1362	 0.435341037616615 
1363	 0.435292027445603 
1364	 0.435255824330602 
1365	 0.435247453152368 
1366	 0.435258384802633 
1367	 0.435299227713398 
1368	 0.435396133500729 
1369	 0.435456990391616 
1370	 0.435487951950703 
1371	 0.435506401476501 
1372	 0.435421545702197 
1373	 0.435278121976202 
1374	 0.435082063865548 
1375	 0.434843251730773 
1376	 0.434499596129016 
1377	 0.434092752594602 
1378	 0.433602312373843 
1379	 0.432948852141686 
1380	 0.432388933095079 
1381	 0.431759050927345 
1382	 0.431223661072546 
1383	 0.430813466163295 
1384	 0.430301644162261 
1385	 0.429861005955346 
1386	 0.429268037179324 
1387	 0.428596873872312 
1388	 0.427828648757535 
1389	 0.427000368294287 
1390	 0.426020018350389 
1391	 0.424901365797915 
1392	 0.423650775965605 
1393	 0.422234245901384 
1394	 0.420767103407647 
1395	 0.419258037848739 
1396	 0.417735520502054 
1397	 0.416254741528065 
1398	 0.41476695350596 
1399	 0.413310034130279 
1400	 0.411869613794083 
1401	 0.41048013209889 
1402	 0.409071276146271 
1403	 0.407804255600525 
1404	 0.406598580512477 
1405	 0.405501082425664 
1406	 0.404523145416794 
1407	 0.403589617186039 
1408	 0.402644367730798 
1409	 0.401938391280353 
1410	 0.401237215207288 
1411	 0.400896576203016 
1412	 0.400795168636973 
1413	 0.400952803505085 
1414	 0.401426474768077 
1415	 0.402120113442768 
1416	 0.403038347815336 
1417	 0.404126218391201 
1418	 0.405295109147915 
1419	 0.406502129104954 
1420	 0.407719218880744 
1421	 0.408863604827665 
1422	 0.409885670567223 
1423	 0.410803725421353 
1424	 0.411530641601295 
1425	 0.412062882564248 
1426	 0.412549622833828 
1427	 0.41285022834763 
1428	 0.413200813688358 
1429	 0.413514923458654 
1430	 0.413776616146057 
1431	 0.414035452049645 
1432	 0.414190489385917 
1433	 0.414240216087206 
1434	 0.414301609790906 
1435	 0.414265994527927 
1436	 0.414294874613188 
1437	 0.414374749681929 
1438	 0.41439672850597 
1439	 0.414413423644113 
1440	 0.41441960090458 
1441	 0.414350457433828 
1442	 0.414269812123196 
1443	 0.414232349726185 
1444	 0.414202331194438 
1445	 0.414207096922748 
1446	 0.414203552132723 
1447	 0.414155026978145 
1448	 0.414100963939838 
1449	 0.414002330586441 
1450	 0.413901256063822 
1451	 0.413825384072822 
1452	 0.413747195223486 
1453	 0.413686175706237 
1454	 0.413669477335933 
1455	 0.413599942943739 
1456	 0.413520590291799 
1457	 0.413418309642533 
1458	 0.413263405229331 
1459	 0.41315934597958 
1460	 0.413045151229728 
1461	 0.412978569823634 
1462	 0.412968438564491 
1463	 0.41292869366477 
1464	 0.41292154270917 
1465	 0.412873475412704 
1466	 0.41276756685936 
1467	 0.412717344754396 
1468	 0.412641000151617 
1469	 0.41263190455866 
1470	 0.412691294358946 
1471	 0.412759533281849 
1472	 0.412839727226937 
1473	 0.412937984410951 
1474	 0.412990369978734 
1475	 0.413065636959755 
1476	 0.413151318350893 
1477	 0.413237202222777 
1478	 0.41339237872267 
1479	 0.413554732843472 
1480	 0.413735459712812 
1481	 0.413921869793855 
1482	 0.414061780021869 
1483	 0.4141727874199 
1484	 0.414286185656051 
1485	 0.414358361433269 
1486	 0.414474260579601 
1487	 0.414612831104355 
1488	 0.414732608871701 
1489	 0.414867090007511 
1490	 0.414979227575216 
1491	 0.415079660476033 
1492	 0.415165472222242 
1493	 0.415224558624849 
1494	 0.415306758810416 
1495	 0.415371855245236 
1496	 0.415461442415802 
1497	 0.415611087157695 
1498	 0.415698388542525 
1499	 0.415765175418924 
1500	 0.415823848912885 
1501	 0.415835855854222 
1502	 0.41586057615536 
1503	 0.415880471105733 
1504	 0.415921257727912 
1505	 0.415943436568346 
1506	 0.415951400515155 
1507	 0.41599021018995 
1508	 0.416018115578271 
1509	 0.416036598173234 
1510	 0.416067757572904 
1511	 0.416083935537574 
1512	 0.416083454860271 
1513	 0.41608766763816 
1514	 0.416102500239283 
1515	 0.41611883974816 
1516	 0.416124869754122 
1517	 0.416127002507868 
1518	 0.416134405601928 
1519	 0.416121896509504 
1520	 0.416089954771074 
1521	 0.416069800821447 
1522	 0.416041458288619 
1523	 0.416022237667097 
1524	 0.416018858870876 
1525	 0.415987261749582 
1526	 0.415946448357445 
1527	 0.415901445301732 
1528	 0.415822839091617 
1529	 0.415785186644885 
1530	 0.415778361754294 
1531	 0.415747183677335 
1532	 0.415725444844926 
1533	 0.415692321459915 
1534	 0.415637555363134 
1535	 0.415583611126324 
1536	 0.415516306553735 
1537	 0.415479448190767 
1538	 0.415445603933819 
1539	 0.415424097221072 
1540	 0.415446784175378 
1541	 0.415443941340113 
1542	 0.415438078240683 
1543	 0.415418737549581 
1544	 0.415385445546448 
1545	 0.415345718260207 
1546	 0.415284415626805 
1547	 0.415237790474148 
1548	 0.415189023964983 
1549	 0.41513887520988 
1550	 0.415097357634209 
1551	 0.415059394148146 
1552	 0.415040996354881 
1553	 0.415027772242552 
1554	 0.414999930720673 
1555	 0.414958897989372 
1556	 0.414888567987072 
1557	 0.414817343974027 
1558	 0.414775125365883 
1559	 0.41472609037202 
1560	 0.414665384358193 
1561	 0.414605807259526 
1562	 0.414548827588584 
1563	 0.414468680186012 
1564	 0.414424642333996 
1565	 0.41441633179696 
1566	 0.414370111583981 
1567	 0.41432797556299 
1568	 0.414258694608256 
1569	 0.41415345374506 
1570	 0.414077331162043 
1571	 0.414007488986264 
1572	 0.413919783908367 
1573	 0.413819476014162 
1574	 0.413748544251183 
1575	 0.413666995932956 
1576	 0.413615229837923 
1577	 0.413618609662007 
1578	 0.413581796473669 
1579	 0.413541585676384 
1580	 0.41348410338908 
1581	 0.413406837997347 
1582	 0.413332758911458 
1583	 0.413240683336446 
1584	 0.413160494024137 
1585	 0.413084153847052 
1586	 0.413011048836507 
1587	 0.412952375062147 
1588	 0.412877418689243 
1589	 0.412800979394172 
1590	 0.412709367188041 
1591	 0.412594134750846 
1592	 0.412491584089366 
1593	 0.412381947352596 
1594	 0.412285822353575 
1595	 0.412210524825988 
1596	 0.412118089236008 
1597	 0.412020483034919 
1598	 0.411922537091783 
1599	 0.411819055060026 
1600	 0.411709665921442 
1601	 0.411593026498488 
1602	 0.411487382835758 
1603	 0.411381360221765 
1604	 0.411272252830341 
1605	 0.411168932928193 
1606	 0.411067903647693 
1607	 0.410953999920926 
1608	 0.410855616867419 
1609	 0.410776727371284 
1610	 0.410703853256696 
1611	 0.410657642231654 
1612	 0.41061581696352 
1613	 0.410543853353146 
1614	 0.410452273496989 
1615	 0.410339828734867 
1616	 0.410209524684958 
1617	 0.410097868095256 
1618	 0.410008905614902 
1619	 0.409923613537639 
1620	 0.409831572010933 
1621	 0.409727277745014 
1622	 0.409614984573476 
1623	 0.409512785392618 
1624	 0.409397866272817 
1625	 0.409305078743727 
1626	 0.409236549617859 
1627	 0.409135264659585 
1628	 0.409026282521782 
1629	 0.408921198536107 
1630	 0.408803360113125 
1631	 0.408694040471692 
1632	 0.408599004498016 
1633	 0.408481355888169 
1634	 0.408347698630311 
1635	 0.408219295957859 
1636	 0.408088053411105 
1637	 0.407951790704018 
1638	 0.407809823102877 
1639	 0.407676960836473 
1640	 0.407527492028266 
1641	 0.407418666075438 
1642	 0.407349008172366 
1643	 0.407239893156458 
1644	 0.407140187284701 
1645	 0.407021984636939 
1646	 0.406863696353584 
1647	 0.406739024061418 
1648	 0.406631509621121 
1649	 0.406514221218042 
1650	 0.406404144513158 
1651	 0.406280846179257 
1652	 0.406144835559467 
1653	 0.406021312031952 
1654	 0.405896066183199 
1655	 0.4057748974645 
1656	 0.405675495333232 
1657	 0.405540671664996 
1658	 0.405384173070246 
1659	 0.405236972933357 
1660	 0.405062979762494 
1661	 0.404924352585221 
1662	 0.404815159118728 
1663	 0.404685753199947 
1664	 0.404563872577469 
1665	 0.404431736986408 
1666	 0.404301113899856 
1667	 0.404137291079475 
1668	 0.40394929905029 
1669	 0.40377439973952 
1670	 0.403554853985306 
1671	 0.403398639192252 
1672	 0.403273701682481 
1673	 0.403172349718154 
1674	 0.403128738551366 
1675	 0.403039976038785 
1676	 0.402978830399693 
1677	 0.402854732462684 
1678	 0.402666111308963 
1679	 0.402510034072262 
1680	 0.402332306239772 
1681	 0.402171076617038 
1682	 0.402028686865714 
1683	 0.401881073234898 
1684	 0.40172215145544 
1685	 0.401583766282263 
1686	 0.401468534642565 
1687	 0.401332815133728 
1688	 0.401211342290227 
1689	 0.401055395633295 
1690	 0.400868806764395 
1691	 0.400690875628387 
1692	 0.400491208782044 
1693	 0.400310948408064 
1694	 0.40013390742117 
1695	 0.399972083029152 
1696	 0.399823832612666 
1697	 0.399674766442875 
1698	 0.399538243302957 
1699	 0.399399521242443 
1700	 0.399261442105662 
1701	 0.399122765726475 
1702	 0.398996587210097 
1703	 0.398848240008183 
1704	 0.398687099979916 
1705	 0.398524387738253 
1706	 0.398335847823295 
1707	 0.398181322428196 
1708	 0.398042037419229 
1709	 0.397902667500621 
1710	 0.39779225024244 
1711	 0.397650336180951 
1712	 0.397488593164509 
1713	 0.397334718408129 
1714	 0.39716634983429 
1715	 0.397013973049701 
1716	 0.396868705532163 
1717	 0.396732197084895 
1718	 0.396618606375972 
1719	 0.396476359453519 
1720	 0.396334657346616 
1721	 0.396170895113392 
1722	 0.395976068707778 
1723	 0.395787851531484 
1724	 0.395599655659514 
1725	 0.395401248153179 
1726	 0.395188357165444 
1727	 0.394990791795112 
1728	 0.394775810291063 
1729	 0.394596239436277 
1730	 0.394436787252605 
1731	 0.394295639767941 
1732	 0.394194035240198 
1733	 0.394054142402494 
1734	 0.393922174998399 
1735	 0.393763028379814 
1736	 0.393572245709912 
1737	 0.393388783384544 
1738	 0.393205721026652 
1739	 0.392997619438361 
1740	 0.392757565217536 
1741	 0.392573696718904 
1742	 0.392390461244123 
1743	 0.392228179187434 
1744	 0.392108791184749 
1745	 0.391974111870789 
1746	 0.391838619442082 
1747	 0.391728470820737 
1748	 0.391606054138725 
1749	 0.391430433238847 
1750	 0.391238918805593 
1751	 0.391045864065172 
1752	 0.390824029604834 
1753	 0.390617570222805 
1754	 0.390445045642818 
1755	 0.390266910972451 
1756	 0.390106766547697 
1757	 0.389966147742052 
1758	 0.389797185377978 
1759	 0.389636674700385 
1760	 0.3894957578295 
1761	 0.3893391951826 
1762	 0.389207667410801 
1763	 0.389090274348088 
1764	 0.38894125920355 
1765	 0.388802573638349 
1766	 0.388691918619247 
1767	 0.388555063372829 
1768	 0.388419702694732 
1769	 0.388303901827324 
1770	 0.388149887573911 
1771	 0.388005942319066 
1772	 0.387858249898279 
1773	 0.387701317681428 
1774	 0.387590143539214 
1775	 0.387464670679262 
1776	 0.387312689257693 
1777	 0.387143530589773 
1778	 0.386968465777583 
1779	 0.38678178613853 
1780	 0.386605879403377 
1781	 0.386497128450255 
1782	 0.386372765349842 
1783	 0.38630351244784 
1784	 0.386196715207211 
1785	 0.386046069264025 
1786	 0.385911872341377 
1787	 0.385748788990566 
1788	 0.385626908412515 
1789	 0.385563972682986 
1790	 0.385455209092324 
1791	 0.385345202302827 
1792	 0.385222160747763 
1793	 0.38504699782521 
1794	 0.384913627721304 
1795	 0.384812822362452 
1796	 0.384697179601373 
1797	 0.384586517978253 
1798	 0.38447816499375 
1799	 0.384364654290526 
1800	 0.384231282515637 
1801	 0.376573971864128 
1802	 0.376880328146187 
1803	 0.37729170884495 
1804	 0.377699966332862 
1805	 0.378060074782187 
1806	 0.378403704422599 
1807	 0.378708725955259 
1808	 0.378955400081648 
1809	 0.379159036517608 
1810	 0.379319742086853 
1811	 0.379446598766721 
1812	 0.379504608735907 
1813	 0.379507001940335 
1814	 0.37948661283098 
1815	 0.379412261779866 
1816	 0.379338633842036 
1817	 0.379273636297528 
1818	 0.379187062879109 
1819	 0.379111680698428 
1820	 0.379046923839715 
1821	 0.378981641628804 
1822	 0.378912657991493 
1823	 0.3788737783784 
1824	 0.378827207425453 
1825	 0.378760937557605 
1826	 0.378662913801247 
1827	 0.378516320155668 
1828	 0.378346474310683 
1829	 0.378129332726222 
1830	 0.377914308221073 
1831	 0.377662579134954 
1832	 0.377444994915386 
1833	 0.377213955295972 
1834	 0.376959148988682 
1835	 0.376725210833134 
1836	 0.376519171317901 
1837	 0.376351314170648 
1838	 0.376207873986857 
1839	 0.376094460821182 
1840	 0.376035151009818 
1841	 0.375943312472058 
1842	 0.375855659517782 
1843	 0.375835305939247 
1844	 0.375797445670617 
1845	 0.375789846060683 
1846	 0.375805909023863 
1847	 0.375781718762839 
1848	 0.375760521520654 
1849	 0.375752771742046 
1850	 0.3757499347575 
1851	 0.375756198457853 
1852	 0.375758281346631 
1853	 0.375743927797719 
1854	 0.375731561445165 
1855	 0.375684260848831 
1856	 0.375631346488793 
1857	 0.37562676627174 
1858	 0.375604003585407 
1859	 0.37555362236646 
1860	 0.375440605669837 
1861	 0.375306738901851 
1862	 0.375093233387923 
1863	 0.374794894064741 
1864	 0.374423223540495 
1865	 0.374005056360344 
1866	 0.373497547803156 
1867	 0.373000930375096 
1868	 0.372492285013374 
1869	 0.371999158219914 
1870	 0.371617739663352 
1871	 0.371264348748331 
1872	 0.370950818203481 
1873	 0.370698033958342 
1874	 0.370479034575583 
1875	 0.37028227746306 
1876	 0.370057813565467 
1877	 0.36980493908313 
1878	 0.369491902148013 
1879	 0.369028096827018 
1880	 0.368436184931934 
1881	 0.367717267311647 
1882	 0.366887645469017 
1883	 0.365926730796286 
1884	 0.364868897811564 
1885	 0.363717351935236 
1886	 0.362454253530266 
1887	 0.361115711934023 
1888	 0.359678322363585 
1889	 0.358131574945401 
1890	 0.356566681605821 
1891	 0.354955687924899 
1892	 0.353255753483705 
1893	 0.351550973426215 
1894	 0.349834031306617 
1895	 0.348053264862095 
1896	 0.346210838348396 
1897	 0.34436084332466 
1898	 0.342490861167116 
1899	 0.340650872770119 
1900	 0.33892699529781 
1901	 0.33725607018439 
1902	 0.335694815120736 
1903	 0.334275022586598 
1904	 0.332899652899963 
1905	 0.331583371158505 
1906	 0.330377382889666 
1907	 0.329232771500825 
1908	 0.328117944447926 
1909	 0.327095760011355 
1910	 0.326116002531196 
1911	 0.325195328812437 
1912	 0.324302671368658 
1913	 0.32347360421263 
1914	 0.322689928051128 
1915	 0.321966742566809 
1916	 0.321296630099311 
1917	 0.320692854265546 
1918	 0.320142947756283 
1919	 0.319638842873007 
1920	 0.319210675777751 
1921	 0.318856567067169 
1922	 0.318531705252094 
1923	 0.318243550497289 
1924	 0.318002252064087 
1925	 0.317814576849594 
1926	 0.317635875427122 
1927	 0.317492517502355 
1928	 0.317386247423759 
1929	 0.317278380642526 
1930	 0.317189450874267 
1931	 0.317125187781979 
1932	 0.317084881131235 
1933	 0.317064652074977 
1934	 0.317048517967083 
1935	 0.317056601903913 
1936	 0.317075549538161 
1937	 0.317128696605721 
1938	 0.317203554104579 
1939	 0.317310607679425 
1940	 0.317450490755029 
1941	 0.317608051507394 
1942	 0.317810218625583 
1943	 0.318017572209426 
1944	 0.318233452257115 
1945	 0.318485506783658 
1946	 0.318726996248549 
1947	 0.31897826349708 
1948	 0.31921347883263 
1949	 0.31942987294085 
1950	 0.319673622302505 
1951	 0.31991985453404 
1952	 0.320172500691904 
1953	 0.320433488732356 
1954	 0.320731413725494 
1955	 0.321016536639189 
1956	 0.321303015965289 
1957	 0.321616130608112 
1958	 0.32196225468129 
1959	 0.322297424965029 
1960	 0.322651866925087 
1961	 0.32298798095051 
1962	 0.323328702221804 
1963	 0.323654118525494 
1964	 0.323956723187847 
1965	 0.324265044190205 
1966	 0.324589964959842 
1967	 0.324902603574663 
1968	 0.32522319968486 
1969	 0.325562640067117 
1970	 0.325884999524585 
1971	 0.326198112178188 
1972	 0.326508610697712 
1973	 0.326806594570251 
1974	 0.327112223264113 
1975	 0.327413409403071 
1976	 0.327730161261866 
1977	 0.328029237229171 
1978	 0.328348776226166 
1979	 0.328663189925873 
1980	 0.328980666589309 
1981	 0.329308946414937 
1982	 0.32966530236096 
1983	 0.329986734826008 
1984	 0.3302982019004 
1985	 0.330610627485609 
1986	 0.330909652905175 
1987	 0.331204869323798 
1988	 0.331496432554962 
1989	 0.331798189867854 
1990	 0.332075929110741 
1991	 0.332336623076372 
1992	 0.332609024157895 
1993	 0.332867870075001 
1994	 0.333158567955071 
1995	 0.333474487211041 
1996	 0.333772243069816 
1997	 0.334088494243058 
1998	 0.334386604225335 
1999	 0.334663772933926 
2000	 0.334943852452917 
2001	 0.335219173992279 
2002	 0.335497190463112 
2003	 0.335783908507342 
2004	 0.336068980210119 
2005	 0.336365102276814 
2006	 0.336664881212854 
2007	 0.336991945002306 
2008	 0.337344440095287 
2009	 0.337682670735111 
2010	 0.338050924156847 
2011	 0.338393017477669 
2012	 0.338710563997299 
2013	 0.339029626508248 
2014	 0.339343601348469 
2015	 0.339665803627924 
2016	 0.339969183172951 
2017	 0.340242167779437 
2018	 0.340513996601938 
2019	 0.340764875055284 
2020	 0.341020152904593 
2021	 0.341273103231017 
2022	 0.341518448236478 
2023	 0.341759214796354 
2024	 0.341994264670779 
2025	 0.342198889376998 
2026	 0.342434678985896 
2027	 0.342679449011861 
2028	 0.342928609614276 
2029	 0.343200474829758 
2030	 0.343520461312598 
2031	 0.34377795475865 
2032	 0.34402764469224 
2033	 0.344260908686727 
2034	 0.344458006516896 
2035	 0.344661500240709 
2036	 0.344854743794515 
2037	 0.345055203692842 
2038	 0.345257199541469 
2039	 0.345444888195348 
2040	 0.345617531909163 
2041	 0.345818181072637 
2042	 0.345992428854872 
2043	 0.346155364082164 
2044	 0.346327442688762 
2045	 0.346514428425993 
2046	 0.346673115974198 
2047	 0.346815914743811 
2048	 0.346962571781268 
2049	 0.347090373898364 
2050	 0.347234454847606 
2051	 0.347394296759916 
2052	 0.347542464755982 
2053	 0.347682409806425 
2054	 0.347831355712427 
2055	 0.347990308587389 
2056	 0.348121624183736 
2057	 0.348279614786112 
2058	 0.348465979941038 
2059	 0.348614119575955 
2060	 0.348766879754188 
2061	 0.348883853280412 
2062	 0.348954410767026 
2063	 0.349046671122533 
2064	 0.349120352277774 
2065	 0.34921161863146 
2066	 0.349320097949381 
2067	 0.349421977155189 
2068	 0.349528263637422 
2069	 0.349630563687243 
2070	 0.349725099817469 
2071	 0.349815117608557 
2072	 0.349901510804856 
2073	 0.349978281396338 
2074	 0.350060303801398 
2075	 0.350140215296961 
2076	 0.350223552997611 
2077	 0.350311500357912 
2078	 0.350394561917979 
2079	 0.350469695836234 
2080	 0.350556079720719 
2081	 0.350664171141226 
2082	 0.350743639400084 
2083	 0.350812919005117 
2084	 0.350881066894444 
2085	 0.350945134160927 
2086	 0.350994480754944 
2087	 0.351032560988268 
2088	 0.351072117121594 
2089	 0.351101609496709 
2090	 0.351094716873469 
2091	 0.351117267752933 
2092	 0.3511616094217 
2093	 0.351190075313128 
2094	 0.351202667975479 
2095	 0.351240142331213 
2096	 0.351297423969457 
2097	 0.351336018276938 
2098	 0.351375726387768 
2099	 0.351424851670521 
2100	 0.351469426362554 
2101	 0.351490742407625 
2102	 0.351539979059584 
2103	 0.351607078272411 
2104	 0.35167633876361 
2105	 0.351753010632733 
2106	 0.351828585024384 
2107	 0.351908697840566 
2108	 0.351998203917055 
2109	 0.352075317101138 
2110	 0.352184619862745 
2111	 0.352334605639063 
2112	 0.352466481266891 
2113	 0.352616465980156 
2114	 0.352741814938321 
2115	 0.352888373603731 
2116	 0.353030508715326 
2117	 0.3531765299758 
2118	 0.353339322645507 
2119	 0.353492769039807 
2120	 0.353641666797917 
2121	 0.353781258011068 
2122	 0.353942003916233 
2123	 0.35405544971317 
2124	 0.354123058801576 
2125	 0.354209501852721 
2126	 0.354271991699947 
2127	 0.354347416065223 
2128	 0.354449339142555 
2129	 0.354528011288013 
2130	 0.354595531151755 
2131	 0.354669438000078 
2132	 0.354697699138119 
2133	 0.354705204388526 
2134	 0.354686786823302 
2135	 0.354618687353421 
2136	 0.354573856990298 
2137	 0.354540342576893 
2138	 0.354459843243408 
2139	 0.354383430425517 
2140	 0.354252376353779 
2141	 0.354053007241514 
2142	 0.353858879472634 
2143	 0.353643559326654 
2144	 0.353412368739294 
2145	 0.353176472902657 
2146	 0.352907763740714 
2147	 0.352603654729495 
2148	 0.352288018574164 
2149	 0.351965961839934 
2150	 0.351629156891355 
2151	 0.351270894496212 
2152	 0.350909323055583 
2153	 0.350513535985278 
2154	 0.350104346341701 
2155	 0.349636504137875 
2156	 0.349103600528351 
2157	 0.348600683184558 
2158	 0.348054533041422 
2159	 0.347527687661284 
2160	 0.347041917739211 
2161	 0.346523254184167 
2162	 0.346009030661988 
2163	 0.345444524356648 
2164	 0.344855628142246 
2165	 0.344237726090948 
2166	 0.343583889009068 
2167	 0.342875812805013 
2168	 0.342170159835771 
2169	 0.34143587278184 
2170	 0.340705737937956 
2171	 0.339965139112423 
2172	 0.33920604882358 
2173	 0.338478126206331 
2174	 0.337655225495455 
2175	 0.336771563061938 
2176	 0.335870699311336 
2177	 0.334885747169884 
2178	 0.333923833020253 
2179	 0.332995172898838 
2180	 0.331993437210533 
2181	 0.330954588855583 
2182	 0.329888830319961 
2183	 0.328768913147138 
2184	 0.327603981301468 
2185	 0.326463821895682 
2186	 0.325300199471081 
2187	 0.324178069130082 
2188	 0.323055379526421 
2189	 0.321970048704016 
2190	 0.320884424387172 
2191	 0.319884877887646 
2192	 0.318900004969257 
2193	 0.31802444835911 
2194	 0.317235472684036 
2195	 0.316514987780215 
2196	 0.315859286631013 
2197	 0.315302215123372 
2198	 0.314845087391933 
2199	 0.314448443719336 
2200	 0.314122241835398 
2201	 0.313896873965715 
2202	 0.313755957639527 
2203	 0.313685495314689 
2204	 0.313724679532242 
2205	 0.313873839493285 
2206	 0.3141074570069 
2207	 0.31440231065768 
2208	 0.314870118697725 
2209	 0.315485521965928 
2210	 0.316168097728816 
2211	 0.317024380985842 
2212	 0.317874685049427 
2213	 0.318839381773449 
2214	 0.319735627061944 
2215	 0.320699175132424 
2216	 0.32155370888596 
2217	 0.322334945890763 
2218	 0.323097870765297 
2219	 0.323839704634873 
2220	 0.324508433274791 
2221	 0.325131302211778 
2222	 0.32570060892489 
2223	 0.326222169874569 
2224	 0.326655744717413 
2225	 0.327072218481302 
2226	 0.327464823818645 
2227	 0.327777246444079 
2228	 0.328002785730609 
2229	 0.328254438849371 
2230	 0.328469171716431 
2231	 0.328664693456005 
2232	 0.328873169622674 
2233	 0.329010115393883 
2234	 0.32908366335164 
2235	 0.329141583604963 
2236	 0.329175338222293 
2237	 0.329162125251061 
2238	 0.329085148868144 
2239	 0.329022548595832 
2240	 0.328915679276985 
2241	 0.328824819971364 
2242	 0.328754011870385 
2243	 0.328662562636146 
2244	 0.328572617139794 
2245	 0.328462641323924 
2246	 0.328281961693798 
2247	 0.328084836063227 
2248	 0.327930216940463 
2249	 0.327766766721934 
2250	 0.327586554656125 
2251	 0.327428718527346 
2252	 0.327270281968753 
2253	 0.327050976699361 
2254	 0.326907712959896 
2255	 0.326848476608463 
2256	 0.326739287283169 
2257	 0.326592411814815 
2258	 0.32651961607258 
2259	 0.326478206614046 
2260	 0.326432651931524 
2261	 0.326455466890301 
2262	 0.326432064966995 
2263	 0.326347113234835 
2264	 0.326323137251503 
2265	 0.326350015627817 
2266	 0.32633760555276 
2267	 0.326302645922218 
2268	 0.326316358738542 
2269	 0.326348573290899 
2270	 0.32634354449032 
2271	 0.326414001598813 
2272	 0.326518654478518 
2273	 0.326565616416178 
2274	 0.326646845990488 
2275	 0.326723974782557 
2276	 0.326815859835881 
2277	 0.326877546318795 
2278	 0.326925893687078 
2279	 0.32699402206496 
2280	 0.327040927002616 
2281	 0.327124593401937 
2282	 0.327265511470185 
2283	 0.327345209665219 
2284	 0.327426945225991 
2285	 0.327468201245872 
2286	 0.327450773578522 
2287	 0.327448689538317 
2288	 0.327415592535496 
2289	 0.327415220877698 
2290	 0.327437133255618 
2291	 0.327445021776667 
2292	 0.32747051016569 
2293	 0.327478067853121 
2294	 0.327467348122736 
2295	 0.3274539307344 
2296	 0.327442168710601 
2297	 0.327413083804742 
2298	 0.327373773004763 
2299	 0.327293678865542 
2300	 0.327187151460616 
2301	 0.327088760201804 
2302	 0.326999281508663 
2303	 0.326930009741724 
2304	 0.326812481699887 
2305	 0.326639156622172 
2306	 0.326447127884441 
2307	 0.326162156682254 
2308	 0.325954454990026 
2309	 0.325776849287636 
2310	 0.325568563909934 
2311	 0.32536581989234 
2312	 0.325147235418819 
2313	 0.324923319713084 
2314	 0.324665370465244 
2315	 0.324379953282677 
2316	 0.324108667702946 
2317	 0.323798079261096 
2318	 0.323527445415664 
2319	 0.323296879687653 
2320	 0.323043180442284 
2321	 0.322779302973202 
2322	 0.322514256201226 
2323	 0.322249871788838 
2324	 0.321990708523896 
2325	 0.321754506339373 
2326	 0.321498060323195 
2327	 0.321241591911836 
2328	 0.32093190438751 
2329	 0.320688101229081 
2330	 0.320415795806562 
2331	 0.320115649817768 
2332	 0.319821493718413 
2333	 0.319447605231947 
2334	 0.319043110591089 
2335	 0.318688458848376 
2336	 0.318306262089859 
2337	 0.317947799541226 
2338	 0.317633241176911 
2339	 0.317324980866679 
2340	 0.317062010694855 
2341	 0.316818316792708 
2342	 0.316561383032148 
2343	 0.316239939837789 
2344	 0.315941781483306 
2345	 0.315644037855584 
2346	 0.315317808737842 
2347	 0.315011644578782 
2348	 0.314708652736464 
2349	 0.314448041177057 
2350	 0.314231817234548 
2351	 0.313962452501537 
2352	 0.313660001072126 
2353	 0.313466048442587 
2354	 0.313292258694819 
2355	 0.313124581326235 
2356	 0.313086146153541 
2357	 0.312961619351026 
2358	 0.312760199244675 
2359	 0.31258595855322 
2360	 0.312437154666363 
2361	 0.312239739279468 
2362	 0.311990578494765 
2363	 0.311779799708803 
2364	 0.31160603869921 
2365	 0.311360898561065 
2366	 0.311083484503767 
2367	 0.310814605543925 
2368	 0.310509530922979 
2369	 0.31017777462738 
2370	 0.309863535662152 
2371	 0.309483700165417 
2372	 0.309123544685915 
2373	 0.308801053677751 
2374	 0.308565565796238 
2375	 0.308383022194769 
2376	 0.308041265031371 
2377	 0.307602461870209 
2378	 0.307118607607872 
2379	 0.306645912740147 
2380	 0.306239670842314 
2381	 0.305850152007764 
2382	 0.305468141720944 
2383	 0.305051001322475 
2384	 0.304657846692586 
2385	 0.304270733579388 
2386	 0.303878551401201 
2387	 0.303475869421131 
2388	 0.303043776434972 
2389	 0.302667306142309 
2390	 0.302278877398787 
2391	 0.301924057394926 
2392	 0.301648375426995 
2393	 0.301320808626084 
2394	 0.301011515685647 
2395	 0.300732327684685 
2396	 0.300327370079114 
2397	 0.29988272763427 
2398	 0.29943306427885 
2399	 0.298900358482712 
2400	 0.298399327484987 
2401	 0.2979497671153 
2402	 0.297463394101413 
2403	 0.296999326366681 
2404	 0.296534503484173 
2405	 0.295987028939081 
2406	 0.295476752025099 
2407	 0.295020999348501 
2408	 0.294560364253048 
2409	 0.294031087070972 
2410	 0.29340316601951 
2411	 0.292755812963035 
2412	 0.292103291830509 
2413	 0.291439482213044 
2414	 0.290778922410551 
2415	 0.290146775719942 
2416	 0.289565646678746 
2417	 0.288983608414912 
2418	 0.288440146424734 
2419	 0.288004360654218 
2420	 0.287512937011465 
2421	 0.287035241677831 
2422	 0.286510331596426 
2423	 0.285963564594068 
2424	 0.285378398914569 
2425	 0.284646080942551 
2426	 0.284096753861884 
2427	 0.283702716539902 
2428	 0.28315217180767 
2429	 0.282610934985196 
2430	 0.282105146727222 
2431	 0.281484989572747 
2432	 0.280922369567365 
2433	 0.280456556780606 
2434	 0.279945614731693 
2435	 0.279414160123848 
2436	 0.278826533403285 
2437	 0.278263619761067 
2438	 0.277737852985409 
2439	 0.277039686339083 
2440	 0.27657143383081 
2441	 0.276317342563355 
2442	 0.27592354794693 
2443	 0.275644333561898 
2444	 0.275241111625905 
2445	 0.274666149419378 
2446	 0.274218612825477 
2447	 0.273746200914686 
2448	 0.273354349064121 
2449	 0.273099264698472 
2450	 0.272724058998072 
2451	 0.272255089971218 
2452	 0.271883897149335 
2453	 0.271618359723411 
2454	 0.271280130577694 
2455	 0.27097452985006 
2456	 0.270706296140645 
2457	 0.270329361909712 
2458	 0.269944833289387 
2459	 0.269586327103664 
2460	 0.269236722268819 
2461	 0.268788623398387 
2462	 0.268535192302495 
2463	 0.268582727737117 
2464	 0.268410413236737 
2465	 0.268233526352913 
2466	 0.267950891884767 
2467	 0.267390330014821 
2468	 0.267012947189102 
2469	 0.266688013373321 
2470	 0.266350764894748 
2471	 0.266096363609392 
2472	 0.265803905282007 
2473	 0.265538728053989 
2474	 0.26530875035956 
2475	 0.265288170257334 
2476	 0.265096882206078 
2477	 0.264840250644997 
2478	 0.264687609677863 
2479	 0.264167661241131 
2480	 0.263601424386486 
2481	 0.263198297556283 
2482	 0.262799661804624 
2483	 0.262455820115851 
2484	 0.262324186353163 
2485	 0.2622142726823 
2486	 0.261749769418177 
2487	 0.26122042416488 
2488	 0.260804705870654 
2489	 0.260320452587511 
2490	 0.259974424952108 
2491	 0.259784182951594 
2492	 0.259520052494556 
2493	 0.259174645954036 
2494	 0.25895846442896 
2495	 0.258943191241355 
2496	 0.258746111310878 
2497	 0.258376091139969 
2498	 0.257941881213047 
2499	 0.257264914603207 
2500	 0.256947473510836 
