Wavelength	LMW_1800009.asd
350	 5.74367686979363E-02 
351	 6.08721781510882E-02 
352	 5.71369995331949E-02 
353	 4.74042782406863E-02 
354	 4.75490282385525E-02 
355	 4.98804401109811E-02 
356	 5.14450208115075E-02 
357	 5.15877001445198E-02 
358	 5.33526755102511E-02 
359	 5.69011879620081E-02 
360	 0.058257106115492 
361	 5.25054935974717E-02 
362	 5.38938148247423E-02 
363	 5.46121963886044E-02 
364	 5.10821408137858E-02 
365	 5.03480213431088E-02 
366	 5.27446890981162E-02 
367	 5.37761560696499E-02 
368	 5.06697313165041E-02 
369	 0.053132209294668 
370	 5.31956722825635E-02 
371	 5.14924438962189E-02 
372	 5.41856493246626E-02 
373	 5.65939169986968E-02 
374	 0.057614343073843 
375	 5.74148964111902E-02 
376	 5.74347012027882E-02 
377	 5.68717244448624E-02 
378	 5.61026519320895E-02 
379	 5.60862227259982E-02 
380	 5.89769370428212E-02 
381	 0.06005757591577 
382	 0.059199718959399 
383	 5.96405922970736E-02 
384	 5.80499203559944E-02 
385	 5.72503641600132E-02 
386	 0.058827891376762 
387	 6.07232316003489E-02 
388	 6.09424585657111E-02 
389	 6.00248597872509E-02 
390	 5.93629628439894E-02 
391	 5.93866155990552E-02 
392	 6.01800611104442E-02 
393	 6.15615741142916E-02 
394	 6.30396348316801E-02 
395	 6.15004014139338E-02 
396	 6.08601344421237E-02 
397	 6.30600618182365E-02 
398	 6.34801354354135E-02 
399	 6.35436946336126E-02 
400	 6.35680114094644E-02 
401	 6.35868780753461E-02 
402	 6.39982631485631E-02 
403	 6.36381508249062E-02 
404	 6.27237234488359E-02 
405	 0.06286056521875 
406	 6.35239949767587E-02 
407	 6.44604304433421E-02 
408	 6.51016886911316E-02 
409	 6.38041353927179E-02 
410	 6.28872000682685E-02 
411	 6.28777835831078E-02 
412	 6.34089672907751E-02 
413	 6.47433378022843E-02 
414	 6.53830627554207E-02 
415	 6.49736784840163E-02 
416	 6.47271013754839E-02 
417	 6.44594898614079E-02 
418	 6.46614553834267E-02 
419	 0.065507076292229 
420	 6.58410184903998E-02 
421	 6.53693614061816E-02 
422	 0.06499708075878 
423	 6.60704163121885E-02 
424	 6.60531791116991E-02 
425	 6.53298711328069E-02 
426	 6.47805101499057E-02 
427	 6.55326337694443E-02 
428	 6.58451561035881E-02 
429	 6.55821929737884E-02 
430	 6.52313569896521E-02 
431	 6.55087696879334E-02 
432	 6.54661281143343E-02 
433	 6.51546945042595E-02 
434	 6.55964286973231E-02 
435	 6.59099705502766E-02 
436	 6.58605531650692E-02 
437	 6.55463367931441E-02 
438	 6.55239965036804E-02 
439	 6.58001853038947E-02 
440	 6.62202672840964E-02 
441	 0.06652687201057 
442	 6.64221691127252E-02 
443	 6.65387174073189E-02 
444	 6.69534165994885E-02 
445	 6.67746241533187E-02 
446	 6.68354089117303E-02 
447	 6.69536577404531E-02 
448	 6.68430057306205E-02 
449	 6.70966270536429E-02 
450	 6.70470126536567E-02 
451	 6.68581137311715E-02 
452	 0.067351923624134 
453	 6.75788382967572E-02 
454	 6.76479671856167E-02 
455	 6.77740246370123E-02 
456	 6.79576262904916E-02 
457	 6.81264388249044E-02 
458	 6.82752894156964E-02 
459	 6.84034480810404E-02 
460	 6.82908980698258E-02 
461	 6.81627131741543E-02 
462	 6.81427643990426E-02 
463	 6.81509035469667E-02 
464	 6.84916586708895E-02 
465	 6.88180659144788E-02 
466	 6.88133451349463E-02 
467	 6.90437695452134E-02 
468	 6.92700536318286E-02 
469	 6.92722881318878E-02 
470	 6.89287737640338E-02 
471	 0.069186167533612 
472	 6.94520291476285E-02 
473	 6.93140097681533E-02 
474	 6.94159078560408E-02 
475	 6.95026511869705E-02 
476	 6.95506948321199E-02 
477	 6.96359576045392E-02 
478	 6.98636882025355E-02 
479	 7.00413142491883E-02 
480	 7.01075208175819E-02 
481	 7.02127877500927E-02 
482	 7.03829057307677E-02 
483	 7.05738710132592E-02 
484	 7.07391912425632E-02 
485	 7.09632147406387E-02 
486	 7.09405968789103E-02 
487	 7.07193854524028E-02 
488	 7.06476228601981E-02 
489	 7.08908873881296E-02 
490	 0.071092702891608 
491	 7.10722074318989E-02 
492	 7.13448230217106E-02 
493	 7.13830755403532E-02 
494	 7.12724617845213E-02 
495	 7.13649760472271E-02 
496	 7.16832989867291E-02 
497	 7.17806567278732E-02 
498	 7.16191441419546E-02 
499	 7.18294432781991E-02 
500	 7.18573015811589E-02 
501	 7.18270294389424E-02 
502	 7.19716993346565E-02 
503	 7.21150021635825E-02 
504	 7.21416712294514E-02 
505	 7.20682470577836E-02 
506	 7.20343746278506E-02 
507	 0.072311954008785 
508	 7.25143982599896E-02 
509	 7.23852892742873E-02 
510	 7.23313082389156E-02 
511	 7.24618371781895E-02 
512	 7.26754333756438E-02 
513	 7.27618396114838E-02 
514	 7.27562422006256E-02 
515	 7.27039727796611E-02 
516	 7.26849503283158E-02 
517	 0.072845033603801 
518	 7.29388315703527E-02 
519	 7.29980627788585E-02 
520	 7.30999283853608E-02 
521	 7.30221120131639E-02 
522	 7.30788207661824E-02 
523	 7.32476202338774E-02 
524	 7.31374545035968E-02 
525	 7.31067171288342E-02 
526	 7.31971044745384E-02 
527	 7.33482829718067E-02 
528	 7.34300018388586E-02 
529	 7.34481237643577E-02 
530	 7.34788825145327E-02 
531	 7.36168961176577E-02 
532	 7.35620968568268E-02 
533	 7.35846120735021E-02 
534	 7.38019821827286E-02 
535	 7.38459300601447E-02 
536	 7.39280052065941E-02 
537	 7.40201834488768E-02 
538	 7.40298783865779E-02 
539	 7.40634620677966E-02 
540	 7.40655797693897E-02 
541	 0.074062627007108 
542	 7.42082847982109E-02 
543	 7.42452756955877E-02 
544	 0.074255156015331 
545	 7.43682565365048E-02 
546	 7.45260949588752E-02 
547	 7.45817054117096E-02 
548	 7.45873286270847E-02 
549	 7.47507755721746E-02 
550	 7.48712115263586E-02 
551	 7.49299236970862E-02 
552	 7.49601641090443E-02 
553	 7.50334340440767E-02 
554	 7.51299125246555E-02 
555	 7.52460508276222E-02 
556	 7.53756750029306E-02 
557	 7.54270654820246E-02 
558	 7.54793473936642E-02 
559	 7.55877230519892E-02 
560	 7.57382621985841E-02 
561	 7.58481003453327E-02 
562	 7.59128306526998E-02 
563	 7.59746861570409E-02 
564	 7.61405261581941E-02 
565	 0.07632191106477 
566	 7.64925058160843E-02 
567	 0.076707830955143 
568	 7.69123647152843E-02 
569	 7.70800969876391E-02 
570	 7.72033599168488E-02 
571	 7.72977567183867E-02 
572	 7.74264995844328E-02 
573	 0.077611943090785 
574	 7.78364920702939E-02 
575	 7.80041123418985E-02 
576	 7.81084917648965E-02 
577	 0.078192724126854 
578	 7.83689418044445E-02 
579	 7.85788147251492E-02 
580	 7.88687954292574E-02 
581	 7.92913034675204E-02 
582	 7.96497190259724E-02 
583	 7.99436377587169E-02 
584	 8.01627522466336E-02 
585	 8.02528705150463E-02 
586	 8.03255429606459E-02 
587	 8.04304439395923E-02 
588	 8.05743025290419E-02 
589	 8.06781183047484E-02 
590	 8.07824602007917E-02 
591	 8.09175657603673E-02 
592	 8.10960098447886E-02 
593	 8.12224736686629E-02 
594	 0.081351360499648 
595	 8.15516539344807E-02 
596	 8.18603465517359E-02 
597	 8.21497380999687E-02 
598	 8.24296576362347E-02 
599	 8.27738911249177E-02 
600	 0.083087956457079 
601	 8.33057768077247E-02 
602	 8.34250060553874E-02 
603	 8.35437960172577E-02 
604	 8.36774358501423E-02 
605	 8.37972719216518E-02 
606	 8.38826497991015E-02 
607	 8.40673191492174E-02 
608	 8.42836764863414E-02 
609	 8.44594827118628E-02 
610	 8.45360358246141E-02 
611	 8.47007125380205E-02 
612	 8.49020515334892E-02 
613	 8.50552183975875E-02 
614	 8.51824256966296E-02 
615	 8.52824785879076E-02 
616	 8.53636861166023E-02 
617	 8.54446362790006E-02 
618	 8.55977604618984E-02 
619	 8.57155844288137E-02 
620	 8.57516758662795E-02 
621	 8.58509078607337E-02 
622	 8.59159422976567E-02 
623	 8.59821958011644E-02 
624	 8.61137868122489E-02 
625	 8.62046935036646E-02 
626	 8.62639036295676E-02 
627	 8.63134107722063E-02 
628	 8.63786798830208E-02 
629	 8.64391033603354E-02 
630	 8.65080577829106E-02 
631	 8.65952378386763E-02 
632	 8.66625600594312E-02 
633	 8.67200386377382E-02 
634	 0.086775046935171 
635	 0.086833679647592 
636	 8.69264855441201E-02 
637	 8.70278292682215E-02 
638	 8.70960560968361E-02 
639	 0.087058644249197 
640	 8.71195993282958E-02 
641	 8.72460314090606E-02 
642	 8.73070783167971E-02 
643	 8.73812395759939E-02 
644	 8.74304039177219E-02 
645	 8.74538493860659E-02 
646	 8.75179331195468E-02 
647	 8.76089637903121E-02 
648	 0.087695198442524 
649	 8.77578254949905E-02 
650	 8.78692709593766E-02 
651	 8.79268740433764E-02 
652	 8.79332999266921E-02 
653	 8.79848844465649E-02 
654	 8.80846343056856E-02 
655	 8.81719855496755E-02 
656	 8.82224071335934E-02 
657	 8.83418394402793E-02 
658	 8.83995885222614E-02 
659	 8.84297761154308E-02 
660	 8.85271260381089E-02 
661	 8.85940077838362E-02 
662	 8.86548006705255E-02 
663	 8.87300299772077E-02 
664	 8.88174373754597E-02 
665	 8.89324463115452E-02 
666	 8.90136733632588E-02 
667	 8.90264727840361E-02 
668	 8.91328183676083E-02 
669	 8.92552649362068E-02 
670	 8.93532713118754E-02 
671	 8.94282725556547E-02 
672	 8.95640219073193E-02 
673	 8.97087383957879E-02 
674	 8.98098158735434E-02 
675	 8.98663199077771E-02 
676	 8.99311478163791E-02 
677	 9.00017903039532E-02 
678	 9.00661289995385E-02 
679	 9.02406906162295E-02 
680	 9.03768202084975E-02 
681	 9.04223131605641E-02 
682	 9.04783175610453E-02 
683	 9.05726017381724E-02 
684	 9.06690137962592E-02 
685	 9.07359229052486E-02 
686	 9.08308714004782E-02 
687	 9.09476321868965E-02 
688	 9.10772887323666E-02 
689	 9.12071648429184E-02 
690	 0.091307627201356 
691	 9.13927140765066E-02 
692	 9.14865278139428E-02 
693	 9.16257034937473E-02 
694	 9.17120265635369E-02 
695	 9.17734425181926E-02 
696	 9.18760985770748E-02 
697	 9.20139282348765E-02 
698	 9.21260331278376E-02 
699	 9.22095603680181E-02 
700	 9.23238475085524E-02 
701	 9.24142766537649E-02 
702	 9.25019156609946E-02 
703	 9.26036328956548E-02 
704	 9.26751974592054E-02 
705	 9.27771467224739E-02 
706	 9.28824447612977E-02 
707	 9.29375410054579E-02 
708	 0.093082705957746 
709	 9.32111981864015E-02 
710	 9.32830094457904E-02 
711	 9.33920508440659E-02 
712	 9.34886745607132E-02 
713	 9.35587110877874E-02 
714	 9.36117337174066E-02 
715	 9.37078722345712E-02 
716	 9.38123402497185E-02 
717	 9.39007893358554E-02 
718	 9.39604796103914E-02 
719	 9.39992140977789E-02 
720	 9.40528025473767E-02 
721	 9.41322472420659E-02 
722	 9.41929973743974E-02 
723	 9.42807120005751E-02 
724	 9.43735593798867E-02 
725	 9.44385799847743E-02 
726	 9.45133152219895E-02 
727	 9.45602949315343E-02 
728	 9.45889039751716E-02 
729	 9.46513262387975E-02 
730	 9.47110798491474E-02 
731	 9.47580569618281E-02 
732	 9.47897608751633E-02 
733	 9.48055789692144E-02 
734	 9.48477635420752E-02 
735	 9.48949896800924E-02 
736	 0.094909577467984 
737	 9.49366254468503E-02 
738	 9.49636185884659E-02 
739	 9.49923098930861E-02 
740	 9.50422235351952E-02 
741	 9.50446653412578E-02 
742	 9.50300952809015E-02 
743	 9.50369048101688E-02 
744	 9.50683456126342E-02 
745	 9.50610217966974E-02 
746	 0.095045173451098 
747	 9.50743992015296E-02 
748	 9.50143545693153E-02 
749	 9.49636194457354E-02 
750	 9.49674538503824E-02 
751	 9.49813675363987E-02 
752	 9.49880501592975E-02 
753	 9.49837234525584E-02 
754	 9.49660001554185E-02 
755	 9.49149203670968E-02 
756	 9.49036760899092E-02 
757	 9.49007883465428E-02 
758	 0.094836742233866 
759	 0.094800631715381 
760	 9.47705141235802E-02 
761	 9.47344769572651E-02 
762	 9.47059945208635E-02 
763	 9.46803261512203E-02 
764	 0.094640038081471 
765	 9.45862688934049E-02 
766	 9.45860274350026E-02 
767	 9.45662484895765E-02 
768	 9.45130749408622E-02 
769	 0.094448984615595 
770	 9.44105595393126E-02 
771	 9.43812253163143E-02 
772	 9.43346025579208E-02 
773	 0.094242040833388 
774	 9.41777233758797E-02 
775	 9.41484643430789E-02 
776	 9.41321566606376E-02 
777	 0.094077679273914 
778	 9.40011116058531E-02 
779	 9.39448320046184E-02 
780	 0.09394407925545 
781	 9.39081416464646E-02 
782	 9.38642966823893E-02 
783	 9.38137812811155E-02 
784	 9.37251758967722E-02 
785	 9.36895017635772E-02 
786	 9.36430148905144E-02 
787	 9.35522350377607E-02 
788	 9.35341174979986E-02 
789	 9.34885023070325E-02 
790	 9.34215810831085E-02 
791	 9.33668037900175E-02 
792	 9.32735379853932E-02 
793	 9.32067117633256E-02 
794	 9.31750018017495E-02 
795	 9.31335890617116E-02 
796	 9.30739402359428E-02 
797	 9.30026582541231E-02 
798	 9.29356984906873E-02 
799	 9.28992440954021E-02 
800	 9.28716483216638E-02 
801	 9.28279514410133E-02 
802	 9.27614101230318E-02 
803	 9.27366683112378E-02 
804	 9.27107170551774E-02 
805	 9.26626883405872E-02 
806	 9.25965599101874E-02 
807	 9.25853209119585E-02 
808	 9.25277930951374E-02 
809	 0.092414655562062 
810	 9.23765385385624E-02 
811	 9.23797957916914E-02 
812	 9.23631491712509E-02 
813	 9.22936589184684E-02 
814	 9.22305505032806E-02 
815	 9.21882310242303E-02 
816	 9.21572692921871E-02 
817	 0.092120650228494 
818	 9.20927268267706E-02 
819	 0.092080091647512 
820	 9.20453112923455E-02 
821	 9.19319093304644E-02 
822	 9.19045439649937E-02 
823	 9.19152393595543E-02 
824	 9.19079131488465E-02 
825	 9.18707735036399E-02 
826	 9.18327897896145E-02 
827	 9.17832717092019E-02 
828	 9.17228559374791E-02 
829	 9.17290659499793E-02 
830	 9.16868296834707E-02 
831	 9.16197204072204E-02 
832	 9.16083129226188E-02 
833	 9.16193233308291E-02 
834	 9.16123404808997E-02 
835	 9.15718939558508E-02 
836	 9.15120876980885E-02 
837	 9.14844691502357E-02 
838	 9.14849406694414E-02 
839	 0.091489771415698 
840	 9.14612271928157E-02 
841	 0.091442089584503 
842	 9.14304422841069E-02 
843	 0.091409716627468 
844	 9.13541817061345E-02 
845	 9.13341985732595E-02 
846	 9.13372994888662E-02 
847	 9.13206623052124E-02 
848	 9.13242440100536E-02 
849	 9.12931615831178E-02 
850	 0.091240417704064 
851	 9.12356722039637E-02 
852	 9.12625348122749E-02 
853	 9.12552042044444E-02 
854	 9.12008232937791E-02 
855	 9.11720790360522E-02 
856	 9.12170482261744E-02 
857	 9.12764108940886E-02 
858	 9.12863380579316E-02 
859	 9.12413894563213E-02 
860	 9.12046599793802E-02 
861	 9.12088432238675E-02 
862	 9.12512520278402E-02 
863	 9.12487029059468E-02 
864	 9.12316925573741E-02 
865	 9.12248123265253E-02 
866	 9.12385607358496E-02 
867	 9.12301979967781E-02 
868	 9.12117967270479E-02 
869	 9.12052092697695E-02 
870	 9.12312722338273E-02 
871	 9.12379672584044E-02 
872	 9.12603760502018E-02 
873	 9.13001104176807E-02 
874	 9.12842739481903E-02 
875	 9.12698992250383E-02 
876	 9.12912956025649E-02 
877	 9.13427058649912E-02 
878	 9.13255906234428E-02 
879	 9.13800430035407E-02 
880	 9.14299627080853E-02 
881	 9.13843574012645E-02 
882	 9.14179801645934E-02 
883	 9.14945126224733E-02 
884	 9.15308967204257E-02 
885	 9.14665652100517E-02 
886	 9.15178579829689E-02 
887	 9.15793065359279E-02 
888	 9.16149504841389E-02 
889	 9.16636482400896E-02 
890	 9.16779703569507E-02 
891	 9.16899991979905E-02 
892	 9.17249832743654E-02 
893	 9.17816322368018E-02 
894	 9.17679741944173E-02 
895	 9.17816494916726E-02 
896	 9.18780386039914E-02 
897	 9.19704239477028E-02 
898	 9.20110069629121E-02 
899	 9.20367390752278E-02 
900	 9.20713514741306E-02 
901	 9.20215563912429E-02 
902	 9.20754918050338E-02 
903	 9.21686219560014E-02 
904	 9.21884042731091E-02 
905	 9.22002158915548E-02 
906	 9.22578702592193E-02 
907	 9.23144189040125E-02 
908	 9.23083250294132E-02 
909	 9.23737193365892E-02 
910	 9.24295063631172E-02 
911	 9.24954702148424E-02 
912	 0.09263034211823 
913	 9.26340556332039E-02 
914	 9.26803484037746E-02 
915	 9.27823719852844E-02 
916	 9.27996303579262E-02 
917	 9.28325170163138E-02 
918	 9.28891857343661E-02 
919	 9.29266283007686E-02 
920	 9.28799684568951E-02 
921	 9.30354437704066E-02 
922	 9.32016720562031E-02 
923	 9.32598768092225E-02 
924	 9.33208580107542E-02 
925	 9.33012784187126E-02 
926	 9.33255737850313E-02 
927	 9.34297157828526E-02 
928	 9.34151072830288E-02 
929	 9.35617021993195E-02 
930	 0.093680829623425 
931	 9.36441773866902E-02 
932	 0.093734163531941 
933	 9.38826849934014E-02 
934	 9.40304062399856E-02 
935	 9.41146227556189E-02 
936	 9.40594677603716E-02 
937	 9.41182479314608E-02 
938	 9.42409698758289E-02 
939	 9.43208424775442E-02 
940	 9.44672586979497E-02 
941	 9.45001515976855E-02 
942	 9.45461202665975E-02 
943	 9.47391947918851E-02 
944	 0.094737183895589 
945	 9.47408429523086E-02 
946	 0.094814024056182 
947	 9.49251972737948E-02 
948	 9.49578633099445E-02 
949	 9.50258955688416E-02 
950	 9.51335551543537E-02 
951	 9.52261683877917E-02 
952	 9.52940397490262E-02 
953	 9.53480488404623E-02 
954	 9.53796441666001E-02 
955	 9.54111279324018E-02 
956	 9.56892841039832E-02 
957	 9.58700704689346E-02 
958	 0.095936878124193 
959	 9.60560752022253E-02 
960	 9.60438731245196E-02 
961	 9.60960449564647E-02 
962	 9.62511766695066E-02 
963	 9.64026636257029E-02 
964	 9.63626006517709E-02 
965	 9.63947131330862E-02 
966	 9.65417671773435E-02 
967	 0.096674978454067 
968	 9.67872099192495E-02 
969	 0.096785100731213 
970	 9.67508904848911E-02 
971	 9.68531214218832E-02 
972	 9.70090724691626E-02 
973	 0.097147413623279 
974	 9.72165722363759E-02 
975	 9.72219022887037E-02 
976	 9.73622540101477E-02 
977	 9.75357076484768E-02 
978	 9.76043791519196E-02 
979	 0.097497756243236 
980	 9.75035499061552E-02 
981	 9.76466168931444E-02 
982	 9.77795105372451E-02 
983	 9.77529861408237E-02 
984	 0.097925996350616 
985	 9.81008148874713E-02 
986	 9.81581927924341E-02 
987	 0.098117320300982 
988	 9.82952621930716E-02 
989	 9.84048517528559E-02 
990	 9.84495333235819E-02 
991	 9.85555992371465E-02 
992	 9.85894199979009E-02 
993	 9.85866557595971E-02 
994	 9.86474893581312E-02 
995	 9.88304380703788E-02 
996	 9.89490959303997E-02 
997	 9.89954608501945E-02 
998	 9.89468285594374E-02 
999	 9.88810814758542E-02 
1000	 9.92100573873719E-02 
1001	 9.83602496595923E-02 
1002	 9.84205993651788E-02 
1003	 9.84000964908612E-02 
1004	 9.84338555745586E-02 
1005	 9.84602298510976E-02 
1006	 0.098505229296235 
1007	 0.098555363952433 
1008	 9.86892995451083E-02 
1009	 9.87954788841037E-02 
1010	 9.88254251219004E-02 
1011	 0.098856636338582 
1012	 0.098859338826472 
1013	 9.88367448572541E-02 
1014	 9.88755501332433E-02 
1015	 0.09897575643296 
1016	 9.90635553329464E-02 
1017	 9.91185868267936E-02 
1018	 9.91978903643023E-02 
1019	 9.92060662259766E-02 
1020	 9.91307934920376E-02 
1021	 9.91598465801515E-02 
1022	 9.92563385269107E-02 
1023	 9.92835254625403E-02 
1024	 9.93562369331337E-02 
1025	 9.94057125387687E-02 
1026	 9.93465299260333E-02 
1027	 9.93406407004539E-02 
1028	 9.94093891906737E-02 
1029	 9.94276541693527E-02 
1030	 9.94203708367996E-02 
1031	 9.94236185392488E-02 
1032	 9.94439222002633E-02 
1033	 0.099374646639549 
1034	 9.93287460011147E-02 
1035	 9.93584198398484E-02 
1036	 9.93402268389349E-02 
1037	 0.099383200176768 
1038	 9.94477159168255E-02 
1039	 9.94407896356007E-02 
1040	 9.94359865795438E-02 
1041	 9.93897186501327E-02 
1042	 0.099331441609116 
1043	 9.93174067642654E-02 
1044	 9.93193024370519E-02 
1045	 9.93540063414183E-02 
1046	 9.93843501298943E-02 
1047	 9.94508934550433E-02 
1048	 9.95624961400736E-02 
1049	 9.96065606684226E-02 
1050	 9.96762373932349E-02 
1051	 9.97074193104574E-02 
1052	 9.96317536515128E-02 
1053	 9.96392336292466E-02 
1054	 9.96596675561146E-02 
1055	 9.96546649884317E-02 
1056	 9.97093124156905E-02 
1057	 0.099754444562952 
1058	 9.97769331440924E-02 
1059	 9.98333717228733E-02 
1060	 9.99268658621905E-02 
1061	 0.100012179593188 
1062	 0.100070723284624 
1063	 0.10012730895911 
1064	 0.100156906653537 
1065	 0.100183244435479 
1066	 0.100208018579957 
1067	 0.100267886954915 
1068	 0.100343501912229 
1069	 0.10032655357899 
1070	 0.100368654703429 
1071	 0.100435104552922 
1072	 0.100504453905955 
1073	 0.100622792626262 
1074	 0.10070755319385 
1075	 0.100788433090761 
1076	 0.100802371610273 
1077	 0.100869809992909 
1078	 0.100914622201151 
1079	 0.100982417427513 
1080	 0.101074393429672 
1081	 0.101096589630928 
1082	 0.101120815581468 
1083	 0.101172503145249 
1084	 0.101224442386117 
1085	 0.101284631801192 
1086	 0.101393866786026 
1087	 0.101449795738953 
1088	 0.101474503135087 
1089	 0.101509118394776 
1090	 0.101553111322852 
1091	 0.101600277888103 
1092	 0.101646116034962 
1093	 0.101654779226119 
1094	 0.101638005897292 
1095	 0.101625192046334 
1096	 0.101654288517857 
1097	 0.101692070628901 
1098	 0.101716599804317 
1099	 0.101747330451551 
1100	 0.101776561937369 
1101	 0.101792133385325 
1102	 0.101823047348409 
1103	 0.101884860807232 
1104	 0.101908293896525 
1105	 0.101914185488047 
1106	 0.101889659038043 
1107	 0.101874213037851 
1108	 0.101871846464045 
1109	 0.101848395913924 
1110	 0.101871567615931 
1111	 0.101873658514056 
1112	 0.101862394884921 
1113	 0.101850523867714 
1114	 0.101840114663521 
1115	 0.101823916050912 
1116	 0.101799847700461 
1117	 0.10178101142393 
1118	 0.101754824090316 
1119	 0.101756241514793 
1120	 0.101753117291162 
1121	 0.101736896034696 
1122	 0.101732614970661 
1123	 0.101718095125095 
1124	 0.101712287035184 
1125	 0.101704337501032 
1126	 0.101699175120557 
1127	 0.101710046515961 
1128	 0.101702433763043 
1129	 0.101670743029873 
1130	 0.101667171049121 
1131	 0.101679964902171 
1132	 0.101672111341396 
1133	 0.10166708688478 
1134	 0.101667582324434 
1135	 0.101653095481244 
1136	 0.101644604067698 
1137	 0.101663503279118 
1138	 0.101652586653958 
1139	 0.101647335630783 
1140	 0.101634121287251 
1141	 0.101628153232679 
1142	 0.101635425177772 
1143	 0.101618066240071 
1144	 0.101579078141592 
1145	 0.101559732196414 
1146	 0.101526831665784 
1147	 0.101512233302547 
1148	 0.101532476935877 
1149	 0.101532676211062 
1150	 0.10153047292115 
1151	 0.101514238170041 
1152	 0.101503602443797 
1153	 0.101503817990297 
1154	 0.101496351751259 
1155	 0.101485731956557 
1156	 0.10148915236501 
1157	 0.101504184224404 
1158	 0.101496619452109 
1159	 0.10148758180504 
1160	 0.101482232879403 
1161	 0.101453637107055 
1162	 0.101444050386252 
1163	 0.101457940834829 
1164	 0.101459650985855 
1165	 0.1014512228623 
1166	 0.101454760119529 
1167	 0.101457593539339 
1168	 0.101481903469748 
1169	 0.101490537290083 
1170	 0.101503824992637 
1171	 0.101513037991545 
1172	 0.101511115787864 
1173	 0.101515270443005 
1174	 0.101531686479633 
1175	 0.10153350206348 
1176	 0.101513695120003 
1177	 0.101520473698448 
1178	 0.101536591754778 
1179	 0.101551236530874 
1180	 0.101586032120482 
1181	 0.101610561194878 
1182	 0.101638578382141 
1183	 0.101644229274679 
1184	 0.101647114230334 
1185	 0.101632284415239 
1186	 0.10165087483098 
1187	 0.101666532622409 
1188	 0.10170057648766 
1189	 0.101788649851763 
1190	 0.101817083313214 
1191	 0.101817037193765 
1192	 0.10182712025841 
1193	 0.101801173270317 
1194	 0.101809017472011 
1195	 0.10184704414707 
1196	 0.101871398601615 
1197	 0.101905227555905 
1198	 0.10193091279566 
1199	 0.101951253372117 
1200	 0.101955223836425 
1201	 0.101984095820873 
1202	 0.10202566310352 
1203	 0.102050703004932 
1204	 0.102076881986122 
1205	 0.102107776608867 
1206	 0.10212368343057 
1207	 0.102157120496482 
1208	 0.102226490606861 
1209	 0.102257309833804 
1210	 0.102258662666266 
1211	 0.102283370173247 
1212	 0.102302874208684 
1213	 0.102324017519684 
1214	 0.102369332175167 
1215	 0.102401081303062 
1216	 0.102425292220445 
1217	 0.102432741403902 
1218	 0.102452476682756 
1219	 0.102472262629158 
1220	 0.102494607903722 
1221	 0.102517365543676 
1222	 0.102544500444321 
1223	 0.102583324361417 
1224	 0.102606080902091 
1225	 0.102621342485977 
1226	 0.102640812595481 
1227	 0.102648638511691 
1228	 0.102665195316335 
1229	 0.102697169935974 
1230	 0.102718716555204 
1231	 0.102731682603032 
1232	 0.102749677748936 
1233	 0.102767907363 
1234	 0.102782743091298 
1235	 0.102802492952059 
1236	 0.102829718973175 
1237	 0.102849271778497 
1238	 0.102869802887623 
1239	 0.10288078996842 
1240	 0.102882635533086 
1241	 0.10289071516696 
1242	 0.102889153679062 
1243	 0.102899795751566 
1244	 0.102921321072471 
1245	 0.102939487816624 
1246	 0.102961140693158 
1247	 0.10298394130098 
1248	 0.103006378907783 
1249	 0.103033139559877 
1250	 0.103059237795311 
1251	 0.103069424146582 
1252	 0.103081957391199 
1253	 0.103086701421996 
1254	 0.103093142769291 
1255	 0.103099143438586 
1256	 0.103103308835977 
1257	 0.103101295618626 
1258	 0.103107302644211 
1259	 0.103118225697697 
1260	 0.103124304469673 
1261	 0.10312910787892 
1262	 0.103138414334013 
1263	 0.10315818506133 
1264	 0.103159333115286 
1265	 0.10315049558521 
1266	 0.103147905510413 
1267	 0.103130358455304 
1268	 0.103115159551697 
1269	 0.103116724277519 
1270	 0.103135353986609 
1271	 0.103144438752859 
1272	 0.103154750969744 
1273	 0.103173237522675 
1274	 0.103197469519084 
1275	 0.103218334789459 
1276	 0.103243917344814 
1277	 0.10326766955901 
1278	 0.103280817244553 
1279	 0.103309492183373 
1280	 0.103343332072627 
1281	 0.10338763220074 
1282	 0.103451222414711 
1283	 0.103506688277348 
1284	 0.103564762162751 
1285	 0.103622175526021 
1286	 0.103692685437965 
1287	 0.103750066708509 
1288	 0.103814754773605 
1289	 0.103893269073425 
1290	 0.103957419042737 
1291	 0.104001004805245 
1292	 0.104077316043748 
1293	 0.104164800554976 
1294	 0.104252433810332 
1295	 0.104364582801942 
1296	 0.104458093281564 
1297	 0.1045412233614 
1298	 0.104630422817504 
1299	 0.10472046169734 
1300	 0.104804174185531 
1301	 0.104893224776339 
1302	 0.104967151241538 
1303	 0.105010168330251 
1304	 0.10508755650138 
1305	 0.105172522835707 
1306	 0.105240731826374 
1307	 0.105325311699506 
1308	 0.10539377372708 
1309	 0.105457827791839 
1310	 0.10551050488335 
1311	 0.105560599371665 
1312	 0.105603762043423 
1313	 0.105648949040399 
1314	 0.105686110210365 
1315	 0.105721820164479 
1316	 0.105761509104022 
1317	 0.105800394836713 
1318	 0.105828863605811 
1319	 0.105865034878759 
1320	 0.105924067121317 
1321	 0.105948848495748 
1322	 0.105951244355464 
1323	 0.10596368497965 
1324	 0.105968348641846 
1325	 0.105964383471433 
1326	 0.105969411751049 
1327	 0.105971101262717 
1328	 0.105945702300926 
1329	 0.105916499511938 
1330	 0.10589771835946 
1331	 0.105883597512433 
1332	 0.105858523643569 
1333	 0.105833769709567 
1334	 0.105809525672261 
1335	 0.105776179175044 
1336	 0.105752235127423 
1337	 0.105738431415239 
1338	 0.105714878242827 
1339	 0.105688591951299 
1340	 0.105660222857467 
1341	 0.105632918487885 
1342	 0.105598535635395 
1343	 0.105565933034229 
1344	 0.105513262809073 
1345	 0.105462725000509 
1346	 0.105425581519486 
1347	 0.105375216315082 
1348	 0.105319004241346 
1349	 0.105263537739601 
1350	 0.10519307143562 
1351	 0.105124578660767 
1352	 0.105057845488475 
1353	 0.104985250473999 
1354	 0.104902724925575 
1355	 0.104826441209901 
1356	 0.10474904523979 
1357	 0.104674452228804 
1358	 0.104586350118653 
1359	 0.104528554637899 
1360	 0.104486069539671 
1361	 0.104448051119149 
1362	 0.104431902158692 
1363	 0.104418836434474 
1364	 0.104402613187741 
1365	 0.104401206162522 
1366	 0.104421064037669 
1367	 0.104432459494735 
1368	 0.104452318642761 
1369	 0.104469976122963 
1370	 0.104480648952898 
1371	 0.104496183630488 
1372	 0.104490966733849 
1373	 0.104469326394383 
1374	 0.104444467783196 
1375	 0.104407713827393 
1376	 0.104360423298299 
1377	 0.104314004271054 
1378	 0.104239541048979 
1379	 0.104124949299242 
1380	 0.10404649384551 
1381	 0.103951932147421 
1382	 0.103893000452087 
1383	 0.103865581540234 
1384	 0.103840330619945 
1385	 0.103838217483917 
1386	 0.103828824708563 
1387	 0.103834447858944 
1388	 0.103825929092009 
1389	 0.103812546250822 
1390	 0.103792542812212 
1391	 0.103752420749421 
1392	 0.103707363371318 
1393	 0.103658019805349 
1394	 0.103601155999016 
1395	 0.103546835779821 
1396	 0.103498147281969 
1397	 0.10345378748127 
1398	 0.103408871410462 
1399	 0.103366936277101 
1400	 0.10333579442604 
1401	 0.103297006730768 
1402	 0.103248552539931 
1403	 0.10321398077719 
1404	 0.103179734297981 
1405	 0.103155679064586 
1406	 0.103150401655431 
1407	 0.103132624783921 
1408	 0.103117651926245 
1409	 0.103098555513345 
1410	 0.103060395455847 
1411	 0.103042951730002 
1412	 0.103033452111901 
1413	 0.103032057559605 
1414	 0.103033184312528 
1415	 0.103034766025025 
1416	 0.103050792614731 
1417	 0.103070383815642 
1418	 0.103084854752159 
1419	 0.103103878859934 
1420	 0.103110078624191 
1421	 0.103114157126316 
1422	 0.103146875169581 
1423	 0.10318420205104 
1424	 0.103204231977888 
1425	 0.103223966958704 
1426	 0.103234056263621 
1427	 0.103220613836814 
1428	 0.103231307687113 
1429	 0.103248771431939 
1430	 0.103265497907516 
1431	 0.10329291189481 
1432	 0.10331238673604 
1433	 0.10332587827152 
1434	 0.103349565940591 
1435	 0.103370332888951 
1436	 0.103401704800453 
1437	 0.103454728795613 
1438	 0.103488194448361 
1439	 0.10351713125473 
1440	 0.103547004486109 
1441	 0.103565442566106 
1442	 0.10357912949663 
1443	 0.103597971263522 
1444	 0.103624847808106 
1445	 0.103659407446501 
1446	 0.103692582882188 
1447	 0.103733407363821 
1448	 0.10377424644646 
1449	 0.10379562680875 
1450	 0.103809702580526 
1451	 0.103832202438705 
1452	 0.103850432257053 
1453	 0.103876333636051 
1454	 0.103911887797784 
1455	 0.103940883198236 
1456	 0.103975587111184 
1457	 0.103990810234198 
1458	 0.103990010557809 
1459	 0.104005878714307 
1460	 0.104011643757547 
1461	 0.104030910128209 
1462	 0.104077398864351 
1463	 0.104100675048848 
1464	 0.104113093656098 
1465	 0.10413089498425 
1466	 0.104142812865698 
1467	 0.104155101677585 
1468	 0.104160826259705 
1469	 0.104179543216771 
1470	 0.104205331300979 
1471	 0.10423182193246 
1472	 0.104253716944407 
1473	 0.104287370436226 
1474	 0.104298478456049 
1475	 0.104302574215419 
1476	 0.104314437020412 
1477	 0.104329997020958 
1478	 0.10435810831747 
1479	 0.10437707854562 
1480	 0.104399237392436 
1481	 0.104431299790055 
1482	 0.104463444862525 
1483	 0.104495116003582 
1484	 0.104531863617756 
1485	 0.104576270139791 
1486	 0.104613844258008 
1487	 0.104651533101871 
1488	 0.104687653635196 
1489	 0.104727967077452 
1490	 0.104754010021354 
1491	 0.104765462857247 
1492	 0.104787344760236 
1493	 0.10480637464762 
1494	 0.104828512256906 
1495	 0.104854195245911 
1496	 0.104883940662401 
1497	 0.104914621779515 
1498	 0.104941750942601 
1499	 0.104981167281149 
1500	 0.105012005942064 
1501	 0.105034735269615 
1502	 0.105055563708935 
1503	 0.105080075007965 
1504	 0.105081319616753 
1505	 0.105092472802154 
1506	 0.105111934857668 
1507	 0.105127343885419 
1508	 0.105153672346478 
1509	 0.105180606355555 
1510	 0.105185951579559 
1511	 0.105190426025881 
1512	 0.10520194621124 
1513	 0.10520875976367 
1514	 0.105228816842402 
1515	 0.105259544758063 
1516	 0.105289752948093 
1517	 0.105308380582124 
1518	 0.105319992634928 
1519	 0.105334480026203 
1520	 0.105337251707174 
1521	 0.105355336874163 
1522	 0.105386496981271 
1523	 0.105410820205819 
1524	 0.105440929161286 
1525	 0.105458365695843 
1526	 0.105465306117935 
1527	 0.105479190234197 
1528	 0.105488289744638 
1529	 0.105502707638716 
1530	 0.105529634025394 
1531	 0.105542271360398 
1532	 0.105546565305688 
1533	 0.105554024487243 
1534	 0.105548242380649 
1535	 0.105559001200218 
1536	 0.105581230907931 
1537	 0.105599843649163 
1538	 0.105625782198312 
1539	 0.105650437014076 
1540	 0.105679519338772 
1541	 0.10570126093294 
1542	 0.105717363917021 
1543	 0.105735182343008 
1544	 0.105744390192709 
1545	 0.105758611605902 
1546	 0.105772785440605 
1547	 0.105802583193529 
1548	 0.105831243430257 
1549	 0.105845655490316 
1550	 0.105851554137526 
1551	 0.105859987792911 
1552	 0.105868652081587 
1553	 0.105876153189982 
1554	 0.105896853652042 
1555	 0.105915563633738 
1556	 0.105924456929189 
1557	 0.10593742691832 
1558	 0.10594617833527 
1559	 0.105962331776817 
1560	 0.10597250916787 
1561	 0.105981710692165 
1562	 0.10598990122967 
1563	 0.105990349832374 
1564	 0.106004614799854 
1565	 0.106031493696759 
1566	 0.106045484294539 
1567	 0.106057873099754 
1568	 0.106073203427912 
1569	 0.106084254101274 
1570	 0.106092836279583 
1571	 0.106113252026924 
1572	 0.106112415741763 
1573	 0.106088397188218 
1574	 0.106081946705747 
1575	 0.106071339878969 
1576	 0.106070671807724 
1577	 0.106085427595778 
1578	 0.106090335624233 
1579	 0.106089713596115 
1580	 0.106096702049075 
1581	 0.106106632303719 
1582	 0.10611505125012 
1583	 0.106125958482317 
1584	 0.106139017841207 
1585	 0.10615359854171 
1586	 0.106165700524711 
1587	 0.10618361784883 
1588	 0.106195068202215 
1589	 0.106199986787974 
1590	 0.106202588485191 
1591	 0.106205749400038 
1592	 0.106201319783763 
1593	 0.106187864931754 
1594	 0.106176915585475 
1595	 0.106155078065516 
1596	 0.106145409300259 
1597	 0.106145117696857 
1598	 0.106142316093802 
1599	 0.106149586996325 
1600	 0.106148423950712 
1601	 0.106135788317883 
1602	 0.106132641423511 
1603	 0.10612966096329 
1604	 0.106130766318654 
1605	 0.106138602607761 
1606	 0.106147398685372 
1607	 0.106167771474295 
1608	 0.106172835106136 
1609	 0.106165696428933 
1610	 0.10616441329611 
1611	 0.106148766146767 
1612	 0.106137417949737 
1613	 0.106141717519652 
1614	 0.106147229969814 
1615	 0.10615443826816 
1616	 0.106163257888579 
1617	 0.106169547034258 
1618	 0.106180711995655 
1619	 0.106174658952696 
1620	 0.106158889589837 
1621	 0.106166037562188 
1622	 0.1061765238696 
1623	 0.106182897441464 
1624	 0.106208911156934 
1625	 0.106210599187319 
1626	 0.10618961034933 
1627	 0.106183616716037 
1628	 0.106182624919849 
1629	 0.106174524068349 
1630	 0.106163327295765 
1631	 0.106154983495687 
1632	 0.106145077410463 
1633	 0.106134048372934 
1634	 0.106122964699766 
1635	 0.106115944537938 
1636	 0.106106278273481 
1637	 0.106101234319547 
1638	 0.106104214366957 
1639	 0.106102750949384 
1640	 0.106100125147916 
1641	 0.106097857816446 
1642	 0.106095226036751 
1643	 0.106093232295638 
1644	 0.106088637254502 
1645	 0.106091799489157 
1646	 0.106103393399382 
1647	 0.106104114266019 
1648	 0.10610243047084 
1649	 0.106103798072484 
1650	 0.106107107009794 
1651	 0.106094688019356 
1652	 0.106071743151814 
1653	 0.106064821349818 
1654	 0.106046605055751 
1655	 0.106044619992697 
1656	 0.106073465779912 
1657	 0.106076405456757 
1658	 0.106072567046209 
1659	 0.106058983331907 
1660	 0.106027493989779 
1661	 0.106012737126132 
1662	 0.10599078772046 
1663	 0.105986095241443 
1664	 0.106010482356925 
1665	 0.106004536284619 
1666	 0.105986844412588 
1667	 0.105977825263597 
1668	 0.105957735430422 
1669	 0.105943764670761 
1670	 0.105938648449495 
1671	 0.105934538158045 
1672	 0.105925940751429 
1673	 0.105923193889472 
1674	 0.105930513727501 
1675	 0.105935349712902 
1676	 0.105943829181687 
1677	 0.105941019718815 
1678	 0.105936886002148 
1679	 0.105928648269597 
1680	 0.105914173914337 
1681	 0.105889808021097 
1682	 0.105852976422031 
1683	 0.105831613912423 
1684	 0.105795622071676 
1685	 0.105787043151071 
1686	 0.105814785155022 
1687	 0.105815851275605 
1688	 0.105817317138006 
1689	 0.105812203407003 
1690	 0.105787596586263 
1691	 0.105780417954872 
1692	 0.105785397674312 
1693	 0.105779875554943 
1694	 0.105773697680396 
1695	 0.105766625655306 
1696	 0.105756466192288 
1697	 0.105741939005684 
1698	 0.105723578926179 
1699	 0.105712368147842 
1700	 0.105701939438498 
1701	 0.105683865735178 
1702	 0.105672689094845 
1703	 0.105652964982317 
1704	 0.105604353481444 
1705	 0.105592093349327 
1706	 0.105604033048045 
1707	 0.10559888185143 
1708	 0.105604192853286 
1709	 0.105607429780339 
1710	 0.10559812775632 
1711	 0.105594988538415 
1712	 0.105599899858152 
1713	 0.105604224503504 
1714	 0.105610738997346 
1715	 0.105608127197446 
1716	 0.105603563024201 
1717	 0.105603600665795 
1718	 0.105597994574999 
1719	 0.105587408664909 
1720	 0.105588001774416 
1721	 0.105569725837997 
1722	 0.105525846084985 
1723	 0.105503041375568 
1724	 0.105489330722215 
1725	 0.105465914490681 
1726	 0.105443725448488 
1727	 0.105420201450086 
1728	 0.105386752506752 
1729	 0.105359536388534 
1730	 0.105331237046793 
1731	 0.105322139209866 
1732	 0.105324376511865 
1733	 0.105316136699256 
1734	 0.105327672069892 
1735	 0.10531205007456 
1736	 0.105277445329978 
1737	 0.105241590000797 
1738	 0.105196646417643 
1739	 0.105151549469072 
1740	 0.10508816899875 
1741	 0.105058388672991 
1742	 0.105040068139557 
1743	 0.105022701490606 
1744	 0.105031660019009 
1745	 0.105009808460878 
1746	 0.10497505404328 
1747	 0.104950068674325 
1748	 0.104915999290684 
1749	 0.104877775948361 
1750	 0.104823440544788 
1751	 0.104775684130058 
1752	 0.104740314328381 
1753	 0.104714647449091 
1754	 0.104711975292884 
1755	 0.10469884435758 
1756	 0.104675840597075 
1757	 0.104651843074124 
1758	 0.104630576299547 
1759	 0.104617511977404 
1760	 0.104587893839289 
1761	 0.104587841866668 
1762	 0.104595161125123 
1763	 0.104586182292745 
1764	 0.1045953048044 
1765	 0.104571741172585 
1766	 0.104529276892329 
1767	 0.104516741572188 
1768	 0.10452031060904 
1769	 0.104530918719526 
1770	 0.104552490831364 
1771	 0.104563056756582 
1772	 0.104529097599471 
1773	 0.10448436567825 
1774	 0.104446438379151 
1775	 0.104402810726607 
1776	 0.104387349455932 
1777	 0.104382661159563 
1778	 0.10436161291723 
1779	 0.104337273463639 
1780	 0.104313316421659 
1781	 0.104292790967874 
1782	 0.104274773458744 
1783	 0.104231897442594 
1784	 0.104205185022728 
1785	 0.104175889646608 
1786	 0.104152012147157 
1787	 0.104151590103643 
1788	 0.104137838444696 
1789	 0.104113856749476 
1790	 0.104090553580909 
1791	 0.104064621780291 
1792	 0.104049155765394 
1793	 0.104031536546751 
1794	 0.104020247998867 
1795	 0.104021351727739 
1796	 0.104015899873353 
1797	 0.104017494972175 
1798	 0.104005787955464 
1799	 0.103983566876392 
1800	 0.103966093830025 
1801	 0.100247363254644 
1802	 0.100389518961699 
1803	 0.100508624696502 
1804	 0.100629879152027 
1805	 0.100759476886837 
1806	 0.100868918648309 
1807	 0.100985676067148 
1808	 0.101077091623324 
1809	 0.101164250292606 
1810	 0.101226448858166 
1811	 0.101251965167938 
1812	 0.101295326884052 
1813	 0.101345887609928 
1814	 0.101369871409422 
1815	 0.101401075443705 
1816	 0.101419407684074 
1817	 0.101429664069567 
1818	 0.101416948005685 
1819	 0.101431201438215 
1820	 0.1014541001458 
1821	 0.101471454603562 
1822	 0.101484065340723 
1823	 0.101509087940389 
1824	 0.101520832776748 
1825	 0.101513400324114 
1826	 0.101521939042006 
1827	 0.101518729982192 
1828	 0.101507802849068 
1829	 0.101483736326494 
1830	 0.101469559089685 
1831	 0.101446330645225 
1832	 0.101435373999614 
1833	 0.101444989417704 
1834	 0.101447822950969 
1835	 0.101449586945148 
1836	 0.101471765186113 
1837	 0.101492916713502 
1838	 0.101512030142883 
1839	 0.101522903823379 
1840	 0.101537293992217 
1841	 0.101530895059531 
1842	 0.101525911482178 
1843	 0.101545774515214 
1844	 0.101590741884238 
1845	 0.101641778765058 
1846	 0.101698029303643 
1847	 0.101751608718254 
1848	 0.10179583038576 
1849	 0.101842762843041 
1850	 0.101873150164749 
1851	 0.101891361392903 
1852	 0.101900299044848 
1853	 0.101906812692606 
1854	 0.101906728803523 
1855	 0.101911226378866 
1856	 0.101915655487362 
1857	 0.10194341026063 
1858	 0.101975840322692 
1859	 0.102000482135799 
1860	 0.102012435071095 
1861	 0.102024589076475 
1862	 0.102008433363724 
1863	 0.101989269166247 
1864	 0.101963071725668 
1865	 0.101915722757533 
1866	 0.101844877347435 
1867	 0.101760234385701 
1868	 0.101648937037896 
1869	 0.10153783886762 
1870	 0.101460108008009 
1871	 0.10140266830413 
1872	 0.101356643501366 
1873	 0.101339683498867 
1874	 0.101345860039562 
1875	 0.101370358588127 
1876	 0.101386928482928 
1877	 0.101395636426253 
1878	 0.101391783513495 
1879	 0.10135699160577 
1880	 0.101297991506011 
1881	 0.101200989948105 
1882	 0.101098467278774 
1883	 0.100979497718178 
1884	 0.100848761698128 
1885	 0.1007000199623 
1886	 0.100543374509869 
1887	 0.100360134926523 
1888	 0.10015647485556 
1889	 9.99572343064782E-02 
1890	 9.97620197364213E-02 
1891	 9.95516917449795E-02 
1892	 0.099345313448407 
1893	 9.91184411699072E-02 
1894	 0.098867999215776 
1895	 9.86128128583619E-02 
1896	 9.83715526887136E-02 
1897	 9.81138933868093E-02 
1898	 9.78518079920366E-02 
1899	 9.75840191426787E-02 
1900	 9.73018660687359E-02 
1901	 9.70509140087111E-02 
1902	 9.68208614746228E-02 
1903	 9.66158614369978E-02 
1904	 9.64228284041727E-02 
1905	 0.096259325606039 
1906	 9.60819764589472E-02 
1907	 9.59306085703157E-02 
1908	 9.57912536037614E-02 
1909	 9.56332187379184E-02 
1910	 9.55017666767097E-02 
1911	 9.53538947774989E-02 
1912	 9.51804757002799E-02 
1913	 9.50309575909406E-02 
1914	 9.48722425314578E-02 
1915	 0.094744401573095 
1916	 0.094632601565639 
1917	 9.45496027994826E-02 
1918	 9.44702555355767E-02 
1919	 9.44226065537268E-02 
1920	 9.43674520283008E-02 
1921	 9.42986929954216E-02 
1922	 9.42538986305525E-02 
1923	 9.42220997551697E-02 
1924	 9.41941422808828E-02 
1925	 9.41853492344899E-02 
1926	 9.41708385997026E-02 
1927	 9.41513379155959E-02 
1928	 0.09414514410356 
1929	 9.41563241386107E-02 
1930	 9.41661645950211E-02 
1931	 9.41854757259732E-02 
1932	 9.42015485960841E-02 
1933	 9.42190997687327E-02 
1934	 9.42340029266246E-02 
1935	 9.42477733054147E-02 
1936	 9.42587394410651E-02 
1937	 9.42821257485369E-02 
1938	 9.43077733275725E-02 
1939	 9.43386221791079E-02 
1940	 9.43822159210733E-02 
1941	 9.44244967505321E-02 
1942	 9.44738236745733E-02 
1943	 9.45262563689279E-02 
1944	 9.45755098230675E-02 
1945	 9.46419977545234E-02 
1946	 9.47093171066475E-02 
1947	 9.47744268103463E-02 
1948	 9.48420686260451E-02 
1949	 9.49364051417299E-02 
1950	 9.49988532246401E-02 
1951	 0.095049544239106 
1952	 9.50844064709758E-02 
1953	 9.51071884260293E-02 
1954	 9.51401140440771E-02 
1955	 0.095184980300676 
1956	 9.52493763358784E-02 
1957	 9.53192637052993E-02 
1958	 9.54053440092397E-02 
1959	 9.54869229876279E-02 
1960	 9.55788828239208E-02 
1961	 9.56640601010825E-02 
1962	 9.57459365177967E-02 
1963	 9.58372789325548E-02 
1964	 9.59332418998455E-02 
1965	 9.60222527027281E-02 
1966	 9.61276046623291E-02 
1967	 9.62235778020792E-02 
1968	 9.63281097407073E-02 
1969	 9.64465599553868E-02 
1970	 9.65409647415144E-02 
1971	 9.66358039379347E-02 
1972	 9.67155348781197E-02 
1973	 9.67595327068217E-02 
1974	 9.68311532351678E-02 
1975	 9.69119064753058E-02 
1976	 0.096981512624769 
1977	 9.70839791767959E-02 
1978	 9.71869130209641E-02 
1979	 9.72626133632558E-02 
1980	 9.73596921690027E-02 
1981	 9.74429395708975E-02 
1982	 9.75007939521919E-02 
1983	 9.75826653352476E-02 
1984	 9.76778110626318E-02 
1985	 9.77701596538436E-02 
1986	 9.78816934575865E-02 
1987	 9.79768417705064E-02 
1988	 9.80607544527712E-02 
1989	 9.81454309033013E-02 
1990	 9.82412578600006E-02 
1991	 9.83123449159979E-02 
1992	 9.83993692577839E-02 
1993	 9.85085887771494E-02 
1994	 9.85846646770341E-02 
1995	 9.86403177418843E-02 
1996	 9.87084933133815E-02 
1997	 9.87572859146806E-02 
1998	 9.88245811988613E-02 
1999	 9.89098198400923E-02 
2000	 0.098993003654679 
2001	 9.90810333773645E-02 
2002	 9.91664860112473E-02 
2003	 9.92674492077731E-02 
2004	 9.93534737915429E-02 
2005	 9.94444686408824E-02 
2006	 9.95481831466037E-02 
2007	 9.96279197666514E-02 
2008	 9.96935653939404E-02 
2009	 9.97640088175434E-02 
2010	 9.98135271483169E-02 
2011	 0.099881302969761 
2012	 9.99617421463897E-02 
2013	 0.100035453815468 
2014	 0.100103791229559 
2015	 0.100194462425743 
2016	 0.100269531310355 
2017	 0.100342800672354 
2018	 0.10041424894165 
2019	 0.100479965189286 
2020	 0.100552697631135 
2021	 0.100622154912619 
2022	 0.100702270206644 
2023	 0.100793008157133 
2024	 0.100881411806128 
2025	 0.100989059325298 
2026	 0.101071302598961 
2027	 0.101132874871843 
2028	 0.10120598668895 
2029	 0.1012769343113 
2030	 0.10133520953409 
2031	 0.101396198757389 
2032	 0.101476677063409 
2033	 0.101523880118625 
2034	 0.101531292888915 
2035	 0.101576981693322 
2036	 0.101624407372083 
2037	 0.101679297030913 
2038	 0.101763799206358 
2039	 0.101831870440517 
2040	 0.10189197354212 
2041	 0.101950661108968 
2042	 0.102015608016224 
2043	 0.102084459751782 
2044	 0.102145942751347 
2045	 0.102211441765766 
2046	 0.102265964522659 
2047	 0.102307523026337 
2048	 0.102356052471115 
2049	 0.10239497646868 
2050	 0.102451079297309 
2051	 0.102522844261649 
2052	 0.102583869224353 
2053	 0.102649185383885 
2054	 0.102711650983091 
2055	 0.102752888451714 
2056	 0.102822800743024 
2057	 0.102882811327126 
2058	 0.102952093545268 
2059	 0.103008051711584 
2060	 0.103060974759485 
2061	 0.10310405111411 
2062	 0.10313169977787 
2063	 0.103171063166054 
2064	 0.103203843487805 
2065	 0.103248440547272 
2066	 0.103298852830699 
2067	 0.103359547371176 
2068	 0.103449432506827 
2069	 0.103514686456412 
2070	 0.103556046005684 
2071	 0.103590745407527 
2072	 0.103613833918958 
2073	 0.1035878762545 
2074	 0.103612708816872 
2075	 0.103658110895588 
2076	 0.103701704331134 
2077	 0.103761568249518 
2078	 0.103817258510161 
2079	 0.103874271124189 
2080	 0.103934102042969 
2081	 0.104009339798458 
2082	 0.10406562792035 
2083	 0.104114243944883 
2084	 0.104156709702859 
2085	 0.104198858291519 
2086	 0.104228783213183 
2087	 0.104261550008606 
2088	 0.104297090632579 
2089	 0.104330206253384 
2090	 0.104348713940199 
2091	 0.1043866087108 
2092	 0.104441652800631 
2093	 0.104483624226653 
2094	 0.10453072224346 
2095	 0.104572526288214 
2096	 0.104591732206244 
2097	 0.1046321329317 
2098	 0.104691475041247 
2099	 0.1047427666456 
2100	 0.104787236684871 
2101	 0.104838052835513 
2102	 0.10488270983308 
2103	 0.104909524671029 
2104	 0.104952280056953 
2105	 0.105011745837316 
2106	 0.105053204152008 
2107	 0.105076488526582 
2108	 0.105122141625683 
2109	 0.105167593123277 
2110	 0.105224404543354 
2111	 0.105304550066208 
2112	 0.105379762991 
2113	 0.105464615292335 
2114	 0.105534377974602 
2115	 0.105607589556262 
2116	 0.105689622082014 
2117	 0.105743941607643 
2118	 0.105776697663155 
2119	 0.10582751583174 
2120	 0.105866798051515 
2121	 0.105918059829387 
2122	 0.106001529394273 
2123	 0.106045996675454 
2124	 0.106076039206189 
2125	 0.106096994430822 
2126	 0.106078997379263 
2127	 0.106087818381943 
2128	 0.106109797803525 
2129	 0.106120546664417 
2130	 0.106129510563991 
2131	 0.106157286025653 
2132	 0.106160511692871 
2133	 0.106137405754031 
2134	 0.106145670210065 
2135	 0.10616979798729 
2136	 0.106172576453017 
2137	 0.106177283298543 
2138	 0.106181915380265 
2139	 0.10617914494241 
2140	 0.106165277394305 
2141	 0.106157065328005 
2142	 0.106136302078182 
2143	 0.106071524453144 
2144	 0.10604415581215 
2145	 0.106051731220884 
2146	 0.106035258940855 
2147	 0.106025626153715 
2148	 0.106013825701761 
2149	 0.105975563080879 
2150	 0.105906584971225 
2151	 0.105847178322918 
2152	 0.105782830958771 
2153	 0.105709592327959 
2154	 0.105622161919636 
2155	 0.105545563560637 
2156	 0.10547458200665 
2157	 0.105387204616185 
2158	 0.10529029990464 
2159	 0.105202651467185 
2160	 0.105092248693435 
2161	 0.105008236640374 
2162	 0.104958773451249 
2163	 0.104894138058066 
2164	 0.104836014504284 
2165	 0.10477013759529 
2166	 0.104699100806321 
2167	 0.104622309471419 
2168	 0.104535261959967 
2169	 0.104435348998423 
2170	 0.10434761009997 
2171	 0.104240381525022 
2172	 0.104169201960474 
2173	 0.104141137529279 
2174	 0.104072141604231 
2175	 0.104001142942116 
2176	 0.103926443843221 
2177	 0.103824587367151 
2178	 0.103733010127398 
2179	 0.103651378070618 
2180	 0.103565713586456 
2181	 0.103462775168836 
2182	 0.103379300141015 
2183	 0.103311619881269 
2184	 0.103248254385415 
2185	 0.103170699870131 
2186	 0.103089658774479 
2187	 0.10301948676369 
2188	 0.102940159203709 
2189	 0.10287483256418 
2190	 0.102832921812172 
2191	 0.102776421606131 
2192	 0.102719929058345 
2193	 0.102651374347515 
2194	 0.102557373963397 
2195	 0.102501815418974 
2196	 0.102457370755222 
2197	 0.102412047446978 
2198	 0.102407420391128 
2199	 0.102374227475 
2200	 0.102315223063548 
2201	 0.102264423140285 
2202	 0.102204997346573 
2203	 0.102149205642509 
2204	 0.102113258598898 
2205	 0.10208918635421 
2206	 0.102061155761374 
2207	 0.102040543894325 
2208	 0.102033731763588 
2209	 0.102021900607726 
2210	 0.102034656645248 
2211	 0.102089170433039 
2212	 0.102109942842046 
2213	 0.102140132461108 
2214	 0.10214158990735 
2215	 0.102107445524698 
2216	 0.102091211769257 
2217	 0.102058109151367 
2218	 0.102041691897166 
2219	 0.102040743067423 
2220	 0.10203878553214 
2221	 0.102034846280334 
2222	 0.102048494492114 
2223	 0.102055156816482 
2224	 0.102080142421853 
2225	 0.102086684482539 
2226	 0.102088480814368 
2227	 0.102094121966215 
2228	 0.102088046275962 
2229	 0.102099008939264 
2230	 0.102124825369543 
2231	 0.102142685588612 
2232	 0.102162843013331 
2233	 0.102187046315578 
2234	 0.102214919926789 
2235	 0.102237421370352 
2236	 0.102265371473735 
2237	 0.102281164021618 
2238	 0.102279364214282 
2239	 0.102289587134955 
2240	 0.102292640888815 
2241	 0.102311266920073 
2242	 0.102359097690844 
2243	 0.102383160906672 
2244	 0.102397979380912 
2245	 0.102422313066255 
2246	 0.102438945494933 
2247	 0.102431698956026 
2248	 0.10242385577201 
2249	 0.102408472783123 
2250	 0.102413481938001 
2251	 0.102402160528629 
2252	 0.102429474198383 
2253	 0.102510182335034 
2254	 0.102538108799838 
2255	 0.102558864071857 
2256	 0.102572749590676 
2257	 0.102556129505178 
2258	 0.102561922829489 
2259	 0.102568011272617 
2260	 0.102586062484861 
2261	 0.102622585292587 
2262	 0.102642293499477 
2263	 0.102664693418478 
2264	 0.102688508170999 
2265	 0.102693410529858 
2266	 0.102713696336268 
2267	 0.102763102365243 
2268	 0.102788494168425 
2269	 0.102809554860577 
2270	 0.102816146772976 
2271	 0.102824542979468 
2272	 0.102831816962988 
2273	 0.102834113181226 
2274	 0.102852202441849 
2275	 0.102860519965659 
2276	 0.102866358467988 
2277	 0.102847893654822 
2278	 0.102804192061618 
2279	 0.102808171904018 
2280	 0.10280855160256 
2281	 0.102824870986143 
2282	 0.102892313685832 
2283	 0.102929527129551 
2284	 0.102959127678021 
2285	 0.102973280298546 
2286	 0.102979277302353 
2287	 0.102981882162964 
2288	 0.102951093931987 
2289	 0.102956130106237 
2290	 0.102975303286073 
2291	 0.103009061520288 
2292	 0.103069137389861 
2293	 0.10311322789844 
2294	 0.103181448949841 
2295	 0.103218173101543 
2296	 0.103234751416686 
2297	 0.103241861301213 
2298	 0.103236875702378 
2299	 0.103229432302735 
2300	 0.103220036719651 
2301	 0.103212548459862 
2302	 0.103221035600825 
2303	 0.103238939335425 
2304	 0.103266022458617 
2305	 0.103306678795112 
2306	 0.103315946623288 
2307	 0.103306808163613 
2308	 0.103294361453915 
2309	 0.10324932500377 
2310	 0.103251966428416 
2311	 0.103270254330004 
2312	 0.103284862799843 
2313	 0.10334847595314 
2314	 0.103345667099565 
2315	 0.103291332994061 
2316	 0.103275105452262 
2317	 0.103227801919993 
2318	 0.103230249175835 
2319	 0.103296054600217 
2320	 0.103320187232649 
2321	 0.103335840958312 
2322	 0.103358961180523 
2323	 0.103352810250254 
2324	 0.103381499802327 
2325	 0.103464379693676 
2326	 0.103509345907573 
2327	 0.103535495956107 
2328	 0.103592062199565 
2329	 0.103606186302211 
2330	 0.103608220722822 
2331	 0.103667063359084 
2332	 0.103701855039056 
2333	 0.103690577670874 
2334	 0.103697517280749 
2335	 0.103705766065957 
2336	 0.103652952860017 
2337	 0.10363514167858 
2338	 0.103706853175832 
2339	 0.10379011553539 
2340	 0.103870007171992 
2341	 0.1039389142985 
2342	 0.103934594748446 
2343	 0.103866468774462 
2344	 0.103836126443087 
2345	 0.10382984022643 
2346	 0.103863361226734 
2347	 0.103879609360767 
2348	 0.103903499203521 
2349	 0.103907028376324 
2350	 0.103908736566467 
2351	 0.103896718278163 
2352	 0.103873059944266 
2353	 0.10386025551986 
2354	 0.103839697794461 
2355	 0.103806448075799 
2356	 0.103766741666856 
2357	 0.103744748439838 
2358	 0.103737055235332 
2359	 0.103706936881846 
2360	 0.103653811761798 
2361	 0.10361458586111 
2362	 0.103557469762285 
2363	 0.103533007723419 
2364	 0.103554050033514 
2365	 0.103565866621985 
2366	 0.103590469426737 
2367	 0.103586770760556 
2368	 0.103585360765994 
2369	 0.103563646035736 
2370	 0.103532568276518 
2371	 0.103445466406001 
2372	 0.103372815373047 
2373	 0.103325109469862 
2374	 0.103296645378425 
2375	 0.103272788460191 
2376	 0.10323959136354 
2377	 0.10324450026449 
2378	 0.103233237208343 
2379	 0.103210539608698 
2380	 0.103214056186147 
2381	 0.103188527830491 
2382	 0.103176887563205 
2383	 0.103151649451258 
2384	 0.103081889598134 
2385	 0.103000546049925 
2386	 0.10292336930486 
2387	 0.102857906924996 
2388	 0.102801886189539 
2389	 0.102821909757661 
2390	 0.102841549521934 
2391	 0.102827902165607 
2392	 0.102846550285272 
2393	 0.102830883235327 
2394	 0.102782577457754 
2395	 0.10274422507226 
2396	 0.102699243379566 
2397	 0.10266830841721 
2398	 0.102583211266971 
2399	 0.102491889248339 
2400	 0.102430524967007 
2401	 0.102287182031698 
2402	 0.10223367000205 
2403	 0.102231427667804 
2404	 0.102196908472237 
2405	 0.102228618875605 
2406	 0.102217450600221 
2407	 0.102164816718654 
2408	 0.102102694184093 
2409	 0.102048480913443 
2410	 0.102063792322744 
2411	 0.102060955888717 
2412	 0.102039223347919 
2413	 0.102032345596454 
2414	 0.101953668811986 
2415	 0.101880418682788 
2416	 0.101810236149654 
2417	 0.101750388585861 
2418	 0.101662542592472 
2419	 0.101538931450585 
2420	 0.101479084356491 
2421	 0.101443062595435 
2422	 0.101410634686875 
2423	 0.101421341861262 
2424	 0.101410286891623 
2425	 0.101384053753058 
2426	 0.101385039793874 
2427	 0.101426485725335 
2428	 0.101390146900829 
2429	 0.101387903427408 
2430	 0.101244182088359 
2431	 0.100886769026322 
2432	 0.100734353367301 
2433	 0.100563245944284 
2434	 0.100513440730868 
2435	 0.100700845310056 
2436	 0.100735820376653 
2437	 0.100740650788142 
2438	 0.100725816873076 
2439	 0.10065514272596 
2440	 0.100612336823435 
2441	 0.100568765787538 
2442	 0.100473730107356 
2443	 0.100349376295486 
2444	 0.100253674923094 
2445	 0.100181177854977 
2446	 0.100161009822544 
2447	 0.100109344444443 
2448	 0.100083554622093 
2449	 0.100138049291175 
2450	 0.100054753369417 
2451	 9.99950416935448E-02 
2452	 9.98723851376248E-02 
2453	 9.95170112966171E-02 
2454	 9.94196636296319E-02 
2455	 9.94319948139152E-02 
2456	 9.94357463680773E-02 
2457	 0.099635177817506 
2458	 9.96560445752122E-02 
2459	 9.95025408154952E-02 
2460	 9.94432513677664E-02 
2461	 9.94281448847461E-02 
2462	 9.93430561883803E-02 
2463	 9.92953690673756E-02 
2464	 9.92129175189888E-02 
2465	 9.90053964194405E-02 
2466	 9.89375869923533E-02 
2467	 9.89410143315971E-02 
2468	 9.88701880087776E-02 
2469	 9.87602376808652E-02 
2470	 9.84897180867996E-02 
2471	 9.85503980112076E-02 
2472	 9.85058564158778E-02 
2473	 9.84427981050567E-02 
2474	 9.85467949183241E-02 
2475	 9.84548485230976E-02 
2476	 9.83119389411557E-02 
2477	 9.83802229189985E-02 
2478	 9.84131277843264E-02 
2479	 9.83957454276521E-02 
2480	 9.83115078354087E-02 
2481	 9.81094299064197E-02 
2482	 9.81414434827128E-02 
2483	 9.81396204077936E-02 
2484	 9.80049780116117E-02 
2485	 9.80739823710355E-02 
2486	 9.79752218979263E-02 
2487	 0.097812320765747 
2488	 9.78736103568196E-02 
2489	 9.79243934151327E-02 
2490	 0.097771442788352 
2491	 9.74705860307626E-02 
2492	 9.72902615391262E-02 
2493	 0.097177135583058 
2494	 9.72991041425346E-02 
2495	 0.097275731309966 
2496	 9.69539467791688E-02 
2497	 0.096769568231472 
2498	 9.64258965824989E-02 
2499	 9.63884328055221E-02 
2500	 9.66837508756236E-02 
