Wavelength	LMW_2300004.asd
350	 7.94299372133862E-02 
351	 9.73046167444702E-02 
352	 9.90620556511489E-02 
353	 7.63222990932904E-02 
354	 6.62698526628899E-02 
355	 7.56458447426481E-02 
356	 8.58527284299891E-02 
357	 8.17401107928526E-02 
358	 8.91609667044075E-02 
359	 8.62371523187526E-02 
360	 7.81789605009995E-02 
361	 8.51960004157729E-02 
362	 8.25645661432044E-02 
363	 7.88198870631838E-02 
364	 7.99401605349897E-02 
365	 8.15856056450168E-02 
366	 0.082783745771447 
367	 8.50409558963529E-02 
368	 8.91878979484678E-02 
369	 0.090809238296347 
370	 9.03261130731513E-02 
371	 8.78111516432821E-02 
372	 0.083551934616535 
373	 8.33466826944438E-02 
374	 8.69652557954825E-02 
375	 9.14267305463648E-02 
376	 0.09070566527161 
377	 0.08841679390374 
378	 0.086625351403595 
379	 8.68465846523283E-02 
380	 9.09686403638236E-02 
381	 8.99799814457524E-02 
382	 8.55684301184769E-02 
383	 8.70977352037738E-02 
384	 0.089712858143294 
385	 8.97609725082765E-02 
386	 8.75171618132538E-02 
387	 9.05898175139271E-02 
388	 9.03292410072117E-02 
389	 8.88763254677346E-02 
390	 9.04289550142958E-02 
391	 9.15827080884442E-02 
392	 9.17817359619395E-02 
393	 9.20576808661783E-02 
394	 9.43492923995501E-02 
395	 9.45704339065489E-02 
396	 9.45751824165177E-02 
397	 9.54887108886696E-02 
398	 9.45622794441729E-02 
399	 9.46206359214366E-02 
400	 9.56589266512414E-02 
401	 9.66044670939854E-02 
402	 9.70247319994159E-02 
403	 9.66816288211349E-02 
404	 9.60385602479109E-02 
405	 9.61653550719109E-02 
406	 9.67020217307117E-02 
407	 9.70158483301661E-02 
408	 9.68947514291249E-02 
409	 9.73861679559311E-02 
410	 9.73004992215035E-02 
411	 9.68193005617553E-02 
412	 9.68478738904744E-02 
413	 9.86027532822063E-02 
414	 9.95738784178069E-02 
415	 9.89833349089007E-02 
416	 0.098593587461921 
417	 9.77854351394127E-02 
418	 0.097448659291302 
419	 9.81346574012384E-02 
420	 0.098339197487428 
421	 9.77200645039354E-02 
422	 9.71972402976352E-02 
423	 9.81649064911945E-02 
424	 9.80684812301722E-02 
425	 9.74952231210407E-02 
426	 9.71753119741151E-02 
427	 9.73776315557052E-02 
428	 9.71770712888023E-02 
429	 9.67205692788818E-02 
430	 9.64524814220405E-02 
431	 9.63774802461787E-02 
432	 9.61160296960814E-02 
433	 9.59069263045414E-02 
434	 9.65213677781217E-02 
435	 0.096454527027982 
436	 9.60359472186517E-02 
437	 0.095781741623138 
438	 9.56453872995161E-02 
439	 9.59698906571869E-02 
440	 9.63298187559252E-02 
441	 0.096100057550935 
442	 9.64597278266702E-02 
443	 9.66190140557406E-02 
444	 9.63986036630348E-02 
445	 9.68312774877656E-02 
446	 9.68979190762177E-02 
447	 9.67319453072608E-02 
448	 9.67624275348465E-02 
449	 9.72189903866764E-02 
450	 9.73502617890498E-02 
451	 9.72591736618111E-02 
452	 9.77322021679808E-02 
453	 9.79440354069832E-02 
454	 9.79592351994171E-02 
455	 9.79322944862124E-02 
456	 9.77897894598548E-02 
457	 9.79977039072964E-02 
458	 9.82127207224962E-02 
459	 9.78720190757649E-02 
460	 9.78291407736784E-02 
461	 9.77676414867141E-02 
462	 9.76704328031228E-02 
463	 9.80936084620445E-02 
464	 0.098302461732316 
465	 9.82822851140361E-02 
466	 0.098226071367453 
467	 9.82623451349595E-02 
468	 9.82747300632329E-02 
469	 9.82856070872733E-02 
470	 9.84168533984547E-02 
471	 9.84658308555775E-02 
472	 9.83483344236647E-02 
473	 0.098108440628177 
474	 9.80243223164145E-02 
475	 9.79686487756934E-02 
476	 9.79315432578633E-02 
477	 0.097955631590448 
478	 9.81122444732157E-02 
479	 9.82982974946954E-02 
480	 9.84076849334129E-02 
481	 9.83510326796396E-02 
482	 9.82492214786276E-02 
483	 9.82321757898622E-02 
484	 9.83423122811682E-02 
485	 9.82892913098507E-02 
486	 9.81958627013726E-02 
487	 9.81635099962001E-02 
488	 9.82505249956395E-02 
489	 9.82400634423642E-02 
490	 9.82564700011398E-02 
491	 9.83744552604013E-02 
492	 9.83956165923715E-02 
493	 9.84466478535029E-02 
494	 9.84157719916804E-02 
495	 9.81606201226918E-02 
496	 9.81939965137265E-02 
497	 9.81610868490707E-02 
498	 9.79665893617014E-02 
499	 9.80179034687997E-02 
500	 9.81815988980773E-02 
501	 9.82766775235725E-02 
502	 9.81813564943654E-02 
503	 9.81034381119524E-02 
504	 9.80898581097657E-02 
505	 9.81639901281377E-02 
506	 9.83220358201407E-02 
507	 9.83053681307372E-02 
508	 9.82904609217387E-02 
509	 9.83721268977267E-02 
510	 9.81680354850761E-02 
511	 9.80337187984129E-02 
512	 9.80418721436238E-02 
513	 9.81071631321364E-02 
514	 9.82121591773324E-02 
515	 0.098294514384508 
516	 0.098297813126016 
517	 9.81620043138794E-02 
518	 9.81273381885035E-02 
519	 9.81800039045903E-02 
520	 9.82171936221413E-02 
521	 9.81752710755878E-02 
522	 9.81866027872349E-02 
523	 0.098232775627423 
524	 9.81323250940758E-02 
525	 9.80625349678102E-02 
526	 9.80341743882339E-02 
527	 9.80335443034581E-02 
528	 9.81168861519611E-02 
529	 9.80671851950868E-02 
530	 9.79775868256826E-02 
531	 9.81138448830906E-02 
532	 9.81783056342022E-02 
533	 9.82634028357219E-02 
534	 0.098396465624479 
535	 9.83408748043206E-02 
536	 9.82970527064521E-02 
537	 9.83387421395468E-02 
538	 9.84516659545023E-02 
539	 9.83863267594699E-02 
540	 9.83606623313606E-02 
541	 9.84391358429361E-02 
542	 0.0984349390966 
543	 9.84557326841559E-02 
544	 9.85073392785849E-02 
545	 9.85704782588629E-02 
546	 9.86374079684623E-02 
547	 9.87028994171364E-02 
548	 9.87632122437991E-02 
549	 9.88187276942602E-02 
550	 9.89331566408115E-02 
551	 9.90384216738714E-02 
552	 9.91110990479903E-02 
553	 9.93227060764428E-02 
554	 9.94466891216944E-02 
555	 9.95459390492616E-02 
556	 9.98055224837746E-02 
557	 0.100024376890665 
558	 0.100208976957275 
559	 0.100406111826733 
560	 0.100698207389196 
561	 0.100927022900206 
562	 0.101083057643611 
563	 0.10121913235355 
564	 0.101413412250698 
565	 0.101537263225213 
566	 0.101572311486692 
567	 0.101636413915695 
568	 0.101933505205134 
569	 0.102399866750209 
570	 0.102905366540097 
571	 0.103366636956065 
572	 0.103835057462531 
573	 0.104277119540366 
574	 0.104620016068703 
575	 0.105108483489727 
576	 0.105615469483178 
577	 0.106007549073999 
578	 0.106244158079454 
579	 0.106587900363801 
580	 0.10697625091558 
581	 0.107241680719915 
582	 0.107573296331496 
583	 0.108000545546422 
584	 0.108490401313916 
585	 0.108944910114235 
586	 0.109467064028942 
587	 0.109965513615947 
588	 0.110367419249408 
589	 0.110941103898298 
590	 0.11146994259855 
591	 0.111950718801367 
592	 0.11258181557207 
593	 0.113248889617511 
594	 0.113918955617502 
595	 0.114553760138118 
596	 0.115066021851504 
597	 0.115484445785057 
598	 0.115824885611185 
599	 0.116108153553127 
600	 0.116416908835349 
601	 0.116726053244788 
602	 0.117026513971604 
603	 0.117367355066568 
604	 0.117713368792549 
605	 0.118038968603112 
606	 0.118329474189354 
607	 0.11860174306336 
608	 0.118936062042063 
609	 0.119316204077533 
610	 0.119615307606935 
611	 0.119915310376825 
612	 0.120181561329041 
613	 0.120379221548531 
614	 0.120560716607796 
615	 0.12074021195231 
616	 0.120923968538422 
617	 0.121109869997643 
618	 0.121294883472753 
619	 0.121449208413344 
620	 0.121568038514066 
621	 0.121709210127594 
622	 0.121815057800276 
623	 0.121908134360701 
624	 0.122034525331788 
625	 0.122167879366806 
626	 0.122276131608358 
627	 0.122350383755271 
628	 0.12241163115678 
629	 0.122495866779773 
630	 0.122597646127396 
631	 0.122698596790511 
632	 0.122788138016132 
633	 0.122856222856616 
634	 0.122909095945914 
635	 0.122965931486728 
636	 0.123021868752806 
637	 0.123095017523203 
638	 0.123184138543828 
639	 0.123225088166798 
640	 0.123331972283497 
641	 0.123459359268739 
642	 0.123510471426039 
643	 0.123627678016988 
644	 0.123704356020732 
645	 0.123722102604696 
646	 0.123823107296594 
647	 0.123913510216847 
648	 0.124008300510128 
649	 0.124128925630527 
650	 0.12419163327928 
651	 0.124265987386899 
652	 0.124358912414042 
653	 0.124423249119222 
654	 0.12451931999711 
655	 0.12461654811916 
656	 0.124691053758317 
657	 0.124774969036811 
658	 0.124869974226527 
659	 0.124988982500154 
660	 0.125135192885046 
661	 0.125211556015571 
662	 0.125284047114352 
663	 0.125402879414157 
664	 0.125573774411639 
665	 0.125713731446971 
666	 0.125798683159306 
667	 0.125847887702889 
668	 0.125960281817918 
669	 0.126102040537873 
670	 0.126246208831686 
671	 0.126377123096306 
672	 0.126525242401461 
673	 0.126674451030936 
674	 0.126815397694036 
675	 0.12697647291384 
676	 0.127126186936495 
677	 0.127260612992897 
678	 0.127396118365949 
679	 0.127596037646063 
680	 0.127771962659561 
681	 0.12790314211019 
682	 0.128072882047935 
683	 0.128248807145492 
684	 0.128420383564933 
685	 0.12858338861084 
686	 0.128739299862815 
687	 0.128895388117604 
688	 0.129065991719446 
689	 0.129265487788362 
690	 0.12946256293851 
691	 0.129614210918342 
692	 0.129727460767809 
693	 0.129910417579729 
694	 0.130091351353927 
695	 0.130277119735531 
696	 0.130489574384394 
697	 0.130681667614618 
698	 0.130861855595561 
699	 0.131025895843225 
700	 0.131156246203164 
701	 0.131369504383787 
702	 0.131569675928463 
703	 0.13169109753376 
704	 0.131889158028261 
705	 0.13206736808383 
706	 0.13220341164348 
707	 0.132320687352196 
708	 0.132470140889206 
709	 0.132666172303052 
710	 0.132868942856509 
711	 0.132968031795929 
712	 0.133122049061962 
713	 0.133275108250259 
714	 0.133364707543125 
715	 0.133543806145471 
716	 0.133724003444221 
717	 0.133855794695896 
718	 0.133933606564897 
719	 0.134070177577619 
720	 0.134202219567929 
721	 0.134294949888086 
722	 0.134422284710766 
723	 0.134530081486426 
724	 0.134609717513158 
725	 0.134679499604966 
726	 0.13480891400476 
727	 0.134921253227828 
728	 0.134985796470099 
729	 0.135023999468386 
730	 0.135081141351116 
731	 0.135139353665331 
732	 0.135183216970579 
733	 0.135236653970407 
734	 0.135269035602441 
735	 0.135291203723734 
736	 0.135323826850161 
737	 0.135331992747928 
738	 0.13534348170241 
739	 0.135353287488185 
740	 0.135318858989998 
741	 0.135318945180995 
742	 0.135327028335719 
743	 0.135305929849124 
744	 0.135252729392061 
745	 0.135191440112515 
746	 0.135142879469956 
747	 0.135112033985388 
748	 0.135008821596769 
749	 0.134945274444766 
750	 0.134935529712148 
751	 0.134856747262093 
752	 0.134747996903577 
753	 0.134650075053521 
754	 0.134583665519186 
755	 0.134508668637062 
756	 0.13441601305237 
757	 0.134307501350008 
758	 0.134193030599197 
759	 0.134084541269958 
760	 0.133977479560457 
761	 0.13386061124362 
762	 0.133717697783533 
763	 0.133579743606275 
764	 0.133440773666206 
765	 0.133294472558712 
766	 0.133159346781307 
767	 0.133035065681605 
768	 0.132914905445987 
769	 0.132784789379744 
770	 0.132610607645742 
771	 0.132430880780635 
772	 0.13227560923499 
773	 0.132154611354036 
774	 0.132022002433547 
775	 0.131865129983888 
776	 0.131690154099434 
777	 0.131529550107083 
778	 0.131352187177749 
779	 0.131182989320378 
780	 0.131057057871409 
781	 0.130904135452086 
782	 0.130753182798621 
783	 0.130602319004169 
784	 0.130413221300887 
785	 0.130240399716339 
786	 0.130098739243757 
787	 0.129965579727694 
788	 0.1297363010495 
789	 0.129619605724339 
790	 0.129519489744822 
791	 0.129283888819727 
792	 0.129126522680866 
793	 0.128979627173365 
794	 0.128815686118833 
795	 0.128654388193907 
796	 0.128500616767433 
797	 0.12834988638394 
798	 0.128204668646906 
799	 0.12808572395073 
800	 0.127926026258164 
801	 0.127747933910037 
802	 0.127591585679321 
803	 0.12744594745968 
804	 0.127316276510434 
805	 0.127181486389339 
806	 0.127014443176564 
807	 0.126882565363999 
808	 0.126739566095664 
809	 0.12656530069721 
810	 0.126390668493022 
811	 0.126316120504465 
812	 0.126227700377564 
813	 0.126048479317129 
814	 0.125941987149479 
815	 0.125801184835669 
816	 0.125648967063021 
817	 0.125548411331732 
818	 0.12547765142311 
819	 0.12538534103006 
820	 0.12525859723786 
821	 0.125123017046456 
822	 0.125010063911771 
823	 0.124933109463346 
824	 0.124862175859072 
825	 0.124705451961027 
826	 0.124572301027777 
827	 0.124466343293936 
828	 0.124367628742681 
829	 0.124283179144782 
830	 0.124184515600254 
831	 0.124088663983267 
832	 0.124022411467311 
833	 0.123923467261395 
834	 0.123823211813379 
835	 0.123731090787288 
836	 0.123633412257501 
837	 0.123586200077607 
838	 0.123514375734054 
839	 0.123389111153126 
840	 0.123294005665165 
841	 0.123240614038769 
842	 0.12319637251825 
843	 0.123131005270609 
844	 0.123067753733609 
845	 0.123027873374209 
846	 0.122993472211625 
847	 0.122939402092881 
848	 0.122924418245722 
849	 0.122844478039588 
850	 0.122711784519387 
851	 0.122636124157256 
852	 0.122559518464476 
853	 0.122520991073761 
854	 0.122527187576798 
855	 0.122522146433886 
856	 0.122478246864294 
857	 0.122446288591209 
858	 0.122450264521083 
859	 0.12239204004719 
860	 0.122347673040128 
861	 0.122305136085201 
862	 0.122239830184955 
863	 0.122213043214082 
864	 0.122180944476584 
865	 0.12215901299352 
866	 0.122186623223652 
867	 0.122188034714102 
868	 0.122187800883977 
869	 0.122207951217788 
870	 0.122252224093366 
871	 0.122249311429111 
872	 0.122232396357265 
873	 0.122220490652439 
874	 0.122180250096037 
875	 0.122187419398663 
876	 0.122228570804844 
877	 0.122261880683982 
878	 0.122228993995456 
879	 0.122264215482145 
880	 0.122322178750032 
881	 0.122321973129973 
882	 0.12232336951233 
883	 0.122355420877935 
884	 0.122380786616492 
885	 0.122351526627466 
886	 0.12239371300605 
887	 0.122460595119205 
888	 0.122513814104481 
889	 0.122540354357656 
890	 0.122587116416078 
891	 0.122589008940794 
892	 0.122566893262517 
893	 0.122652414696568 
894	 0.122698776782064 
895	 0.1227087707862 
896	 0.12273425215379 
897	 0.12285783840151 
898	 0.122904115493039 
899	 0.122953929986309 
900	 0.123071796072585 
901	 0.123083830145177 
902	 0.123180562670455 
903	 0.123275771609967 
904	 0.123260700653247 
905	 0.123313156457863 
906	 0.123388066001414 
907	 0.123450670313842 
908	 0.123489344852695 
909	 0.123580255049067 
910	 0.123634624445758 
911	 0.123726272460384 
912	 0.123972904754403 
913	 0.123999644424041 
914	 0.124064627181625 
915	 0.124226270134255 
916	 0.124322626824487 
917	 0.124354618137576 
918	 0.124437942421382 
919	 0.124550267267865 
920	 0.124520527686324 
921	 0.124637626885725 
922	 0.124759077306044 
923	 0.124814508857307 
924	 0.124943361430607 
925	 0.125110055357355 
926	 0.125234601096198 
927	 0.125298696348564 
928	 0.125411050757705 
929	 0.125584128468874 
930	 0.125707256232276 
931	 0.125748660960063 
932	 0.12592994285741 
933	 0.126072858869789 
934	 0.126143626833952 
935	 0.126197542780285 
936	 0.126417334160868 
937	 0.126556239961172 
938	 0.126600982236252 
939	 0.126635378125677 
940	 0.126758009864023 
941	 0.126905535778497 
942	 0.127088359699317 
943	 0.127313472950561 
944	 0.127464568112102 
945	 0.127606201406302 
946	 0.127764900461785 
947	 0.127928368582951 
948	 0.128011118916779 
949	 0.128113811611754 
950	 0.128231214795338 
951	 0.128325263011866 
952	 0.128507108603441 
953	 0.128656455128733 
954	 0.128783793556204 
955	 0.128955598262004 
956	 0.12907086588197 
957	 0.129222462756577 
958	 0.129407004992374 
959	 0.129560727062852 
960	 0.129679384401039 
961	 0.129826512151053 
962	 0.130029377657192 
963	 0.130253951170614 
964	 0.130295824954026 
965	 0.130429931647335 
966	 0.130653971853986 
967	 0.130787085558133 
968	 0.130938551031586 
969	 0.131089788185042 
970	 0.131209409027477 
971	 0.131274825410429 
972	 0.131323253417029 
973	 0.13142480987315 
974	 0.131545396828776 
975	 0.131635805816667 
976	 0.132013536621604 
977	 0.132280164049551 
978	 0.132350682145541 
979	 0.132392394801099 
980	 0.132482043644532 
981	 0.132596332085484 
982	 0.132736183439611 
983	 0.132915679168873 
984	 0.133128935917954 
985	 0.133212469990929 
986	 0.133232802582865 
987	 0.133361809696867 
988	 0.133555329842806 
989	 0.133727644201506 
990	 0.133861141648435 
991	 0.133980175441811 
992	 0.134101195068541 
993	 0.134143666452019 
994	 0.134237998611103 
995	 0.134489805382429 
996	 0.134517369345664 
997	 0.13460550545886 
998	 0.13474218914087 
999	 0.134850857542963 
1000	 0.135103151284449 
1001	 0.131465487879811 
1002	 0.131550631876823 
1003	 0.131612653432115 
1004	 0.131691195189266 
1005	 0.131814440416282 
1006	 0.131876981579438 
1007	 0.13187669045783 
1008	 0.131977128035512 
1009	 0.132122778563939 
1010	 0.132265200085244 
1011	 0.132461343577277 
1012	 0.132541481254781 
1013	 0.132569166376774 
1014	 0.132604061221695 
1015	 0.132651665070901 
1016	 0.13275783793641 
1017	 0.132834066606426 
1018	 0.13289276938549 
1019	 0.132931608997285 
1020	 0.133018180896715 
1021	 0.133074703197994 
1022	 0.133117743368323 
1023	 0.133163661359691 
1024	 0.133142248909109 
1025	 0.133149795310186 
1026	 0.133238469345712 
1027	 0.133291351771143 
1028	 0.133349092586158 
1029	 0.133462185211426 
1030	 0.133552977462139 
1031	 0.133622333958386 
1032	 0.133683685316869 
1033	 0.133767692227657 
1034	 0.133868006469564 
1035	 0.133915873383182 
1036	 0.133905962366922 
1037	 0.133952063151463 
1038	 0.133981151576455 
1039	 0.133938111693076 
1040	 0.133986300878605 
1041	 0.13409548674607 
1042	 0.134114594702182 
1043	 0.134141458008357 
1044	 0.134191823199907 
1045	 0.134270939643678 
1046	 0.13428176045422 
1047	 0.134297135614683 
1048	 0.134348474761334 
1049	 0.134372901673071 
1050	 0.134347348103607 
1051	 0.134350711245117 
1052	 0.134414536924337 
1053	 0.134429900434916 
1054	 0.134465674196275 
1055	 0.134579911505473 
1056	 0.134649342352517 
1057	 0.13468176986832 
1058	 0.134704925509939 
1059	 0.134726744181739 
1060	 0.134708551572533 
1061	 0.134672834497052 
1062	 0.134692999473969 
1063	 0.13474698276976 
1064	 0.134777688896142 
1065	 0.134772899687028 
1066	 0.134760546173342 
1067	 0.134758115803974 
1068	 0.13475570642501 
1069	 0.134791386861545 
1070	 0.134815876932697 
1071	 0.134843011790875 
1072	 0.134861276077824 
1073	 0.134904509940811 
1074	 0.134917133635338 
1075	 0.134914524289876 
1076	 0.134893906588339 
1077	 0.134902662059649 
1078	 0.134868261898124 
1079	 0.134857680538339 
1080	 0.134906074503109 
1081	 0.134920924434141 
1082	 0.134918262561813 
1083	 0.134929991663116 
1084	 0.13494604251866 
1085	 0.13495451579268 
1086	 0.134964207949285 
1087	 0.134975294201567 
1088	 0.134982597218022 
1089	 0.134984580134442 
1090	 0.134987786362672 
1091	 0.135010506092492 
1092	 0.135020072847596 
1093	 0.135025893093475 
1094	 0.135063162321218 
1095	 0.135104176724286 
1096	 0.135140068344692 
1097	 0.135170488476723 
1098	 0.135192911072702 
1099	 0.135204870133133 
1100	 0.13521654080918 
1101	 0.135203164788119 
1102	 0.13522116244794 
1103	 0.13525038975118 
1104	 0.135291746898414 
1105	 0.135320118943332 
1106	 0.135388292878973 
1107	 0.135442116709817 
1108	 0.135437177067396 
1109	 0.13545506688947 
1110	 0.135487569844916 
1111	 0.135528632322084 
1112	 0.135605786115905 
1113	 0.135632462094002 
1114	 0.135632428834605 
1115	 0.135653655702372 
1116	 0.135631531045076 
1117	 0.135656677377781 
1118	 0.135728326893245 
1119	 0.135796794203342 
1120	 0.135828632528756 
1121	 0.135879783240468 
1122	 0.13593179791435 
1123	 0.13597990737613 
1124	 0.136018593267969 
1125	 0.136066563944033 
1126	 0.136103794311359 
1127	 0.136122858358405 
1128	 0.136144522441276 
1129	 0.136166769698801 
1130	 0.136198377898932 
1131	 0.136220562256599 
1132	 0.136249719778869 
1133	 0.136304691460609 
1134	 0.136339365633679 
1135	 0.136341451250953 
1136	 0.136380314362409 
1137	 0.136448403269121 
1138	 0.136488168420043 
1139	 0.136526846225136 
1140	 0.136578138997455 
1141	 0.136616523687786 
1142	 0.136623437302045 
1143	 0.136659925155928 
1144	 0.136728360483091 
1145	 0.136771505008898 
1146	 0.136807282364954 
1147	 0.136841292001277 
1148	 0.136861092481611 
1149	 0.136882580512221 
1150	 0.136895971222288 
1151	 0.136926785725835 
1152	 0.136955908926279 
1153	 0.136987060701464 
1154	 0.137024951903304 
1155	 0.137074793961621 
1156	 0.137114641939482 
1157	 0.137160492870725 
1158	 0.137189203054455 
1159	 0.137209248106231 
1160	 0.137223508507832 
1161	 0.137220768435057 
1162	 0.137230642355056 
1163	 0.137238314089625 
1164	 0.137251748285249 
1165	 0.137265701429169 
1166	 0.137290273389867 
1167	 0.137339555689208 
1168	 0.137367977498791 
1169	 0.137387530838696 
1170	 0.137407969005135 
1171	 0.137421747822495 
1172	 0.137411076910206 
1173	 0.137420560633757 
1174	 0.137442772335981 
1175	 0.137457249433888 
1176	 0.137462880393012 
1177	 0.137483780157866 
1178	 0.137518895165352 
1179	 0.137542178973974 
1180	 0.137565348499428 
1181	 0.137593274165562 
1182	 0.137619409640701 
1183	 0.137634540290717 
1184	 0.137668820194812 
1185	 0.137725188471075 
1186	 0.137751954045615 
1187	 0.13776506512427 
1188	 0.137797512648649 
1189	 0.137827631505783 
1190	 0.137856185443101 
1191	 0.13790499415284 
1192	 0.137933327693628 
1193	 0.137937934498261 
1194	 0.137955644481982 
1195	 0.13798129192577 
1196	 0.1379970465352 
1197	 0.138000515304943 
1198	 0.138017788325528 
1199	 0.138038775937369 
1200	 0.138057782501083 
1201	 0.13808231528919 
1202	 0.138123304554306 
1203	 0.138148042668559 
1204	 0.138165751249721 
1205	 0.138181789105512 
1206	 0.138188554980449 
1207	 0.138207018906407 
1208	 0.138233509939853 
1209	 0.138248632210819 
1210	 0.138263373897707 
1211	 0.138278921014586 
1212	 0.13828924511996 
1213	 0.138295154954856 
1214	 0.138293801331397 
1215	 0.138305341034044 
1216	 0.138319992488002 
1217	 0.138330842038851 
1218	 0.138346588576796 
1219	 0.138377747092616 
1220	 0.138397722187247 
1221	 0.138410750855939 
1222	 0.138423832004607 
1223	 0.138435782323902 
1224	 0.138450770247394 
1225	 0.138457855794532 
1226	 0.138476297698919 
1227	 0.13851562531548 
1228	 0.138534884916569 
1229	 0.138541161027022 
1230	 0.138557717640292 
1231	 0.138562881883101 
1232	 0.138578418348308 
1233	 0.138602084408339 
1234	 0.13864316774812 
1235	 0.138673738458533 
1236	 0.138706705012861 
1237	 0.138733428897093 
1238	 0.138760367000754 
1239	 0.138779372241442 
1240	 0.138791632818157 
1241	 0.138803471540284 
1242	 0.138809405069289 
1243	 0.138817293192181 
1244	 0.138813663083093 
1245	 0.138828503351937 
1246	 0.138864479528848 
1247	 0.138881581845317 
1248	 0.138899134625583 
1249	 0.138918157201869 
1250	 0.138909753706747 
1251	 0.138910436350966 
1252	 0.138923825928204 
1253	 0.138952490502858 
1254	 0.138965961021246 
1255	 0.138984962045681 
1256	 0.138993807787262 
1257	 0.138985191607257 
1258	 0.138990418696927 
1259	 0.139000208385794 
1260	 0.139011177318334 
1261	 0.139029944870389 
1262	 0.139040908863557 
1263	 0.139047392680468 
1264	 0.139056973113979 
1265	 0.139061206201376 
1266	 0.139070866384704 
1267	 0.139091179730892 
1268	 0.139106515854381 
1269	 0.139112602480161 
1270	 0.139112487632687 
1271	 0.139117658804067 
1272	 0.139109492430617 
1273	 0.139122714833747 
1274	 0.139155536886291 
1275	 0.139170508052267 
1276	 0.139183785534247 
1277	 0.139204247232995 
1278	 0.139213513763239 
1279	 0.13923718476911 
1280	 0.139284896689296 
1281	 0.139314936421158 
1282	 0.139343200214484 
1283	 0.139365275550175 
1284	 0.139371533652847 
1285	 0.139388115577197 
1286	 0.139407220244372 
1287	 0.139431599515387 
1288	 0.139448575569508 
1289	 0.139469283883393 
1290	 0.13948260089862 
1291	 0.139487853696681 
1292	 0.139490031035949 
1293	 0.139490637453909 
1294	 0.139494733115524 
1295	 0.139494490974893 
1296	 0.139494842324713 
1297	 0.139496907646982 
1298	 0.139498973598616 
1299	 0.139506640935594 
1300	 0.139497073284701 
1301	 0.139479814134958 
1302	 0.139466098243073 
1303	 0.139435157895608 
1304	 0.139410662797803 
1305	 0.139415668815058 
1306	 0.139422678276356 
1307	 0.139403355168311 
1308	 0.139394415609897 
1309	 0.139389974672061 
1310	 0.139368829193159 
1311	 0.139373894855918 
1312	 0.139409794721776 
1313	 0.139421866589242 
1314	 0.139436875406343 
1315	 0.139443053581152 
1316	 0.139429292744665 
1317	 0.139433596395622 
1318	 0.139445014267394 
1319	 0.13944884978599 
1320	 0.139459671925216 
1321	 0.139468634607064 
1322	 0.139468486540367 
1323	 0.139472153074583 
1324	 0.13948871880589 
1325	 0.139498154581559 
1326	 0.139515189330569 
1327	 0.139530932277285 
1328	 0.139537379174321 
1329	 0.139553930171589 
1330	 0.139577187765913 
1331	 0.139603399765567 
1332	 0.139629365580362 
1333	 0.13967212591395 
1334	 0.139696705406619 
1335	 0.13970592024828 
1336	 0.139729661273898 
1337	 0.13975170555222 
1338	 0.139777308229548 
1339	 0.139810463565633 
1340	 0.139846292203901 
1341	 0.139890459525117 
1342	 0.139919607227646 
1343	 0.139946002167924 
1344	 0.139970030537572 
1345	 0.139974515119241 
1346	 0.140006863948328 
1347	 0.140060645970479 
1348	 0.140094560659369 
1349	 0.140127096288697 
1350	 0.140156217746508 
1351	 0.140181449836719 
1352	 0.140189185654623 
1353	 0.140221826240559 
1354	 0.140268238554407 
1355	 0.140302603781958 
1356	 0.140341389650774 
1357	 0.14037725540178 
1358	 0.14040461500974 
1359	 0.14043877943953 
1360	 0.140481299138369 
1361	 0.140515478533625 
1362	 0.140553497280693 
1363	 0.140576371230589 
1364	 0.140583761169595 
1365	 0.140599566913053 
1366	 0.140610026689997 
1367	 0.14061682339876 
1368	 0.140635187685132 
1369	 0.140666906815496 
1370	 0.140697528078769 
1371	 0.140717444008934 
1372	 0.140745835040091 
1373	 0.140754472637178 
1374	 0.14076830507945 
1375	 0.140778848630471 
1376	 0.140796020541788 
1377	 0.140820271007619 
1378	 0.1408289379679 
1379	 0.140830386055512 
1380	 0.140833720692694 
1381	 0.140827071459053 
1382	 0.140824295302814 
1383	 0.140837553045231 
1384	 0.140827316335118 
1385	 0.140796563590081 
1386	 0.140775751472906 
1387	 0.140750216235216 
1388	 0.140722096361395 
1389	 0.140699570614303 
1390	 0.140671911429625 
1391	 0.140634942974336 
1392	 0.140585141682887 
1393	 0.14052689013954 
1394	 0.140474345475909 
1395	 0.140413025522385 
1396	 0.140339938247993 
1397	 0.140261120244429 
1398	 0.140179639608026 
1399	 0.140081266118519 
1400	 0.139964595847648 
1401	 0.13985682680282 
1402	 0.139738903641739 
1403	 0.139625443370614 
1404	 0.139518084817142 
1405	 0.139408302889184 
1406	 0.139294355115467 
1407	 0.139183870355881 
1408	 0.139076736111402 
1409	 0.138967267638564 
1410	 0.13884496786478 
1411	 0.138745363224194 
1412	 0.138653125660521 
1413	 0.138571939824795 
1414	 0.138508329878345 
1415	 0.138445776569346 
1416	 0.138379019154778 
1417	 0.138323595279723 
1418	 0.138269173137174 
1419	 0.138221837245897 
1420	 0.138185536022498 
1421	 0.138144894806755 
1422	 0.138114244911606 
1423	 0.138089647393397 
1424	 0.138064423767795 
1425	 0.138040479836519 
1426	 0.138023575833468 
1427	 0.138009694042592 
1428	 0.138002104532373 
1429	 0.138007846090343 
1430	 0.137998850783607 
1431	 0.137984655723207 
1432	 0.137971871987527 
1433	 0.137945615774306 
1434	 0.137939263585628 
1435	 0.137945572743263 
1436	 0.137953388628781 
1437	 0.137971016816174 
1438	 0.137987225118447 
1439	 0.13801072936129 
1440	 0.138022883958612 
1441	 0.138036935964706 
1442	 0.138047715398399 
1443	 0.138037156822388 
1444	 0.138036026738418 
1445	 0.138032341222981 
1446	 0.13802988396626 
1447	 0.138046526313082 
1448	 0.138051431225571 
1449	 0.138078878531414 
1450	 0.138110545463884 
1451	 0.138130947899141 
1452	 0.138158715510121 
1453	 0.138174038884702 
1454	 0.138170100620224 
1455	 0.138180454457322 
1456	 0.138196995660237 
1457	 0.138205811198532 
1458	 0.138209782246347 
1459	 0.138221625458015 
1460	 0.138230506205961 
1461	 0.138243074034983 
1462	 0.138266437010155 
1463	 0.138285574483485 
1464	 0.138303155972955 
1465	 0.138320259324698 
1466	 0.138331116129186 
1467	 0.138355964209287 
1468	 0.138388084593452 
1469	 0.13841891165333 
1470	 0.138462382246999 
1471	 0.138495681874285 
1472	 0.138527262311758 
1473	 0.138564026690456 
1474	 0.138603151619748 
1475	 0.138645776446764 
1476	 0.138693826756299 
1477	 0.138738068334586 
1478	 0.138774772375764 
1479	 0.138815060127566 
1480	 0.13885395452112 
1481	 0.138901995065311 
1482	 0.138937937175139 
1483	 0.138971648558994 
1484	 0.139007859106435 
1485	 0.139027265024953 
1486	 0.139070079174858 
1487	 0.1391397535196 
1488	 0.139188163444567 
1489	 0.139237296552448 
1490	 0.139279024795889 
1491	 0.139302875394264 
1492	 0.139339444194219 
1493	 0.139385605056209 
1494	 0.139422860404571 
1495	 0.139455193671457 
1496	 0.139489994849432 
1497	 0.139525061414184 
1498	 0.139554159490976 
1499	 0.139579781679394 
1500	 0.139612358315877 
1501	 0.139646419044341 
1502	 0.139674182760629 
1503	 0.139699910564341 
1504	 0.139732471885325 
1505	 0.139764783954758 
1506	 0.139790229466514 
1507	 0.13982946758439 
1508	 0.139863162168634 
1509	 0.139880326253903 
1510	 0.139905581760829 
1511	 0.139924537093899 
1512	 0.13993500842811 
1513	 0.139956870201143 
1514	 0.139977079711552 
1515	 0.140009441257365 
1516	 0.14005803766679 
1517	 0.140087819780225 
1518	 0.140114234635802 
1519	 0.140140164588496 
1520	 0.14015268504614 
1521	 0.14017677941388 
1522	 0.140216249848992 
1523	 0.140235339020312 
1524	 0.140244040263286 
1525	 0.140257552201603 
1526	 0.140261800662381 
1527	 0.140276262380058 
1528	 0.140297483099645 
1529	 0.140316517321272 
1530	 0.140332171181641 
1531	 0.140354624595527 
1532	 0.140388355345918 
1533	 0.140412940326512 
1534	 0.140435208197031 
1535	 0.140459439828453 
1536	 0.140475062879336 
1537	 0.140499956159729 
1538	 0.140538927528097 
1539	 0.140568620225685 
1540	 0.140601587462655 
1541	 0.140620928646116 
1542	 0.140621347645475 
1543	 0.140635152586395 
1544	 0.140646340516559 
1545	 0.140661881002477 
1546	 0.140697769752563 
1547	 0.140716233662474 
1548	 0.140706519887687 
1549	 0.140703178038113 
1550	 0.140674081761239 
1551	 0.140648252026491 
1552	 0.140665488700709 
1553	 0.140680634810005 
1554	 0.140701656732257 
1555	 0.140736009913603 
1556	 0.140747638740172 
1557	 0.140752010025532 
1558	 0.140765778826656 
1559	 0.14077326900563 
1560	 0.140788415411221 
1561	 0.14080627595121 
1562	 0.140830192684935 
1563	 0.140865681472395 
1564	 0.140882867169345 
1565	 0.14089506044543 
1566	 0.140905634179694 
1567	 0.140903710669064 
1568	 0.140911026978399 
1569	 0.140922432594735 
1570	 0.140936250538375 
1571	 0.14095295895908 
1572	 0.140967279498652 
1573	 0.140986124124099 
1574	 0.140998298768828 
1575	 0.141003372699808 
1576	 0.141011822778433 
1577	 0.141021118034401 
1578	 0.141028423438172 
1579	 0.141032100235361 
1580	 0.141042143257256 
1581	 0.141055740542181 
1582	 0.141066138242264 
1583	 0.141082275053578 
1584	 0.141093220066825 
1585	 0.141087779797641 
1586	 0.141099357714965 
1587	 0.141122003865992 
1588	 0.141141896570708 
1589	 0.141175773836488 
1590	 0.141199474806413 
1591	 0.141216699546163 
1592	 0.141227806935356 
1593	 0.141229228335199 
1594	 0.14123808423759 
1595	 0.141245707882246 
1596	 0.141255216436772 
1597	 0.14126863117255 
1598	 0.141280976333467 
1599	 0.141302936943532 
1600	 0.141308148095062 
1601	 0.141306920363792 
1602	 0.141299943856515 
1603	 0.141274497488555 
1604	 0.141252654280895 
1605	 0.141220454015624 
1606	 0.141203053062393 
1607	 0.141188876522417 
1608	 0.141185601229582 
1609	 0.14118284010772 
1610	 0.141190842584881 
1611	 0.141192250113788 
1612	 0.141193310490446 
1613	 0.141215144080933 
1614	 0.141230125457833 
1615	 0.141246365601515 
1616	 0.141268524273366 
1617	 0.141253085587226 
1618	 0.141239111093623 
1619	 0.141252353086073 
1620	 0.141231372681238 
1621	 0.141231959627774 
1622	 0.141256478585433 
1623	 0.141257916368955 
1624	 0.141243888648464 
1625	 0.14124349226806 
1626	 0.141243154669504 
1627	 0.141244869469105 
1628	 0.141249430498102 
1629	 0.141256817313742 
1630	 0.141265598995761 
1631	 0.141276607090149 
1632	 0.141294748872858 
1633	 0.141305222002491 
1634	 0.141320898481535 
1635	 0.141315535004667 
1636	 0.141292380983553 
1637	 0.141284934885084 
1638	 0.141266685684637 
1639	 0.141262583584709 
1640	 0.141275526179725 
1641	 0.141281533066498 
1642	 0.141287693554351 
1643	 0.141293574689792 
1644	 0.141305192299096 
1645	 0.141305671877404 
1646	 0.14129494146848 
1647	 0.141295337556395 
1648	 0.141296903841087 
1649	 0.141297099149587 
1650	 0.141305408456611 
1651	 0.141304518840302 
1652	 0.141294615965289 
1653	 0.141289891307895 
1654	 0.141278700791013 
1655	 0.141284285446223 
1656	 0.141299544879182 
1657	 0.141311917646052 
1658	 0.141338458844343 
1659	 0.14135192563304 
1660	 0.141365923172334 
1661	 0.141359141639826 
1662	 0.14133695338401 
1663	 0.141318866878793 
1664	 0.141272304402513 
1665	 0.141263181335645 
1666	 0.141285286101408 
1667	 0.141281970705662 
1668	 0.141286833067404 
1669	 0.141278150872543 
1670	 0.141240606391478 
1671	 0.141228529249069 
1672	 0.141223298272372 
1673	 0.141226818256536 
1674	 0.141244975792845 
1675	 0.141257911432765 
1676	 0.14127753704134 
1677	 0.141291972397854 
1678	 0.141311367607605 
1679	 0.141312179692463 
1680	 0.141297922070891 
1681	 0.141293766014491 
1682	 0.141274162371713 
1683	 0.141275894900797 
1684	 0.141305252155351 
1685	 0.14130917440271 
1686	 0.14131034653547 
1687	 0.141303108757181 
1688	 0.141266684251342 
1689	 0.141265466538392 
1690	 0.141279004230171 
1691	 0.141290414959473 
1692	 0.141335398099704 
1693	 0.141336880411231 
1694	 0.141297016920721 
1695	 0.141301890065612 
1696	 0.141322829576907 
1697	 0.141313692605321 
1698	 0.141310866720476 
1699	 0.141310887123794 
1700	 0.141275993735915 
1701	 0.141269219616061 
1702	 0.141305708743097 
1703	 0.141307876627686 
1704	 0.141294634842935 
1705	 0.141277680846473 
1706	 0.141246709865107 
1707	 0.141227855772111 
1708	 0.141207530906628 
1709	 0.141187058597303 
1710	 0.141164036188691 
1711	 0.141161129479138 
1712	 0.141167878611202 
1713	 0.141168866556551 
1714	 0.141189972715606 
1715	 0.141193600954969 
1716	 0.14118518229023 
1717	 0.14116881698754 
1718	 0.141146290604014 
1719	 0.141122866535926 
1720	 0.141078233191788 
1721	 0.141063088551333 
1722	 0.141069816474039 
1723	 0.141059081871297 
1724	 0.141047129470624 
1725	 0.14104376143846 
1726	 0.14103823787723 
1727	 0.141029806183713 
1728	 0.141039733409792 
1729	 0.14102281759273 
1730	 0.140977280284193 
1731	 0.14095240476272 
1732	 0.140932770977627 
1733	 0.14090899494822 
1734	 0.140887724900629 
1735	 0.140865782260343 
1736	 0.140833593814051 
1737	 0.140818520149024 
1738	 0.140819906839445 
1739	 0.140799521855634 
1740	 0.140784586894573 
1741	 0.140748454034817 
1742	 0.140685873746723 
1743	 0.140647101609359 
1744	 0.140598574960648 
1745	 0.140579339161619 
1746	 0.14058792387844 
1747	 0.140563998349597 
1748	 0.14055511977347 
1749	 0.14056001486143 
1750	 0.14054712705892 
1751	 0.140560535141059 
1752	 0.140581145962587 
1753	 0.140568907026253 
1754	 0.140564864163119 
1755	 0.140531399333193 
1756	 0.140501232193944 
1757	 0.140498055837296 
1758	 0.140465337001146 
1759	 0.140436590177053 
1760	 0.140414554834828 
1761	 0.140350208246723 
1762	 0.140292711997067 
1763	 0.140289634983625 
1764	 0.140290385500375 
1765	 0.140297982284608 
1766	 0.140314346360105 
1767	 0.140320372370368 
1768	 0.140315580184804 
1769	 0.140288384174177 
1770	 0.140269849378036 
1771	 0.140254756475844 
1772	 0.140216046924336 
1773	 0.140182974946642 
1774	 0.140160949046237 
1775	 0.14011321961336 
1776	 0.140066591317867 
1777	 0.140046310357579 
1778	 0.140045995371674 
1779	 0.140039378778105 
1780	 0.140006870097397 
1781	 0.139998001988611 
1782	 0.139970608402944 
1783	 0.139939617142964 
1784	 0.139933537597589 
1785	 0.139928681642454 
1786	 0.139912116921694 
1787	 0.139920265291737 
1788	 0.139905070289789 
1789	 0.139858157245153 
1790	 0.139835286418645 
1791	 0.139812172237023 
1792	 0.139798241985162 
1793	 0.139799808257109 
1794	 0.139783571058646 
1795	 0.139768910272989 
1796	 0.139755571779314 
1797	 0.139714828833234 
1798	 0.139719409149728 
1799	 0.139758471589533 
1800	 0.139773407201405 
1801	 0.135885754417007 
1802	 0.135895927116519 
1803	 0.1359336700397 
1804	 0.135965829046862 
1805	 0.135993529521629 
1806	 0.136035744833316 
1807	 0.136074040159853 
1808	 0.136094638867319 
1809	 0.136097153184055 
1810	 0.136107872057395 
1811	 0.136111039552602 
1812	 0.136109865882808 
1813	 0.136123952126435 
1814	 0.136151181242056 
1815	 0.13616785566482 
1816	 0.136215100781355 
1817	 0.136231174475557 
1818	 0.136222799064813 
1819	 0.136229170449 
1820	 0.136241066339902 
1821	 0.136225245021012 
1822	 0.136225939738339 
1823	 0.136245513459038 
1824	 0.136245916745316 
1825	 0.136245065069607 
1826	 0.136237364726335 
1827	 0.136244933197962 
1828	 0.13624556600906 
1829	 0.136239069609559 
1830	 0.136240895553993 
1831	 0.1362568803524 
1832	 0.136240243998715 
1833	 0.136227341706448 
1834	 0.136239842506252 
1835	 0.136222274242472 
1836	 0.136224083013944 
1837	 0.136239460063725 
1838	 0.136234744537185 
1839	 0.136238201705733 
1840	 0.136249492897401 
1841	 0.136250466868252 
1842	 0.136249630807595 
1843	 0.136232222577596 
1844	 0.136193494633008 
1845	 0.136176733990397 
1846	 0.136143947908674 
1847	 0.136107344767573 
1848	 0.136089090171498 
1849	 0.136065328991493 
1850	 0.13605138868701 
1851	 0.136046902326724 
1852	 0.136056031279245 
1853	 0.136061595914524 
1854	 0.136044361311454 
1855	 0.136009910322807 
1856	 0.13596969997417 
1857	 0.135923683143931 
1858	 0.135882508958697 
1859	 0.135832880168129 
1860	 0.135775370695276 
1861	 0.1357110142165 
1862	 0.135633256371073 
1863	 0.135564955343981 
1864	 0.135502167841605 
1865	 0.135418207098905 
1866	 0.135338009082851 
1867	 0.135272134009728 
1868	 0.135205677080788 
1869	 0.135118383713686 
1870	 0.135031292460435 
1871	 0.134942055585542 
1872	 0.134835038852472 
1873	 0.134717945038492 
1874	 0.134628640098805 
1875	 0.134498599085569 
1876	 0.134320072533912 
1877	 0.134125399840541 
1878	 0.133914000611551 
1879	 0.133720581534643 
1880	 0.13350081600417 
1881	 0.133264486470917 
1882	 0.133027423381003 
1883	 0.132785268151588 
1884	 0.132510185013772 
1885	 0.132222881361461 
1886	 0.131928788483241 
1887	 0.131621336440721 
1888	 0.131293572368549 
1889	 0.13094864849293 
1890	 0.130631330180227 
1891	 0.130262659025612 
1892	 0.129826266975599 
1893	 0.129415384841449 
1894	 0.129009816685629 
1895	 0.128558650271806 
1896	 0.128107673776246 
1897	 0.127691193955542 
1898	 0.127258631734173 
1899	 0.126821770408576 
1900	 0.126389983846285 
1901	 0.125955796560186 
1902	 0.125532251557599 
1903	 0.125106674847038 
1904	 0.124690250772487 
1905	 0.12427891978284 
1906	 0.123894501654502 
1907	 0.12349989254029 
1908	 0.123160974984746 
1909	 0.122853878331454 
1910	 0.122534159437508 
1911	 0.122248476180356 
1912	 0.12197487747562 
1913	 0.12171847185397 
1914	 0.121487111178202 
1915	 0.121263055582117 
1916	 0.121061343287747 
1917	 0.120842352920524 
1918	 0.120636852147652 
1919	 0.120462465145897 
1920	 0.120304791900491 
1921	 0.120180909670148 
1922	 0.120072751158027 
1923	 0.119959797015979 
1924	 0.119860003604432 
1925	 0.119769686022167 
1926	 0.119684173801113 
1927	 0.119609648238796 
1928	 0.119540171855422 
1929	 0.119464909196074 
1930	 0.119394467223572 
1931	 0.119328803463788 
1932	 0.119279751160102 
1933	 0.119271724736832 
1934	 0.119259527401049 
1935	 0.119248993170336 
1936	 0.119257543925576 
1937	 0.11926201293382 
1938	 0.119244133658361 
1939	 0.1192622681427 
1940	 0.119319502475356 
1941	 0.119343646292079 
1942	 0.119372838783221 
1943	 0.11940926462877 
1944	 0.119432133266732 
1945	 0.119490215941536 
1946	 0.119562795680942 
1947	 0.119673743072925 
1948	 0.119763139311578 
1949	 0.119871914844905 
1950	 0.119955608283923 
1951	 0.120024686016731 
1952	 0.120082593998609 
1953	 0.120157655170352 
1954	 0.120230216219391 
1955	 0.120298476392251 
1956	 0.120392620694504 
1957	 0.120480401736844 
1958	 0.120549261076023 
1959	 0.120654437166842 
1960	 0.120790184197748 
1961	 0.120912123991687 
1962	 0.121057015252865 
1963	 0.121180712816945 
1964	 0.12128163101138 
1965	 0.121401364430483 
1966	 0.121495662156345 
1967	 0.121609222050766 
1968	 0.121744149197947 
1969	 0.12190141328028 
1970	 0.12203714823578 
1971	 0.122194576812288 
1972	 0.122324059740389 
1973	 0.122417715227087 
1974	 0.122532740809524 
1975	 0.122637573508178 
1976	 0.122775159366519 
1977	 0.12291029591942 
1978	 0.123046705514984 
1979	 0.123194819386226 
1980	 0.123339848994062 
1981	 0.123487473757896 
1982	 0.123645505664953 
1983	 0.123789387979895 
1984	 0.123935292379972 
1985	 0.124065228283179 
1986	 0.124170458467218 
1987	 0.124291681429604 
1988	 0.12440622993238 
1989	 0.12452485705047 
1990	 0.124668597079932 
1991	 0.12484000540313 
1992	 0.124988077902404 
1993	 0.125142555793576 
1994	 0.125288063818019 
1995	 0.12541191472474 
1996	 0.125551811965309 
1997	 0.125715804504124 
1998	 0.125853447047954 
1999	 0.125970103763829 
2000	 0.126103681151812 
2001	 0.126235972440435 
2002	 0.126362661125541 
2003	 0.126488271981423 
2004	 0.126637506918562 
2005	 0.12676621106696 
2006	 0.126871961497719 
2007	 0.126994134888283 
2008	 0.12712925836679 
2009	 0.127248711922316 
2010	 0.127364758808265 
2011	 0.127480615875193 
2012	 0.127572778699891 
2013	 0.127690403188701 
2014	 0.127826094916742 
2015	 0.127959611015036 
2016	 0.1280918340858 
2017	 0.12822952865486 
2018	 0.128357691936095 
2019	 0.128475894743606 
2020	 0.128592187101693 
2021	 0.128706071401597 
2022	 0.128819717947061 
2023	 0.128912444177717 
2024	 0.129028795762513 
2025	 0.12917691124998 
2026	 0.129299648265976 
2027	 0.129419485355716 
2028	 0.129536767757084 
2029	 0.129646024396735 
2030	 0.129732904666394 
2031	 0.129829846640546 
2032	 0.129932490891516 
2033	 0.130031842169589 
2034	 0.130125310465637 
2035	 0.130219443300525 
2036	 0.130313068996492 
2037	 0.130410818888842 
2038	 0.130509490147618 
2039	 0.130603898740597 
2040	 0.130702791896409 
2041	 0.130796754742749 
2042	 0.130866752259006 
2043	 0.130980538877389 
2044	 0.131080659500933 
2045	 0.131195495875795 
2046	 0.131282591946461 
2047	 0.131368356663333 
2048	 0.131437139772858 
2049	 0.131469117171419 
2050	 0.131528406924292 
2051	 0.131585499244103 
2052	 0.131652246912778 
2053	 0.131742936247352 
2054	 0.131821782293575 
2055	 0.131899631151726 
2056	 0.131979592083671 
2057	 0.132045334672179 
2058	 0.132093223494825 
2059	 0.132159084611477 
2060	 0.132226147752074 
2061	 0.132292812598028 
2062	 0.132371822011082 
2063	 0.132439554117245 
2064	 0.132490343917495 
2065	 0.132554774639376 
2066	 0.132622665719961 
2067	 0.132696110534904 
2068	 0.132779602533668 
2069	 0.132869568373882 
2070	 0.132934529678406 
2071	 0.132987978694292 
2072	 0.13304817598413 
2073	 0.133090052407894 
2074	 0.133148880242494 
2075	 0.133231999418212 
2076	 0.133289462813784 
2077	 0.133333738535889 
2078	 0.133385769651646 
2079	 0.133424394518203 
2080	 0.133474994478102 
2081	 0.133529851437368 
2082	 0.133592711414373 
2083	 0.133670597369913 
2084	 0.133740243923811 
2085	 0.133811065552718 
2086	 0.133888391150088 
2087	 0.133963397828062 
2088	 0.134025248433741 
2089	 0.134110127327517 
2090	 0.134227735262633 
2091	 0.134302758732112 
2092	 0.134370529012245 
2093	 0.134430900232716 
2094	 0.134445072923371 
2095	 0.134493920651968 
2096	 0.134561160901018 
2097	 0.134627474343152 
2098	 0.134709632696387 
2099	 0.134786061741823 
2100	 0.134857016852674 
2101	 0.134923184245908 
2102	 0.134994167786629 
2103	 0.135072733352227 
2104	 0.135128019459971 
2105	 0.135172371087789 
2106	 0.135221848713127 
2107	 0.135242824334744 
2108	 0.135293900006148 
2109	 0.135359262091641 
2110	 0.135436664381225 
2111	 0.135540724085107 
2112	 0.135630819199044 
2113	 0.135728022611928 
2114	 0.135816150390926 
2115	 0.135918387745696 
2116	 0.136020004883388 
2117	 0.136118250743799 
2118	 0.136231118388987 
2119	 0.136328419243567 
2120	 0.13641506176184 
2121	 0.136493369259515 
2122	 0.13657116209507 
2123	 0.136638827077595 
2124	 0.136680192643145 
2125	 0.136736985841002 
2126	 0.136801889290173 
2127	 0.13685807793197 
2128	 0.136925615822204 
2129	 0.136974689317613 
2130	 0.137015368856578 
2131	 0.137036011809118 
2132	 0.137058058388848 
2133	 0.137065632508125 
2134	 0.137079176756533 
2135	 0.137093799231851 
2136	 0.137098462630982 
2137	 0.137091418965263 
2138	 0.137094676923774 
2139	 0.137113450500503 
2140	 0.137101534981591 
2141	 0.137072274775416 
2142	 0.137052642950295 
2143	 0.137019138451649 
2144	 0.136979798950129 
2145	 0.136956576017413 
2146	 0.136917755270326 
2147	 0.136857498163766 
2148	 0.136788188860997 
2149	 0.13672590330987 
2150	 0.136665833070635 
2151	 0.136598610462681 
2152	 0.136530166758368 
2153	 0.136453005479504 
2154	 0.136366388586317 
2155	 0.13628196941861 
2156	 0.136186160461676 
2157	 0.136104820646896 
2158	 0.136041672858656 
2159	 0.135958429018516 
2160	 0.135874540467061 
2161	 0.135782343523978 
2162	 0.13567618054409 
2163	 0.135564322425703 
2164	 0.135436217865691 
2165	 0.135326411942175 
2166	 0.135207684764884 
2167	 0.135073910120309 
2168	 0.134964146352849 
2169	 0.13486896320504 
2170	 0.134766681391956 
2171	 0.134664330266686 
2172	 0.134575053199293 
2173	 0.134506985038614 
2174	 0.134407515353672 
2175	 0.134299300090154 
2176	 0.134198451571482 
2177	 0.134060332230543 
2178	 0.133958039068356 
2179	 0.133894532927152 
2180	 0.133818123266477 
2181	 0.133758024243663 
2182	 0.133680718060784 
2183	 0.133592544312559 
2184	 0.133491069564536 
2185	 0.133413827383291 
2186	 0.133334329893045 
2187	 0.133267931864813 
2188	 0.133231213944041 
2189	 0.13316706127059 
2190	 0.133091858437602 
2191	 0.133021014579964 
2192	 0.132943235246828 
2193	 0.132868134168621 
2194	 0.132782270238107 
2195	 0.132719585070003 
2196	 0.132662348451478 
2197	 0.13262064021056 
2198	 0.132617799122939 
2199	 0.132591533931992 
2200	 0.132567781928467 
2201	 0.132529967771606 
2202	 0.132470516554865 
2203	 0.132416659464108 
2204	 0.132362130360869 
2205	 0.132290496934767 
2206	 0.13225777509429 
2207	 0.132236792156841 
2208	 0.132237185837585 
2209	 0.132282329868018 
2210	 0.132291268174181 
2211	 0.132296089128134 
2212	 0.132300100608974 
2213	 0.132305941866384 
2214	 0.132286759066313 
2215	 0.132238921314748 
2216	 0.132225279734063 
2217	 0.132199141232903 
2218	 0.132187983359766 
2219	 0.132224064029199 
2220	 0.132240043519738 
2221	 0.132247121358998 
2222	 0.132243848008333 
2223	 0.132261142912367 
2224	 0.132265936718124 
2225	 0.132269324593172 
2226	 0.132270029388091 
2227	 0.132273274594707 
2228	 0.13226776019542 
2229	 0.132277105404269 
2230	 0.132289279484294 
2231	 0.132318006909035 
2232	 0.132373457492716 
2233	 0.13239713683641 
2234	 0.132428219802501 
2235	 0.132433918176498 
2236	 0.132391237900843 
2237	 0.132388553664785 
2238	 0.132406010960832 
2239	 0.132403377327726 
2240	 0.132406843068025 
2241	 0.132405495380139 
2242	 0.132384386556747 
2243	 0.132370509881091 
2244	 0.132365651541338 
2245	 0.132357526966055 
2246	 0.132349624015755 
2247	 0.132319408183368 
2248	 0.13232350779576 
2249	 0.132343396076863 
2250	 0.132359131411904 
2251	 0.13239862350077 
2252	 0.132413828802832 
2253	 0.132418628837063 
2254	 0.132415416642707 
2255	 0.132395446008013 
2256	 0.132383885961729 
2257	 0.132359753204838 
2258	 0.132356797854097 
2259	 0.132362350929131 
2260	 0.132383410083321 
2261	 0.132427840166716 
2262	 0.132461563642726 
2263	 0.132510959857798 
2264	 0.132543591226482 
2265	 0.132558709705504 
2266	 0.132579575168381 
2267	 0.132606049956915 
2268	 0.132617088474753 
2269	 0.132620684748755 
2270	 0.13262151802011 
2271	 0.132620409984529 
2272	 0.132601255868877 
2273	 0.132577318073049 
2274	 0.13259675869486 
2275	 0.132624024839309 
2276	 0.132676264440103 
2277	 0.132696916991286 
2278	 0.132718000602227 
2279	 0.132748377968702 
2280	 0.132756595299525 
2281	 0.132785825012291 
2282	 0.132869752009958 
2283	 0.132889097831464 
2284	 0.132866570196228 
2285	 0.13286517483429 
2286	 0.132835691905465 
2287	 0.132827377784538 
2288	 0.132839390377972 
2289	 0.132848589953911 
2290	 0.132854777897347 
2291	 0.132877591349881 
2292	 0.132905144448251 
2293	 0.132944074128045 
2294	 0.133006847395369 
2295	 0.133058394131854 
2296	 0.133134045322009 
2297	 0.133177254702007 
2298	 0.133174251120998 
2299	 0.13317773542299 
2300	 0.133156764223454 
2301	 0.133143563694461 
2302	 0.133158028250481 
2303	 0.133179168203867 
2304	 0.133161962410478 
2305	 0.133142784248172 
2306	 0.1331433213821 
2307	 0.133142707398162 
2308	 0.13313888133955 
2309	 0.133166882874578 
2310	 0.133147991633977 
2311	 0.133091631019901 
2312	 0.133058613132395 
2313	 0.133014569027219 
2314	 0.13298688788911 
2315	 0.132975528408166 
2316	 0.13295555273283 
2317	 0.132929652235768 
2318	 0.132905860983809 
2319	 0.132872798235828 
2320	 0.132873577823479 
2321	 0.132899803421479 
2322	 0.132908599549943 
2323	 0.132928632190956 
2324	 0.132950602709716 
2325	 0.132968066556234 
2326	 0.132990022573223 
2327	 0.133022910359078 
2328	 0.133053881037313 
2329	 0.133112665269669 
2330	 0.133108659860117 
2331	 0.133109663223723 
2332	 0.133099902394009 
2333	 0.133055007487806 
2334	 0.133026248616641 
2335	 0.132996046117966 
2336	 0.132999466843375 
2337	 0.133004947748831 
2338	 0.132988732397584 
2339	 0.133012872075759 
2340	 0.133045994502746 
2341	 0.133080845237088 
2342	 0.133143129746569 
2343	 0.133122274926213 
2344	 0.133086009269236 
2345	 0.133070208127014 
2346	 0.133001395592968 
2347	 0.132975971694724 
2348	 0.13303387526254 
2349	 0.132997448022688 
2350	 0.132890965141268 
2351	 0.132864831672253 
2352	 0.132836090197736 
2353	 0.132814020236926 
2354	 0.132852617207951 
2355	 0.132848134339134 
2356	 0.132834681475377 
2357	 0.132788906657651 
2358	 0.132713757571781 
2359	 0.132641831926697 
2360	 0.132518461698181 
2361	 0.132429519464048 
2362	 0.132378747902478 
2363	 0.132321865148384 
2364	 0.132265807756503 
2365	 0.132195621621188 
2366	 0.132083053417389 
2367	 0.132036942439335 
2368	 0.132051205400908 
2369	 0.132036704538441 
2370	 0.132072696771331 
2371	 0.13204830911221 
2372	 0.13196007842151 
2373	 0.1318743056823 
2374	 0.131833110160547 
2375	 0.131796368994967 
2376	 0.131724404990132 
2377	 0.131628759410403 
2378	 0.131489491959655 
2379	 0.131372688121166 
2380	 0.131322285892117 
2381	 0.131292813101226 
2382	 0.131315171540664 
2383	 0.131301490820102 
2384	 0.131184936039657 
2385	 0.13108473061051 
2386	 0.131012340722114 
2387	 0.130938003584095 
2388	 0.130909850863002 
2389	 0.130856617462169 
2390	 0.130738522604675 
2391	 0.130629776936451 
2392	 0.130562901133954 
2393	 0.130484965757518 
2394	 0.13035993637292 
2395	 0.130277454730694 
2396	 0.130186217460455 
2397	 0.130137220164858 
2398	 0.130145629948586 
2399	 0.130024070883249 
2400	 0.12993505626361 
2401	 0.129877633084902 
2402	 0.129712022876952 
2403	 0.129589773132074 
2404	 0.129524953987453 
2405	 0.129457944425348 
2406	 0.129434735416092 
2407	 0.129498437826824 
2408	 0.129488370659174 
2409	 0.129333939959168 
2410	 0.129143861063355 
2411	 0.128990454544109 
2412	 0.128951630028549 
2413	 0.128935058390398 
2414	 0.128885199261567 
2415	 0.128854843920712 
2416	 0.128784719480249 
2417	 0.128575065105458 
2418	 0.128487415785982 
2419	 0.128465533466529 
2420	 0.128408067820324 
2421	 0.128372635397315 
2422	 0.128358933718668 
2423	 0.128368033330923 
2424	 0.128376322371385 
2425	 0.128392397210567 
2426	 0.12836854592806 
2427	 0.128349788357127 
2428	 0.128320155982133 
2429	 0.12829435536683 
2430	 0.1281667382828 
2431	 0.127948194938121 
2432	 0.127756158644157 
2433	 0.127515106700493 
2434	 0.127311891571947 
2435	 0.127128125021479 
2436	 0.126981170616941 
2437	 0.126801228544633 
2438	 0.126656196438908 
2439	 0.126602924218 
2440	 0.126553397636456 
2441	 0.126547844103845 
2442	 0.126505208315172 
2443	 0.126455711246886 
2444	 0.126339457244461 
2445	 0.126123380149912 
2446	 0.126015819383226 
2447	 0.125969917595205 
2448	 0.12589857378958 
2449	 0.125913150147638 
2450	 0.125821937165332 
2451	 0.12562616446129 
2452	 0.125421805234858 
2453	 0.125116915264694 
2454	 0.124940881629269 
2455	 0.124822190776892 
2456	 0.124630730489686 
2457	 0.124465760882013 
2458	 0.12443086299899 
2459	 0.124438125163192 
2460	 0.124437309174192 
2461	 0.124637863715175 
2462	 0.124466337372114 
2463	 0.123895194106191 
2464	 0.12367380501932 
2465	 0.12349301116196 
2466	 0.123464623783518 
2467	 0.123757028585218 
2468	 0.123721381857109 
2469	 0.123592404135649 
2470	 0.123420107706229 
2471	 0.123103348559435 
2472	 0.122915325812754 
2473	 0.122839162526627 
2474	 0.122691446822288 
2475	 0.122663191769167 
2476	 0.122701900775625 
2477	 0.122673763999821 
2478	 0.122684538957624 
2479	 0.122704274629862 
2480	 0.122743572218537 
2481	 0.122580650640885 
2482	 0.122337891004686 
2483	 0.12221464846583 
2484	 0.122049368335739 
2485	 0.121995459962718 
2486	 0.122072315460497 
2487	 0.122103953721626 
2488	 0.122040798235209 
2489	 0.121949068418543 
2490	 0.121929699984159 
2491	 0.121755234465287 
2492	 0.12146611592952 
2493	 0.121337741990337 
2494	 0.121187157803741 
2495	 0.121044136088005 
2496	 0.121077716437199 
2497	 0.121099803937716 
2498	 0.120904496508308 
2499	 0.120814778540156 
2500	 0.120895183679102 
