Wavelength	LMW_1800003.asd
350	 5.41797045171453E-02 
351	 6.32614615078513E-02 
352	 6.24845352195516E-02 
353	 4.61042957275489E-02 
354	 5.30441394437113E-02 
355	 5.83792038621612E-02 
356	 0.056803837308349 
357	 5.14604041563362E-02 
358	 5.67709853501051E-02 
359	 6.17213372355893E-02 
360	 6.03741297206559E-02 
361	 5.21660181539824E-02 
362	 4.93989367417472E-02 
363	 5.08024855180427E-02 
364	 5.30075494201567E-02 
365	 5.25642431977108E-02 
366	 0.050774924505324 
367	 5.05844292868418E-02 
368	 5.33237439304762E-02 
369	 5.21899409995518E-02 
370	 5.37565565933915E-02 
371	 5.66293244884982E-02 
372	 5.45044887665398E-02 
373	 5.38574809880161E-02 
374	 5.51581009504363E-02 
375	 5.68915087156939E-02 
376	 5.56695093217183E-02 
377	 0.052624001389893 
378	 5.16598878507142E-02 
379	 5.52737347288358E-02 
380	 5.73303746943426E-02 
381	 5.46095982150238E-02 
382	 5.16412844633171E-02 
383	 5.72161770045254E-02 
384	 5.77365992969058E-02 
385	 5.60435264083393E-02 
386	 5.57112627255837E-02 
387	 5.71062152036485E-02 
388	 5.85618648957364E-02 
389	 5.86594608736557E-02 
390	 5.71828591538685E-02 
391	 5.88768239288963E-02 
392	 5.90023569532795E-02 
393	 5.77254654497476E-02 
394	 5.93507855167157E-02 
395	 6.07521189357482E-02 
396	 6.10695556171619E-02 
397	 6.04481634201691E-02 
398	 6.02696399288234E-02 
399	 5.97139211070118E-02 
400	 5.97488202572638E-02 
401	 6.13488916339529E-02 
402	 6.21845230580393E-02 
403	 6.17826186531505E-02 
404	 6.09916309024137E-02 
405	 6.17072691677023E-02 
406	 6.21342540512768E-02 
407	 6.25960819546162E-02 
408	 6.31597816440885E-02 
409	 6.20198682486706E-02 
410	 6.10720076059767E-02 
411	 6.15958317171218E-02 
412	 6.38636096249193E-02 
413	 6.38419238570897E-02 
414	 6.28564217392705E-02 
415	 6.23889364104587E-02 
416	 6.34578475207652E-02 
417	 6.36820125943778E-02 
418	 6.35087256871049E-02 
419	 6.37332013296852E-02 
420	 6.38223525759835E-02 
421	 6.33996191286297E-02 
422	 6.31783474621587E-02 
423	 6.42682149898639E-02 
424	 0.064021365178687 
425	 6.37552315607457E-02 
426	 6.41176482190275E-02 
427	 6.35775461744005E-02 
428	 6.32408862691837E-02 
429	 6.32533430706567E-02 
430	 6.34342271755766E-02 
431	 6.36223350343436E-02 
432	 6.37714315787379E-02 
433	 6.39317691682531E-02 
434	 6.42220104708584E-02 
435	 6.43255817905997E-02 
436	 6.43317722368909E-02 
437	 6.43274705222174E-02 
438	 6.41185047185428E-02 
439	 6.41990945359823E-02 
440	 6.45853519457977E-02 
441	 6.49983332088547E-02 
442	 6.50081409494173E-02 
443	 6.47656581323639E-02 
444	 6.45905059440612E-02 
445	 6.49706650495985E-02 
446	 6.50520609248544E-02 
447	 6.50481838591398E-02 
448	 6.53115168402488E-02 
449	 6.53467074150892E-02 
450	 6.56206418833532E-02 
451	 6.60385330694321E-02 
452	 6.60493546634671E-02 
453	 6.61384360542022E-02 
454	 6.61186187562564E-02 
455	 6.59669609077521E-02 
456	 6.64054994876393E-02 
457	 6.64582046857729E-02 
458	 6.62739219490015E-02 
459	 6.64559237031642E-02 
460	 6.68409134401449E-02 
461	 6.67996568613271E-02 
462	 6.63637035312244E-02 
463	 6.65226731995754E-02 
464	 6.67634590300468E-02 
465	 6.68918895323468E-02 
466	 6.69200635797534E-02 
467	 6.73874455201843E-02 
468	 6.76462212493663E-02 
469	 6.75203485314368E-02 
470	 6.72776182864358E-02 
471	 6.75234805433679E-02 
472	 6.77531678521822E-02 
473	 6.76755269088829E-02 
474	 6.80060548416831E-02 
475	 6.80757206583767E-02 
476	 6.80001701755119E-02 
477	 6.81684860607949E-02 
478	 6.82526406350358E-02 
479	 6.83721584101725E-02 
480	 6.85748773130628E-02 
481	 6.87625018856606E-02 
482	 6.88639193302809E-02 
483	 6.89838574374314E-02 
484	 6.91815139232467E-02 
485	 6.91015558636002E-02 
486	 6.91032411177452E-02 
487	 6.92315300237261E-02 
488	 6.92624525418153E-02 
489	 6.92313282440356E-02 
490	 6.93880269693691E-02 
491	 6.97307787480436E-02 
492	 6.95309062634595E-02 
493	 6.94070429509495E-02 
494	 6.95258034338081E-02 
495	 6.98076149755016E-02 
496	 7.00589503855714E-02 
497	 7.01499975547583E-02 
498	 7.01504550713964E-02 
499	 0.070409649469897 
500	 7.05175999402287E-02 
501	 0.070559351515744 
502	 0.070686434584263 
503	 7.06708801963162E-02 
504	 7.05694511508703E-02 
505	 7.04921013454684E-02 
506	 7.05764451612391E-02 
507	 7.07312873027831E-02 
508	 7.08662137452227E-02 
509	 7.09129818426408E-02 
510	 7.08282847100498E-02 
511	 7.09008219666122E-02 
512	 7.10758478456388E-02 
513	 7.11339649058247E-02 
514	 7.12229731462956E-02 
515	 7.13078446544106E-02 
516	 7.13569616074727E-02 
517	 7.13767546417729E-02 
518	 7.13568458048651E-02 
519	 7.13997721945808E-02 
520	 7.15803842449903E-02 
521	 7.16562778388476E-02 
522	 0.071664105112061 
523	 7.16489925641194E-02 
524	 7.16461010127843E-02 
525	 7.16474192782664E-02 
526	 7.17167486148498E-02 
527	 7.18496979397485E-02 
528	 7.17585540870465E-02 
529	 7.18595427215456E-02 
530	 7.20959633384948E-02 
531	 7.21261897771411E-02 
532	 7.22264785527217E-02 
533	 7.22825519970775E-02 
534	 7.22458314388876E-02 
535	 0.072314742817585 
536	 7.23951863167331E-02 
537	 7.24658251006881E-02 
538	 7.25237462143661E-02 
539	 0.072515195927289 
540	 7.25138965774475E-02 
541	 7.25607214672101E-02 
542	 7.26409932032368E-02 
543	 7.27234235341579E-02 
544	 7.28072096645672E-02 
545	 7.29083139984687E-02 
546	 7.30841989006167E-02 
547	 7.31608166582586E-02 
548	 7.31745773781353E-02 
549	 7.33293953489347E-02 
550	 7.33944337480902E-02 
551	 7.34032676157204E-02 
552	 0.073447744654447 
553	 7.36618882377301E-02 
554	 7.37617615025848E-02 
555	 7.38004250337792E-02 
556	 7.39696867391388E-02 
557	 7.39406055069726E-02 
558	 7.39596104302633E-02 
559	 7.41484335886243E-02 
560	 7.43134651229019E-02 
561	 7.43780028462837E-02 
562	 7.44246503116986E-02 
563	 7.45695407569093E-02 
564	 7.47343013819574E-02 
565	 7.48675344509827E-02 
566	 7.50113997621469E-02 
567	 7.53057707143005E-02 
568	 7.55247275749086E-02 
569	 0.075685424695899 
570	 7.58451937650189E-02 
571	 7.59781698204082E-02 
572	 7.61119140072986E-02 
573	 7.62850143764911E-02 
574	 7.65275173244737E-02 
575	 7.66663738612098E-02 
576	 7.68104102040749E-02 
577	 0.077016193453163 
578	 7.71059220845725E-02 
579	 7.73212877387163E-02 
580	 7.76542529719693E-02 
581	 7.79965150905834E-02 
582	 7.83962147115937E-02 
583	 7.86887112512873E-02 
584	 7.88366873954752E-02 
585	 7.90043455797027E-02 
586	 7.91194601388598E-02 
587	 7.92195061241682E-02 
588	 7.93528722954161E-02 
589	 7.94863364806316E-02 
590	 0.079628806893269 
591	 7.97657805412656E-02 
592	 7.98663156840681E-02 
593	 0.0800210509535 
594	 8.01954679693572E-02 
595	 8.03711056299466E-02 
596	 8.06436168113536E-02 
597	 8.09556369608653E-02 
598	 8.12918293182676E-02 
599	 8.16496359944356E-02 
600	 8.19302560981359E-02 
601	 8.21629059786712E-02 
602	 8.23562938723221E-02 
603	 8.24455739169953E-02 
604	 8.25768066417099E-02 
605	 8.27186979105701E-02 
606	 8.28101799495449E-02 
607	 8.30071322256789E-02 
608	 8.32127788265788E-02 
609	 8.33668876174172E-02 
610	 8.34704390217383E-02 
611	 0.083622480542816 
612	 8.38086937931297E-02 
613	 8.39793987382456E-02 
614	 8.40743756232881E-02 
615	 0.084167119397147 
616	 8.42686395441899E-02 
617	 8.43509175652033E-02 
618	 0.084502916392388 
619	 8.46231874336282E-02 
620	 8.46655624380907E-02 
621	 8.47624209489619E-02 
622	 0.084856986991934 
623	 0.084928960182086 
624	 8.49793646402531E-02 
625	 8.50656935033443E-02 
626	 8.51631771069518E-02 
627	 0.085241895770386 
628	 8.52733807657597E-02 
629	 8.53715984348208E-02 
630	 8.54682325438966E-02 
631	 8.54905390926507E-02 
632	 8.55553541941594E-02 
633	 8.56327857668891E-02 
634	 0.085709904312756 
635	 8.57898624772967E-02 
636	 8.58751113027909E-02 
637	 8.59468677977111E-02 
638	 8.59899142820382E-02 
639	 8.60019388687183E-02 
640	 8.60179966184063E-02 
641	 8.60697952369244E-02 
642	 8.61733634736045E-02 
643	 8.62557769822762E-02 
644	 8.63318557894068E-02 
645	 8.64108256344199E-02 
646	 8.64806207451126E-02 
647	 0.086541582818108 
648	 8.66018438564743E-02 
649	 0.086672850103292 
650	 8.67727073687352E-02 
651	 8.68461720386747E-02 
652	 8.68876913112617E-02 
653	 8.69390487304257E-02 
654	 0.087057158534984 
655	 8.71463328812714E-02 
656	 8.71699619199233E-02 
657	 8.73175476211723E-02 
658	 8.74304622858726E-02 
659	 8.75063931124469E-02 
660	 8.76022391681355E-02 
661	 8.76217933235074E-02 
662	 8.76488912463292E-02 
663	 8.77317930856487E-02 
664	 8.78440713923895E-02 
665	 0.087961175416367 
666	 8.80244067316854E-02 
667	 8.80186465621365E-02 
668	 8.81259044000219E-02 
669	 8.82798433648583E-02 
670	 8.84068108708829E-02 
671	 8.84458128548397E-02 
672	 0.088552992530809 
673	 8.86740109299056E-02 
674	 8.87543137308382E-02 
675	 8.88275411983782E-02 
676	 8.89019377700488E-02 
677	 8.89859141744499E-02 
678	 8.90861847610804E-02 
679	 8.92072597758386E-02 
680	 8.93288572519121E-02 
681	 8.94410059795064E-02 
682	 8.95500699912958E-02 
683	 8.96505754749889E-02 
684	 8.97574967711023E-02 
685	 8.98747567598872E-02 
686	 8.99456438310933E-02 
687	 9.00247766460609E-02 
688	 9.01401387957962E-02 
689	 9.02899666612649E-02 
690	 9.03869965845056E-02 
691	 9.04366907990433E-02 
692	 9.04898375831014E-02 
693	 9.06685357701196E-02 
694	 9.07647195703931E-02 
695	 9.08099589161138E-02 
696	 9.09165107493196E-02 
697	 9.11129959486604E-02 
698	 9.12531828065757E-02 
699	 9.13106396979478E-02 
700	 9.13947687573364E-02 
701	 9.15086119580245E-02 
702	 9.16373447500071E-02 
703	 9.17514484597307E-02 
704	 9.17898325504627E-02 
705	 9.18864935950965E-02 
706	 9.20108308202738E-02 
707	 9.20640324519713E-02 
708	 9.21704301090565E-02 
709	 9.22902192112048E-02 
710	 9.23978170028207E-02 
711	 9.25142721836531E-02 
712	 0.092611802560973 
713	 9.26973747281337E-02 
714	 9.27855341701967E-02 
715	 9.28764630730306E-02 
716	 9.29769132018672E-02 
717	 9.30805322761071E-02 
718	 9.31691149220234E-02 
719	 9.32023755046457E-02 
720	 9.32497034516415E-02 
721	 9.33448715428394E-02 
722	 9.34255156845379E-02 
723	 9.34833032578524E-02 
724	 9.35536758096457E-02 
725	 9.36635888651805E-02 
726	 9.37098548530215E-02 
727	 9.37493711774027E-02 
728	 9.38018654244846E-02 
729	 9.38452621827402E-02 
730	 9.38742436533967E-02 
731	 9.39340131556146E-02 
732	 9.40302124128765E-02 
733	 9.40532078336025E-02 
734	 9.40640076141239E-02 
735	 9.40889602345635E-02 
736	 9.41307433419141E-02 
737	 0.094129368776911 
738	 9.41450428912839E-02 
739	 9.41957642044719E-02 
740	 9.42432161250016E-02 
741	 9.42496813422038E-02 
742	 9.42375540515669E-02 
743	 9.42364683430567E-02 
744	 9.42578816181688E-02 
745	 9.42561644077818E-02 
746	 0.09424688517536 
747	 9.42619959680787E-02 
748	 9.42194284266482E-02 
749	 9.41803117750694E-02 
750	 9.41788805905536E-02 
751	 9.42003715802153E-02 
752	 9.41864532932775E-02 
753	 9.41557579375504E-02 
754	 9.41375152254225E-02 
755	 0.094134685741604 
756	 9.41090580226106E-02 
757	 9.40709695768425E-02 
758	 9.40520170970897E-02 
759	 9.40352471774037E-02 
760	 9.39961361237132E-02 
761	 9.39457635632203E-02 
762	 9.39383144791795E-02 
763	 9.38899213943263E-02 
764	 9.38321746312434E-02 
765	 9.38073984937173E-02 
766	 9.38107950536663E-02 
767	 9.37839305726001E-02 
768	 9.37171643418151E-02 
769	 9.36371660805166E-02 
770	 9.36147828068226E-02 
771	 9.35861686478991E-02 
772	 9.35278452381348E-02 
773	 9.34795075992314E-02 
774	 9.34250022353912E-02 
775	 9.33698387240446E-02 
776	 9.33243036324191E-02 
777	 9.33077303186755E-02 
778	 9.32329278734302E-02 
779	 9.31421521523583E-02 
780	 9.31189409645489E-02 
781	 9.30893457426943E-02 
782	 9.30368198586448E-02 
783	 9.29702959879914E-02 
784	 9.29202126492976E-02 
785	 9.28806128353001E-02 
786	 0.092817964740455 
787	 9.27275282809389E-02 
788	 9.26870370305822E-02 
789	 9.26359029272509E-02 
790	 9.25783106653184E-02 
791	 9.25299356511148E-02 
792	 9.24283248502546E-02 
793	 9.23826614743318E-02 
794	 9.23860576628887E-02 
795	 9.23310421330533E-02 
796	 9.22703641238446E-02 
797	 9.22191428557477E-02 
798	 9.21736086955881E-02 
799	 9.21041768322421E-02 
800	 9.20519902650069E-02 
801	 9.20056528934272E-02 
802	 9.19521485817085E-02 
803	 9.19413667529337E-02 
804	 9.19171455750592E-02 
805	 9.18613034257623E-02 
806	 9.17882976991905E-02 
807	 9.17438024710609E-02 
808	 9.17035456403613E-02 
809	 9.16459335185525E-02 
810	 9.15654450184336E-02 
811	 0.091533365402389 
812	 9.14962234570002E-02 
813	 9.14172338738972E-02 
814	 0.091385539052736 
815	 9.13494593158172E-02 
816	 9.13105077393551E-02 
817	 9.12844769669534E-02 
818	 9.12420547709992E-02 
819	 9.12118549677152E-02 
820	 9.11738659849418E-02 
821	 9.10779057932787E-02 
822	 9.10550918846302E-02 
823	 9.10599322211637E-02 
824	 0.091040906660826 
825	 9.09831758233696E-02 
826	 9.09652919649253E-02 
827	 9.09468633504665E-02 
828	 0.09088798291272 
829	 9.08638324563858E-02 
830	 9.08171566630207E-02 
831	 9.07683010733695E-02 
832	 9.07630758416902E-02 
833	 0.090756526995899 
834	 0.090729322896132 
835	 9.06699104828591E-02 
836	 9.05847479964679E-02 
837	 9.06367937071447E-02 
838	 9.06878947437294E-02 
839	 9.06469504400307E-02 
840	 9.05899121074062E-02 
841	 0.090565764850576 
842	 9.05624665228684E-02 
843	 9.05499398137547E-02 
844	 9.05053507499431E-02 
845	 9.05080549902914E-02 
846	 9.05256075848844E-02 
847	 9.04901682899215E-02 
848	 9.04654344318205E-02 
849	 9.04329396254586E-02 
850	 9.04035906684837E-02 
851	 9.04090632343217E-02 
852	 9.03866183217742E-02 
853	 9.03731969493148E-02 
854	 9.03782396248953E-02 
855	 9.03525838827078E-02 
856	 9.03840766452772E-02 
857	 9.04102616259043E-02 
858	 9.03805015183725E-02 
859	 9.03644501037107E-02 
860	 9.03640909611407E-02 
861	 9.03761049484931E-02 
862	 9.03848890392451E-02 
863	 9.03398312353901E-02 
864	 9.03510301620611E-02 
865	 9.03869673331293E-02 
866	 9.03482665942919E-02 
867	 9.03458439943078E-02 
868	 9.03561521752134E-02 
869	 0.090369139770731 
870	 9.03966044969997E-02 
871	 9.03793493124871E-02 
872	 9.04154612919015E-02 
873	 9.05100649278305E-02 
874	 9.04840823409628E-02 
875	 9.04873287996221E-02 
876	 9.04908070421726E-02 
877	 9.04582131991118E-02 
878	 9.04441324918313E-02 
879	 9.04976235821301E-02 
880	 0.09056739988344 
881	 9.05924562132882E-02 
882	 9.06463236363875E-02 
883	 0.090657464121057 
884	 9.06539061467023E-02 
885	 9.07023852608086E-02 
886	 9.07308801187938E-02 
887	 9.07449669644268E-02 
888	 9.07569015951554E-02 
889	 9.07794560810913E-02 
890	 9.08165491381586E-02 
891	 9.08562436426212E-02 
892	 9.08953842059805E-02 
893	 9.09423771443746E-02 
894	 9.09435753927978E-02 
895	 9.09665757945758E-02 
896	 9.10518018983935E-02 
897	 9.11490333710436E-02 
898	 9.12127671058227E-02 
899	 9.12526906186016E-02 
900	 9.12833481505046E-02 
901	 9.12777643597543E-02 
902	 9.13160210910975E-02 
903	 0.091365521817764 
904	 9.13788859934404E-02 
905	 9.14124678666408E-02 
906	 9.14668729953768E-02 
907	 9.15301971595559E-02 
908	 0.091589996245757 
909	 9.16775207466248E-02 
910	 9.16753013384112E-02 
911	 9.16579255164296E-02 
912	 9.17853102310415E-02 
913	 9.18510599819652E-02 
914	 9.19098419716907E-02 
915	 9.19828152127905E-02 
916	 9.20436128694929E-02 
917	 9.20963862517882E-02 
918	 9.21600514659084E-02 
919	 9.22226179562092E-02 
920	 0.092242321117178 
921	 9.22950588639537E-02 
922	 9.23720926098634E-02 
923	 9.24544359583551E-02 
924	 0.092531573586041 
925	 9.25764765174115E-02 
926	 9.26273405264624E-02 
927	 9.26990906114905E-02 
928	 9.27376149702971E-02 
929	 9.28651894433681E-02 
930	 9.29752985923412E-02 
931	 9.29953788185762E-02 
932	 9.30636285562246E-02 
933	 9.31954114435593E-02 
934	 9.32847239437729E-02 
935	 9.32705341623588E-02 
936	 9.33249528763052E-02 
937	 9.34197171408694E-02 
938	 9.35163230439312E-02 
939	 9.35981645162234E-02 
940	 9.37545627043899E-02 
941	 0.093853089704522 
942	 9.39031066144364E-02 
943	 9.39626327266688E-02 
944	 9.40203699564938E-02 
945	 9.41063919728461E-02 
946	 9.42198633030798E-02 
947	 9.43221104207655E-02 
948	 0.094280594502469 
949	 9.43344749950747E-02 
950	 0.094464253479485 
951	 9.45351098457512E-02 
952	 0.094616979128038 
953	 0.094663300201628 
954	 9.47302625772816E-02 
955	 9.48963764170665E-02 
956	 9.50369895931248E-02 
957	 0.095155967050865 
958	 9.52300421207031E-02 
959	 9.52478136186904E-02 
960	 9.53605033612716E-02 
961	 9.54544488615973E-02 
962	 9.55322698449553E-02 
963	 9.56556240366172E-02 
964	 9.56846969117087E-02 
965	 9.58081232969086E-02 
966	 9.59658159318889E-02 
967	 9.59687715813749E-02 
968	 9.60009988303063E-02 
969	 9.61029790616022E-02 
970	 9.61980638934125E-02 
971	 9.61872004704519E-02 
972	 9.62815729428121E-02 
973	 9.64932900920118E-02 
974	 9.66255279941501E-02 
975	 0.096495542780943 
976	 9.67571002218428E-02 
977	 0.096901566454458 
978	 9.68497909007836E-02 
979	 9.68619094771847E-02 
980	 9.70546722323453E-02 
981	 9.71382030567837E-02 
982	 0.097094773144052 
983	 9.71117929326134E-02 
984	 0.097360804589744 
985	 0.097494986664699 
986	 9.75123565690012E-02 
987	 9.76086724485326E-02 
988	 9.77743597393479E-02 
989	 9.78455343098765E-02 
990	 9.78697801985765E-02 
991	 0.097971363050831 
992	 9.80578995570805E-02 
993	 9.80655187522765E-02 
994	 9.81145556921942E-02 
995	 9.83161451291853E-02 
996	 9.84108572271477E-02 
997	 9.84495095133265E-02 
998	 9.84219040310157E-02 
999	 9.83739772973429E-02 
1000	 9.86107746467501E-02 
1001	 9.78514264894294E-02 
1002	 9.79312842255218E-02 
1003	 9.79592912418086E-02 
1004	 9.80146034212745E-02 
1005	 0.098119401764175 
1006	 9.81617466803505E-02 
1007	 9.81573748218159E-02 
1008	 9.81929930587148E-02 
1009	 9.82426939417736E-02 
1010	 0.098309789099875 
1011	 9.84157674998168E-02 
1012	 9.84788152414652E-02 
1013	 9.84865345917571E-02 
1014	 9.84776643910294E-02 
1015	 9.84553076755572E-02 
1016	 0.09847224702189 
1017	 9.85167298041024E-02 
1018	 9.86124046768961E-02 
1019	 9.86687615673064E-02 
1020	 9.86830294966767E-02 
1021	 9.86817073771043E-02 
1022	 0.098649536819292 
1023	 9.86641966180294E-02 
1024	 0.098694664264577 
1025	 9.87281066153295E-02 
1026	 9.87701146145097E-02 
1027	 9.87110129604143E-02 
1028	 0.098683655680045 
1029	 9.87310571412059E-02 
1030	 9.87426267724192E-02 
1031	 9.87737574981392E-02 
1032	 9.88485432442916E-02 
1033	 9.89276452671289E-02 
1034	 9.89259589401146E-02 
1035	 9.89464153997481E-02 
1036	 9.89801604871842E-02 
1037	 9.89413776848956E-02 
1038	 0.098947244811423 
1039	 9.89765303221848E-02 
1040	 9.89334710020178E-02 
1041	 9.89259051156815E-02 
1042	 9.89538747417963E-02 
1043	 9.89493824562877E-02 
1044	 9.89604374013101E-02 
1045	 0.099001920864521 
1046	 9.90508511716464E-02 
1047	 9.90472771449318E-02 
1048	 9.90781300233437E-02 
1049	 9.91186299209298E-02 
1050	 9.91273893167667E-02 
1051	 9.91784883273084E-02 
1052	 9.91701124720277E-02 
1053	 9.91568331341649E-02 
1054	 9.92256553537675E-02 
1055	 9.92491273349468E-02 
1056	 9.92914712763146E-02 
1057	 9.93362127901412E-02 
1058	 9.93709322030782E-02 
1059	 9.94103233444927E-02 
1060	 9.94500376852418E-02 
1061	 9.95238941059529E-02 
1062	 9.96003205623455E-02 
1063	 9.96519775217258E-02 
1064	 9.97163998698763E-02 
1065	 9.97763160448089E-02 
1066	 9.98371414016137E-02 
1067	 9.99025871507361E-02 
1068	 9.99419425017757E-02 
1069	 0.100021310222052 
1070	 0.100077597533404 
1071	 0.100104252090302 
1072	 0.100153753680655 
1073	 0.100206484046467 
1074	 0.100255331326097 
1075	 0.100293975486373 
1076	 0.100379987414554 
1077	 0.1004539023176 
1078	 0.100523082448537 
1079	 0.10060985088003 
1080	 0.100687169740257 
1081	 0.100738539664443 
1082	 0.100771483865107 
1083	 0.100817403375324 
1084	 0.1008440587583 
1085	 0.100893063207313 
1086	 0.100976455417253 
1087	 0.10102850408543 
1088	 0.101077699887724 
1089	 0.101093221251459 
1090	 0.101129410721271 
1091	 0.101172198711148 
1092	 0.101185770544094 
1093	 0.101226803721308 
1094	 0.101260715567759 
1095	 0.101276417972672 
1096	 0.101319923675066 
1097	 0.101326551349019 
1098	 0.101322948241413 
1099	 0.101268266425286 
1100	 0.101275013684864 
1101	 0.101309412903907 
1102	 0.101328771693367 
1103	 0.101375523706331 
1104	 0.101399355074694 
1105	 0.101392418508969 
1106	 0.101390000211561 
1107	 0.101399043974259 
1108	 0.101407513860551 
1109	 0.101405984263841 
1110	 0.101416116316761 
1111	 0.101421999594836 
1112	 0.101431716167739 
1113	 0.101425911918013 
1114	 0.101408980535537 
1115	 0.101398275425218 
1116	 0.101370634879263 
1117	 0.101360623217876 
1118	 0.101362584049847 
1119	 0.101383412531376 
1120	 0.101369127820286 
1121	 0.101345856515159 
1122	 0.101312582718006 
1123	 0.101265401940205 
1124	 0.1012622817435 
1125	 0.10130040074141 
1126	 0.101299467364587 
1127	 0.101303848484277 
1128	 0.101296573763415 
1129	 0.10125398627342 
1130	 0.101233508857742 
1131	 0.101235110637981 
1132	 0.101227462065013 
1133	 0.101201060668137 
1134	 0.101197270800478 
1135	 0.101215214864455 
1136	 0.101221518620147 
1137	 0.101197869869353 
1138	 0.101204593265641 
1139	 0.101201728289856 
1140	 0.101178433171131 
1141	 0.101166195864614 
1142	 0.101174814391155 
1143	 0.101164338007938 
1144	 0.101128554676471 
1145	 0.10111849661406 
1146	 0.101127111096157 
1147	 0.101121890061753 
1148	 0.101119405410074 
1149	 0.101113595318092 
1150	 0.101101380651882 
1151	 0.101080902477366 
1152	 0.101064516127442 
1153	 0.101076836237145 
1154	 0.101089188795358 
1155	 0.10112267979224 
1156	 0.101127582242244 
1157	 0.101131901898556 
1158	 0.101122718711294 
1159	 0.101078025479172 
1160	 0.101065432296785 
1161	 0.101068360391239 
1162	 0.101067580331392 
1163	 0.101073516298131 
1164	 0.101081256047552 
1165	 0.101097557020067 
1166	 0.101100868603734 
1167	 0.101079751121976 
1168	 0.101082899105021 
1169	 0.101083550483725 
1170	 0.101063064609814 
1171	 0.101077222769268 
1172	 0.10113450028766 
1173	 0.10114878144439 
1174	 0.101152348956932 
1175	 0.101161285829173 
1176	 0.101150001373139 
1177	 0.101151410555819 
1178	 0.101161698661241 
1179	 0.101177397854854 
1180	 0.101200196161145 
1181	 0.101216822613778 
1182	 0.10123867436915 
1183	 0.101260304887466 
1184	 0.101276059046051 
1185	 0.101276254820259 
1186	 0.101299765151496 
1187	 0.101336017939038 
1188	 0.101361678959885 
1189	 0.101399353115985 
1190	 0.101418662516573 
1191	 0.101412314134573 
1192	 0.101432579908523 
1193	 0.101465015222905 
1194	 0.101486749518121 
1195	 0.101509621769521 
1196	 0.101539879903493 
1197	 0.101577364088297 
1198	 0.101599054928665 
1199	 0.101617265417102 
1200	 0.101638385611606 
1201	 0.101666282237692 
1202	 0.101681988208587 
1203	 0.101705386060231 
1204	 0.101749638650807 
1205	 0.101778055435641 
1206	 0.101788050130501 
1207	 0.101811917213189 
1208	 0.101850158055024 
1209	 0.101873370699941 
1210	 0.10188852992007 
1211	 0.101907961395598 
1212	 0.101916195457595 
1213	 0.101936007062942 
1214	 0.101975459047989 
1215	 0.101999478543139 
1216	 0.102019082333374 
1217	 0.102033902018448 
1218	 0.102057364006123 
1219	 0.102071567943091 
1220	 0.102099450607946 
1221	 0.10214896063925 
1222	 0.102177300466352 
1223	 0.102197789919243 
1224	 0.102220261396776 
1225	 0.102238120060259 
1226	 0.10225377870676 
1227	 0.102266108947263 
1228	 0.102282981419328 
1229	 0.102295846681445 
1230	 0.102311900174653 
1231	 0.102331270373899 
1232	 0.102354795062817 
1233	 0.102381073347434 
1234	 0.102408466342221 
1235	 0.102439492297664 
1236	 0.102480954828006 
1237	 0.102511325464779 
1238	 0.102542290382607 
1239	 0.102562456101062 
1240	 0.102572964167851 
1241	 0.102584370416118 
1242	 0.102590097694015 
1243	 0.102595430315393 
1244	 0.102587931875104 
1245	 0.102600033468303 
1246	 0.102616432583688 
1247	 0.102640214020761 
1248	 0.10268556760997 
1249	 0.102733676080745 
1250	 0.102751346838074 
1251	 0.102748541813365 
1252	 0.102758995696762 
1253	 0.102750422900188 
1254	 0.102759797951729 
1255	 0.102789801553955 
1256	 0.10280579194009 
1257	 0.10281347450232 
1258	 0.102824136996993 
1259	 0.102837327644303 
1260	 0.102846100474131 
1261	 0.102851527875998 
1262	 0.102858924575634 
1263	 0.102868752996733 
1264	 0.102872594391569 
1265	 0.10288138654409 
1266	 0.102875565481617 
1267	 0.102853868098976 
1268	 0.102826924142201 
1269	 0.102823374076847 
1270	 0.102819201870134 
1271	 0.102826687065669 
1272	 0.102860902571136 
1273	 0.102877419203986 
1274	 0.102880322788347 
1275	 0.10290380722121 
1276	 0.102938398919601 
1277	 0.102969676062774 
1278	 0.103008676573154 
1279	 0.103046608726263 
1280	 0.103080593363919 
1281	 0.103121512292712 
1282	 0.103163350365676 
1283	 0.103215573257944 
1284	 0.103280481142137 
1285	 0.103340241859903 
1286	 0.103388130960354 
1287	 0.103460191898467 
1288	 0.103534123280588 
1289	 0.103605506111367 
1290	 0.103686152294175 
1291	 0.103784445226086 
1292	 0.103874219167062 
1293	 0.103968247804458 
1294	 0.10405175022912 
1295	 0.104132741581729 
1296	 0.104212430340429 
1297	 0.104271660544149 
1298	 0.104349874466633 
1299	 0.104451892579615 
1300	 0.104534588956934 
1301	 0.104614642183366 
1302	 0.104693678064066 
1303	 0.104767263682693 
1304	 0.104821839438321 
1305	 0.104902588421303 
1306	 0.104983913119049 
1307	 0.105044827485424 
1308	 0.105107427824417 
1309	 0.105166369076959 
1310	 0.105206390891001 
1311	 0.105268271976046 
1312	 0.10536060420438 
1313	 0.105403816468683 
1314	 0.105426035287771 
1315	 0.10545654775734 
1316	 0.105459901084967 
1317	 0.105477533477694 
1318	 0.105515772151314 
1319	 0.105537748507994 
1320	 0.105542454523192 
1321	 0.105554524834136 
1322	 0.105570308129909 
1323	 0.105585995455802 
1324	 0.105582926836597 
1325	 0.105582482207241 
1326	 0.105569263111657 
1327	 0.105549772802952 
1328	 0.10553698512303 
1329	 0.105516726303484 
1330	 0.105506744373589 
1331	 0.105497658877319 
1332	 0.105492651256216 
1333	 0.105502289942059 
1334	 0.105496581719316 
1335	 0.1054903062237 
1336	 0.105468857161456 
1337	 0.105424259788428 
1338	 0.105399085105627 
1339	 0.105379902294132 
1340	 0.105349046475534 
1341	 0.105329708338145 
1342	 0.105300115260836 
1343	 0.105252265278963 
1344	 0.105204798040323 
1345	 0.105181260813785 
1346	 0.105125576441695 
1347	 0.105059852243604 
1348	 0.105015027161629 
1349	 0.104958599954047 
1350	 0.104900437509489 
1351	 0.104842835242776 
1352	 0.104788853298422 
1353	 0.104731618883533 
1354	 0.104672108456784 
1355	 0.104609397937383 
1356	 0.104546663153459 
1357	 0.104484069493219 
1358	 0.104403031772372 
1359	 0.10434878247364 
1360	 0.104313373790328 
1361	 0.104271408068537 
1362	 0.104230343401718 
1363	 0.104208141806364 
1364	 0.104179983922303 
1365	 0.104178921144368 
1366	 0.104209128832877 
1367	 0.104244898570527 
1368	 0.104283660758323 
1369	 0.10430965436537 
1370	 0.104308255295209 
1371	 0.104304324616977 
1372	 0.104303095227242 
1373	 0.104302190154029 
1374	 0.104283612446883 
1375	 0.104273034379641 
1376	 0.104223701560562 
1377	 0.104132877701264 
1378	 0.104061302582857 
1379	 0.103968147058367 
1380	 0.10390292592429 
1381	 0.10384476606489 
1382	 0.103808859091588 
1383	 0.103798917621076 
1384	 0.103779509008583 
1385	 0.103773578474766 
1386	 0.103763575133669 
1387	 0.103755865003884 
1388	 0.103737283333116 
1389	 0.103716472388001 
1390	 0.103698551902798 
1391	 0.103658582571795 
1392	 0.103611993812338 
1393	 0.103566923280825 
1394	 0.103519884148743 
1395	 0.103469036267911 
1396	 0.103425313185315 
1397	 0.103379111103877 
1398	 0.103327408973267 
1399	 0.103289221776865 
1400	 0.103260577373149 
1401	 0.103221139479495 
1402	 0.103183708071301 
1403	 0.103155610587408 
1404	 0.103113225139089 
1405	 0.103092723051896 
1406	 0.103107856447571 
1407	 0.103090443714037 
1408	 0.103061052684565 
1409	 0.103045947164191 
1410	 0.103013345423176 
1411	 0.102999130588267 
1412	 0.103002360644846 
1413	 0.103007651658727 
1414	 0.103022054294041 
1415	 0.103044603264621 
1416	 0.103059696740478 
1417	 0.103082028856399 
1418	 0.103097627807625 
1419	 0.103105758414697 
1420	 0.103137440521632 
1421	 0.103159710978581 
1422	 0.103168541834556 
1423	 0.103198275476305 
1424	 0.103219940762425 
1425	 0.10323506617086 
1426	 0.103253346044599 
1427	 0.103277901064258 
1428	 0.103293963430934 
1429	 0.103296127837195 
1430	 0.103318173831508 
1431	 0.10335605781635 
1432	 0.10337692311256 
1433	 0.103396606090185 
1434	 0.103422313549037 
1435	 0.103434884598214 
1436	 0.103459901511334 
1437	 0.103503399398055 
1438	 0.103533673068296 
1439	 0.103557235020316 
1440	 0.103588706768853 
1441	 0.103610812245551 
1442	 0.103642040465838 
1443	 0.103671939347915 
1444	 0.10368302412798 
1445	 0.103701523021087 
1446	 0.10373846197402 
1447	 0.103768900156259 
1448	 0.103790613699742 
1449	 0.103800913197663 
1450	 0.103807068549375 
1451	 0.103827381065447 
1452	 0.103851705042183 
1453	 0.103880072037992 
1454	 0.103926226727106 
1455	 0.103950675854635 
1456	 0.103973824998917 
1457	 0.103984722339438 
1458	 0.103970419074479 
1459	 0.103978147178875 
1460	 0.10398613895345 
1461	 0.104001285992983 
1462	 0.104033356488603 
1463	 0.104057055000952 
1464	 0.104083343842496 
1465	 0.104097350337044 
1466	 0.104098912824559 
1467	 0.104114305026049 
1468	 0.104125443684944 
1469	 0.104140187331633 
1470	 0.104163588841046 
1471	 0.104196193828459 
1472	 0.104212435453206 
1473	 0.104234348135845 
1474	 0.104254413985223 
1475	 0.104271074130085 
1476	 0.104294770207282 
1477	 0.104314346582151 
1478	 0.104343118902659 
1479	 0.104378039408167 
1480	 0.104413839151586 
1481	 0.104452112316909 
1482	 0.104474038399655 
1483	 0.104485415524254 
1484	 0.104506059983522 
1485	 0.104510283296728 
1486	 0.104540079437513 
1487	 0.104597296409337 
1488	 0.104628400750407 
1489	 0.104657411579449 
1490	 0.104684918555734 
1491	 0.104696715936445 
1492	 0.104720436805036 
1493	 0.104755327568391 
1494	 0.104780656700869 
1495	 0.104798110402651 
1496	 0.104825541577581 
1497	 0.104857588053855 
1498	 0.10488625457994 
1499	 0.104926863646786 
1500	 0.10495258464559 
1501	 0.104962603415604 
1502	 0.104975422022756 
1503	 0.104980468411936 
1504	 0.104993745027725 
1505	 0.105002172353741 
1506	 0.105008848977874 
1507	 0.105033573051103 
1508	 0.105050286978903 
1509	 0.105064152860145 
1510	 0.105090791022711 
1511	 0.105092519273942 
1512	 0.105087404598294 
1513	 0.105089314371963 
1514	 0.105102566160101 
1515	 0.105131240068563 
1516	 0.105152584581216 
1517	 0.105178346861664 
1518	 0.105213339742684 
1519	 0.105233917606574 
1520	 0.105244894003502 
1521	 0.105270743866596 
1522	 0.105295886757596 
1523	 0.105324253627627 
1524	 0.105374705781529 
1525	 0.105394324344058 
1526	 0.105388900787616 
1527	 0.105400411254246 
1528	 0.105407059954775 
1529	 0.105416508024744 
1530	 0.105440801015434 
1531	 0.10545531858042 
1532	 0.105459664135886 
1533	 0.105462180646528 
1534	 0.105458736786756 
1535	 0.105466890569813 
1536	 0.105474599699199 
1537	 0.105487900216906 
1538	 0.105511955468155 
1539	 0.105534380606169 
1540	 0.105559043187954 
1541	 0.105581233229656 
1542	 0.105607750960644 
1543	 0.105630251255463 
1544	 0.105644297507964 
1545	 0.10566482300157 
1546	 0.105691761954642 
1547	 0.105710451621671 
1548	 0.10573618847468 
1549	 0.105759082203612 
1550	 0.105774555669126 
1551	 0.105792865166955 
1552	 0.105800742186932 
1553	 0.105804127859854 
1554	 0.105807184802601 
1555	 0.105809064775046 
1556	 0.105818933756069 
1557	 0.105831943082523 
1558	 0.105832006030168 
1559	 0.105827401506288 
1560	 0.105827092500085 
1561	 0.105815088305965 
1562	 0.105819489468793 
1563	 0.105836037535026 
1564	 0.105852078171737 
1565	 0.105875591302627 
1566	 0.105886890913226 
1567	 0.105896960528373 
1568	 0.105906873752745 
1569	 0.105907388958389 
1570	 0.105914769877064 
1571	 0.105925537681129 
1572	 0.105943866667455 
1573	 0.10597217145271 
1574	 0.105983088557042 
1575	 0.105994050213749 
1576	 0.105997207983951 
1577	 0.105980799617382 
1578	 0.10597632691749 
1579	 0.105978489862479 
1580	 0.105980267594313 
1581	 0.105981398125081 
1582	 0.105982545643586 
1583	 0.10598608388258 
1584	 0.105987733839655 
1585	 0.10599074309251 
1586	 0.10598602056843 
1587	 0.10597455915737 
1588	 0.105971414765797 
1589	 0.105967459235833 
1590	 0.105961840150873 
1591	 0.105956228083245 
1592	 0.105958259796455 
1593	 0.105956985328036 
1594	 0.105964230750525 
1595	 0.105999698869044 
1596	 0.106008047615186 
1597	 0.105998798279417 
1598	 0.105998071519464 
1599	 0.10598527019361 
1600	 0.105978137768783 
1601	 0.105980198949288 
1602	 0.105980795035793 
1603	 0.105980117451702 
1604	 0.105978500610431 
1605	 0.105982079669533 
1606	 0.105980062610328 
1607	 0.105970740383288 
1608	 0.105962802361929 
1609	 0.105962893928966 
1610	 0.105957089660116 
1611	 0.105965952260934 
1612	 0.10597710273267 
1613	 0.105968975283624 
1614	 0.105968858979996 
1615	 0.105956190472647 
1616	 0.105936746837927 
1617	 0.10594534845197 
1618	 0.105947468155548 
1619	 0.105942337997751 
1620	 0.105955021946273 
1621	 0.10596248277587 
1622	 0.105966443743728 
1623	 0.105970307569804 
1624	 0.105983167070949 
1625	 0.105978566029932 
1626	 0.105961259745227 
1627	 0.105950508557824 
1628	 0.105933465422434 
1629	 0.105928070480722 
1630	 0.105927899555645 
1631	 0.105925643813967 
1632	 0.105930864015773 
1633	 0.105926176721906 
1634	 0.105911656099078 
1635	 0.105913213764601 
1636	 0.105919702702194 
1637	 0.105920905377903 
1638	 0.105931828882952 
1639	 0.105932366231081 
1640	 0.105919636065591 
1641	 0.105919442000891 
1642	 0.105923237605973 
1643	 0.105927640721942 
1644	 0.105937380347323 
1645	 0.105942264450001 
1646	 0.105951652576194 
1647	 0.105945550508437 
1648	 0.105924487984631 
1649	 0.105919536272556 
1650	 0.105913043030241 
1651	 0.105907992809313 
1652	 0.105913130997622 
1653	 0.105915323126274 
1654	 0.105912278048746 
1655	 0.10591153315642 
1656	 0.105920347124072 
1657	 0.105917143371634 
1658	 0.105903178042663 
1659	 0.105895643750648 
1660	 0.105888032194848 
1661	 0.105879460286258 
1662	 0.105869716819587 
1663	 0.105864229418475 
1664	 0.105861021279357 
1665	 0.105854530161843 
1666	 0.105851127381427 
1667	 0.105844312783675 
1668	 0.105837720531134 
1669	 0.105819569659087 
1670	 0.10578575691643 
1671	 0.105774964122113 
1672	 0.105765316507972 
1673	 0.10575948632227 
1674	 0.105776956640723 
1675	 0.105777599490284 
1676	 0.105770494915266 
1677	 0.105757702516554 
1678	 0.105740342106447 
1679	 0.105722547113304 
1680	 0.105688323668088 
1681	 0.105673043478192 
1682	 0.105675282284101 
1683	 0.105661870900694 
1684	 0.105638717596309 
1685	 0.105636562131341 
1686	 0.105636922146141 
1687	 0.105638431820878 
1688	 0.105660610836117 
1689	 0.105673081168894 
1690	 0.105680541855006 
1691	 0.105679083759649 
1692	 0.10568199569609 
1693	 0.105670074931194 
1694	 0.105634056801972 
1695	 0.105613407666374 
1696	 0.105585211296082 
1697	 0.105578969095709 
1698	 0.105593251123779 
1699	 0.10559243967985 
1700	 0.105601808527031 
1701	 0.105599754327762 
1702	 0.10558517776184 
1703	 0.105569115495424 
1704	 0.10554816610581 
1705	 0.105532986410436 
1706	 0.105506445170293 
1707	 0.105500704849166 
1708	 0.105516287728205 
1709	 0.105514201004791 
1710	 0.105517896496965 
1711	 0.10550998476297 
1712	 0.105483711893208 
1713	 0.105472690123904 
1714	 0.105462977898245 
1715	 0.105455324019549 
1716	 0.105456118341509 
1717	 0.105450142661658 
1718	 0.105438507693175 
1719	 0.105438462145092 
1720	 0.105448875953586 
1721	 0.105439533578036 
1722	 0.10542743795921 
1723	 0.105416059015798 
1724	 0.105394551543202 
1725	 0.105369385766546 
1726	 0.105343100756998 
1727	 0.10532414315837 
1728	 0.105294656849843 
1729	 0.105272124057255 
1730	 0.105266865730745 
1731	 0.105252483758135 
1732	 0.105229035971527 
1733	 0.105210584621845 
1734	 0.105201574761358 
1735	 0.105177209878155 
1736	 0.105145393214253 
1737	 0.1051134872757 
1738	 0.105073242522066 
1739	 0.105045599797295 
1740	 0.105019525256424 
1741	 0.104986894650172 
1742	 0.104955110838517 
1743	 0.104929769740116 
1744	 0.104908521893309 
1745	 0.104881451483939 
1746	 0.104855469383679 
1747	 0.104835472979387 
1748	 0.104798237266998 
1749	 0.104748409532482 
1750	 0.104722821793634 
1751	 0.104678993251158 
1752	 0.104616337750569 
1753	 0.104598787614291 
1754	 0.104604851236977 
1755	 0.104597481997789 
1756	 0.104599690783749 
1757	 0.104593593942276 
1758	 0.104567772361289 
1759	 0.104551410284274 
1760	 0.104537942744042 
1761	 0.104504522475639 
1762	 0.104469809576459 
1763	 0.104454141960196 
1764	 0.104445564934338 
1765	 0.104441289183148 
1766	 0.104435906681113 
1767	 0.104407348841742 
1768	 0.104377590548327 
1769	 0.104384913887192 
1770	 0.104387759542311 
1771	 0.104371350661812 
1772	 0.104380044254919 
1773	 0.104379954878374 
1774	 0.104353551012819 
1775	 0.104337934941847 
1776	 0.104303358292589 
1777	 0.104255087724916 
1778	 0.104243403043153 
1779	 0.104248863967908 
1780	 0.104266181934627 
1781	 0.104269412194554 
1782	 0.104247105321516 
1783	 0.104208213869651 
1784	 0.104181859624986 
1785	 0.104154694293378 
1786	 0.104135632685995 
1787	 0.104131510293121 
1788	 0.104117342795094 
1789	 0.104106970814213 
1790	 0.104092594035059 
1791	 0.104063447768957 
1792	 0.104051443886812 
1793	 0.104044398320249 
1794	 0.104027612462996 
1795	 0.104018443564356 
1796	 0.104008926105122 
1797	 0.103986948431374 
1798	 0.103984906782047 
1799	 0.104008638477438 
1800	 0.1039986107835 
1801	 0.100379711426093 
1802	 0.100508086997888 
1803	 0.100649268271674 
1804	 0.100784111158283 
1805	 0.100915218377681 
1806	 0.101019457745058 
1807	 0.101126605907932 
1808	 0.101215548442448 
1809	 0.101278337499927 
1810	 0.101336118394578 
1811	 0.101381531204365 
1812	 0.101445323476748 
1813	 0.101466525824155 
1814	 0.101477326325021 
1815	 0.101496752823525 
1816	 0.101477863222435 
1817	 0.101486449341829 
1818	 0.101512375311346 
1819	 0.101541217021045 
1820	 0.101577727953762 
1821	 0.101609429390591 
1822	 0.101645413120316 
1823	 0.101653889703189 
1824	 0.101671743248041 
1825	 0.101678625033258 
1826	 0.101639530246699 
1827	 0.101616512984773 
1828	 0.101598616354889 
1829	 0.101553646635752 
1830	 0.101535897281687 
1831	 0.101551111617016 
1832	 0.101548378140327 
1833	 0.101531205137795 
1834	 0.101553152132077 
1835	 0.10157339319897 
1836	 0.101567050286549 
1837	 0.101565499425431 
1838	 0.101566578335068 
1839	 0.101577829561392 
1840	 0.101585369274037 
1841	 0.101623097082434 
1842	 0.101665120503955 
1843	 0.101705772116768 
1844	 0.101740985483438 
1845	 0.101773322156097 
1846	 0.101801362892533 
1847	 0.101804058409979 
1848	 0.101809434919684 
1849	 0.101852926758387 
1850	 0.101891917257514 
1851	 0.101947045697864 
1852	 0.101997294487681 
1853	 0.102044919170855 
1854	 0.102040330760786 
1855	 0.102035509055097 
1856	 0.102049476761436 
1857	 0.102038492222323 
1858	 0.102069895729241 
1859	 0.10212104385865 
1860	 0.102144669568315 
1861	 0.102167789283051 
1862	 0.102192519820067 
1863	 0.102156864303112 
1864	 0.102081282152763 
1865	 0.102005411236766 
1866	 0.101915321560711 
1867	 0.101839916611225 
1868	 0.101757298780235 
1869	 0.101674273070532 
1870	 0.101618227491389 
1871	 0.101587380239743 
1872	 0.101575650760731 
1873	 0.101604034373732 
1874	 0.101646491813244 
1875	 0.101690021100401 
1876	 0.101716065474664 
1877	 0.10172126539221 
1878	 0.101705499517953 
1879	 0.10167115099187 
1880	 0.10163401814166 
1881	 0.101595459783331 
1882	 0.101530924741304 
1883	 0.101452124227517 
1884	 0.101365002560694 
1885	 0.101255641526016 
1886	 0.101113954717114 
1887	 0.100969538526325 
1888	 0.100800035661953 
1889	 0.100604725436001 
1890	 0.100406758946303 
1891	 0.100214945253024 
1892	 0.100036402826008 
1893	 9.98333723980211E-02 
1894	 0.09962402512467 
1895	 0.099394869587539 
1896	 0.0991651375342 
1897	 9.89154347129867E-02 
1898	 9.86740722851895E-02 
1899	 9.84626566449674E-02 
1900	 9.82408725062189E-02 
1901	 9.79953439145157E-02 
1902	 9.77894918172488E-02 
1903	 9.76032423404253E-02 
1904	 9.74286881697839E-02 
1905	 9.72732891768555E-02 
1906	 9.71507109774704E-02 
1907	 9.70113384986895E-02 
1908	 9.68650466400206E-02 
1909	 9.67060044520762E-02 
1910	 0.096546777279102 
1911	 9.63995786112337E-02 
1912	 9.62540493119352E-02 
1913	 9.61280556889361E-02 
1914	 9.60197107343199E-02 
1915	 9.59174967761229E-02 
1916	 9.58316735944019E-02 
1917	 9.57505773618051E-02 
1918	 9.56539401537888E-02 
1919	 9.55741357150635E-02 
1920	 9.54926324734202E-02 
1921	 9.54153909103784E-02 
1922	 9.53607923368197E-02 
1923	 9.53318409308725E-02 
1924	 9.53068517410399E-02 
1925	 9.53027563990414E-02 
1926	 9.52856192806741E-02 
1927	 9.52728787301441E-02 
1928	 9.52554904046811E-02 
1929	 9.52374294062547E-02 
1930	 9.52516495897328E-02 
1931	 9.52725209271104E-02 
1932	 9.52800513592673E-02 
1933	 0.095299338614485 
1934	 9.52966587301201E-02 
1935	 9.53076308103412E-02 
1936	 0.095327175346006 
1937	 9.53527036011154E-02 
1938	 9.53834065866085E-02 
1939	 9.54105324629024E-02 
1940	 9.54381969534314E-02 
1941	 9.54623967515131E-02 
1942	 9.55094088020122E-02 
1943	 9.55577825018744E-02 
1944	 9.55985768926844E-02 
1945	 9.56482009261143E-02 
1946	 9.56950658417777E-02 
1947	 9.57227530949708E-02 
1948	 9.57764131062505E-02 
1949	 9.58588925475912E-02 
1950	 9.59143927327907E-02 
1951	 9.59728820916112E-02 
1952	 9.60150756674577E-02 
1953	 9.60250275501724E-02 
1954	 9.60623551652156E-02 
1955	 9.61029597987946E-02 
1956	 9.61479206966247E-02 
1957	 9.62029697144723E-02 
1958	 9.62783617359171E-02 
1959	 9.63403121038445E-02 
1960	 9.63949534836066E-02 
1961	 9.64636163513151E-02 
1962	 9.65296917598847E-02 
1963	 9.66114460624794E-02 
1964	 9.67117600235185E-02 
1965	 9.68148885243236E-02 
1966	 9.69146309610642E-02 
1967	 9.70266272276578E-02 
1968	 9.71151080114313E-02 
1969	 9.71898236664441E-02 
1970	 9.72688069373492E-02 
1971	 9.73332984113461E-02 
1972	 0.097405270815377 
1973	 9.74769154468558E-02 
1974	 9.75536428013652E-02 
1975	 9.76384438532244E-02 
1976	 9.77201448339121E-02 
1977	 0.09777159738008 
1978	 9.78492511221166E-02 
1979	 9.79295593585357E-02 
1980	 9.79907245581976E-02 
1981	 9.80644180818032E-02 
1982	 9.81650970252734E-02 
1983	 0.098235904076495 
1984	 9.82684723125354E-02 
1985	 9.83479460001619E-02 
1986	 9.84546384830831E-02 
1987	 9.85421731424934E-02 
1988	 9.86469525581733E-02 
1989	 0.098738294557361 
1990	 9.88257662637566E-02 
1991	 9.89001013120731E-02 
1992	 9.89800208722722E-02 
1993	 9.90809641841602E-02 
1994	 9.91512718414482E-02 
1995	 9.91887070442005E-02 
1996	 9.92522715755609E-02 
1997	 9.93166825034799E-02 
1998	 9.93821808617724E-02 
1999	 9.94555399529248E-02 
2000	 9.95328483552053E-02 
2001	 9.96177554687792E-02 
2002	 9.96921831706912E-02 
2003	 0.099746259032719 
2004	 9.98265959094711E-02 
2005	 9.99034303457167E-02 
2006	 9.99700493464826E-02 
2007	 0.100042630004352 
2008	 0.100137215089119 
2009	 0.100209193492771 
2010	 0.10026096218727 
2011	 0.100324461923748 
2012	 0.100376215630685 
2013	 0.100451068817089 
2014	 0.100544808479904 
2015	 0.100637961588372 
2016	 0.100727689275595 
2017	 0.100806343408788 
2018	 0.10087514865504 
2019	 0.100917466972198 
2020	 0.100973698119558 
2021	 0.101025107254678 
2022	 0.101089570302015 
2023	 0.101162110050223 
2024	 0.101229742477152 
2025	 0.101302969463389 
2026	 0.101378264675875 
2027	 0.101457911853274 
2028	 0.101523752174024 
2029	 0.101594006609782 
2030	 0.101667712152774 
2031	 0.101743207872789 
2032	 0.101820117363609 
2033	 0.101889866580864 
2034	 0.10196309138401 
2035	 0.10202908727494 
2036	 0.102077970913958 
2037	 0.102136484767935 
2038	 0.102201842098932 
2039	 0.102263919398029 
2040	 0.102326430873377 
2041	 0.102389984238259 
2042	 0.102440285162556 
2043	 0.102489529790808 
2044	 0.10253936464669 
2045	 0.102582242323972 
2046	 0.10262915448578 
2047	 0.102684467503844 
2048	 0.102728315712311 
2049	 0.102758945578738 
2050	 0.10280302771465 
2051	 0.102853972712867 
2052	 0.10289556793642 
2053	 0.102927451509056 
2054	 0.10297914949546 
2055	 0.103041603964919 
2056	 0.103097729553781 
2057	 0.103144942537536 
2058	 0.103208721040507 
2059	 0.10324625796402 
2060	 0.103244240174429 
2061	 0.103277436339886 
2062	 0.10332570211905 
2063	 0.103365632672034 
2064	 0.103408651696477 
2065	 0.103454379939291 
2066	 0.103498274045721 
2067	 0.103544405883074 
2068	 0.103587947273497 
2069	 0.103652881990764 
2070	 0.103703031474578 
2071	 0.103744530699695 
2072	 0.103798371388634 
2073	 0.103855545778553 
2074	 0.103912815262599 
2075	 0.103983634109179 
2076	 0.104037836752919 
2077	 0.104085660433666 
2078	 0.104130347224171 
2079	 0.104162012015589 
2080	 0.104200367014054 
2081	 0.104240545881845 
2082	 0.104279579741696 
2083	 0.104321664592782 
2084	 0.104359391613588 
2085	 0.104395789271324 
2086	 0.104425546843948 
2087	 0.104465433256841 
2088	 0.104511976735287 
2089	 0.104548878849592 
2090	 0.104580467529524 
2091	 0.104622651380668 
2092	 0.10465560233516 
2093	 0.104706465927065 
2094	 0.104785796368224 
2095	 0.104848597586835 
2096	 0.104920966319596 
2097	 0.104975139484297 
2098	 0.105018732297167 
2099	 0.105041854415048 
2100	 0.105084827458534 
2101	 0.105125443145112 
2102	 0.105165224228879 
2103	 0.105213290340862 
2104	 0.105257441717501 
2105	 0.105290738752773 
2106	 0.105332946317233 
2107	 0.105377402301734 
2108	 0.105433631151594 
2109	 0.10549700569934 
2110	 0.105560529826315 
2111	 0.105645412257735 
2112	 0.105712387093262 
2113	 0.105771308303308 
2114	 0.105826891083778 
2115	 0.105870799356075 
2116	 0.105899061097048 
2117	 0.105942118706755 
2118	 0.105980737374523 
2119	 0.106024274803797 
2120	 0.106087391572049 
2121	 0.106123220723721 
2122	 0.106134313196752 
2123	 0.106168363387341 
2124	 0.106211066611104 
2125	 0.106236198903741 
2126	 0.106270400375801 
2127	 0.106292743139086 
2128	 0.106292984950585 
2129	 0.106291176203245 
2130	 0.106286163225238 
2131	 0.106277610861753 
2132	 0.10627534626116 
2133	 0.106257042324709 
2134	 0.106270023024535 
2135	 0.106318631837665 
2136	 0.106327193408281 
2137	 0.106324472938426 
2138	 0.106334036834427 
2139	 0.106335674290474 
2140	 0.106331060767584 
2141	 0.106349356549063 
2142	 0.106338245550825 
2143	 0.106289688884516 
2144	 0.106252771474508 
2145	 0.106216867087722 
2146	 0.106171750727862 
2147	 0.106115216385013 
2148	 0.106060626151956 
2149	 0.106023493888192 
2150	 0.105998110839806 
2151	 0.10595031003961 
2152	 0.105915908149424 
2153	 0.105856546591436 
2154	 0.105752867656847 
2155	 0.105685293351637 
2156	 0.10564057111824 
2157	 0.105573785440216 
2158	 0.105516404901802 
2159	 0.105436160894968 
2160	 0.105320177942654 
2161	 0.105223682072536 
2162	 0.105123466543372 
2163	 0.105028599445296 
2164	 0.104941080560545 
2165	 0.104858432976642 
2166	 0.104781116580286 
2167	 0.104705727047464 
2168	 0.104637714762699 
2169	 0.10458217661554 
2170	 0.104518512640628 
2171	 0.10445849760793 
2172	 0.104389449633723 
2173	 0.104319881211296 
2174	 0.104240798225193 
2175	 0.104142271524611 
2176	 0.104061481949382 
2177	 0.103983503908448 
2178	 0.103906872041873 
2179	 0.103840623999917 
2180	 0.103772690113229 
2181	 0.103691003841473 
2182	 0.103628041280847 
2183	 0.103587978369468 
2184	 0.103542485972442 
2185	 0.103478117098451 
2186	 0.103413983262858 
2187	 0.103341074263328 
2188	 0.103246282618397 
2189	 0.103157450366178 
2190	 0.103065335020209 
2191	 0.102988474230885 
2192	 0.102898035847303 
2193	 0.102833801152034 
2194	 0.102815395857253 
2195	 0.102760996677462 
2196	 0.10269572090554 
2197	 0.102636591699913 
2198	 0.102555343054845 
2199	 0.102491788868483 
2200	 0.102433386152411 
2201	 0.102394633660447 
2202	 0.102377489241321 
2203	 0.102361724545837 
2204	 0.102337560433737 
2205	 0.102321232503316 
2206	 0.10230663638445 
2207	 0.102283979988445 
2208	 0.102264883455554 
2209	 0.102263747443415 
2210	 0.102245410536738 
2211	 0.102195536021469 
2212	 0.102185233076003 
2213	 0.102201666419056 
2214	 0.102196824878478 
2215	 0.102198908769039 
2216	 0.102203792690487 
2217	 0.102180795019049 
2218	 0.102191105090774 
2219	 0.102243561703562 
2220	 0.102271706525379 
2221	 0.102296198749099 
2222	 0.102331078955217 
2223	 0.102348296828063 
2224	 0.102354747843612 
2225	 0.102351922979278 
2226	 0.102335139455312 
2227	 0.102342075360469 
2228	 0.102335652551737 
2229	 0.102357540577194 
2230	 0.102416037795418 
2231	 0.102449109276687 
2232	 0.102476818098287 
2233	 0.102518543312364 
2234	 0.102578628364735 
2235	 0.102605531878077 
2236	 0.102621832431407 
2237	 0.102638142286842 
2238	 0.102616052278557 
2239	 0.102624309437282 
2240	 0.102662129443112 
2241	 0.102686942575979 
2242	 0.102727488357576 
2243	 0.102742120825412 
2244	 0.102731815968823 
2245	 0.102731700355431 
2246	 0.102716039036953 
2247	 0.102699182238677 
2248	 0.102699499144478 
2249	 0.10270912215219 
2250	 0.102729528648265 
2251	 0.102762887084089 
2252	 0.102792470524751 
2253	 0.102840925722479 
2254	 0.102862968796483 
2255	 0.102871022046231 
2256	 0.102885706865259 
2257	 0.1028882750606 
2258	 0.102898749348043 
2259	 0.102912466751715 
2260	 0.10293031161998 
2261	 0.102945180312841 
2262	 0.10297252845466 
2263	 0.103014646377852 
2264	 0.103055127611933 
2265	 0.103118972601746 
2266	 0.103150308644381 
2267	 0.103162860968826 
2268	 0.103174811851338 
2269	 0.10315655688817 
2270	 0.103152194260871 
2271	 0.103179544754806 
2272	 0.103191495213669 
2273	 0.103225928850041 
2274	 0.103267371658788 
2275	 0.10329230174036 
2276	 0.103317986091949 
2277	 0.103331288840025 
2278	 0.103320763673917 
2279	 0.103335298327026 
2280	 0.103356958229631 
2281	 0.103370241959585 
2282	 0.103403526852004 
2283	 0.103407136835146 
2284	 0.103375383513711 
2285	 0.103368707809423 
2286	 0.103357806320804 
2287	 0.103361687513045 
2288	 0.103391111102286 
2289	 0.103409708664979 
2290	 0.10341771469061 
2291	 0.10344082957153 
2292	 0.103475245834598 
2293	 0.103496959624259 
2294	 0.103536823766964 
2295	 0.1035550824133 
2296	 0.103534470743062 
2297	 0.103556879082252 
2298	 0.103537669472637 
2299	 0.103505752831039 
2300	 0.103514350607347 
2301	 0.103500525571492 
2302	 0.103538972156533 
2303	 0.10358882031164 
2304	 0.103636334159566 
2305	 0.103682958228368 
2306	 0.103686152822944 
2307	 0.103653255913054 
2308	 0.103655920703517 
2309	 0.10363643315105 
2310	 0.103633319072017 
2311	 0.103659001954658 
2312	 0.103681704122868 
2313	 0.103700938593291 
2314	 0.103719620338429 
2315	 0.103769070288665 
2316	 0.103768795122281 
2317	 0.103704278919053 
2318	 0.103700918710875 
2319	 0.103720836355954 
2320	 0.103732152423563 
2321	 0.103771910595624 
2322	 0.103798361334789 
2323	 0.103783714949262 
2324	 0.103802485885969 
2325	 0.103854023618798 
2326	 0.103904928585322 
2327	 0.10396961592041 
2328	 0.1040411202344 
2329	 0.104086014949649 
2330	 0.104087545937691 
2331	 0.104068696429517 
2332	 0.104077344566578 
2333	 0.104126836328614 
2334	 0.104168982182355 
2335	 0.104189380112552 
2336	 0.104168256967823 
2337	 0.104110014051782 
2338	 0.104122145119406 
2339	 0.104170524508285 
2340	 0.104233804589186 
2341	 0.104299782182536 
2342	 0.104331030419409 
2343	 0.104379133041418 
2344	 0.104398802645504 
2345	 0.10443055820642 
2346	 0.104488273261379 
2347	 0.104502345880177 
2348	 0.104492619283386 
2349	 0.104488358120717 
2350	 0.104449552384174 
2351	 0.104445712713238 
2352	 0.104459963374642 
2353	 0.104451731532109 
2354	 0.104456434244123 
2355	 0.104437023017795 
2356	 0.104383674629527 
2357	 0.104352415164157 
2358	 0.104327658945627 
2359	 0.104304498523494 
2360	 0.104284742796422 
2361	 0.104279344794819 
2362	 0.104284315930795 
2363	 0.104265591992139 
2364	 0.104248223042267 
2365	 0.104230830162612 
2366	 0.104195386734254 
2367	 0.104169513128463 
2368	 0.104142250095732 
2369	 0.104120799901024 
2370	 0.104083752815294 
2371	 0.104101990416302 
2372	 0.104110438886491 
2373	 0.104134203155914 
2374	 0.104196672635319 
2375	 0.10421927054638 
2376	 0.10418796167647 
2377	 0.104128176601723 
2378	 0.10407416111995 
2379	 0.103987916327035 
2380	 0.103917051969946 
2381	 0.103926510244566 
2382	 0.103870876525111 
2383	 0.103791760523183 
2384	 0.103759027653915 
2385	 0.103700369353789 
2386	 0.103663618966261 
2387	 0.103678898073769 
2388	 0.103735104472021 
2389	 0.103734169210764 
2390	 0.10367873984127 
2391	 0.103665486710382 
2392	 0.103632394238483 
2393	 0.103632291839996 
2394	 0.103671171679922 
2395	 0.103680740832914 
2396	 0.10370755815423 
2397	 0.103667979200431 
2398	 0.103557239242612 
2399	 0.103437662953664 
2400	 0.10329319999238 
2401	 0.103242834762541 
2402	 0.103274681171687 
2403	 0.10328489428064 
2404	 0.103287085645275 
2405	 0.10323878998254 
2406	 0.103190729763461 
2407	 0.103224949642244 
2408	 0.103223823610857 
2409	 0.103153416883948 
2410	 0.103174997841889 
2411	 0.103100670817638 
2412	 0.102922948815902 
2413	 0.102904851127348 
2414	 0.102776201583866 
2415	 0.102581010301443 
2416	 0.102502111541286 
2417	 0.102521347448927 
2418	 0.102488721155255 
2419	 0.102481479110387 
2420	 0.102465978544981 
2421	 0.102448926960412 
2422	 0.102434616347579 
2423	 0.102456988753248 
2424	 0.102442658560779 
2425	 0.102406462951774 
2426	 0.102338816322252 
2427	 0.102223935041872 
2428	 0.102071879666642 
2429	 0.101863878605885 
2430	 0.101741568442734 
2431	 0.101623698818335 
2432	 0.101534021417601 
2433	 0.101487158938359 
2434	 0.101507008590779 
2435	 0.10159570645278 
2436	 0.101605300342563 
2437	 0.101706828981999 
2438	 0.101685226560788 
2439	 0.101444570758717 
2440	 0.101348596161855 
2441	 0.10132485009353 
2442	 0.101271513852628 
2443	 0.101251295587173 
2444	 0.101216345015035 
2445	 0.101115345861121 
2446	 0.101053448225487 
2447	 0.101026634796426 
2448	 0.10105403473756 
2449	 0.101133341035512 
2450	 0.101203345780155 
2451	 0.101336237965342 
2452	 0.101359110315718 
2453	 0.101386234858647 
2454	 0.101337002581586 
2455	 0.101182004012835 
2456	 0.101070575509524 
2457	 0.100837549881547 
2458	 0.100624098976474 
2459	 0.100425018646881 
2460	 0.100295541559038 
2461	 0.100252678972245 
2462	 0.100245876470602 
2463	 0.100291128115022 
2464	 0.100246403069081 
2465	 0.100154548977985 
2466	 0.100074257671882 
2467	 9.99864655066634E-02 
2468	 9.99687441159922E-02 
2469	 9.99724284596832E-02 
2470	 0.10008032658341 
2471	 0.100153345600583 
2472	 0.100213580568212 
2473	 0.100115597808969 
2474	 9.98742900316905E-02 
2475	 9.96985194638889E-02 
2476	 9.96028689531965E-02 
2477	 9.95053421278552E-02 
2478	 9.93794822308924E-02 
2479	 9.92505998221658E-02 
2480	 9.90875614440991E-02 
2481	 9.89665194049007E-02 
2482	 9.90629243717996E-02 
2483	 9.91639129381822E-02 
2484	 9.92486353544605E-02 
2485	 9.94211736726928E-02 
2486	 9.94068674915077E-02 
2487	 9.93086271370102E-02 
2488	 0.099263416263124 
2489	 9.91686432165457E-02 
2490	 9.90250022792469E-02 
2491	 9.89986581724599E-02 
2492	 9.89548638153296E-02 
2493	 9.87642478037287E-02 
2494	 9.88325974752056E-02 
2495	 9.88621823872282E-02 
2496	 9.88102163755359E-02 
2497	 9.89375250483683E-02 
2498	 9.87581307080156E-02 
2499	 9.86007512085905E-02 
2500	 9.86325610937746E-02 
