Wavelength	LMW_2000006.asd
350	 2.30060608962455E-02 
351	 3.46989478566887E-02 
352	 4.52377179050163E-02 
353	 4.42674129459396E-02 
354	 3.33380905760826E-02 
355	 3.29088663920738E-02 
356	 3.77930664031561E-02 
357	 3.95395731182462E-02 
358	 4.65245127523747E-02 
359	 0.047353525149471 
360	 4.36019670206191E-02 
361	 4.46031348395956E-02 
362	 4.51238252566016E-02 
363	 4.40345713809872E-02 
364	 4.22547176681654E-02 
365	 4.30438618435245E-02 
366	 4.40816282512658E-02 
367	 4.32707728611772E-02 
368	 4.04761185869267E-02 
369	 0.042438737702262 
370	 0.043592524762151 
371	 4.40141414113651E-02 
372	 4.72578695374022E-02 
373	 4.71385327125832E-02 
374	 4.77818885450236E-02 
375	 5.09330022091039E-02 
376	 5.22604829135862E-02 
377	 4.89325031232153E-02 
378	 0.046595621445225 
379	 5.04614719281156E-02 
380	 0.052954465678701 
381	 5.28598574254389E-02 
382	 5.24487578829251E-02 
383	 5.58103241071658E-02 
384	 5.72123068936309E-02 
385	 0.055513782629929 
386	 5.28363123885359E-02 
387	 5.61323011046724E-02 
388	 0.059291386545225 
389	 6.04174454551634E-02 
390	 5.97458090226537E-02 
391	 6.05960742459426E-02 
392	 6.17482137783993E-02 
393	 6.30718677687761E-02 
394	 6.54201925073049E-02 
395	 6.69871279654916E-02 
396	 6.84618797650031E-02 
397	 7.01998985837555E-02 
398	 7.10392626322595E-02 
399	 7.03073350352569E-02 
400	 7.02456624356695E-02 
401	 7.30393040096678E-02 
402	 7.43261131744551E-02 
403	 7.53051763634517E-02 
404	 7.62363231664196E-02 
405	 7.61456369768705E-02 
406	 7.67993057833946E-02 
407	 7.85654101076572E-02 
408	 8.06206256961928E-02 
409	 7.98227385874831E-02 
410	 7.96473049226886E-02 
411	 8.04481238832983E-02 
412	 8.12157334307157E-02 
413	 8.29757844567492E-02 
414	 8.38229355152274E-02 
415	 8.32480706754557E-02 
416	 0.082725055249151 
417	 8.25674742431274E-02 
418	 8.31771487299577E-02 
419	 8.44238512729283E-02 
420	 8.47992525505772E-02 
421	 8.38586033354667E-02 
422	 8.27806530312082E-02 
423	 8.34300909788379E-02 
424	 8.35024373642976E-02 
425	 8.27293730613874E-02 
426	 8.17072044885414E-02 
427	 8.21198625815567E-02 
428	 8.20282505213172E-02 
429	 8.13908266218066E-02 
430	 8.07879615753483E-02 
431	 8.05688963004043E-02 
432	 8.02441815629778E-02 
433	 7.99877979710407E-02 
434	 8.05774316169365E-02 
435	 8.05375305610405E-02 
436	 8.05476253591264E-02 
437	 8.10379815346193E-02 
438	 8.05252270561427E-02 
439	 8.08259612941748E-02 
440	 8.16865705712529E-02 
441	 8.19906715100018E-02 
442	 8.28348840924905E-02 
443	 8.36432986326771E-02 
444	 8.40652226537816E-02 
445	 8.42890455142016E-02 
446	 8.49651862227351E-02 
447	 8.58065354857832E-02 
448	 8.63662284914972E-02 
449	 8.68478285495307E-02 
450	 0.087303067602361 
451	 8.77918020811344E-02 
452	 0.088367202256521 
453	 0.088807850374996 
454	 8.90623805422918E-02 
455	 8.92316360173362E-02 
456	 8.96967932388317E-02 
457	 9.02301641890377E-02 
458	 9.06205626242868E-02 
459	 9.07147856624125E-02 
460	 9.07434110110751E-02 
461	 9.09118092659797E-02 
462	 9.12162099378557E-02 
463	 9.13714627462852E-02 
464	 9.17120500459441E-02 
465	 9.19409466771095E-02 
466	 9.18107670426954E-02 
467	 9.19496554119953E-02 
468	 9.22831837683409E-02 
469	 9.25788234821598E-02 
470	 9.25342687167587E-02 
471	 9.26413996033746E-02 
472	 0.092743760296598 
473	 9.27496919658069E-02 
474	 9.30140138305624E-02 
475	 9.30900823341717E-02 
476	 9.30860182598759E-02 
477	 0.093286967471991 
478	 0.093313879853539 
479	 9.34800802642435E-02 
480	 9.37817893007383E-02 
481	 9.36978797720462E-02 
482	 9.38356057849078E-02 
483	 9.39834696576094E-02 
484	 9.38652096195037E-02 
485	 9.39017552467763E-02 
486	 9.38863561347225E-02 
487	 9.37806661561405E-02 
488	 9.37059579466995E-02 
489	 9.38409277637303E-02 
490	 9.40536434295324E-02 
491	 9.42039964056247E-02 
492	 9.42762310629312E-02 
493	 9.43319172760054E-02 
494	 9.43551695717198E-02 
495	 9.43160735776869E-02 
496	 9.43855535070625E-02 
497	 9.43482799505397E-02 
498	 9.42559728619784E-02 
499	 9.46228944410881E-02 
500	 9.47361307011502E-02 
501	 9.46155923207074E-02 
502	 9.44984870283321E-02 
503	 9.45170736480914E-02 
504	 9.45377653402611E-02 
505	 0.094520300755852 
506	 9.45217557003704E-02 
507	 9.46267505341324E-02 
508	 9.47914387136456E-02 
509	 9.49089776730729E-02 
510	 9.47596984474528E-02 
511	 9.46497077792657E-02 
512	 9.46774395012573E-02 
513	 9.47994633598348E-02 
514	 9.48092247681913E-02 
515	 9.48390737525301E-02 
516	 9.49390570165986E-02 
517	 9.49492637443369E-02 
518	 0.094986980060547 
519	 9.49951756550223E-02 
520	 9.49171926879334E-02 
521	 9.50037677946002E-02 
522	 9.50049561764516E-02 
523	 0.09491917477552 
524	 9.50240344943678E-02 
525	 9.50742551292222E-02 
526	 9.50008549941605E-02 
527	 9.48542797253878E-02 
528	 9.49235837120523E-02 
529	 9.49794098546784E-02 
530	 9.50292548585601E-02 
531	 9.52044222980003E-02 
532	 9.51042671770413E-02 
533	 9.50469853169509E-02 
534	 9.51933046048011E-02 
535	 9.51663849925849E-02 
536	 9.51273604837815E-02 
537	 9.51180852065151E-02 
538	 9.51403169935144E-02 
539	 9.52128712322952E-02 
540	 9.52286377293027E-02 
541	 0.095189786547142 
542	 9.52528292657463E-02 
543	 9.53199864483909E-02 
544	 9.53429351462054E-02 
545	 9.53220808502387E-02 
546	 9.53957333081757E-02 
547	 0.095482982696019 
548	 0.095514598117704 
549	 9.54480776081309E-02 
550	 0.095444646729442 
551	 9.55064478325759E-02 
552	 9.55940636850282E-02 
553	 9.56473593114762E-02 
554	 9.57156231817397E-02 
555	 9.58135085330338E-02 
556	 9.59304942479515E-02 
557	 9.60018956570134E-02 
558	 9.60893860622105E-02 
559	 9.62291938641473E-02 
560	 0.096395573984538 
561	 9.64928884816689E-02 
562	 9.65677093304456E-02 
563	 9.66907665480049E-02 
564	 9.67482774304321E-02 
565	 9.68387461821286E-02 
566	 9.69376907956386E-02 
567	 0.09687716482177 
568	 9.70648571683465E-02 
569	 9.73412935627204E-02 
570	 9.75083235648275E-02 
571	 9.77337697293533E-02 
572	 9.79368453154182E-02 
573	 9.81120448458738E-02 
574	 9.83087513749964E-02 
575	 9.85469423230378E-02 
576	 9.87705501518966E-02 
577	 9.89348695865628E-02 
578	 9.90348472108183E-02 
579	 9.91883853594448E-02 
580	 9.93427128678876E-02 
581	 9.94046976961833E-02 
582	 9.95744510448745E-02 
583	 0.099756720137244 
584	 9.99107117346891E-02 
585	 0.100110813585632 
586	 0.100298935341523 
587	 0.100504024161898 
588	 0.100755715801919 
589	 0.10097801261191 
590	 0.101198346516948 
591	 0.101450604919951 
592	 0.101765945083041 
593	 0.102039503280757 
594	 0.102309383703495 
595	 0.102585125821579 
596	 0.102708807387755 
597	 0.102867271098122 
598	 0.103026549644313 
599	 0.103061634004681 
600	 0.103186855447113 
601	 0.103311702316852 
602	 0.103383340508374 
603	 0.103477977656691 
604	 0.103611651928688 
605	 0.103753525180264 
606	 0.103866337885557 
607	 0.10399695496822 
608	 0.104121353485743 
609	 0.10424277850465 
610	 0.104398129550976 
611	 0.104478533028477 
612	 0.104544960137229 
613	 0.10464876935567 
614	 0.104657625138433 
615	 0.104677872808215 
616	 0.104716481997282 
617	 0.104721567572171 
618	 0.104850636312702 
619	 0.10493185214599 
620	 0.104881249892407 
621	 0.104898577524133 
622	 0.104981866385263 
623	 0.105056576879198 
624	 0.105043516396013 
625	 0.105104591652786 
626	 0.105168476030953 
627	 0.105180868871267 
628	 0.10513357659392 
629	 0.105142492016312 
630	 0.105181901480975 
631	 0.105200107459361 
632	 0.105216847723083 
633	 0.105244379044477 
634	 0.10526631535723 
635	 0.105247462733466 
636	 0.105239793793273 
637	 0.10524435370881 
638	 0.105258021348293 
639	 0.105297543814243 
640	 0.105296963212268 
641	 0.105276210811196 
642	 0.105291448848615 
643	 0.105331101501882 
644	 0.105349376589446 
645	 0.105325299018612 
646	 0.10527537871181 
647	 0.105298024885154 
648	 0.105350705058089 
649	 0.105364509973854 
650	 0.10536497381492 
651	 0.105332146459281 
652	 0.10530388952766 
653	 0.10536024215753 
654	 0.105415990273371 
655	 0.105402276130806 
656	 0.105325298231388 
657	 0.105370669045428 
658	 0.105387574282435 
659	 0.105360244229321 
660	 0.105338359227438 
661	 0.105345438860512 
662	 0.105372798162595 
663	 0.105411988300207 
664	 0.105463702835442 
665	 0.105426700345327 
666	 0.105411793659837 
667	 0.105515226985166 
668	 0.105504274412152 
669	 0.10549977648325 
670	 0.105533704456684 
671	 0.105557050256997 
672	 0.105570819280695 
673	 0.105614290284644 
674	 0.10569254144962 
675	 0.105714782939323 
676	 0.105718326565678 
677	 0.105738576724197 
678	 0.105797694117695 
679	 0.10581996325555 
680	 0.105829499960902 
681	 0.105864795451643 
682	 0.105971584917392 
683	 0.105986791466358 
684	 0.105971165036525 
685	 0.106010925751039 
686	 0.106049552403502 
687	 0.10610521746095 
688	 0.106178560454379 
689	 0.106250989106331 
690	 0.106233786928875 
691	 0.106232861174202 
692	 0.10630120801621 
693	 0.10632892370909 
694	 0.106373237582645 
695	 0.106409202139798 
696	 0.106409207456309 
697	 0.106494352278616 
698	 0.106544331432989 
699	 0.106539161887311 
700	 0.106576163233893 
701	 0.106610638499882 
702	 0.106656123411414 
703	 0.10671571925238 
704	 0.106727370001062 
705	 0.106780936781097 
706	 0.106837725644689 
707	 0.106810717230052 
708	 0.106810471797283 
709	 0.106859667198874 
710	 0.106925902713391 
711	 0.106911539183317 
712	 0.106951577304197 
713	 0.107000748752954 
714	 0.106996122187373 
715	 0.107006906188992 
716	 0.107040112347218 
717	 0.107073000739386 
718	 0.107066510692869 
719	 0.107050600951965 
720	 0.107069708427153 
721	 0.107116626991846 
722	 0.107076796034954 
723	 0.107094210064976 
724	 0.1071372619055 
725	 0.107129683147878 
726	 0.107093701671684 
727	 0.107101073893869 
728	 0.107135818077942 
729	 0.107105626571748 
730	 0.107112392518695 
731	 0.107109090335384 
732	 0.107066018046256 
733	 0.107057189411981 
734	 0.107070759530917 
735	 0.107058158192151 
736	 0.106979772326559 
737	 0.10695577014964 
738	 0.106943379742702 
739	 0.106929127965937 
740	 0.106942638948765 
741	 0.106916843341261 
742	 0.106862130164493 
743	 0.106808581207137 
744	 0.10679015553007 
745	 0.106774212780812 
746	 0.106747208483623 
747	 0.106704403175148 
748	 0.106631993040527 
749	 0.10656016599645 
750	 0.106509591633126 
751	 0.106483618547522 
752	 0.106449095659489 
753	 0.10638124000628 
754	 0.106289461077683 
755	 0.106277137608885 
756	 0.106222973206017 
757	 0.106139803902353 
758	 0.106101819045251 
759	 0.106080834089035 
760	 0.106012176265906 
761	 0.105908265114017 
762	 0.105878350343185 
763	 0.105811796732086 
764	 0.105720482844394 
765	 0.10563612282068 
766	 0.105554924774754 
767	 0.10551657127289 
768	 0.105476294579915 
769	 0.105365559446524 
770	 0.105277442924094 
771	 0.105212925865579 
772	 0.105157533211584 
773	 0.105089418346944 
774	 0.105002546263074 
775	 0.104909263378194 
776	 0.104822145711867 
777	 0.104741014933944 
778	 0.104652718177942 
779	 0.104594357555035 
780	 0.104593283239025 
781	 0.104466126890331 
782	 0.10436080221214 
783	 0.104314022119732 
784	 0.104220748661313 
785	 0.104113482545844 
786	 0.104018900680867 
787	 0.103945393917563 
788	 0.103853249596082 
789	 0.103820027402151 
790	 0.103773558918383 
791	 0.103630951965974 
792	 0.103571802041182 
793	 0.103483690027942 
794	 0.103368477341303 
795	 0.103326291925803 
796	 0.103224282551956 
797	 0.10312183419459 
798	 0.103064506069977 
799	 0.103018382500333 
800	 0.10295683632704 
801	 0.10286556389939 
802	 0.102751122030721 
803	 0.102669681148701 
804	 0.102605853509975 
805	 0.102536625573391 
806	 0.102442719969746 
807	 0.102370193482961 
808	 0.102302817054813 
809	 0.102227507743365 
810	 0.102145275752512 
811	 0.102106156890089 
812	 0.102037140825663 
813	 0.101906902365249 
814	 0.101876385262839 
815	 0.101811378522629 
816	 0.101709276055939 
817	 0.101624684280107 
818	 0.101602123306732 
819	 0.101554870354929 
820	 0.101457632142873 
821	 0.10135176906336 
822	 0.101319405341264 
823	 0.101293736048536 
824	 0.101228199902658 
825	 0.10114968287888 
826	 0.10107044692665 
827	 0.101008767812465 
828	 0.100967657341393 
829	 0.100903881312415 
830	 0.100824308371311 
831	 0.100759491440515 
832	 0.100736023762798 
833	 0.100687992068809 
834	 0.100595161270007 
835	 0.100498829502524 
836	 0.100484420218434 
837	 0.100483569093839 
838	 0.100460094126579 
839	 0.100395079441278 
840	 0.100288438109732 
841	 0.100217763934247 
842	 0.100199586225536 
843	 0.100205779171182 
844	 0.100133845015045 
845	 0.100103283051695 
846	 0.100089368278671 
847	 0.100017822267459 
848	 0.099955190849167 
849	 9.98834651560597E-02 
850	 9.98077697020004E-02 
851	 9.97571898710211E-02 
852	 9.97633597373926E-02 
853	 9.97556660825441E-02 
854	 9.97075669872415E-02 
855	 9.96770636458034E-02 
856	 9.96286796774459E-02 
857	 0.099586855591567 
858	 9.95703594134247E-02 
859	 9.95495116974703E-02 
860	 9.95365751019634E-02 
861	 9.95162950582685E-02 
862	 9.94636218600428E-02 
863	 9.93442661645582E-02 
864	 9.92980654860874E-02 
865	 9.93081827965144E-02 
866	 9.92718571035736E-02 
867	 9.92589233782522E-02 
868	 9.92670317024091E-02 
869	 9.92586144663759E-02 
870	 0.099182043958994 
871	 9.92060286548758E-02 
872	 9.92159810138401E-02 
873	 0.099145923262961 
874	 9.90841030931876E-02 
875	 9.90840137530313E-02 
876	 9.90896841626561E-02 
877	 9.90480700092753E-02 
878	 9.89902907720088E-02 
879	 9.89730737877577E-02 
880	 9.89797722616825E-02 
881	 9.89791850683339E-02 
882	 9.90117932657942E-02 
883	 9.90253967201522E-02 
884	 0.099014037759199 
885	 9.89943859554675E-02 
886	 9.89265669203572E-02 
887	 9.89284859568685E-02 
888	 9.89554618846075E-02 
889	 9.88524973651095E-02 
890	 9.88887682263747E-02 
891	 0.098926103913734 
892	 9.89043340331642E-02 
893	 9.89215671445693E-02 
894	 9.88799313219577E-02 
895	 9.88364038670234E-02 
896	 9.88383900709646E-02 
897	 9.88617418928663E-02 
898	 9.88596706854346E-02 
899	 9.88625252891049E-02 
900	 9.88876505101697E-02 
901	 9.88513626823244E-02 
902	 9.88982586416851E-02 
903	 9.89444635742162E-02 
904	 0.098899635888577 
905	 9.89668680127022E-02 
906	 9.89867699434294E-02 
907	 9.89531734837216E-02 
908	 9.89310691541438E-02 
909	 9.89095330796181E-02 
910	 9.89324151830743E-02 
911	 9.89873450200685E-02 
912	 9.90256046678216E-02 
913	 9.90405763786293E-02 
914	 9.90629757703735E-02 
915	 9.90763629406711E-02 
916	 9.90331436713924E-02 
917	 9.90248919368921E-02 
918	 9.90378583985523E-02 
919	 9.90605206948725E-02 
920	 9.90981263917933E-02 
921	 9.91152269147127E-02 
922	 9.91902520994471E-02 
923	 9.92886831072731E-02 
924	 9.92053317613971E-02 
925	 9.92608431900035E-02 
926	 9.93303601848954E-02 
927	 9.93088272481474E-02 
928	 9.93065158014091E-02 
929	 9.93327464353379E-02 
930	 9.93609953130712E-02 
931	 9.93676914005016E-02 
932	 0.099360098833171 
933	 9.94455135927218E-02 
934	 9.95088708657369E-02 
935	 9.94634935247299E-02 
936	 9.95045460356584E-02 
937	 9.94858118290518E-02 
938	 9.95042273074954E-02 
939	 9.96438718333797E-02 
940	 9.96693231078464E-02 
941	 9.97051669065087E-02 
942	 9.97784802771686E-02 
943	 9.98530205858341E-02 
944	 9.98098453670004E-02 
945	 9.98251552427986E-02 
946	 9.98881503794584E-02 
947	 0.099905663715655 
948	 9.98551499907716E-02 
949	 9.98657500819808E-02 
950	 9.99277145959673E-02 
951	 9.99781857030002E-02 
952	 0.100122357245371 
953	 0.100126791870301 
954	 0.100018909058596 
955	 9.99785476813079E-02 
956	 0.100055355979695 
957	 0.100172475435634 
958	 0.100269331468665 
959	 0.100322984249978 
960	 0.100410121839249 
961	 0.100449738035406 
962	 0.100453838917128 
963	 0.100479121355852 
964	 0.100413506645421 
965	 0.100446410660732 
966	 0.100557362954212 
967	 0.100597958132264 
968	 0.100664053707847 
969	 0.100691868165293 
970	 0.100673194226314 
971	 0.100661898547792 
972	 0.100787801556607 
973	 0.100879846066198 
974	 0.100891592680804 
975	 0.100888242852253 
976	 0.100939936456255 
977	 0.100925668942951 
978	 0.100855379057825 
979	 0.100824699787369 
980	 0.100818989095991 
981	 0.10090385823049 
982	 0.101039079682879 
983	 0.101126256342858 
984	 0.10115262358102 
985	 0.101165832262833 
986	 0.101146099020699 
987	 0.101088613410105 
988	 0.101271022715951 
989	 0.101342304806732 
990	 0.101344989359653 
991	 0.101481973136301 
992	 0.101619556872497 
993	 0.101532462683655 
994	 0.101395352314119 
995	 0.101456223224488 
996	 0.10143902779882 
997	 0.101532070650578 
998	 0.101585383973383 
999	 0.101471994530766 
1000	 0.101620164476853 
1001	 9.99159882078545E-02 
1002	 9.99270649494862E-02 
1003	 9.99036752602697E-02 
1004	 9.99112092090026E-02 
1005	 9.99158199961125E-02 
1006	 9.99452299064443E-02 
1007	 0.100000388313669 
1008	 0.100069908305423 
1009	 0.100077582245335 
1010	 0.100099215257543 
1011	 0.100091401748973 
1012	 0.100072029672259 
1013	 0.100079943838422 
1014	 0.100085492369209 
1015	 0.100015934293024 
1016	 9.99215632657524E-02 
1017	 9.99030478662945E-02 
1018	 9.99108705577982E-02 
1019	 9.99246546018763E-02 
1020	 0.10000893906357 
1021	 0.100070929796982 
1022	 0.100057727932255 
1023	 0.100118101555385 
1024	 0.100070431532136 
1025	 9.99787265253335E-02 
1026	 0.100001338209379 
1027	 9.99558796504429E-02 
1028	 9.99608213306742E-02 
1029	 0.100025684552771 
1030	 0.100009850335346 
1031	 0.100023259266745 
1032	 0.100042924160829 
1033	 0.100037336983844 
1034	 9.99918950900972E-02 
1035	 9.99715922623921E-02 
1036	 9.99322694177934E-02 
1037	 9.98974866322473E-02 
1038	 9.99129363920383E-02 
1039	 9.99452560701363E-02 
1040	 9.99126931266064E-02 
1041	 9.98684942095941E-02 
1042	 9.98652671658597E-02 
1043	 9.98860175721343E-02 
1044	 9.98906487593674E-02 
1045	 9.99203646670841E-02 
1046	 0.099907624115786 
1047	 0.099871887088557 
1048	 0.099849237955634 
1049	 9.98289426522178E-02 
1050	 9.98643682200885E-02 
1051	 9.98971588640363E-02 
1052	 0.099894346228853 
1053	 9.99526237419439E-02 
1054	 9.99672085250968E-02 
1055	 9.99204382537516E-02 
1056	 0.099963749146156 
1057	 9.99982095843348E-02 
1058	 0.100002486724326 
1059	 0.100018817514097 
1060	 0.100101932797021 
1061	 0.100108007875559 
1062	 0.100036314670338 
1063	 0.100031368426798 
1064	 0.100035753373255 
1065	 0.100030714594135 
1066	 0.100086431255252 
1067	 0.100141390251634 
1068	 0.100187795261656 
1069	 0.100238459419423 
1070	 0.10025388844934 
1071	 0.10023101574773 
1072	 0.100214161224177 
1073	 0.100164634740319 
1074	 0.100149033542603 
1075	 0.100143844858221 
1076	 0.100157724429209 
1077	 0.100143249647263 
1078	 0.100121016200313 
1079	 0.100104477587776 
1080	 0.100097248256268 
1081	 0.100136682931519 
1082	 0.100163179024965 
1083	 0.100155797958164 
1084	 0.100117878505124 
1085	 0.10010001522514 
1086	 0.100057146695914 
1087	 0.100044318574922 
1088	 0.100069503718713 
1089	 0.10006153231456 
1090	 0.100023088678626 
1091	 0.100002122453007 
1092	 9.99870521632201E-02 
1093	 9.99663612548435E-02 
1094	 9.99660795603635E-02 
1095	 9.99756636782199E-02 
1096	 9.99412695714098E-02 
1097	 9.98851899746515E-02 
1098	 0.099858192655131 
1099	 9.98229381023234E-02 
1100	 9.98119844552878E-02 
1101	 9.98516352628458E-02 
1102	 9.98512129951613E-02 
1103	 9.98476457455966E-02 
1104	 9.98272050824014E-02 
1105	 9.97806206849092E-02 
1106	 9.97215228705797E-02 
1107	 9.96913105836765E-02 
1108	 9.96597443821867E-02 
1109	 9.96648528512249E-02 
1110	 9.97021103601441E-02 
1111	 9.96933948937544E-02 
1112	 9.96743596992342E-02 
1113	 9.96573410460551E-02 
1114	 9.96160268709388E-02 
1115	 0.099576592838857 
1116	 9.95322100006263E-02 
1117	 0.099509149534979 
1118	 9.94784301080121E-02 
1119	 9.94655608112269E-02 
1120	 9.94795954406886E-02 
1121	 9.95217275347156E-02 
1122	 9.95321369497854E-02 
1123	 9.95071346383995E-02 
1124	 0.099510447456008 
1125	 0.099507832377079 
1126	 9.95102517965601E-02 
1127	 0.099545148744375 
1128	 9.95396834122003E-02 
1129	 9.95034829718728E-02 
1130	 9.94841958073072E-02 
1131	 9.94550990528744E-02 
1132	 0.099430909588616 
1133	 9.94111378535047E-02 
1134	 9.93976863632306E-02 
1135	 9.93783022516333E-02 
1136	 9.93771380685727E-02 
1137	 9.93812081447835E-02 
1138	 9.93714525339501E-02 
1139	 9.93623770102277E-02 
1140	 9.93461899754158E-02 
1141	 9.93314626675093E-02 
1142	 9.93205531535261E-02 
1143	 9.93024666454258E-02 
1144	 9.92764784549897E-02 
1145	 9.92563025918188E-02 
1146	 9.92329899433761E-02 
1147	 9.92117880559319E-02 
1148	 9.91957206074735E-02 
1149	 9.91800791023833E-02 
1150	 9.91653479285239E-02 
1151	 9.91485521359627E-02 
1152	 9.91366142176385E-02 
1153	 9.91111618505084E-02 
1154	 9.90939219669564E-02 
1155	 9.90802045673493E-02 
1156	 9.90552710865845E-02 
1157	 9.90306566901043E-02 
1158	 9.89999131140323E-02 
1159	 9.89533238084517E-02 
1160	 9.89168135613976E-02 
1161	 9.88802129867338E-02 
1162	 0.098849349736686 
1163	 9.88186648358727E-02 
1164	 9.87961602589952E-02 
1165	 9.87744244247643E-02 
1166	 9.87746891069118E-02 
1167	 0.09876657804145 
1168	 9.87353359172645E-02 
1169	 0.098719232922037 
1170	 0.098707136111865 
1171	 9.86747147652599E-02 
1172	 9.86319795490446E-02 
1173	 9.86098002707766E-02 
1174	 9.85712598426097E-02 
1175	 9.85554941689882E-02 
1176	 9.85720991651905E-02 
1177	 9.85747061981001E-02 
1178	 9.85965581189914E-02 
1179	 9.85829957235713E-02 
1180	 9.85462457929385E-02 
1181	 9.85165272759878E-02 
1182	 9.84603348701229E-02 
1183	 9.84002368326977E-02 
1184	 9.83901352059935E-02 
1185	 9.84167349363996E-02 
1186	 9.84231686086127E-02 
1187	 9.84667340441965E-02 
1188	 9.84582428483714E-02 
1189	 9.84058341154597E-02 
1190	 9.83872313319599E-02 
1191	 9.83548927848195E-02 
1192	 9.83458455039794E-02 
1193	 9.83741588910825E-02 
1194	 9.83799470156748E-02 
1195	 9.83883873749093E-02 
1196	 9.83833217665205E-02 
1197	 9.83522607728639E-02 
1198	 0.098339958308374 
1199	 9.83318904166187E-02 
1200	 9.83253953107498E-02 
1201	 9.83150924335961E-02 
1202	 9.83175520620672E-02 
1203	 9.83047329577137E-02 
1204	 9.82703117244043E-02 
1205	 9.82594948732218E-02 
1206	 9.82612916012378E-02 
1207	 9.82537640825114E-02 
1208	 9.82508957053203E-02 
1209	 9.82460420033634E-02 
1210	 9.82337581047306E-02 
1211	 9.82249003833345E-02 
1212	 0.098220581126763 
1213	 9.82156871917598E-02 
1214	 9.82207873980362E-02 
1215	 9.82082322560111E-02 
1216	 9.81878796781882E-02 
1217	 9.81562633979517E-02 
1218	 9.81417981947064E-02 
1219	 9.81191828366276E-02 
1220	 9.81067022625752E-02 
1221	 9.81185043850676E-02 
1222	 9.81088744972313E-02 
1223	 9.80830012936352E-02 
1224	 9.80689746373217E-02 
1225	 9.80575510307449E-02 
1226	 9.80438479524243E-02 
1227	 9.80353187578154E-02 
1228	 9.80214119811103E-02 
1229	 9.80000367285247E-02 
1230	 9.79828022776364E-02 
1231	 9.79669315770249E-02 
1232	 9.79497496235444E-02 
1233	 9.79326294958539E-02 
1234	 9.79180200200931E-02 
1235	 9.78991034183747E-02 
1236	 9.78742949915408E-02 
1237	 9.78580612694245E-02 
1238	 9.78434052697471E-02 
1239	 9.78314421697591E-02 
1240	 9.78280797121718E-02 
1241	 9.78166059263599E-02 
1242	 9.78049138321298E-02 
1243	 9.77875474537071E-02 
1244	 0.097758807242445 
1245	 9.77410826165062E-02 
1246	 0.097730288285236 
1247	 9.77124172407395E-02 
1248	 9.76988367130893E-02 
1249	 9.76781671391975E-02 
1250	 9.76588528001585E-02 
1251	 0.097635473638396 
1252	 9.76121509174708E-02 
1253	 9.75913775354907E-02 
1254	 9.75704970221921E-02 
1255	 9.75469765282524E-02 
1256	 9.75203842558749E-02 
1257	 9.74956917193972E-02 
1258	 9.74690488084992E-02 
1259	 9.74345255432303E-02 
1260	 9.74054498220782E-02 
1261	 9.73857388171477E-02 
1262	 9.73550388831654E-02 
1263	 9.73110957213873E-02 
1264	 9.72799762908363E-02 
1265	 9.72481105348966E-02 
1266	 9.72202760060753E-02 
1267	 9.72007051249462E-02 
1268	 9.71905282896448E-02 
1269	 9.71684436376714E-02 
1270	 9.71418456644114E-02 
1271	 9.71168015990504E-02 
1272	 9.70888305049612E-02 
1273	 9.70603271829744E-02 
1274	 9.70306193492877E-02 
1275	 9.70056297144071E-02 
1276	 9.69669231517934E-02 
1277	 9.69587623168679E-02 
1278	 9.69754835933378E-02 
1279	 9.69782891438124E-02 
1280	 9.70036451764013E-02 
1281	 9.70098838298388E-02 
1282	 9.69738739363183E-02 
1283	 9.69807516363611E-02 
1284	 9.70148378278967E-02 
1285	 9.70367249302072E-02 
1286	 9.70643331186754E-02 
1287	 9.71124371655702E-02 
1288	 9.71415553635465E-02 
1289	 9.71487866853039E-02 
1290	 9.71745636554382E-02 
1291	 9.72164048770668E-02 
1292	 9.72380239857555E-02 
1293	 9.72487184468139E-02 
1294	 9.72685498476765E-02 
1295	 9.72893012527097E-02 
1296	 9.73001226135354E-02 
1297	 9.73167250434619E-02 
1298	 9.73198760678125E-02 
1299	 0.097296048476605 
1300	 9.72923494494796E-02 
1301	 9.72988474225691E-02 
1302	 9.72974830588546E-02 
1303	 9.73031039603389E-02 
1304	 9.73018883735139E-02 
1305	 9.72898256805807E-02 
1306	 9.72802720040929E-02 
1307	 9.72523095985187E-02 
1308	 9.72180563107021E-02 
1309	 9.71800506622107E-02 
1310	 9.71196586254555E-02 
1311	 9.70812086645646E-02 
1312	 0.097050561307496 
1313	 9.70225728760908E-02 
1314	 9.70091307753468E-02 
1315	 9.69837368829816E-02 
1316	 9.69598655888349E-02 
1317	 9.69242604385498E-02 
1318	 0.096871991156736 
1319	 9.68296291429845E-02 
1320	 9.67799019018254E-02 
1321	 9.67440418834677E-02 
1322	 9.67230118593133E-02 
1323	 9.67012522390043E-02 
1324	 9.66638167156158E-02 
1325	 9.66182587179883E-02 
1326	 9.65753949115939E-02 
1327	 9.65268592650555E-02 
1328	 9.64738294607914E-02 
1329	 9.64403245511609E-02 
1330	 9.64087857552326E-02 
1331	 9.63786580649421E-02 
1332	 9.63428075876326E-02 
1333	 9.63170733434336E-02 
1334	 9.62827431790427E-02 
1335	 9.62319977668784E-02 
1336	 9.61942550889365E-02 
1337	 9.61727907478097E-02 
1338	 9.61362740574443E-02 
1339	 9.60841021450016E-02 
1340	 9.60477726356623E-02 
1341	 9.60093315754818E-02 
1342	 9.59810409091598E-02 
1343	 9.59717778636656E-02 
1344	 9.59560402988919E-02 
1345	 9.59305973930493E-02 
1346	 9.59047881738393E-02 
1347	 9.58680858819139E-02 
1348	 9.58477775814198E-02 
1349	 9.58441558671201E-02 
1350	 9.58195748883424E-02 
1351	 0.095795551667329 
1352	 9.57683460164912E-02 
1353	 9.57474300290487E-02 
1354	 9.57177849933788E-02 
1355	 9.57020587946791E-02 
1356	 9.57057969574436E-02 
1357	 9.56900644594288E-02 
1358	 9.56651107991116E-02 
1359	 9.56506788722868E-02 
1360	 0.095638194655109 
1361	 9.56170866616742E-02 
1362	 9.55960236033134E-02 
1363	 9.55782832389305E-02 
1364	 9.55606582392781E-02 
1365	 9.55305539470368E-02 
1366	 9.55010104369747E-02 
1367	 9.54673465359009E-02 
1368	 9.54149318720362E-02 
1369	 9.53695990354346E-02 
1370	 9.53239852313042E-02 
1371	 9.52816261814033E-02 
1372	 9.52529273359329E-02 
1373	 9.52125665379881E-02 
1374	 9.51649688531457E-02 
1375	 9.51196093857342E-02 
1376	 9.50653791123827E-02 
1377	 9.49924931010168E-02 
1378	 9.49272890689837E-02 
1379	 9.48654356376583E-02 
1380	 9.48016368888913E-02 
1381	 9.47384322486797E-02 
1382	 0.094667872759227 
1383	 9.45980365880972E-02 
1384	 9.45187426401796E-02 
1385	 9.44225789643458E-02 
1386	 9.43378864513072E-02 
1387	 9.42615713029296E-02 
1388	 9.41751510460117E-02 
1389	 9.40931764088778E-02 
1390	 9.39992222628597E-02 
1391	 9.38877592220039E-02 
1392	 9.37681008580186E-02 
1393	 0.093652128886975 
1394	 9.35438521141784E-02 
1395	 9.34288856090136E-02 
1396	 9.33115155716291E-02 
1397	 9.31861316515612E-02 
1398	 9.30480047867786E-02 
1399	 9.29139878048933E-02 
1400	 9.27808987950351E-02 
1401	 9.26383506200464E-02 
1402	 9.24878426294214E-02 
1403	 9.23413445762428E-02 
1404	 9.21882576374331E-02 
1405	 9.20443415406547E-02 
1406	 9.19105572590419E-02 
1407	 9.17691605249087E-02 
1408	 0.091619382673384 
1409	 9.14826456701389E-02 
1410	 9.13418001032987E-02 
1411	 9.12133000334202E-02 
1412	 9.10919181370469E-02 
1413	 9.09916696689421E-02 
1414	 9.08877083745006E-02 
1415	 9.08080856073076E-02 
1416	 9.07353182105753E-02 
1417	 9.06464369631282E-02 
1418	 9.05760162083307E-02 
1419	 9.05184491902094E-02 
1420	 9.04622534698132E-02 
1421	 9.04099787188401E-02 
1422	 9.03395824652097E-02 
1423	 9.02712924548495E-02 
1424	 9.02150558982339E-02 
1425	 9.01606207710605E-02 
1426	 9.01089370893004E-02 
1427	 9.00710513313041E-02 
1428	 9.00245208273644E-02 
1429	 8.99738645019337E-02 
1430	 0.08992961377183 
1431	 8.98800860418359E-02 
1432	 8.98447449736959E-02 
1433	 8.98252787609841E-02 
1434	 8.97915054670209E-02 
1435	 8.97578248927344E-02 
1436	 8.97330364994027E-02 
1437	 8.96953258028638E-02 
1438	 8.96699534283761E-02 
1439	 8.96610554253301E-02 
1440	 8.96537135965575E-02 
1441	 8.96440567862479E-02 
1442	 8.96329527149027E-02 
1443	 8.96084569566141E-02 
1444	 8.95899016071921E-02 
1445	 8.95714659758378E-02 
1446	 8.95455810855293E-02 
1447	 8.95234493794796E-02 
1448	 8.94996871122532E-02 
1449	 8.94716113491897E-02 
1450	 8.94517602735486E-02 
1451	 8.94394269795185E-02 
1452	 8.94416827035276E-02 
1453	 8.94331782066199E-02 
1454	 8.94246897961008E-02 
1455	 8.94153145639612E-02 
1456	 8.93990702155327E-02 
1457	 8.93923409692026E-02 
1458	 8.93959616332592E-02 
1459	 8.93859204544105E-02 
1460	 8.93674427837618E-02 
1461	 8.93623294975833E-02 
1462	 8.93540562986726E-02 
1463	 8.93544629976498E-02 
1464	 0.089369691106007 
1465	 8.93801962176922E-02 
1466	 8.93940292487203E-02 
1467	 8.94000348438971E-02 
1468	 8.94041638738938E-02 
1469	 8.94124946073656E-02 
1470	 8.94188059990684E-02 
1471	 0.089417245753588 
1472	 8.94293437186479E-02 
1473	 8.94323543677419E-02 
1474	 8.94358223108017E-02 
1475	 8.94561206770681E-02 
1476	 8.94776969494194E-02 
1477	 8.95015113229194E-02 
1478	 8.95215221607145E-02 
1479	 0.089533475307399 
1480	 0.089543322488678 
1481	 0.089553364482842 
1482	 8.95656513612511E-02 
1483	 8.95750260818154E-02 
1484	 8.95905933998034E-02 
1485	 0.089615620416016 
1486	 8.96317453153125E-02 
1487	 8.96452923660469E-02 
1488	 8.96601169920706E-02 
1489	 8.96671928993217E-02 
1490	 8.96831053612826E-02 
1491	 0.089711020574861 
1492	 8.97279456076003E-02 
1493	 8.97413145132776E-02 
1494	 8.97566027276884E-02 
1495	 8.97646162950757E-02 
1496	 8.97770685824716E-02 
1497	 8.97944366497933E-02 
1498	 0.089812282650377 
1499	 0.08983059046595 
1500	 8.98499620784451E-02 
1501	 8.98756299910877E-02 
1502	 8.98940848706709E-02 
1503	 8.99088796084986E-02 
1504	 0.08992185488849 
1505	 8.99315449237873E-02 
1506	 0.089944417936391 
1507	 8.99551706897274E-02 
1508	 8.99522590862531E-02 
1509	 8.99517657467137E-02 
1510	 8.99494802024998E-02 
1511	 8.99463271728631E-02 
1512	 8.99586214351767E-02 
1513	 8.99598189404416E-02 
1514	 8.99512386053297E-02 
1515	 8.99533690796095E-02 
1516	 8.99529269105949E-02 
1517	 8.99551512047492E-02 
1518	 8.99631341400225E-02 
1519	 0.089971194175216 
1520	 8.99779098147407E-02 
1521	 8.99854482592238E-02 
1522	 9.00048850611998E-02 
1523	 9.00043710396296E-02 
1524	 8.99893235540185E-02 
1525	 8.99849114117839E-02 
1526	 8.99708933567547E-02 
1527	 8.99661485362663E-02 
1528	 8.99779055999203E-02 
1529	 0.089972836370524 
1530	 0.089956046055194 
1531	 8.99508571141958E-02 
1532	 8.99475990391507E-02 
1533	 8.99423757129676E-02 
1534	 8.99395143667421E-02 
1535	 8.99412778205179E-02 
1536	 8.99384680116552E-02 
1537	 8.99394686651839E-02 
1538	 0.089952627337145 
1539	 8.99605786020566E-02 
1540	 8.99649598802605E-02 
1541	 8.99722443846715E-02 
1542	 8.99901023655903E-02 
1543	 8.99902865786536E-02 
1544	 8.99741867502389E-02 
1545	 8.99689505403246E-02 
1546	 8.99575897647597E-02 
1547	 8.99502715299576E-02 
1548	 0.089952739948654 
1549	 8.99506947525409E-02 
1550	 8.99437125269837E-02 
1551	 8.99349281462731E-02 
1552	 8.99300720542023E-02 
1553	 8.99311345445543E-02 
1554	 8.99336856901402E-02 
1555	 8.99287128746052E-02 
1556	 8.99225249347805E-02 
1557	 8.99205943840355E-02 
1558	 8.99114077812726E-02 
1559	 8.99059032590009E-02 
1560	 8.99044062662667E-02 
1561	 8.99076146207414E-02 
1562	 8.99024828910945E-02 
1563	 8.99000466416469E-02 
1564	 8.98889755613107E-02 
1565	 8.98617838021656E-02 
1566	 8.98559944777417E-02 
1567	 8.98629278373639E-02 
1568	 8.98561586746846E-02 
1569	 8.98595564053139E-02 
1570	 8.98425285339205E-02 
1571	 8.98009173664925E-02 
1572	 8.97743032501624E-02 
1573	 8.97394242973852E-02 
1574	 8.97264292162093E-02 
1575	 8.97306364633507E-02 
1576	 8.97258173121917E-02 
1577	 8.97277018164311E-02 
1578	 8.97293952723379E-02 
1579	 8.97316561154373E-02 
1580	 8.97271692447098E-02 
1581	 8.97308059115445E-02 
1582	 8.97191545186842E-02 
1583	 0.089684732792043 
1584	 8.96642864416481E-02 
1585	 8.96432808952633E-02 
1586	 8.96268450073992E-02 
1587	 8.96203110445846E-02 
1588	 8.96068654650764E-02 
1589	 8.95897848561126E-02 
1590	 8.95769621548946E-02 
1591	 0.089560929682032 
1592	 8.95499991584464E-02 
1593	 8.95491928322557E-02 
1594	 8.95398542719615E-02 
1595	 8.95285810271305E-02 
1596	 8.95163186236008E-02 
1597	 8.95051264673376E-02 
1598	 8.94848830645356E-02 
1599	 8.94503151765004E-02 
1600	 8.94309933515094E-02 
1601	 8.94114322895917E-02 
1602	 8.93931981960799E-02 
1603	 8.93892671254001E-02 
1604	 8.93795138891798E-02 
1605	 8.93680698064619E-02 
1606	 8.93537852026433E-02 
1607	 0.089342667613309 
1608	 8.93212889639416E-02 
1609	 8.92994481727577E-02 
1610	 8.92693172701872E-02 
1611	 8.92352927176389E-02 
1612	 8.92214625460218E-02 
1613	 8.91988285687008E-02 
1614	 8.91673219948766E-02 
1615	 8.91554454566238E-02 
1616	 8.91369640113929E-02 
1617	 8.91095337567274E-02 
1618	 8.90865769690933E-02 
1619	 0.089069025927614 
1620	 8.90543063452506E-02 
1621	 8.90472378452961E-02 
1622	 8.90660745653088E-02 
1623	 8.90533803369827E-02 
1624	 8.90253916474572E-02 
1625	 8.90028005658956E-02 
1626	 8.89695109379983E-02 
1627	 8.89494940244855E-02 
1628	 8.89384969572924E-02 
1629	 8.89193703218485E-02 
1630	 8.88987501109838E-02 
1631	 8.88817137238786E-02 
1632	 8.88671274605305E-02 
1633	 8.88409351536602E-02 
1634	 8.88074638714531E-02 
1635	 8.87902881576415E-02 
1636	 8.87654048307214E-02 
1637	 8.87582292649551E-02 
1638	 8.87856263859907E-02 
1639	 8.87716444453079E-02 
1640	 8.87365784898379E-02 
1641	 8.87204553120645E-02 
1642	 8.86991984013011E-02 
1643	 8.86742933059719E-02 
1644	 8.86603459588552E-02 
1645	 8.86386316809284E-02 
1646	 8.85950057363629E-02 
1647	 8.85737818203248E-02 
1648	 8.85749439228372E-02 
1649	 8.85544776169232E-02 
1650	 8.85237327361594E-02 
1651	 8.85057995183358E-02 
1652	 0.088490495156473 
1653	 8.84650571305004E-02 
1654	 8.84472427638297E-02 
1655	 8.84174887187207E-02 
1656	 8.83628903223529E-02 
1657	 8.83311931117364E-02 
1658	 8.83079706787401E-02 
1659	 8.82868757159415E-02 
1660	 8.82773828022014E-02 
1661	 8.82587391963642E-02 
1662	 8.82415872727234E-02 
1663	 8.82175828146395E-02 
1664	 8.81768317475178E-02 
1665	 8.81611521124933E-02 
1666	 8.81574356880176E-02 
1667	 8.81470112841349E-02 
1668	 8.81594779779379E-02 
1669	 8.81407962864765E-02 
1670	 8.81005332932664E-02 
1671	 8.80624161456669E-02 
1672	 8.80052925756032E-02 
1673	 8.79669429067289E-02 
1674	 8.79275683115994E-02 
1675	 8.79046219875328E-02 
1676	 8.79052332552783E-02 
1677	 8.78878414234401E-02 
1678	 8.78724587705638E-02 
1679	 8.78529483241812E-02 
1680	 8.78230317609634E-02 
1681	 8.77968139351899E-02 
1682	 8.77710777684959E-02 
1683	 8.77500765413462E-02 
1684	 0.087731583494864 
1685	 8.77067961905431E-02 
1686	 8.76789089730285E-02 
1687	 8.76617991110422E-02 
1688	 8.76533094532407E-02 
1689	 8.76259557306589E-02 
1690	 8.75973164593011E-02 
1691	 8.75701958846561E-02 
1692	 8.75146071848578E-02 
1693	 8.74911531941654E-02 
1694	 8.75050681137218E-02 
1695	 8.74858766655888E-02 
1696	 8.74573713148711E-02 
1697	 8.74363306964883E-02 
1698	 8.74016167002155E-02 
1699	 8.73770203901511E-02 
1700	 8.73677505263623E-02 
1701	 8.73476078898746E-02 
1702	 8.73209404061376E-02 
1703	 0.087296299660383 
1704	 8.72854304863411E-02 
1705	 8.72442040119742E-02 
1706	 8.71716680715908E-02 
1707	 8.71311380345349E-02 
1708	 8.70824466882559E-02 
1709	 8.70491832282664E-02 
1710	 8.70494592542364E-02 
1711	 0.087031212143153 
1712	 8.70001408046818E-02 
1713	 8.69853189967977E-02 
1714	 8.69840318838679E-02 
1715	 8.69686310222107E-02 
1716	 8.69634754307321E-02 
1717	 8.69281181882649E-02 
1718	 8.68541932911617E-02 
1719	 8.68240744795229E-02 
1720	 8.68016125630754E-02 
1721	 8.67756965687425E-02 
1722	 8.67780456820275E-02 
1723	 8.67568715306559E-02 
1724	 8.67142666861656E-02 
1725	 8.66827267688589E-02 
1726	 8.66598394208899E-02 
1727	 8.66204434271905E-02 
1728	 0.086558044033025 
1729	 0.086524838268794 
1730	 0.086506021246125 
1731	 8.64772596974268E-02 
1732	 8.64608098854808E-02 
1733	 8.64378621602784E-02 
1734	 8.64025564755747E-02 
1735	 8.63574650885254E-02 
1736	 8.63193265377597E-02 
1737	 8.62714550151935E-02 
1738	 8.61974332244111E-02 
1739	 8.61489406952814E-02 
1740	 8.61097305637171E-02 
1741	 8.60799319356392E-02 
1742	 8.60629139281017E-02 
1743	 8.60312195381694E-02 
1744	 8.60076652104824E-02 
1745	 8.59674857138375E-02 
1746	 8.59062122304469E-02 
1747	 8.58588899023853E-02 
1748	 8.58200164976918E-02 
1749	 8.57837899039921E-02 
1750	 8.57420670191981E-02 
1751	 8.56936735503356E-02 
1752	 8.56616237082006E-02 
1753	 8.56385773837717E-02 
1754	 8.56355760785945E-02 
1755	 8.56265202020042E-02 
1756	 8.55660531926391E-02 
1757	 0.085499125150759 
1758	 8.54402461611752E-02 
1759	 8.53899323009292E-02 
1760	 8.53637318211787E-02 
1761	 8.53100585263818E-02 
1762	 8.52506633219292E-02 
1763	 8.52319804542503E-02 
1764	 8.52042744442676E-02 
1765	 8.51756477357005E-02 
1766	 8.51485010720713E-02 
1767	 8.50900142470574E-02 
1768	 0.085030429687422 
1769	 8.50016702626017E-02 
1770	 8.49749648232949E-02 
1771	 8.49184295390639E-02 
1772	 8.48701702607657E-02 
1773	 8.48293092460502E-02 
1774	 8.47767717024412E-02 
1775	 8.47502437180553E-02 
1776	 8.47354324498693E-02 
1777	 8.46997238590453E-02 
1778	 8.46780444022473E-02 
1779	 8.46540536396429E-02 
1780	 8.46097752341358E-02 
1781	 8.45941702225164E-02 
1782	 8.45876250000211E-02 
1783	 8.45833673347099E-02 
1784	 8.45668569709692E-02 
1785	 0.084536525261224 
1786	 8.45031112754231E-02 
1787	 8.44614416609001E-02 
1788	 8.44319973486033E-02 
1789	 8.43913925384939E-02 
1790	 8.43650419113776E-02 
1791	 8.43641820911666E-02 
1792	 8.43484901210297E-02 
1793	 8.43416893017025E-02 
1794	 8.43198330805252E-02 
1795	 8.42603697037278E-02 
1796	 8.42337270300635E-02 
1797	 8.42324805275348E-02 
1798	 8.42101907612203E-02 
1799	 8.41942392528144E-02 
1800	 8.41833498203213E-02 
1801	 8.07741110724066E-02 
1802	 8.07778351971648E-02 
1803	 8.07792783628483E-02 
1804	 8.07975103919165E-02 
1805	 8.08232340242446E-02 
1806	 8.08415719287458E-02 
1807	 8.08445236989297E-02 
1808	 8.08559951994934E-02 
1809	 8.08790890058261E-02 
1810	 8.08822689850268E-02 
1811	 8.08669765260964E-02 
1812	 8.08662996574172E-02 
1813	 8.08869736206266E-02 
1814	 8.08948410628762E-02 
1815	 8.09166147230281E-02 
1816	 8.09436326113047E-02 
1817	 8.09440366122125E-02 
1818	 8.09126891216172E-02 
1819	 8.09019383953701E-02 
1820	 8.08804134720328E-02 
1821	 8.08759881401417E-02 
1822	 0.080892229474207 
1823	 8.09111581848629E-02 
1824	 8.09199238474165E-02 
1825	 8.09183685866471E-02 
1826	 8.09030736381871E-02 
1827	 8.08441793757462E-02 
1828	 8.08043248389007E-02 
1829	 8.07577841344037E-02 
1830	 8.07253584504575E-02 
1831	 8.06915286629956E-02 
1832	 0.080679328955851 
1833	 8.06937123229304E-02 
1834	 8.06749428495926E-02 
1835	 8.06540730972236E-02 
1836	 0.080636331166945 
1837	 8.05970860956741E-02 
1838	 8.05777480282239E-02 
1839	 8.05596867453898E-02 
1840	 8.05517669731212E-02 
1841	 8.05453744880449E-02 
1842	 8.05420969973481E-02 
1843	 8.05174671053571E-02 
1844	 8.04862933010062E-02 
1845	 0.080457814080984 
1846	 8.04146241453322E-02 
1847	 8.03798896850686E-02 
1848	 8.03488952712986E-02 
1849	 8.03013708863193E-02 
1850	 8.02715178691894E-02 
1851	 8.02568652600188E-02 
1852	 8.02305583597254E-02 
1853	 8.01935305458802E-02 
1854	 8.01689203112252E-02 
1855	 8.01216879332885E-02 
1856	 8.00851252278684E-02 
1857	 0.080053739030595 
1858	 0.080006120042245 
1859	 7.99672240240978E-02 
1860	 0.079930987667463 
1861	 0.079891166895295 
1862	 7.98434152228193E-02 
1863	 7.97977985073846E-02 
1864	 7.97401283151782E-02 
1865	 7.96579239657983E-02 
1866	 7.95815748256923E-02 
1867	 7.95145217596725E-02 
1868	 7.94523267299315E-02 
1869	 7.93686612072051E-02 
1870	 7.92628424601574E-02 
1871	 7.91659227587902E-02 
1872	 0.079070907946873 
1873	 7.89558820261219E-02 
1874	 7.88354326551106E-02 
1875	 7.87009507093569E-02 
1876	 0.078523800733163 
1877	 7.83326176407113E-02 
1878	 7.81369410733606E-02 
1879	 7.79555760869534E-02 
1880	 7.77548067696104E-02 
1881	 7.75577109911539E-02 
1882	 7.73199305982116E-02 
1883	 7.70602393617159E-02 
1884	 7.67695960342002E-02 
1885	 7.64741741988576E-02 
1886	 7.61770274118353E-02 
1887	 7.58885944761588E-02 
1888	 7.55977257592727E-02 
1889	 7.52552495147555E-02 
1890	 0.07490705305623 
1891	 7.45574603928564E-02 
1892	 7.41846949426028E-02 
1893	 7.38112762619343E-02 
1894	 7.34457111336749E-02 
1895	 7.30659382529759E-02 
1896	 7.26495722233893E-02 
1897	 7.22352614761964E-02 
1898	 7.18263346566001E-02 
1899	 7.14344399028383E-02 
1900	 7.10725556051833E-02 
1901	 7.07067208320984E-02 
1902	 7.03291125410067E-02 
1903	 6.99353846730229E-02 
1904	 6.95669346783253E-02 
1905	 6.91895262662831E-02 
1906	 6.88397269396571E-02 
1907	 6.85293966101152E-02 
1908	 6.82319994454407E-02 
1909	 6.79460779894923E-02 
1910	 6.76675402333221E-02 
1911	 6.73893552766048E-02 
1912	 6.71228644163762E-02 
1913	 6.68822173172138E-02 
1914	 6.66550230003417E-02 
1915	 6.64525803080831E-02 
1916	 6.62813156349485E-02 
1917	 6.61156853042748E-02 
1918	 6.59658457152447E-02 
1919	 6.58198972822621E-02 
1920	 0.065673250633498 
1921	 6.55298525931218E-02 
1922	 0.065410190181481 
1923	 6.52975526293842E-02 
1924	 6.51849199699063E-02 
1925	 0.065080665393814 
1926	 6.49945119665391E-02 
1927	 6.49072472135726E-02 
1928	 6.48337376076602E-02 
1929	 6.48102818632957E-02 
1930	 6.47755896999282E-02 
1931	 6.47426698644333E-02 
1932	 6.47202084309685E-02 
1933	 6.46864074772561E-02 
1934	 6.46672128597729E-02 
1935	 6.46485387459556E-02 
1936	 6.46317243639777E-02 
1937	 6.46277404358821E-02 
1938	 6.46333096092369E-02 
1939	 6.46394382934042E-02 
1940	 6.46678193741777E-02 
1941	 6.46742407433866E-02 
1942	 6.46661238161772E-02 
1943	 6.46766948662791E-02 
1944	 6.46918043680102E-02 
1945	 0.064716361088727 
1946	 6.47473777304311E-02 
1947	 6.47999074391184E-02 
1948	 6.48369246188865E-02 
1949	 0.064871902084428 
1950	 6.49076638451092E-02 
1951	 6.49464183929528E-02 
1952	 6.49687411919078E-02 
1953	 6.49956736457959E-02 
1954	 6.50408462127325E-02 
1955	 6.51071679030228E-02 
1956	 6.51831724337967E-02 
1957	 6.52503258403822E-02 
1958	 6.53237688952451E-02 
1959	 6.53927581611556E-02 
1960	 6.54546932976775E-02 
1961	 6.55242618484107E-02 
1962	 6.55974080455912E-02 
1963	 0.065677038113618 
1964	 6.57653924312385E-02 
1965	 6.58427214676526E-02 
1966	 6.59126100467343E-02 
1967	 6.59994111053125E-02 
1968	 6.60920771616576E-02 
1969	 6.61800843699383E-02 
1970	 6.62780521505406E-02 
1971	 6.64001135406949E-02 
1972	 6.65089612987136E-02 
1973	 6.66204548061768E-02 
1974	 6.67248505399354E-02 
1975	 0.066826481334989 
1976	 6.69203390188026E-02 
1977	 6.70139651920132E-02 
1978	 6.71002982348091E-02 
1979	 0.067199692018457 
1980	 6.72969660790182E-02 
1981	 6.73876661004016E-02 
1982	 0.067472207953879 
1983	 6.75635526987684E-02 
1984	 6.76529988731862E-02 
1985	 6.77449471514524E-02 
1986	 6.78423592630899E-02 
1987	 6.79376307602435E-02 
1988	 6.80418232456963E-02 
1989	 6.81230831632402E-02 
1990	 6.82046423304194E-02 
1991	 6.82904657773546E-02 
1992	 6.83779645402712E-02 
1993	 6.84557166228523E-02 
1994	 6.85582031782614E-02 
1995	 6.86863190880127E-02 
1996	 6.87898247843254E-02 
1997	 6.88877120480462E-02 
1998	 6.89909271335351E-02 
1999	 0.069088308707648 
2000	 6.91839569087246E-02 
2001	 0.069289384475054 
2002	 6.93890819125566E-02 
2003	 6.94749525641542E-02 
2004	 6.95618934509376E-02 
2005	 6.96597945204738E-02 
2006	 6.97761785474762E-02 
2007	 6.98739822107494E-02 
2008	 6.99686738739137E-02 
2009	 7.00578682071599E-02 
2010	 7.01310849914993E-02 
2011	 7.02130181797436E-02 
2012	 7.03002650952869E-02 
2013	 7.03853745370411E-02 
2014	 0.070474066468048 
2015	 7.05556411281189E-02 
2016	 7.06294399856294E-02 
2017	 0.070711305777965 
2018	 7.07998124799104E-02 
2019	 7.08935477549258E-02 
2020	 7.09849962656208E-02 
2021	 7.10936678443197E-02 
2022	 7.11796275783095E-02 
2023	 7.12476443296634E-02 
2024	 7.13256014150728E-02 
2025	 7.13967774204426E-02 
2026	 7.14712501076967E-02 
2027	 7.15497745663244E-02 
2028	 7.16325221755075E-02 
2029	 0.071711108025856 
2030	 0.071790123145465 
2031	 7.18560887310568E-02 
2032	 7.19112419707363E-02 
2033	 7.19826760160734E-02 
2034	 7.20559464982468E-02 
2035	 7.21233370031917E-02 
2036	 7.22049997773734E-02 
2037	 7.22690684806067E-02 
2038	 7.23075415600066E-02 
2039	 7.23600407631393E-02 
2040	 7.24109213503889E-02 
2041	 0.0724718068631 
2042	 7.25367361623842E-02 
2043	 7.26073146140536E-02 
2044	 0.072671479092124 
2045	 7.27472402345142E-02 
2046	 0.072797191613872 
2047	 0.072825438933127 
2048	 7.28681774843581E-02 
2049	 7.28968148921844E-02 
2050	 7.29374903751795E-02 
2051	 7.29992515076364E-02 
2052	 7.30474297097841E-02 
2053	 7.30957751286106E-02 
2054	 7.31361413752201E-02 
2055	 7.31784003877322E-02 
2056	 7.31972751944592E-02 
2057	 7.32188628999668E-02 
2058	 7.32224308893587E-02 
2059	 7.32494809595148E-02 
2060	 7.32757237801592E-02 
2061	 7.33186070979087E-02 
2062	 7.33858610953356E-02 
2063	 7.34413697366401E-02 
2064	 7.35039205491667E-02 
2065	 7.35570763019457E-02 
2066	 7.36110116327027E-02 
2067	 7.36539290749825E-02 
2068	 7.36687711443241E-02 
2069	 0.073713554227763 
2070	 7.37606606762237E-02 
2071	 7.38060087257928E-02 
2072	 7.38580964861627E-02 
2073	 7.39375848284047E-02 
2074	 7.39845030873232E-02 
2075	 7.40153734651133E-02 
2076	 0.074050114813237 
2077	 7.40734025533665E-02 
2078	 7.41013141244128E-02 
2079	 7.41225508556817E-02 
2080	 7.41561103342114E-02 
2081	 7.42033880803355E-02 
2082	 7.42386034433669E-02 
2083	 7.42727873089233E-02 
2084	 7.43153251269637E-02 
2085	 7.43430613147406E-02 
2086	 7.43494310695838E-02 
2087	 7.43815557578159E-02 
2088	 7.44217530636987E-02 
2089	 7.44606582258447E-02 
2090	 7.45175394525049E-02 
2091	 7.45531526284566E-02 
2092	 7.45760197332203E-02 
2093	 7.46025917760488E-02 
2094	 7.46139984829914E-02 
2095	 0.074642158040356 
2096	 7.46747397516745E-02 
2097	 0.074714857371807 
2098	 7.47832308564082E-02 
2099	 7.48289027457434E-02 
2100	 7.48649663704317E-02 
2101	 7.48950425743021E-02 
2102	 7.49292729191206E-02 
2103	 7.49442925869464E-02 
2104	 7.49770460122983E-02 
2105	 7.50282468612089E-02 
2106	 7.50666940481896E-02 
2107	 7.51039863764021E-02 
2108	 7.51363283711277E-02 
2109	 7.51403244793844E-02 
2110	 7.51850495961466E-02 
2111	 7.52574255729116E-02 
2112	 7.53173245348999E-02 
2113	 7.53951456813806E-02 
2114	 7.54864344405131E-02 
2115	 7.55351284802293E-02 
2116	 7.55494363037522E-02 
2117	 7.55814614077704E-02 
2118	 7.55979775146336E-02 
2119	 7.56329331534582E-02 
2120	 0.075687022258509 
2121	 7.57196564625723E-02 
2122	 7.57463234535221E-02 
2123	 7.57740506127364E-02 
2124	 7.57835988140698E-02 
2125	 0.075807281971144 
2126	 7.58581240154224E-02 
2127	 7.58819837706918E-02 
2128	 7.58841232522219E-02 
2129	 0.07590036576324 
2130	 7.59276197410373E-02 
2131	 7.59215323472217E-02 
2132	 7.59234345381812E-02 
2133	 0.075929146345298 
2134	 7.59423675289907E-02 
2135	 7.59513213607798E-02 
2136	 7.59524138567207E-02 
2137	 7.59796544445632E-02 
2138	 7.59646423683242E-02 
2139	 0.075899689595022 
2140	 7.58672889315292E-02 
2141	 7.58394026226966E-02 
2142	 7.58033132794866E-02 
2143	 7.57857655587416E-02 
2144	 7.57446640635049E-02 
2145	 7.56716051092489E-02 
2146	 7.56130200419254E-02 
2147	 7.55460972161695E-02 
2148	 7.54922939494025E-02 
2149	 7.54353928048635E-02 
2150	 7.53797880160426E-02 
2151	 7.53370077777361E-02 
2152	 7.52981168119188E-02 
2153	 7.52636169332089E-02 
2154	 0.075248857097505 
2155	 7.52203588233236E-02 
2156	 7.51941232855804E-02 
2157	 7.51530981642228E-02 
2158	 0.075111655085316 
2159	 7.50507110134167E-02 
2160	 7.49580257317857E-02 
2161	 0.074880999633852 
2162	 7.48015970756412E-02 
2163	 0.074721046049759 
2164	 7.46353989550142E-02 
2165	 0.074567313204202 
2166	 7.45012283484206E-02 
2167	 7.44384940181748E-02 
2168	 7.43657211265334E-02 
2169	 7.42960122772047E-02 
2170	 7.42315844848051E-02 
2171	 7.41580548985929E-02 
2172	 7.40903727740082E-02 
2173	 7.40430077750451E-02 
2174	 0.073979086775726 
2175	 7.38979976516795E-02 
2176	 7.38263767722016E-02 
2177	 7.37480141811347E-02 
2178	 7.36847131329862E-02 
2179	 7.36510813887921E-02 
2180	 7.35865188079404E-02 
2181	 0.073497688893509 
2182	 0.07343364235868 
2183	 0.073376130814276 
2184	 7.32964433895335E-02 
2185	 7.32269031414989E-02 
2186	 7.31840574343653E-02 
2187	 7.31168969106835E-02 
2188	 7.30157537215267E-02 
2189	 7.29498414157616E-02 
2190	 0.072911700982716 
2191	 7.28465217362091E-02 
2192	 7.27740774729521E-02 
2193	 7.27108805831649E-02 
2194	 7.26344778773368E-02 
2195	 7.25693536661579E-02 
2196	 7.25080195157409E-02 
2197	 7.24679146831556E-02 
2198	 7.24456799663497E-02 
2199	 7.24162170776107E-02 
2200	 7.24099685272529E-02 
2201	 7.23917005887296E-02 
2202	 7.23640859330997E-02 
2203	 7.23177369618913E-02 
2204	 7.23010845479084E-02 
2205	 7.23017109994311E-02 
2206	 0.072282735222118 
2207	 7.22657198038135E-02 
2208	 7.22568066792011E-02 
2209	 7.22391915489987E-02 
2210	 0.072227227797871 
2211	 7.22482258720751E-02 
2212	 7.22213046156134E-02 
2213	 0.07213974269197 
2214	 7.21159927806751E-02 
2215	 7.20918795765972E-02 
2216	 7.20858452226017E-02 
2217	 7.21445559471363E-02 
2218	 7.21602173479005E-02 
2219	 7.21605695994042E-02 
2220	 0.072153503737838 
2221	 7.21252290328785E-02 
2222	 7.20953832686937E-02 
2223	 7.20956752641409E-02 
2224	 7.20852388040836E-02 
2225	 7.20752160082592E-02 
2226	 7.20741686462996E-02 
2227	 7.20779993120507E-02 
2228	 7.20803903802168E-02 
2229	 7.20731349176569E-02 
2230	 7.20800152506729E-02 
2231	 7.20690167631905E-02 
2232	 7.20157227414022E-02 
2233	 7.20109974233918E-02 
2234	 7.20359241450871E-02 
2235	 0.072042858759615 
2236	 7.20726652271549E-02 
2237	 7.20783017123703E-02 
2238	 7.20700365529043E-02 
2239	 7.20506430583338E-02 
2240	 7.20021198479387E-02 
2241	 7.19759505532205E-02 
2242	 7.19323711069204E-02 
2243	 7.19183730566889E-02 
2244	 7.19328277022402E-02 
2245	 7.19699988611626E-02 
2246	 7.19869780031367E-02 
2247	 7.19675846555892E-02 
2248	 7.19440511132889E-02 
2249	 7.18898110861157E-02 
2250	 7.18493769100015E-02 
2251	 7.18039653852477E-02 
2252	 0.071773324438042 
2253	 7.17405833157188E-02 
2254	 0.071712941642326 
2255	 7.17039729824273E-02 
2256	 7.16815439784254E-02 
2257	 0.071652201771071 
2258	 7.16279416791314E-02 
2259	 0.071591093205781 
2260	 7.15727139100277E-02 
2261	 7.15642921876381E-02 
2262	 7.15658391993415E-02 
2263	 7.15924938835991E-02 
2264	 7.16072414285171E-02 
2265	 7.16290379092305E-02 
2266	 7.16319080504567E-02 
2267	 0.071613698658174 
2268	 7.16062357573386E-02 
2269	 0.071573429153813 
2270	 7.15813805319452E-02 
2271	 7.16142961682044E-02 
2272	 7.16393353689863E-02 
2273	 7.17062764408508E-02 
2274	 7.17413985873249E-02 
2275	 0.071744379572025 
2276	 7.17173355356922E-02 
2277	 7.17132106907122E-02 
2278	 7.16762994579201E-02 
2279	 0.071673024969264 
2280	 7.17002813298349E-02 
2281	 7.17161794488869E-02 
2282	 7.17337283669447E-02 
2283	 7.17540590382157E-02 
2284	 7.17845105841232E-02 
2285	 7.18016499192597E-02 
2286	 7.18160454269174E-02 
2287	 7.18211387699191E-02 
2288	 7.18098652549532E-02 
2289	 7.18133988998547E-02 
2290	 7.18230625544214E-02 
2291	 0.071813075719189 
2292	 7.17967943689013E-02 
2293	 0.071794679464271 
2294	 7.17795370608684E-02 
2295	 7.17797907791932E-02 
2296	 7.18086987529678E-02 
2297	 0.07181962210595 
2298	 7.18278375704535E-02 
2299	 7.18384765762741E-02 
2300	 0.071855277795238 
2301	 7.18480778591992E-02 
2302	 7.18407221137107E-02 
2303	 7.17973884050502E-02 
2304	 7.17477834680102E-02 
2305	 7.17179826821999E-02 
2306	 7.16903277631956E-02 
2307	 7.16758997159887E-02 
2308	 7.16510505955592E-02 
2309	 7.16205344993571E-02 
2310	 7.16033214205696E-02 
2311	 7.15799938600919E-02 
2312	 0.071563847763476 
2313	 7.15815601221981E-02 
2314	 7.15623284780599E-02 
2315	 7.15182437329614E-02 
2316	 7.14834812419458E-02 
2317	 7.14214483208975E-02 
2318	 0.07140280476917 
2319	 0.071405380646789 
2320	 7.14096780325744E-02 
2321	 7.14767457293351E-02 
2322	 7.14672750272432E-02 
2323	 7.13972979971444E-02 
2324	 7.13680858623979E-02 
2325	 7.13195444032647E-02 
2326	 7.12826250473975E-02 
2327	 0.071267310059905 
2328	 7.12624836345781E-02 
2329	 7.12484665712793E-02 
2330	 7.12203950217437E-02 
2331	 7.12210535316224E-02 
2332	 7.12344046916846E-02 
2333	 7.12532505819227E-02 
2334	 7.12265671896638E-02 
2335	 7.12145358383215E-02 
2336	 7.12350363188648E-02 
2337	 7.12389246393982E-02 
2338	 7.12360882399002E-02 
2339	 7.12238633365553E-02 
2340	 7.12189614728228E-02 
2341	 7.12089043176744E-02 
2342	 7.12062443903117E-02 
2343	 7.11747362052241E-02 
2344	 7.11038021953739E-02 
2345	 7.10745127978029E-02 
2346	 7.10455305948666E-02 
2347	 0.071036993480322 
2348	 7.10813286247914E-02 
2349	 7.10783400984041E-02 
2350	 0.071056790456203 
2351	 7.10145535041626E-02 
2352	 7.09459118462979E-02 
2353	 7.08836803779833E-02 
2354	 7.08114377498376E-02 
2355	 7.07538448276561E-02 
2356	 7.06887476907143E-02 
2357	 7.06455273613562E-02 
2358	 7.05988608493287E-02 
2359	 7.05694464606888E-02 
2360	 7.05774115964032E-02 
2361	 7.05759238305964E-02 
2362	 7.06206955662595E-02 
2363	 0.070599553378977 
2364	 7.05245671805446E-02 
2365	 7.04718889595886E-02 
2366	 7.03672200598272E-02 
2367	 7.02903710033153E-02 
2368	 7.02602722485358E-02 
2369	 7.02183787634089E-02 
2370	 7.01670399536306E-02 
2371	 7.01328094620033E-02 
2372	 7.00743182640472E-02 
2373	 6.99498212825012E-02 
2374	 6.98548729364003E-02 
2375	 6.97770236884259E-02 
2376	 6.96691780372676E-02 
2377	 6.96265553307699E-02 
2378	 6.95297197239658E-02 
2379	 6.94295443469791E-02 
2380	 6.94314428036093E-02 
2381	 6.93721653914539E-02 
2382	 6.93033386116482E-02 
2383	 6.92688577024041E-02 
2384	 6.91872380471223E-02 
2385	 0.069122809487441 
2386	 6.90688268901202E-02 
2387	 6.89889718634595E-02 
2388	 6.89375688098194E-02 
2389	 6.88920280083923E-02 
2390	 6.88325438012626E-02 
2391	 6.87149975070459E-02 
2392	 6.86102188913751E-02 
2393	 0.068481976918585 
2394	 6.83096415432946E-02 
2395	 6.82535007997527E-02 
2396	 0.0682168714735 
2397	 6.81890198050674E-02 
2398	 6.81546915782497E-02 
2399	 6.80820801375767E-02 
2400	 0.06803485035478 
2401	 6.79409097408079E-02 
2402	 0.067865891361099 
2403	 6.78544115259161E-02 
2404	 6.77686306252919E-02 
2405	 0.06768546688051 
2406	 6.76859728608677E-02 
2407	 6.76756347825402E-02 
2408	 6.76395646567514E-02 
2409	 6.75720163158663E-02 
2410	 6.74680538929869E-02 
2411	 6.73150674563408E-02 
2412	 6.71625795204873E-02 
2413	 6.70793597547787E-02 
2414	 6.70589089478678E-02 
2415	 6.70639591205065E-02 
2416	 6.70364375114165E-02 
2417	 6.70406611142609E-02 
2418	 6.69909768558118E-02 
2419	 6.69078289240008E-02 
2420	 6.67854234051777E-02 
2421	 6.65821754833416E-02 
2422	 6.64361275993221E-02 
2423	 6.62786190663058E-02 
2424	 6.61368683098573E-02 
2425	 6.60303057534563E-02 
2426	 6.59779497280301E-02 
2427	 6.59625816438962E-02 
2428	 6.58913791005377E-02 
2429	 0.065874633189384 
2430	 6.58297108404615E-02 
2431	 6.56736207926966E-02 
2432	 6.55631374179198E-02 
2433	 6.54861602034582E-02 
2434	 6.54009811576369E-02 
2435	 6.53029764446384E-02 
2436	 6.52814635774099E-02 
2437	 6.53188056595435E-02 
2438	 6.53174027539339E-02 
2439	 6.53886274550567E-02 
2440	 6.53364228108565E-02 
2441	 6.52097261498482E-02 
2442	 6.51040768512259E-02 
2443	 6.48998866142677E-02 
2444	 6.47969549549043E-02 
2445	 6.47753791490505E-02 
2446	 6.46800831370579E-02 
2447	 6.45755164519893E-02 
2448	 6.44656297132797E-02 
2449	 6.42914206929422E-02 
2450	 6.41274628930782E-02 
2451	 0.063979558604831 
2452	 0.063851638370137 
2453	 6.37316987151687E-02 
2454	 6.36593857679029E-02 
2455	 6.36605732143461E-02 
2456	 6.36389196111841E-02 
2457	 6.36043834883194E-02 
2458	 6.35390433730746E-02 
2459	 6.34629958763047E-02 
2460	 6.33605589571273E-02 
2461	 6.32103146295104E-02 
2462	 6.30955875082638E-02 
2463	 6.30620634667351E-02 
2464	 6.29403462253963E-02 
2465	 6.27338583589732E-02 
2466	 6.26008163624333E-02 
2467	 6.23457234674371E-02 
2468	 6.22203110970461E-02 
2469	 6.23128817069626E-02 
2470	 6.21512633422141E-02 
2471	 6.21427935615275E-02 
2472	 0.061926050419324 
2473	 6.16028598767888E-02 
2474	 6.15183171152964E-02 
2475	 6.15481709486259E-02 
2476	 6.16117237247569E-02 
2477	 6.16882904192097E-02 
2478	 6.17369166454843E-02 
2479	 6.15568630923936E-02 
2480	 6.13052308346225E-02 
2481	 6.10817338176302E-02 
2482	 6.09195654491471E-02 
2483	 6.10945899955221E-02 
2484	 6.12108610122217E-02 
2485	 6.11709423036361E-02 
2486	 6.11411404245979E-02 
2487	 6.08518532798229E-02 
2488	 6.05773221705605E-02 
2489	 6.05096497987072E-02 
2490	 6.04378281092514E-02 
2491	 6.03985321502631E-02 
2492	 6.03449245521894E-02 
2493	 6.02851277151304E-02 
2494	 6.02572092250539E-02 
2495	 0.060108732442295 
2496	 0.060037179543907 
2497	 6.01555419261385E-02 
2498	 6.01099496652193E-02 
2499	 6.00527883121073E-02 
2500	 6.00999295562807E-02 
