Wavelength	LMW_2100002.asd
350	 0.101264798642366 
351	 0.10834267699966 
352	 0.101830318258335 
353	 8.78849331292453E-02 
354	 9.41638131595639E-02 
355	 0.101564020338936 
356	 0.103579797263002 
357	 0.100476471778104 
358	 0.103552821386 
359	 0.110284947271579 
360	 0.114965651654371 
361	 0.111551639035147 
362	 0.110873403711135 
363	 0.110931719280227 
364	 0.110667465066096 
365	 0.113195808052232 
366	 0.116113499653733 
367	 0.116448218771275 
368	 0.114223289737745 
369	 0.121308567458267 
370	 0.12427215285168 
371	 0.124359331991586 
372	 0.131677066180743 
373	 0.130349981004715 
374	 0.129488045338083 
375	 0.133524629756807 
376	 0.133420487605311 
377	 0.131651999670823 
378	 0.131537361156856 
379	 0.135124108534305 
380	 0.138265583281509 
381	 0.13885982076583 
382	 0.139057362948008 
383	 0.143455762819747 
384	 0.145779607179711 
385	 0.147294391789433 
386	 0.148883355011289 
387	 0.148375109430378 
388	 0.150095118179979 
389	 0.153420525750637 
390	 0.156068421094185 
391	 0.156520284459525 
392	 0.158091261376732 
393	 0.160978113889901 
394	 0.162657115114962 
395	 0.16283633718834 
396	 0.163331878186818 
397	 0.165422658204713 
398	 0.168953482124592 
399	 0.169762235052938 
400	 0.170093951680422 
401	 0.173204043133397 
402	 0.173163747293842 
403	 0.174007169057687 
404	 0.176103404942348 
405	 0.175759614590042 
406	 0.177595057005775 
407	 0.179722181776697 
408	 0.180001484209207 
409	 0.178662115778591 
410	 0.178447128925647 
411	 0.179740893180618 
412	 0.181515005233492 
413	 0.182103085848476 
414	 0.181981318214544 
415	 0.181737676420723 
416	 0.181766623650174 
417	 0.182606104129459 
418	 0.182923869533983 
419	 0.182016978913235 
420	 0.183011061673713 
421	 0.182420041109232 
422	 0.181127751613245 
423	 0.18236890925129 
424	 0.181840656477314 
425	 0.181141071809555 
426	 0.181285240123863 
427	 0.180847510245958 
428	 0.180558149760565 
429	 0.180253543142422 
430	 0.179711266702941 
431	 0.179808515341606 
432	 0.179917702106063 
433	 0.179825980457502 
434	 0.179785384776154 
435	 0.179764183900236 
436	 0.179988613007689 
437	 0.180660834704721 
438	 0.181825784230365 
439	 0.183366976061464 
440	 0.185269931324741 
441	 0.187482125456718 
442	 0.189282153262816 
443	 0.190790874649745 
444	 0.192048454989002 
445	 0.192800040947748 
446	 0.193678331282772 
447	 0.194454080677085 
448	 0.19482830489266 
449	 0.195327155049788 
450	 0.195933546078274 
451	 0.196551778103471 
452	 0.197037498753418 
453	 0.197339656640126 
454	 0.19739573099894 
455	 0.197312257464184 
456	 0.197594028887562 
457	 0.197933061673872 
458	 0.198165544567296 
459	 0.198242484273738 
460	 0.198503572208094 
461	 0.19868377385759 
462	 0.19872234015265 
463	 0.198910822720269 
464	 0.199322001443785 
465	 0.199632827368463 
466	 0.199593033226275 
467	 0.199725014048348 
468	 0.199785133884145 
469	 0.199764252476318 
470	 0.199846257113688 
471	 0.199938355402826 
472	 0.200072665102339 
473	 0.200210755680799 
474	 0.200067043970218 
475	 0.200135152167527 
476	 0.200270654046985 
477	 0.200130547686426 
478	 0.200160268876325 
479	 0.200243955906108 
480	 0.200297666743494 
481	 0.200352112619139 
482	 0.2003528506071 
483	 0.200383942172845 
484	 0.200514915594616 
485	 0.200619655001241 
486	 0.200617769778596 
487	 0.200457251916385 
488	 0.200139687600774 
489	 0.200163484835318 
490	 0.200210564434919 
491	 0.200085012992546 
492	 0.200303262897743 
493	 0.200252027758451 
494	 0.199961833370492 
495	 0.199796060718424 
496	 0.200139369842518 
497	 0.20021832384141 
498	 0.199859084366983 
499	 0.199940458052682 
500	 0.199623151527578 
501	 0.199370299735969 
502	 0.199694149891138 
503	 0.199641987108092 
504	 0.199367997594414 
505	 0.199150044255709 
506	 0.199299420820029 
507	 0.199097617927505 
508	 0.198837046809485 
509	 0.198784468858868 
510	 0.198583868449126 
511	 0.198426993286328 
512	 0.198358428032914 
513	 0.198333787575389 
514	 0.198254363075721 
515	 0.198168794973965 
516	 0.198084000692571 
517	 0.197903524311893 
518	 0.197676282936598 
519	 0.197456909644089 
520	 0.197299142891444 
521	 0.197249474806967 
522	 0.197097710150915 
523	 0.196873275616752 
524	 0.196860234599478 
525	 0.196744168526875 
526	 0.196548788063847 
527	 0.196354556645705 
528	 0.19615661251767 
529	 0.196007585134267 
530	 0.195894066992349 
531	 0.195761666270333 
532	 0.195644378777309 
533	 0.195472404902444 
534	 0.195246890686528 
535	 0.195151135334216 
536	 0.195030703235483 
537	 0.194837263337741 
538	 0.194582629084644 
539	 0.194378302757186 
540	 0.194186803291206 
541	 0.194024666401319 
542	 0.19400061664571 
543	 0.193916322445272 
544	 0.193749120372981 
545	 0.193541888389043 
546	 0.193368026113727 
547	 0.193224727537928 
548	 0.193072252303649 
549	 0.192849834293255 
550	 0.192679455613418 
551	 0.192529645185162 
552	 0.192373802562294 
553	 0.192283718746525 
554	 0.192169190261945 
555	 0.192011027740558 
556	 0.191839301475633 
557	 0.191749796972609 
558	 0.191673228193696 
559	 0.191583141751252 
560	 0.191570308325873 
561	 0.191480647241092 
562	 0.191369656918956 
563	 0.191325852074742 
564	 0.191187080287227 
565	 0.191031721995034 
566	 0.19088427016475 
567	 0.190695164135719 
568	 0.190602073806296 
569	 0.190449659890418 
570	 0.190126394366846 
571	 0.189896463673789 
572	 0.18969896739116 
573	 0.189531450909617 
574	 0.189426961677121 
575	 0.18933047683931 
576	 0.189215576088792 
577	 0.18907226993138 
578	 0.188915451993348 
579	 0.188714724236541 
580	 0.188471301703882 
581	 0.188211358862527 
582	 0.188015033814521 
583	 0.187848648889829 
584	 0.187706969459414 
585	 0.187638521491189 
586	 0.187680085867373 
587	 0.187708229614314 
588	 0.187614679979873 
589	 0.18757855153947 
590	 0.187532856239363 
591	 0.187445822316546 
592	 0.187327422379891 
593	 0.187210121627214 
594	 0.187181210812663 
595	 0.187244483108312 
596	 0.187170520361875 
597	 0.187021171260151 
598	 0.186864528072135 
599	 0.186757920417854 
600	 0.186580307069176 
601	 0.186431124677249 
602	 0.186347614138051 
603	 0.186204827125488 
604	 0.186148295457313 
605	 0.186120678512596 
606	 0.186016948735267 
607	 0.185893441439215 
608	 0.185788967007428 
609	 0.185710027832621 
610	 0.185626856081437 
611	 0.185451538558584 
612	 0.185309847491708 
613	 0.185290042575534 
614	 0.18517123646904 
615	 0.185049033654442 
616	 0.184950821739541 
617	 0.184860110157854 
618	 0.184841752792841 
619	 0.184806291594971 
620	 0.184702886406648 
621	 0.184611228641155 
622	 0.184499824969977 
623	 0.184381465129084 
624	 0.184286437533006 
625	 0.184247877795764 
626	 0.184196530011725 
627	 0.184102272856369 
628	 0.183996501993082 
629	 0.183902837735084 
630	 0.183842961747262 
631	 0.183812704074656 
632	 0.183725308532687 
633	 0.183613972560077 
634	 0.183524374301616 
635	 0.183500271079497 
636	 0.183425851339944 
637	 0.183313626626368 
638	 0.183212577251386 
639	 0.183214253729813 
640	 0.18313175336636 
641	 0.183012065502446 
642	 0.182991430808701 
643	 0.18297689863294 
644	 0.182869158435011 
645	 0.182694245006675 
646	 0.182657653236482 
647	 0.1826373209223 
648	 0.182592505909776 
649	 0.182513657037224 
650	 0.182420908242559 
651	 0.182370214149457 
652	 0.182339786660566 
653	 0.182245178260338 
654	 0.182148742337342 
655	 0.182039813538528 
656	 0.181930997435605 
657	 0.181935035527555 
658	 0.181907960229387 
659	 0.181844229615718 
660	 0.181793001193366 
661	 0.181665859647813 
662	 0.181554511392266 
663	 0.181503935666476 
664	 0.181470547095526 
665	 0.181367974505224 
666	 0.181263615751574 
667	 0.181226119545492 
668	 0.18112062749267 
669	 0.18103825535108 
670	 0.180998890991838 
671	 0.180955495757095 
672	 0.180843410659573 
673	 0.180765838179952 
674	 0.180764157671878 
675	 0.18066157743407 
676	 0.180557583933459 
677	 0.180469871803354 
678	 0.180383293585269 
679	 0.180299261079256 
680	 0.180223788988782 
681	 0.180154259225574 
682	 0.180076459086896 
683	 0.180005962654337 
684	 0.179908043076393 
685	 0.179770094444 
686	 0.17970038850278 
687	 0.179656959221171 
688	 0.179593736754462 
689	 0.179474615987579 
690	 0.179400517773925 
691	 0.179336897266749 
692	 0.179245582917092 
693	 0.17911574969484 
694	 0.179031441248017 
695	 0.178985264859672 
696	 0.17892962702594 
697	 0.178814864963131 
698	 0.178690207765941 
699	 0.17859356395059 
700	 0.178541595677268 
701	 0.17850818361984 
702	 0.178437975967929 
703	 0.178319182671881 
704	 0.178280491013689 
705	 0.178198303985988 
706	 0.178053293467312 
707	 0.177893152723451 
708	 0.177809314635877 
709	 0.177739053727334 
710	 0.177646191416882 
711	 0.177557714277635 
712	 0.177484348227755 
713	 0.17740992508631 
714	 0.177323613683038 
715	 0.177271195045132 
716	 0.177200917520214 
717	 0.17709199066025 
718	 0.176955416618026 
719	 0.176867661254946 
720	 0.176798954335445 
721	 0.176713004326058 
722	 0.176587895134386 
723	 0.176523853451374 
724	 0.176465317827263 
725	 0.176332512050994 
726	 0.176214243453229 
727	 0.176141668492243 
728	 0.176093016553468 
729	 0.176005359956925 
730	 0.175945943228177 
731	 0.175888700716654 
732	 0.17580542446186 
733	 0.175697696944543 
734	 0.175620329608761 
735	 0.175551178736884 
736	 0.175447355762524 
737	 0.175361361313807 
738	 0.175276924683298 
739	 0.17519030479503 
740	 0.175116013017426 
741	 0.175041446459552 
742	 0.174946662251801 
743	 0.174823897226887 
744	 0.174691067426789 
745	 0.174626146553537 
746	 0.174592966038806 
747	 0.174512700906239 
748	 0.174449765210209 
749	 0.17437597808986 
750	 0.174292370144953 
751	 0.174242355111985 
752	 0.174114396733926 
753	 0.173977492678078 
754	 0.173907332583482 
755	 0.173878654216437 
756	 0.173800056787816 
757	 0.173707395048436 
758	 0.17368506903383 
759	 0.17364011280542 
760	 0.173527974810327 
761	 0.173387054187878 
762	 0.173347839909273 
763	 0.173292781078375 
764	 0.173200758141209 
765	 0.173090326507524 
766	 0.173021111543333 
767	 0.172988984185296 
768	 0.172949887043314 
769	 0.172847155784898 
770	 0.17268840695575 
771	 0.172597347726992 
772	 0.172584844633132 
773	 0.172519000408648 
774	 0.172470550262046 
775	 0.172405084484529 
776	 0.172302872416653 
777	 0.172246350795633 
778	 0.172153755835645 
779	 0.172064782160974 
780	 0.172045549116556 
781	 0.171951273108392 
782	 0.171881019338498 
783	 0.171843629584772 
784	 0.171740273781095 
785	 0.171688439474565 
786	 0.171655537828525 
787	 0.171593162280484 
788	 0.171478937499828 
789	 0.171414970615962 
790	 0.171369215486835 
791	 0.171278084881724 
792	 0.171212700324224 
793	 0.17115105548217 
794	 0.171093237092984 
795	 0.17105708175314 
796	 0.170982914032843 
797	 0.170910093518779 
798	 0.17085656914911 
799	 0.170771452871138 
800	 0.170687321654445 
801	 0.170622629063492 
802	 0.170579559098858 
803	 0.170515457470369 
804	 0.17047505796515 
805	 0.170433605039266 
806	 0.170333798556321 
807	 0.170238690156481 
808	 0.170192742200436 
809	 0.170171637763078 
810	 0.170071023318524 
811	 0.170057496145022 
812	 0.170038321455393 
813	 0.169936046501364 
814	 0.16987637820677 
815	 0.169812728697895 
816	 0.16974041155011 
817	 0.169679797797677 
818	 0.169702515004617 
819	 0.169668832415727 
820	 0.169567547003618 
821	 0.169502313632067 
822	 0.169428840073686 
823	 0.169368128335788 
824	 0.169332569621373 
825	 0.169307410468713 
826	 0.169287639663815 
827	 0.169237792551422 
828	 0.169139617398955 
829	 0.169044314267502 
830	 0.168984902488028 
831	 0.168948966225542 
832	 0.168900539762259 
833	 0.168829998021034 
834	 0.168736590089023 
835	 0.168655542400505 
836	 0.168645464504393 
837	 0.168640758264629 
838	 0.168628702302822 
839	 0.168585113060563 
840	 0.168450311955368 
841	 0.168372988154804 
842	 0.168361880169466 
843	 0.168364914135153 
844	 0.168277318519186 
845	 0.168244687318211 
846	 0.16821142311372 
847	 0.168079938127958 
848	 0.168091749072515 
849	 0.16809116676429 
850	 0.16802081283404 
851	 0.167934732939973 
852	 0.167893410717535 
853	 0.167849746824997 
854	 0.167783852326961 
855	 0.1677390169265 
856	 0.167715574678281 
857	 0.1677184187765 
858	 0.167719281620622 
859	 0.167599691536408 
860	 0.167527749341221 
861	 0.167481632041352 
862	 0.167391809834555 
863	 0.167304646906457 
864	 0.167241674926742 
865	 0.167192006088668 
866	 0.167136435518893 
867	 0.167160006854272 
868	 0.167135043214495 
869	 0.167058585603282 
870	 0.167058863962241 
871	 0.166990213773416 
872	 0.16690600278838 
873	 0.166852867771542 
874	 0.166812874220085 
875	 0.166733418891506 
876	 0.166679383603019 
877	 0.166686309100406 
878	 0.16663489271394 
879	 0.166576234609822 
880	 0.166547201087471 
881	 0.166555962508288 
882	 0.166519614070239 
883	 0.166439381554014 
884	 0.166341153109209 
885	 0.166258511369637 
886	 0.166174935453062 
887	 0.166115792637048 
888	 0.166109517929321 
889	 0.166166792716896 
890	 0.166152797838613 
891	 0.166071804046982 
892	 0.165970439628851 
893	 0.165915650245603 
894	 0.165869070480335 
895	 0.16583319013312 
896	 0.165820860284932 
897	 0.165851474190697 
898	 0.165814327353047 
899	 0.165741015042809 
900	 0.165688454189098 
901	 0.165669699483743 
902	 0.165653699117299 
903	 0.165601410670751 
904	 0.16550366138992 
905	 0.165459914905894 
906	 0.165428937892185 
907	 0.16539666111362 
908	 0.165368139514139 
909	 0.16537822593804 
910	 0.165320722497389 
911	 0.165243557908576 
912	 0.165262518542316 
913	 0.165179514623531 
914	 0.165141080885862 
915	 0.16514313237467 
916	 0.165045379727485 
917	 0.164981893075817 
918	 0.164961328738095 
919	 0.164966321151097 
920	 0.164965878185734 
921	 0.164899157028346 
922	 0.164792823015141 
923	 0.164728076631989 
924	 0.164821116880386 
925	 0.16477953569292 
926	 0.164690225999303 
927	 0.16463806493483 
928	 0.164545019804049 
929	 0.164547434281005 
930	 0.164554632797465 
931	 0.164489088434434 
932	 0.164440440217823 
933	 0.16440787378149 
934	 0.164368020478 
935	 0.164309870145468 
936	 0.164289605290236 
937	 0.16418244834843 
938	 0.164095495514081 
939	 0.164132252513054 
940	 0.164104838673724 
941	 0.164088562341183 
942	 0.164123123532249 
943	 0.164186411980756 
944	 0.164092308091196 
945	 0.163929008914156 
946	 0.163827383225966 
947	 0.163869997143048 
948	 0.163880355632803 
949	 0.163820377559612 
950	 0.163734229784675 
951	 0.163698407889923 
952	 0.163716270520775 
953	 0.1637106503512 
954	 0.163681821643195 
955	 0.163666445438109 
956	 0.163621819522551 
957	 0.163544309339266 
958	 0.163446149771172 
959	 0.163361883289445 
960	 0.163397200654521 
961	 0.163371247172729 
962	 0.163298862895491 
963	 0.163312934914921 
964	 0.163357407696688 
965	 0.163371812668934 
966	 0.163344849502454 
967	 0.163306066068741 
968	 0.163296266218748 
969	 0.163224165455634 
970	 0.163099880042818 
971	 0.163011366395085 
972	 0.163022464162556 
973	 0.162965304426756 
974	 0.162887132621483 
975	 0.162947516693417 
976	 0.162994003410049 
977	 0.163000421354636 
978	 0.162950340600528 
979	 0.162854366026967 
980	 0.162837213375159 
981	 0.162768849173382 
982	 0.162703722079645 
983	 0.162758810053669 
984	 0.162708708314625 
985	 0.162542025398534 
986	 0.162408629836175 
987	 0.162457071909905 
988	 0.162401360159866 
989	 0.162449960371747 
990	 0.16249025437235 
991	 0.162332128388017 
992	 0.162252389724156 
993	 0.162252476406117 
994	 0.162352404053444 
995	 0.162488315724435 
996	 0.162246323364999 
997	 0.1623124573495 
998	 0.162408356426178 
999	 0.162145588589457 
1000	 0.162236684327253 
1001	 0.157672591306266 
1002	 0.157705670868184 
1003	 0.157733832027714 
1004	 0.15771071590527 
1005	 0.15762133269871 
1006	 0.157558484750811 
1007	 0.157477406267703 
1008	 0.157417431229157 
1009	 0.157369521655864 
1010	 0.157347126539258 
1011	 0.157348165037491 
1012	 0.157280462626203 
1013	 0.157215637501422 
1014	 0.157127215595529 
1015	 0.157043595712797 
1016	 0.157023116659513 
1017	 0.156975674193846 
1018	 0.156921238057771 
1019	 0.156870016479881 
1020	 0.156853102867785 
1021	 0.156819657714294 
1022	 0.156806931094678 
1023	 0.156887491154805 
1024	 0.156895484111076 
1025	 0.156792378573539 
1026	 0.156741187019135 
1027	 0.156627969528226 
1028	 0.15647988574295 
1029	 0.156464126623334 
1030	 0.156434104866991 
1031	 0.156409089711449 
1032	 0.156394783467404 
1033	 0.156425060113675 
1034	 0.156368201424522 
1035	 0.156345496692186 
1036	 0.156335907447842 
1037	 0.156271965053893 
1038	 0.156238495566856 
1039	 0.156210043463002 
1040	 0.156160032936194 
1041	 0.156112990781869 
1042	 0.156108729768884 
1043	 0.156068461310024 
1044	 0.156007307335757 
1045	 0.155907335996468 
1046	 0.155850975152548 
1047	 0.155759380340437 
1048	 0.155689200919823 
1049	 0.15569332328185 
1050	 0.155671720848446 
1051	 0.155638904023604 
1052	 0.155579335160925 
1053	 0.155464211441056 
1054	 0.155386553376335 
1055	 0.155315760711963 
1056	 0.155250991040876 
1057	 0.155215573330882 
1058	 0.155202648645353 
1059	 0.155165254981953 
1060	 0.155124692643164 
1061	 0.155151247424492 
1062	 0.155101316513157 
1063	 0.155062022230561 
1064	 0.15505215925492 
1065	 0.154972763710279 
1066	 0.154914200382202 
1067	 0.154868894830713 
1068	 0.15478202037194 
1069	 0.154738220687461 
1070	 0.154687248845159 
1071	 0.154654086509084 
1072	 0.154575745474982 
1073	 0.154452497830602 
1074	 0.154376724556526 
1075	 0.15427599368171 
1076	 0.154246412371452 
1077	 0.154269654262451 
1078	 0.154275087139687 
1079	 0.154260273545744 
1080	 0.154202391413759 
1081	 0.15410992638859 
1082	 0.154062008307112 
1083	 0.154013371801533 
1084	 0.153962107412041 
1085	 0.153931941253554 
1086	 0.153927916653223 
1087	 0.153897941808087 
1088	 0.153878018268711 
1089	 0.153842452256705 
1090	 0.15375120766325 
1091	 0.153668668314875 
1092	 0.153596915505946 
1093	 0.153533850986242 
1094	 0.15352816404321 
1095	 0.153530591050103 
1096	 0.153497006024864 
1097	 0.153451896129976 
1098	 0.153403978645767 
1099	 0.153325807318151 
1100	 0.15327291745521 
1101	 0.153221877344048 
1102	 0.153188770588188 
1103	 0.153178134065581 
1104	 0.153153959817668 
1105	 0.153104601152668 
1106	 0.153082363705189 
1107	 0.153071406943763 
1108	 0.153021804683158 
1109	 0.152972673276041 
1110	 0.152934734665256 
1111	 0.152890122336161 
1112	 0.152815912614446 
1113	 0.152771689300441 
1114	 0.152750220482198 
1115	 0.152719576596549 
1116	 0.152693904123271 
1117	 0.152654237696563 
1118	 0.152612013866544 
1119	 0.152566714767056 
1120	 0.152526671142763 
1121	 0.152474223977685 
1122	 0.152426151962128 
1123	 0.15239660817262 
1124	 0.152353009568881 
1125	 0.152296908287975 
1126	 0.152256216722148 
1127	 0.152216562697851 
1128	 0.152181975492429 
1129	 0.152155141308243 
1130	 0.152124130063209 
1131	 0.152111948110295 
1132	 0.152076711285053 
1133	 0.152020263194292 
1134	 0.151973279342923 
1135	 0.151928170037328 
1136	 0.151857324160261 
1137	 0.151798278279255 
1138	 0.151770703755249 
1139	 0.151735484485513 
1140	 0.151700569232908 
1141	 0.151668569440637 
1142	 0.151651547936141 
1143	 0.15161787775593 
1144	 0.151582910502786 
1145	 0.151538932734509 
1146	 0.151477119574332 
1147	 0.151427692796085 
1148	 0.151375981873931 
1149	 0.151325219138317 
1150	 0.151287116939242 
1151	 0.151235780340912 
1152	 0.151177464251482 
1153	 0.151147824238765 
1154	 0.151102733806574 
1155	 0.151059860701871 
1156	 0.151014398846957 
1157	 0.150963901982396 
1158	 0.150911093710175 
1159	 0.150853454019004 
1160	 0.150806636383183 
1161	 0.150758062914136 
1162	 0.150716953029936 
1163	 0.150697887451912 
1164	 0.150658231373544 
1165	 0.150600897004193 
1166	 0.150562724306756 
1167	 0.150512942880094 
1168	 0.150454971050997 
1169	 0.150401225250578 
1170	 0.150348625048406 
1171	 0.150298719610793 
1172	 0.150241306906746 
1173	 0.150200547508106 
1174	 0.150180164524219 
1175	 0.150140284366145 
1176	 0.150100073597852 
1177	 0.150056907843803 
1178	 0.149991620136793 
1179	 0.149946623923718 
1180	 0.149917152090609 
1181	 0.149881726629177 
1182	 0.149849312924009 
1183	 0.149826236807942 
1184	 0.149786390822772 
1185	 0.149737937998586 
1186	 0.149691557566771 
1187	 0.149637887414476 
1188	 0.149589061583744 
1189	 0.149539742266977 
1190	 0.149493291087771 
1191	 0.149443466035375 
1192	 0.149403575048428 
1193	 0.149366787052262 
1194	 0.14933800877475 
1195	 0.149331986632277 
1196	 0.149305813000728 
1197	 0.149274728462032 
1198	 0.149241901939286 
1199	 0.149203317402032 
1200	 0.149149628450425 
1201	 0.149106564149057 
1202	 0.149066518421458 
1203	 0.149027287968255 
1204	 0.148990056209857 
1205	 0.148947895645724 
1206	 0.148908095857458 
1207	 0.148862915088861 
1208	 0.148802944350899 
1209	 0.148759492762945 
1210	 0.148728029861647 
1211	 0.148687602987616 
1212	 0.148658187721631 
1213	 0.148614879036913 
1214	 0.148556455289874 
1215	 0.148499443731951 
1216	 0.148439412065286 
1217	 0.148363207637843 
1218	 0.148322822990699 
1219	 0.14830420184861 
1220	 0.148261881125102 
1221	 0.148229999947877 
1222	 0.148190995866019 
1223	 0.148119700328693 
1224	 0.148082040570546 
1225	 0.148084692822093 
1226	 0.148050839976774 
1227	 0.148004271044614 
1228	 0.147963754404585 
1229	 0.147902984107039 
1230	 0.147854130058374 
1231	 0.147826177501423 
1232	 0.147785886720553 
1233	 0.147741200119708 
1234	 0.147690436936812 
1235	 0.147642751724066 
1236	 0.147585987121015 
1237	 0.147544657599651 
1238	 0.147514825043752 
1239	 0.147475386981759 
1240	 0.147435329679591 
1241	 0.14740037600109 
1242	 0.14737450026102 
1243	 0.147327804685834 
1244	 0.147270069346399 
1245	 0.147222793749235 
1246	 0.147164409051972 
1247	 0.147107560294692 
1248	 0.1470571657642 
1249	 0.147016220329688 
1250	 0.146972933773678 
1251	 0.146906691134983 
1252	 0.146849568281002 
1253	 0.146790174172418 
1254	 0.146747267119932 
1255	 0.146711111898016 
1256	 0.146667463123862 
1257	 0.146643320715094 
1258	 0.146597147869459 
1259	 0.146521415826103 
1260	 0.146466091810622 
1261	 0.146413792632886 
1262	 0.146364569794912 
1263	 0.146327454464365 
1264	 0.146284091418526 
1265	 0.14624586258666 
1266	 0.146196762478639 
1267	 0.146141663141037 
1268	 0.146074875862891 
1269	 0.146021075405237 
1270	 0.145967046457149 
1271	 0.145914094741494 
1272	 0.145866250139682 
1273	 0.145819613131958 
1274	 0.145776418504358 
1275	 0.145718249478491 
1276	 0.145654983632964 
1277	 0.145600031496879 
1278	 0.14553226826637 
1279	 0.145476236733261 
1280	 0.145433719520822 
1281	 0.145391625587232 
1282	 0.145356795658491 
1283	 0.145313519147534 
1284	 0.145281826271869 
1285	 0.145227820593486 
1286	 0.145158617684506 
1287	 0.145105837838814 
1288	 0.145059076807914 
1289	 0.145018233740328 
1290	 0.14497621879984 
1291	 0.144945304212344 
1292	 0.144902728878336 
1293	 0.144846493598385 
1294	 0.144808241997275 
1295	 0.144779893745031 
1296	 0.144744734028184 
1297	 0.144727013407415 
1298	 0.144682901116046 
1299	 0.14461515321752 
1300	 0.144558266152747 
1301	 0.144495248151048 
1302	 0.144429275345903 
1303	 0.14435812573967 
1304	 0.144301118657868 
1305	 0.144245546437227 
1306	 0.144195372246953 
1307	 0.144149940840931 
1308	 0.144105089944008 
1309	 0.144055967616971 
1310	 0.143992140547548 
1311	 0.143941250445609 
1312	 0.143904404608489 
1313	 0.143854124848139 
1314	 0.14379372627149 
1315	 0.14374435850807 
1316	 0.143698506606106 
1317	 0.143648781591998 
1318	 0.143612400097284 
1319	 0.143558299836249 
1320	 0.143482657836036 
1321	 0.143420389872184 
1322	 0.143350235432503 
1323	 0.143293111920593 
1324	 0.143260730698491 
1325	 0.14321761716389 
1326	 0.143165590654634 
1327	 0.143111046198895 
1328	 0.143035449677227 
1329	 0.142977625276533 
1330	 0.142920558043945 
1331	 0.1428685250951 
1332	 0.142812563332463 
1333	 0.142761119941327 
1334	 0.142704944032214 
1335	 0.142643762156995 
1336	 0.142590055442538 
1337	 0.142529630573043 
1338	 0.14248621364508 
1339	 0.14246243157987 
1340	 0.142423307243725 
1341	 0.142398267303065 
1342	 0.14235514019543 
1343	 0.142290112052079 
1344	 0.14222800016741 
1345	 0.142175232077609 
1346	 0.142105997887516 
1347	 0.142065336882769 
1348	 0.142030700460504 
1349	 0.14198787248365 
1350	 0.141947587614962 
1351	 0.141885548089713 
1352	 0.141794063914952 
1353	 0.141728594200256 
1354	 0.141665019236207 
1355	 0.141601085625348 
1356	 0.14154522564053 
1357	 0.14149197012272 
1358	 0.141429796708585 
1359	 0.141381250763999 
1360	 0.141355544310273 
1361	 0.141313015191477 
1362	 0.141261802959371 
1363	 0.141218500053762 
1364	 0.141183247659817 
1365	 0.141130653694123 
1366	 0.141073311199004 
1367	 0.141020478901351 
1368	 0.140942645527991 
1369	 0.140861307343871 
1370	 0.140783379611686 
1371	 0.140712087461568 
1372	 0.140647362197812 
1373	 0.140573339866686 
1374	 0.140506817790711 
1375	 0.140447058874238 
1376	 0.140375988592945 
1377	 0.140312330865631 
1378	 0.14022826635234 
1379	 0.140117930342549 
1380	 0.140033765672405 
1381	 0.139945908377092 
1382	 0.139867827524365 
1383	 0.139817882373337 
1384	 0.13974888345983 
1385	 0.13966904019337 
1386	 0.139589334220567 
1387	 0.139510329223748 
1388	 0.139426758709632 
1389	 0.139344926623175 
1390	 0.139251345066665 
1391	 0.139157551776498 
1392	 0.13905358920955 
1393	 0.13893430245303 
1394	 0.138818551345079 
1395	 0.138663516874106 
1396	 0.138493996958882 
1397	 0.138343848299866 
1398	 0.138187454428559 
1399	 0.138029111103364 
1400	 0.137895368516878 
1401	 0.137728062208131 
1402	 0.137536298838317 
1403	 0.137348623538165 
1404	 0.137143149586338 
1405	 0.136956354010448 
1406	 0.136769034084157 
1407	 0.136590811156071 
1408	 0.136436202245772 
1409	 0.136258801442376 
1410	 0.136072290186153 
1411	 0.135889791385257 
1412	 0.135684426499405 
1413	 0.135512569574075 
1414	 0.135362304796793 
1415	 0.135205100511266 
1416	 0.135069906854695 
1417	 0.134934541927375 
1418	 0.134793895344936 
1419	 0.134657330811059 
1420	 0.13453142214341 
1421	 0.134400323022414 
1422	 0.134259491056363 
1423	 0.134124667291928 
1424	 0.133982951127093 
1425	 0.13382706234897 
1426	 0.133687405892772 
1427	 0.133555714042619 
1428	 0.133420119772091 
1429	 0.13329261625487 
1430	 0.133156933906358 
1431	 0.133012213493371 
1432	 0.132873540464891 
1433	 0.13274115453441 
1434	 0.132599597141804 
1435	 0.132450556665006 
1436	 0.132309343348318 
1437	 0.13216070475937 
1438	 0.132020447439327 
1439	 0.13188609894873 
1440	 0.131765233362131 
1441	 0.131636567185646 
1442	 0.131506025517309 
1443	 0.131384022540706 
1444	 0.13125385467431 
1445	 0.131116913417229 
1446	 0.130994133115248 
1447	 0.130898938896286 
1448	 0.130809651144974 
1449	 0.130723861011813 
1450	 0.130660804834647 
1451	 0.130602106256559 
1452	 0.130538344647 
1453	 0.130494096830017 
1454	 0.13047236436633 
1455	 0.130455680811314 
1456	 0.130444747636476 
1457	 0.130440159432772 
1458	 0.130449065370244 
1459	 0.130460416593307 
1460	 0.130467490459157 
1461	 0.130500244626029 
1462	 0.130553016774036 
1463	 0.130604958676478 
1464	 0.130681106755325 
1465	 0.130738566185711 
1466	 0.130795777369794 
1467	 0.130843010096539 
1468	 0.130880935993467 
1469	 0.130911192826877 
1470	 0.130928387065898 
1471	 0.130945625903738 
1472	 0.130971154402176 
1473	 0.130993494135223 
1474	 0.131019878168708 
1475	 0.13104914509921 
1476	 0.131060508717477 
1477	 0.131064448442993 
1478	 0.131064526651325 
1479	 0.131063549946235 
1480	 0.131079929653965 
1481	 0.131095434396135 
1482	 0.13110112402023 
1483	 0.13111062140706 
1484	 0.131110172917746 
1485	 0.131089354151197 
1486	 0.131084787918604 
1487	 0.131092021318056 
1488	 0.131089186416285 
1489	 0.131088896627117 
1490	 0.131080493529238 
1491	 0.131055538566934 
1492	 0.131041213252046 
1493	 0.131029034517438 
1494	 0.131015826733073 
1495	 0.131008575257115 
1496	 0.131002135242476 
1497	 0.130997446181057 
1498	 0.130984150845494 
1499	 0.130972761979161 
1500	 0.130950993327477 
1501	 0.130918940671159 
1502	 0.130885030553771 
1503	 0.130840603456751 
1504	 0.130804961784945 
1505	 0.130769330944768 
1506	 0.130721718589991 
1507	 0.130688203735044 
1508	 0.130652899180433 
1509	 0.130617843999589 
1510	 0.130588892631766 
1511	 0.130558311789786 
1512	 0.130532714642556 
1513	 0.130486244907015 
1514	 0.130441156167986 
1515	 0.130420257645901 
1516	 0.130394495342095 
1517	 0.130371226002125 
1518	 0.130369648982516 
1519	 0.13034620725382 
1520	 0.13030285598295 
1521	 0.130271508196403 
1522	 0.130248069282872 
1523	 0.130211570909777 
1524	 0.130169767786018 
1525	 0.130128303022762 
1526	 0.130076764894096 
1527	 0.130031887751012 
1528	 0.129985715059424 
1529	 0.12995256395641 
1530	 0.129924051521627 
1531	 0.129902105405098 
1532	 0.129901418056151 
1533	 0.129876733828442 
1534	 0.129840965382003 
1535	 0.129812603955603 
1536	 0.129778076010518 
1537	 0.129748961328085 
1538	 0.1297279667716 
1539	 0.129699912717535 
1540	 0.129659876125356 
1541	 0.129631542102548 
1542	 0.129607051109687 
1543	 0.129589447300323 
1544	 0.129590206978506 
1545	 0.12957719535447 
1546	 0.129563491403762 
1547	 0.129549397216787 
1548	 0.129501590611441 
1549	 0.129441506165942 
1550	 0.129383146208353 
1551	 0.129312065236022 
1552	 0.129275176712376 
1553	 0.129243564820922 
1554	 0.129200629162977 
1555	 0.129182189683404 
1556	 0.129148497740997 
1557	 0.129099818267487 
1558	 0.129055705150408 
1559	 0.129005876261709 
1560	 0.128966779852189 
1561	 0.128933462022118 
1562	 0.128896167221561 
1563	 0.128870665777406 
1564	 0.128821625959036 
1565	 0.128753905446976 
1566	 0.128696380036831 
1567	 0.128629849768929 
1568	 0.12857444615995 
1569	 0.128535851379352 
1570	 0.128476166628343 
1571	 0.128403356182924 
1572	 0.128343068648523 
1573	 0.128274632986959 
1574	 0.12821900624302 
1575	 0.128184528868533 
1576	 0.128133581773585 
1577	 0.128076167033461 
1578	 0.12801957104657 
1579	 0.127956571669439 
1580	 0.127898853763078 
1581	 0.12783983431345 
1582	 0.12779115247008 
1583	 0.127757447740642 
1584	 0.12770512175102 
1585	 0.127650761060354 
1586	 0.127592612059688 
1587	 0.127519652782792 
1588	 0.127453279646024 
1589	 0.127388581808296 
1590	 0.127328173353998 
1591	 0.127260585032667 
1592	 0.127205710855132 
1593	 0.127175626643612 
1594	 0.127124864827437 
1595	 0.127070732868435 
1596	 0.127011611587404 
1597	 0.126928297578063 
1598	 0.126862864476845 
1599	 0.126812778522205 
1600	 0.126752200677698 
1601	 0.126697643875804 
1602	 0.126634752110258 
1603	 0.126557884916218 
1604	 0.126484653341631 
1605	 0.126410953152573 
1606	 0.126334317265005 
1607	 0.126245207143905 
1608	 0.126175875935001 
1609	 0.126105628852727 
1610	 0.126044644630547 
1611	 0.125990210321259 
1612	 0.125924890864168 
1613	 0.12585212179963 
1614	 0.125781476008543 
1615	 0.125703538021817 
1616	 0.1256344146948 
1617	 0.125580793048369 
1618	 0.125521194485565 
1619	 0.125450406141465 
1620	 0.12538290154171 
1621	 0.125317754178721 
1622	 0.125239090930225 
1623	 0.125180154247494 
1624	 0.125144588897096 
1625	 0.125077601852333 
1626	 0.124997530948202 
1627	 0.124935043487157 
1628	 0.124866739640787 
1629	 0.124802662082391 
1630	 0.124753705146831 
1631	 0.124692693896551 
1632	 0.12462105395681 
1633	 0.12455537812967 
1634	 0.124496823732697 
1635	 0.124426489612057 
1636	 0.124344936431545 
1637	 0.124275185900716 
1638	 0.124208081638053 
1639	 0.124137967473476 
1640	 0.124073050385185 
1641	 0.124002055776122 
1642	 0.123921880335503 
1643	 0.123851057371733 
1644	 0.123784802158959 
1645	 0.12371626681414 
1646	 0.123649968348319 
1647	 0.123581842339543 
1648	 0.12351653691513 
1649	 0.123440381285712 
1650	 0.123357037881674 
1651	 0.123278588833689 
1652	 0.123187058532928 
1653	 0.123117230434653 
1654	 0.123065236364015 
1655	 0.123002314174524 
1656	 0.122945121669118 
1657	 0.122883500541381 
1658	 0.122815386523749 
1659	 0.122749496322439 
1660	 0.12269340798554 
1661	 0.122616919854913 
1662	 0.122516973793717 
1663	 0.122445124615545 
1664	 0.122371931534169 
1665	 0.122310544978857 
1666	 0.122287066076927 
1667	 0.122223126903316 
1668	 0.122139978305726 
1669	 0.122060839345106 
1670	 0.121955749975872 
1671	 0.12188091906157 
1672	 0.12182536493115 
1673	 0.121761087933158 
1674	 0.121711393405374 
1675	 0.121645538998226 
1676	 0.121563589073637 
1677	 0.121493378421967 
1678	 0.121427730375502 
1679	 0.121353519605001 
1680	 0.121272696530267 
1681	 0.121207231845319 
1682	 0.121136070305622 
1683	 0.121081254536996 
1684	 0.121060496661095 
1685	 0.121006767543668 
1686	 0.120941790193958 
1687	 0.120878294121544 
1688	 0.120792489709147 
1689	 0.120729734163996 
1690	 0.12068938586287 
1691	 0.120626879761418 
1692	 0.120557111169193 
1693	 0.120496882690604 
1694	 0.120426913336542 
1695	 0.120365251361342 
1696	 0.120330707847128 
1697	 0.120262042509084 
1698	 0.120171593421087 
1699	 0.120088706513536 
1700	 0.119984157550876 
1701	 0.119906327269731 
1702	 0.119840241241927 
1703	 0.119782642785538 
1704	 0.119754090055546 
1705	 0.119692782357976 
1706	 0.119623248554983 
1707	 0.119554199256286 
1708	 0.119455803426157 
1709	 0.119389095939734 
1710	 0.119340155366945 
1711	 0.119291159869286 
1712	 0.119266909397705 
1713	 0.119211813603834 
1714	 0.119138787412327 
1715	 0.119079621061513 
1716	 0.119008870550523 
1717	 0.118946987700609 
1718	 0.118903628225082 
1719	 0.118848235639505 
1720	 0.118776852937293 
1721	 0.118726098192049 
1722	 0.118688325534945 
1723	 0.118644414465649 
1724	 0.118616913408869 
1725	 0.118560529415053 
1726	 0.118488738730367 
1727	 0.118412783591026 
1728	 0.118309240976037 
1729	 0.118236202043013 
1730	 0.118171746678727 
1731	 0.118115646242872 
1732	 0.118089803924336 
1733	 0.118022053835588 
1734	 0.117939299272703 
1735	 0.1178553937205 
1736	 0.117741148466038 
1737	 0.117657938512933 
1738	 0.11759326890919 
1739	 0.117519460086041 
1740	 0.117451979025002 
1741	 0.117383128536781 
1742	 0.117305111694813 
1743	 0.117241515509721 
1744	 0.117189334961173 
1745	 0.117120028344689 
1746	 0.117054442456724 
1747	 0.116976457013807 
1748	 0.116899375353379 
1749	 0.116838129572362 
1750	 0.116770730573774 
1751	 0.116720433266579 
1752	 0.116676457130161 
1753	 0.116610780850707 
1754	 0.116556733621088 
1755	 0.116462734327724 
1756	 0.116356885859928 
1757	 0.116314227819864 
1758	 0.11624867890476 
1759	 0.116196116519225 
1760	 0.116164203839349 
1761	 0.116082597638897 
1762	 0.116010684841667 
1763	 0.115973315598967 
1764	 0.115922574835168 
1765	 0.115858721525507 
1766	 0.11581043637605 
1767	 0.115730424563005 
1768	 0.115633946738896 
1769	 0.115565380497378 
1770	 0.115491530463327 
1771	 0.115428517327693 
1772	 0.115381445454412 
1773	 0.115325849471805 
1774	 0.115260553622698 
1775	 0.115199030398313 
1776	 0.115145963296534 
1777	 0.115092784923375 
1778	 0.115045106909478 
1779	 0.114989701687445 
1780	 0.114939325437112 
1781	 0.114892769159585 
1782	 0.114836574049092 
1783	 0.114819727991983 
1784	 0.114774648960597 
1785	 0.114729868019319 
1786	 0.11466739501442 
1787	 0.114560521250533 
1788	 0.114480995558529 
1789	 0.114403952514156 
1790	 0.114347109374426 
1791	 0.114318417567793 
1792	 0.114274575025564 
1793	 0.114231828117692 
1794	 0.114180976141723 
1795	 0.114120370642039 
1796	 0.114082188501737 
1797	 0.114066215391685 
1798	 0.114024651575051 
1799	 0.113968194013483 
1800	 0.113917471734694 
1801	 0.111751379023868 
1802	 0.111747316326645 
1803	 0.111712941985131 
1804	 0.111674181112605 
1805	 0.111640787205308 
1806	 0.111603860980534 
1807	 0.111572035990933 
1808	 0.111541545559553 
1809	 0.111495352106711 
1810	 0.111468895374704 
1811	 0.111452842600994 
1812	 0.111457169565566 
1813	 0.111430961289579 
1814	 0.111398650655405 
1815	 0.11135972241045 
1816	 0.111292790735547 
1817	 0.111254010311088 
1818	 0.111240080384889 
1819	 0.111201182609923 
1820	 0.111140947044419 
1821	 0.111125827506365 
1822	 0.111114371343631 
1823	 0.111103223019324 
1824	 0.111104140550267 
1825	 0.111096691584936 
1826	 0.111056972463354 
1827	 0.110992983337132 
1828	 0.110946565515544 
1829	 0.110896605491364 
1830	 0.110854628562909 
1831	 0.110817785702021 
1832	 0.110790890343631 
1833	 0.110759980255062 
1834	 0.110739301163691 
1835	 0.110698671054319 
1836	 0.110656200971117 
1837	 0.110625119759602 
1838	 0.110563933948839 
1839	 0.110520027845319 
1840	 0.110482915253023 
1841	 0.110458398518748 
1842	 0.110404565687465 
1843	 0.110371796896427 
1844	 0.110334072619778 
1845	 0.110278360340568 
1846	 0.110254340264055 
1847	 0.110228408081316 
1848	 0.110178930452199 
1849	 0.110132408951182 
1850	 0.110081660092021 
1851	 0.110023629634207 
1852	 0.109940181105515 
1853	 0.109868896161011 
1854	 0.109852128563727 
1855	 0.109846788441009 
1856	 0.109795985659696 
1857	 0.109719808981834 
1858	 0.10961799323558 
1859	 0.109485837448323 
1860	 0.109389896724739 
1861	 0.109322457678375 
1862	 0.109284182308342 
1863	 0.109218857167542 
1864	 0.109151903960593 
1865	 0.109055526187289 
1866	 0.108939547399398 
1867	 0.108837503612832 
1868	 0.108718519827632 
1869	 0.108606040293507 
1870	 0.108517542442606 
1871	 0.108403807571026 
1872	 0.108279809310281 
1873	 0.108149266662189 
1874	 0.10801059297438 
1875	 0.107854282155399 
1876	 0.107694955201897 
1877	 0.10752472845285 
1878	 0.107366303327817 
1879	 0.107196656972629 
1880	 0.107008342505666 
1881	 0.10680676356698 
1882	 0.106612124183768 
1883	 0.10640626940911 
1884	 0.106196413747713 
1885	 0.105970608365166 
1886	 0.105730583417376 
1887	 0.105473643284211 
1888	 0.105197026905629 
1889	 0.10491028809138 
1890	 0.104630722243832 
1891	 0.104325173416884 
1892	 0.103988709225332 
1893	 0.103638580889446 
1894	 0.103275062619623 
1895	 0.102898581435042 
1896	 0.102492311207665 
1897	 0.102099469082534 
1898	 0.101718865306456 
1899	 0.101309535379485 
1900	 0.100918799178075 
1901	 0.100550663637743 
1902	 0.100181314963743 
1903	 9.98250566811388E-02 
1904	 9.94712933060166E-02 
1905	 9.91327481575327E-02 
1906	 9.87687244527994E-02 
1907	 9.84083948923299E-02 
1908	 9.80605298231781E-02 
1909	 9.77361176336762E-02 
1910	 9.74364632300651E-02 
1911	 9.71221208345631E-02 
1912	 9.68139385249856E-02 
1913	 9.65241222784322E-02 
1914	 9.62261320587481E-02 
1915	 9.59473563310397E-02 
1916	 0.095690651805196 
1917	 9.54606805395547E-02 
1918	 9.52081606737131E-02 
1919	 9.49704868897651E-02 
1920	 9.47436952248425E-02 
1921	 9.44903113779146E-02 
1922	 9.42650102798299E-02 
1923	 9.40479718844646E-02 
1924	 9.38423389212491E-02 
1925	 9.36604923184352E-02 
1926	 9.34801219469355E-02 
1927	 9.33057382125569E-02 
1928	 9.31340819497289E-02 
1929	 0.092971433853628 
1930	 9.28098894281864E-02 
1931	 9.26602872633273E-02 
1932	 9.24919514565102E-02 
1933	 9.23334186310812E-02 
1934	 9.21915637398155E-02 
1935	 9.20462129154118E-02 
1936	 9.19041835919587E-02 
1937	 9.17711932474928E-02 
1938	 9.16582612648174E-02 
1939	 9.15179144009241E-02 
1940	 9.13718946214709E-02 
1941	 9.12122120232424E-02 
1942	 9.10511219539943E-02 
1943	 9.08903483577025E-02 
1944	 9.07588464677203E-02 
1945	 9.06447593132099E-02 
1946	 9.05177824459125E-02 
1947	 9.03925314749204E-02 
1948	 9.02697941977815E-02 
1949	 9.01295201592785E-02 
1950	 9.00154484140563E-02 
1951	 8.99129316813934E-02 
1952	 8.98277227130459E-02 
1953	 8.97483040205398E-02 
1954	 8.96697403287846E-02 
1955	 8.96120126094884E-02 
1956	 8.95571404963385E-02 
1957	 8.95230491692374E-02 
1958	 8.95061744552327E-02 
1959	 8.95073292031439E-02 
1960	 8.95248453163513E-02 
1961	 8.95533047193805E-02 
1962	 8.96112834607737E-02 
1963	 8.96603164485843E-02 
1964	 8.97079149176512E-02 
1965	 8.97678885236635E-02 
1966	 0.089846491772892 
1967	 8.99306254988596E-02 
1968	 9.00110565796167E-02 
1969	 9.01088016552946E-02 
1970	 9.01957866655622E-02 
1971	 0.090258734751052 
1972	 9.03499197390093E-02 
1973	 9.04588766261262E-02 
1974	 9.05681711973379E-02 
1975	 9.06929876774216E-02 
1976	 9.08122884703127E-02 
1977	 9.09251733319122E-02 
1978	 0.091048904481501 
1979	 9.11521090600693E-02 
1980	 9.12504591608592E-02 
1981	 0.091344383209945 
1982	 9.14281161802742E-02 
1983	 0.091507497438285 
1984	 9.15817649954045E-02 
1985	 0.091655023070009 
1986	 9.17188883881662E-02 
1987	 9.17874099917044E-02 
1988	 9.18518809048302E-02 
1989	 9.19299456688639E-02 
1990	 9.19897545412098E-02 
1991	 9.20667675947536E-02 
1992	 9.21425301870908E-02 
1993	 9.22074915762314E-02 
1994	 9.22944541109358E-02 
1995	 9.24036419565487E-02 
1996	 9.25024556938816E-02 
1997	 0.092611120166495 
1998	 9.27180120391735E-02 
1999	 0.092821714846457 
2000	 9.29196642743049E-02 
2001	 9.30149898731297E-02 
2002	 9.31142192608114E-02 
2003	 9.32005608128179E-02 
2004	 9.33022779734231E-02 
2005	 9.34125824161531E-02 
2006	 9.35374686165314E-02 
2007	 9.36516745772366E-02 
2008	 9.37716061415879E-02 
2009	 0.093888771139375 
2010	 9.40042084858984E-02 
2011	 9.41146573932113E-02 
2012	 9.42323649313811E-02 
2013	 9.43367776369289E-02 
2014	 9.44312616797241E-02 
2015	 9.45188107439803E-02 
2016	 9.45963599594069E-02 
2017	 9.46559281581622E-02 
2018	 9.47358952920573E-02 
2019	 9.48193314041164E-02 
2020	 9.48985938599514E-02 
2021	 9.49979935534399E-02 
2022	 9.50707041152998E-02 
2023	 9.51191954748201E-02 
2024	 9.51729498137234E-02 
2025	 9.52043590967224E-02 
2026	 9.52628437444879E-02 
2027	 9.53476719750797E-02 
2028	 9.54156973210875E-02 
2029	 9.54715253876053E-02 
2030	 9.55327103570836E-02 
2031	 9.55828857205852E-02 
2032	 9.56077293066239E-02 
2033	 9.56506315971272E-02 
2034	 9.57098736252578E-02 
2035	 9.57531082967917E-02 
2036	 9.57782718447261E-02 
2037	 9.58157371423738E-02 
2038	 9.58614535052056E-02 
2039	 9.58977838940372E-02 
2040	 9.59333379457868E-02 
2041	 9.59773503486308E-02 
2042	 9.59885460806007E-02 
2043	 9.59921271027354E-02 
2044	 9.60122749311131E-02 
2045	 9.60340792124906E-02 
2046	 9.60511269543935E-02 
2047	 9.60865746611527E-02 
2048	 9.60975626170713E-02 
2049	 9.60761118211108E-02 
2050	 9.60816735307347E-02 
2051	 0.096090915822877 
2052	 9.61034700562813E-02 
2053	 9.61337700666196E-02 
2054	 9.61552412469305E-02 
2055	 0.096173519567966 
2056	 0.096191257743757 
2057	 9.62046712398784E-02 
2058	 9.62093351453419E-02 
2059	 9.62315020264072E-02 
2060	 9.62780017602881E-02 
2061	 9.62758258265805E-02 
2062	 9.62499741184688E-02 
2063	 9.62470318445502E-02 
2064	 9.62066264939044E-02 
2065	 9.62017100797573E-02 
2066	 9.62521266167361E-02 
2067	 9.62710199965384E-02 
2068	 9.62769808478901E-02 
2069	 9.62838416602925E-02 
2070	 9.62978843695398E-02 
2071	 9.63068685032893E-02 
2072	 9.63268990706451E-02 
2073	 9.63691779493961E-02 
2074	 9.63795835043394E-02 
2075	 9.63759771489244E-02 
2076	 0.09637893110598 
2077	 9.63616096096019E-02 
2078	 0.096362385236638 
2079	 9.63776818816036E-02 
2080	 9.63897602705603E-02 
2081	 9.64021306056467E-02 
2082	 9.64191864521597E-02 
2083	 9.64481560890558E-02 
2084	 0.09646555103935 
2085	 9.64819616200817E-02 
2086	 9.64904514302576E-02 
2087	 9.65196212856311E-02 
2088	 9.65668134750003E-02 
2089	 9.65807503097917E-02 
2090	 9.65893669028005E-02 
2091	 9.66036098753163E-02 
2092	 9.65858464514185E-02 
2093	 9.65946581692708E-02 
2094	 9.66386405252741E-02 
2095	 9.66625537077154E-02 
2096	 9.66658479990225E-02 
2097	 9.66895594386208E-02 
2098	 9.67176435042841E-02 
2099	 9.67504783659236E-02 
2100	 9.68028410878795E-02 
2101	 9.68919003195914E-02 
2102	 9.69357030504195E-02 
2103	 9.69732422558445E-02 
2104	 9.70067960362765E-02 
2105	 9.70083095463788E-02 
2106	 9.70337128667178E-02 
2107	 9.70782272590724E-02 
2108	 9.71077157759922E-02 
2109	 9.71333000987123E-02 
2110	 9.71580260791833E-02 
2111	 9.71743741431583E-02 
2112	 9.71965216413378E-02 
2113	 9.72100065365157E-02 
2114	 9.72413043362053E-02 
2115	 9.72833266128985E-02 
2116	 9.73372579370587E-02 
2117	 9.73834646163065E-02 
2118	 9.74436655224909E-02 
2119	 9.74918804925765E-02 
2120	 9.75296238113469E-02 
2121	 9.75734602064825E-02 
2122	 9.76254728087119E-02 
2123	 9.76649121798747E-02 
2124	 9.76997687714402E-02 
2125	 9.77266905027338E-02 
2126	 9.77472597059398E-02 
2127	 9.77615423036414E-02 
2128	 9.77555726248505E-02 
2129	 9.77661863070025E-02 
2130	 9.77929600722495E-02 
2131	 9.77997632601823E-02 
2132	 9.78026241640591E-02 
2133	 9.78045499309716E-02 
2134	 9.78132007030623E-02 
2135	 0.097811518307823 
2136	 9.78136990509969E-02 
2137	 9.78441219062643E-02 
2138	 0.097835327023644 
2139	 9.77849432258027E-02 
2140	 9.77660284114405E-02 
2141	 9.77541998444013E-02 
2142	 9.77315275557709E-02 
2143	 9.77198004122612E-02 
2144	 9.77001028253177E-02 
2145	 9.76730199313624E-02 
2146	 9.76314095145331E-02 
2147	 9.75799385965305E-02 
2148	 9.75310718686056E-02 
2149	 9.74765678590619E-02 
2150	 9.74049364258166E-02 
2151	 0.097336914559726 
2152	 9.72754154609669E-02 
2153	 9.72072387702675E-02 
2154	 9.71239203686551E-02 
2155	 9.70519185617984E-02 
2156	 0.096991967524774 
2157	 9.69190277214979E-02 
2158	 9.68500655706998E-02 
2159	 9.67630427622504E-02 
2160	 9.66509388434882E-02 
2161	 9.65540187310119E-02 
2162	 9.64506287049589E-02 
2163	 0.09635372980305 
2164	 9.62713586110071E-02 
2165	 9.61813215784768E-02 
2166	 9.61034040219277E-02 
2167	 9.60391052600099E-02 
2168	 9.59445909243237E-02 
2169	 9.58409601448529E-02 
2170	 9.57456492823693E-02 
2171	 9.56194816930185E-02 
2172	 9.55308692783704E-02 
2173	 9.54838471786953E-02 
2174	 0.095408438985228 
2175	 0.095324457257438 
2176	 9.52483829794097E-02 
2177	 9.51526012619141E-02 
2178	 9.50847205245423E-02 
2179	 9.50590813850076E-02 
2180	 9.50046233379931E-02 
2181	 9.49451849542096E-02 
2182	 9.48877596138624E-02 
2183	 9.48219696462796E-02 
2184	 9.47427955850458E-02 
2185	 9.46653464187574E-02 
2186	 9.45856074460281E-02 
2187	 9.45225629728559E-02 
2188	 9.44619193494575E-02 
2189	 9.43927377326763E-02 
2190	 9.43349716115331E-02 
2191	 9.42750338621327E-02 
2192	 9.41985120761253E-02 
2193	 9.41333958623708E-02 
2194	 9.40795232021826E-02 
2195	 9.40328467671817E-02 
2196	 9.39881873523456E-02 
2197	 9.39419633081061E-02 
2198	 9.39057710127724E-02 
2199	 9.38704001797609E-02 
2200	 9.38273826584788E-02 
2201	 9.37937459959708E-02 
2202	 9.37812047595388E-02 
2203	 9.37622103826471E-02 
2204	 9.37150461130194E-02 
2205	 9.36461650474786E-02 
2206	 9.36003203697038E-02 
2207	 9.35331054801756E-02 
2208	 9.34976801766498E-02 
2209	 9.35014632788139E-02 
2210	 9.34763032900189E-02 
2211	 9.34323626779295E-02 
2212	 9.34199323911562E-02 
2213	 9.34328527233277E-02 
2214	 9.34159417788491E-02 
2215	 9.34039061414982E-02 
2216	 9.33852854891654E-02 
2217	 9.33300205052621E-02 
2218	 9.32977415703046E-02 
2219	 9.32817833948489E-02 
2220	 9.32691889730296E-02 
2221	 9.32736153824074E-02 
2222	 0.093257301018576 
2223	 9.32324469671118E-02 
2224	 9.32306109123607E-02 
2225	 9.32156229370137E-02 
2226	 9.31901592457655E-02 
2227	 9.31628187015406E-02 
2228	 9.31319539836039E-02 
2229	 9.31150288321778E-02 
2230	 9.30919684736052E-02 
2231	 0.093086500120466 
2232	 9.31084268135001E-02 
2233	 9.31100876346922E-02 
2234	 9.31094363360506E-02 
2235	 9.31045645871553E-02 
2236	 9.30816586746291E-02 
2237	 0.093082760533491 
2238	 9.31146966054754E-02 
2239	 9.31040961755669E-02 
2240	 9.30720346147471E-02 
2241	 9.30605639220165E-02 
2242	 9.30356482527941E-02 
2243	 9.30094438303572E-02 
2244	 9.29991840366292E-02 
2245	 9.29958962957085E-02 
2246	 9.29602454772207E-02 
2247	 9.29081797727858E-02 
2248	 9.28851845702917E-02 
2249	 9.28774177278685E-02 
2250	 9.28574118696802E-02 
2251	 9.28493211820822E-02 
2252	 9.28242990789892E-02 
2253	 9.27709844123094E-02 
2254	 9.27577025776885E-02 
2255	 9.27704925546415E-02 
2256	 9.27520056078595E-02 
2257	 9.27431970814938E-02 
2258	 9.27228964765424E-02 
2259	 9.26600267882976E-02 
2260	 9.26364215671626E-02 
2261	 9.26449528326929E-02 
2262	 9.26312665296963E-02 
2263	 9.26130756517174E-02 
2264	 9.26063019677902E-02 
2265	 9.25962611808556E-02 
2266	 9.25873495357895E-02 
2267	 9.26118322121834E-02 
2268	 0.092596482530594 
2269	 9.25334927481434E-02 
2270	 9.25061596895797E-02 
2271	 9.24768166397604E-02 
2272	 9.24323246610705E-02 
2273	 9.24138741958113E-02 
2274	 9.23855151477695E-02 
2275	 9.23618762139681E-02 
2276	 9.23447307709726E-02 
2277	 9.22995944553029E-02 
2278	 9.22304479358011E-02 
2279	 9.21999592032614E-02 
2280	 9.21594535962064E-02 
2281	 9.21311974039169E-02 
2282	 9.21565389125365E-02 
2283	 0.092136955926954 
2284	 9.20850410075157E-02 
2285	 9.20489091246768E-02 
2286	 9.20046604286685E-02 
2287	 9.19726351781149E-02 
2288	 9.19512196516936E-02 
2289	 9.19213536692621E-02 
2290	 9.18907005740884E-02 
2291	 9.18627278046725E-02 
2292	 9.18426013847845E-02 
2293	 9.18041872012917E-02 
2294	 9.17575723687731E-02 
2295	 9.17169770656551E-02 
2296	 9.16736428160647E-02 
2297	 9.16043730348141E-02 
2298	 9.15788275519997E-02 
2299	 9.15385199170843E-02 
2300	 9.14758122067608E-02 
2301	 9.14529447743334E-02 
2302	 9.13768936703439E-02 
2303	 0.09126506785405 
2304	 9.11782594485158E-02 
2305	 9.10461540102287E-02 
2306	 9.09018842797476E-02 
2307	 9.07306518791789E-02 
2308	 9.06035630045576E-02 
2309	 9.04467789558089E-02 
2310	 9.03583359515066E-02 
2311	 9.03490238260298E-02 
2312	 9.02757426599102E-02 
2313	 9.02142883377877E-02 
2314	 9.01271203835099E-02 
2315	 9.00051702543135E-02 
2316	 8.99049299098209E-02 
2317	 8.97862125420869E-02 
2318	 8.96838247016545E-02 
2319	 8.95789858169335E-02 
2320	 8.95002314681763E-02 
2321	 0.089477712904974 
2322	 8.94166696886467E-02 
2323	 8.93209464180853E-02 
2324	 8.92780620576682E-02 
2325	 8.92495650086865E-02 
2326	 8.92131828462092E-02 
2327	 8.92288619511297E-02 
2328	 8.92035853690471E-02 
2329	 8.91651875939835E-02 
2330	 8.90928102211897E-02 
2331	 8.90203586991277E-02 
2332	 8.89991819847442E-02 
2333	 8.89413351933005E-02 
2334	 8.89075792316876E-02 
2335	 8.88964682178632E-02 
2336	 0.088885025915494 
2337	 8.88932864445792E-02 
2338	 8.88557726217075E-02 
2339	 8.88442561661779E-02 
2340	 8.88294034562663E-02 
2341	 8.88201158836858E-02 
2342	 8.88614463520327E-02 
2343	 8.88668796154971E-02 
2344	 0.088868751564313 
2345	 8.88287580159037E-02 
2346	 8.87302529559007E-02 
2347	 8.86799268621831E-02 
2348	 8.86232574188775E-02 
2349	 8.85876023483917E-02 
2350	 8.86065711717383E-02 
2351	 8.85525015675769E-02 
2352	 8.84384776950436E-02 
2353	 8.83855586335757E-02 
2354	 8.83230741275259E-02 
2355	 8.82936548434217E-02 
2356	 8.83684362517222E-02 
2357	 8.83182752863033E-02 
2358	 8.81935723453293E-02 
2359	 8.81045825819116E-02 
2360	 8.79300642424155E-02 
2361	 8.78446550440044E-02 
2362	 8.78490396227457E-02 
2363	 8.78100918464049E-02 
2364	 0.087806560814936 
2365	 8.77751873136835E-02 
2366	 8.77273933848038E-02 
2367	 8.76367168429047E-02 
2368	 8.74567761039379E-02 
2369	 8.73719216384036E-02 
2370	 8.73120609759711E-02 
2371	 8.72416882144225E-02 
2372	 8.72746365288138E-02 
2373	 8.72871057592229E-02 
2374	 8.71379383590642E-02 
2375	 8.70027245413585E-02 
2376	 8.67937825286042E-02 
2377	 8.65793574497103E-02 
2378	 8.64676635017019E-02 
2379	 8.63507919297355E-02 
2380	 8.62866995493278E-02 
2381	 8.62470270566448E-02 
2382	 8.61287586447203E-02 
2383	 8.60092624461611E-02 
2384	 8.59349397225121E-02 
2385	 8.58186695457883E-02 
2386	 8.57840088132025E-02 
2387	 8.57794911876779E-02 
2388	 8.56585941788645E-02 
2389	 8.55860621079296E-02 
2390	 8.55439106215252E-02 
2391	 8.54832668795182E-02 
2392	 8.54012845867429E-02 
2393	 8.52684540840896E-02 
2394	 8.51210830666433E-02 
2395	 8.49835454306547E-02 
2396	 8.49056944940793E-02 
2397	 0.084868303645462 
2398	 8.47828036029533E-02 
2399	 8.46701754254841E-02 
2400	 8.45848047861301E-02 
2401	 8.45267295015563E-02 
2402	 8.44702348078903E-02 
2403	 8.43494115941212E-02 
2404	 8.41862584324077E-02 
2405	 8.39753139418236E-02 
2406	 8.37038666129352E-02 
2407	 8.35296892418695E-02 
2408	 8.34663228917156E-02 
2409	 8.34400026762978E-02 
2410	 8.34294656206832E-02 
2411	 8.33484123090432E-02 
2412	 8.32211220487665E-02 
2413	 0.083080685171934 
2414	 8.29323986484612E-02 
2415	 8.28203222389029E-02 
2416	 8.26952273230894E-02 
2417	 8.25136324556607E-02 
2418	 8.24121953676591E-02 
2419	 8.23955258029871E-02 
2420	 8.22732360579293E-02 
2421	 8.21221813959791E-02 
2422	 8.19961107219737E-02 
2423	 8.18318547951329E-02 
2424	 8.17370780895128E-02 
2425	 8.17301602399886E-02 
2426	 8.16286562582482E-02 
2427	 8.14475665701481E-02 
2428	 8.13304871273572E-02 
2429	 8.12250860973872E-02 
2430	 0.081131729420795 
2431	 8.10944524904984E-02 
2432	 0.080967166006945 
2433	 8.07455007025633E-02 
2434	 8.06018113610673E-02 
2435	 0.080520409746622 
2436	 8.04326453281146E-02 
2437	 8.03678849076711E-02 
2438	 8.02829283707533E-02 
2439	 8.01695931931161E-02 
2440	 8.00077388953078E-02 
2441	 7.98506275267859E-02 
2442	 7.96888803780771E-02 
2443	 7.94382499027387E-02 
2444	 7.92582190551851E-02 
2445	 7.90909309110811E-02 
2446	 7.89902802017364E-02 
2447	 7.90028225528881E-02 
2448	 7.89139205862499E-02 
2449	 7.88751504701398E-02 
2450	 7.87201066864251E-02 
2451	 0.078358070983098 
2452	 7.81773669211668E-02 
2453	 7.80693672295309E-02 
2454	 7.78772377214934E-02 
2455	 7.77394140257988E-02 
2456	 7.75780528451204E-02 
2457	 7.72942562843049E-02 
2458	 7.71387540104796E-02 
2459	 7.70742564104331E-02 
2460	 7.69933764100077E-02 
2461	 7.69828633092819E-02 
2462	 7.69094111926964E-02 
2463	 7.68130509725491E-02 
2464	 7.66411935025983E-02 
2465	 7.64273919076932E-02 
2466	 7.62417273819779E-02 
2467	 7.59878911336675E-02 
2468	 7.58613328129337E-02 
2469	 7.57720256714188E-02 
2470	 7.57855367095737E-02 
2471	 0.07570438460297 
2472	 7.54425113630249E-02 
2473	 7.52553027992342E-02 
2474	 7.49642748483128E-02 
2475	 7.47177599550404E-02 
2476	 7.46438668307117E-02 
2477	 0.074424717445692 
2478	 7.40905935496552E-02 
2479	 7.38499575500896E-02 
2480	 7.37416848598139E-02 
2481	 7.37293736517517E-02 
2482	 7.36685196450588E-02 
2483	 7.34686429434912E-02 
2484	 0.073240198340047 
2485	 7.30383716688819E-02 
2486	 7.27997675174992E-02 
2487	 7.26341054211933E-02 
2488	 7.23535990392164E-02 
2489	 0.071945975986902 
2490	 7.18182370327235E-02 
2491	 7.18266181924129E-02 
2492	 0.071887667895614 
2493	 7.19309511812239E-02 
2494	 7.18290213971023E-02 
2495	 7.16612842787273E-02 
2496	 7.13734443402021E-02 
2497	 7.11409203839522E-02 
2498	 7.09546555862907E-02 
2499	 7.08218128998808E-02 
2500	 7.08143095016987E-02 
