Wavelength	LMW_1400005.asd
350	 6.27432920425762E-02 
351	 7.47455640282907E-02 
352	 7.93199965796303E-02 
353	 6.77060387902457E-02 
354	 6.60080871376738E-02 
355	 6.96231305971574E-02 
356	 7.22597539647162E-02 
357	 7.05190463675813E-02 
358	 7.57297483085786E-02 
359	 7.08945050226236E-02 
360	 6.32611066123783E-02 
361	 7.28044226411368E-02 
362	 7.48556083553522E-02 
363	 7.17595924714406E-02 
364	 6.91752427103419E-02 
365	 7.25636075734297E-02 
366	 7.17857284599659E-02 
367	 6.83076098739977E-02 
368	 6.65171284344258E-02 
369	 6.85809275402136E-02 
370	 6.90283852399718E-02 
371	 6.86420719687791E-02 
372	 0.071719694586261 
373	 6.94981825246586E-02 
374	 6.78723375305334E-02 
375	 6.95351339577151E-02 
376	 0.068390557469927 
377	 6.80650634040709E-02 
378	 6.93567034210418E-02 
379	 7.14721386534467E-02 
380	 7.09749931971459E-02 
381	 6.94000611060456E-02 
382	 6.83872580901275E-02 
383	 6.92694317848636E-02 
384	 7.05918675726434E-02 
385	 0.071272583291344 
386	 7.05838712537932E-02 
387	 6.77494276865052E-02 
388	 7.00251811355179E-02 
389	 7.21458716851584E-02 
390	 6.81442111454579E-02 
391	 6.92640860513894E-02 
392	 7.02814833007421E-02 
393	 7.06563318881036E-02 
394	 7.39090989914102E-02 
395	 7.24829406350787E-02 
396	 7.10338006577034E-02 
397	 7.24951633301866E-02 
398	 0.071706339154635 
399	 7.15123613294884E-02 
400	 7.19754639088487E-02 
401	 7.21345413437412E-02 
402	 7.09802158399075E-02 
403	 7.11384742855042E-02 
404	 7.25926914751541E-02 
405	 7.25867149975911E-02 
406	 7.17958299308392E-02 
407	 7.18965716814146E-02 
408	 7.30606638466767E-02 
409	 7.08924755545293E-02 
410	 7.03709426360005E-02 
411	 7.13731740911922E-02 
412	 7.16265582333411E-02 
413	 7.24937673029956E-02 
414	 7.26845776221164E-02 
415	 7.20466325298678E-02 
416	 7.20967579305616E-02 
417	 7.22295732246214E-02 
418	 0.072278020852071 
419	 7.23160152687963E-02 
420	 7.29845882544446E-02 
421	 7.32279393137686E-02 
422	 7.31003025554809E-02 
423	 7.33176186002812E-02 
424	 7.33225077718215E-02 
425	 7.29891973148948E-02 
426	 7.26319039923402E-02 
427	 7.33288204841319E-02 
428	 7.35275278596928E-02 
429	 7.34477587821046E-02 
430	 0.07367525154696 
431	 7.34627971808016E-02 
432	 0.073635243997487 
433	 7.40744596794426E-02 
434	 7.37640658905254E-02 
435	 7.38796919320295E-02 
436	 7.42522285631117E-02 
437	 7.44717514050054E-02 
438	 7.41442899956359E-02 
439	 7.41685497326944E-02 
440	 7.45376998248929E-02 
441	 7.48057879725838E-02 
442	 7.50932559775703E-02 
443	 7.52783193945747E-02 
444	 7.53625824254257E-02 
445	 7.55593162529242E-02 
446	 7.56130439743697E-02 
447	 7.57470394779998E-02 
448	 7.61420528631609E-02 
449	 7.61860433661353E-02 
450	 7.64425694034356E-02 
451	 7.68947711848729E-02 
452	 7.70347724957575E-02 
453	 7.71889258996407E-02 
454	 7.72665434951367E-02 
455	 7.72498984380544E-02 
456	 7.74927936229719E-02 
457	 7.75470781278631E-02 
458	 7.75967873739447E-02 
459	 7.80246325888607E-02 
460	 7.83992424163301E-02 
461	 7.85828737888665E-02 
462	 7.86600795582257E-02 
463	 7.89815992189199E-02 
464	 7.90842723466264E-02 
465	 7.92118937249168E-02 
466	 7.96350000281507E-02 
467	 0.079920968356924 
468	 8.02458303894782E-02 
469	 8.05484298700132E-02 
470	 8.05929167212022E-02 
471	 8.06281824787926E-02 
472	 8.09551718457578E-02 
473	 8.14771685101472E-02 
474	 8.10616537405337E-02 
475	 8.12973427379778E-02 
476	 8.19608997700453E-02 
477	 8.21460076736359E-02 
478	 8.23843080464957E-02 
479	 8.25359224072631E-02 
480	 8.26332446144937E-02 
481	 0.083017532803787 
482	 8.34027524141614E-02 
483	 8.36272065556596E-02 
484	 8.36933173222098E-02 
485	 8.41171323523603E-02 
486	 8.43749916333533E-02 
487	 8.44271445364708E-02 
488	 8.46407968640348E-02 
489	 8.48103826099986E-02 
490	 8.50164552330842E-02 
491	 8.53063841201822E-02 
492	 0.0855553113534 
493	 8.56363881162593E-02 
494	 8.56852079903388E-02 
495	 8.59330363076797E-02 
496	 8.62744999555912E-02 
497	 0.08645862964381 
498	 8.64913632266321E-02 
499	 8.67780652457034E-02 
500	 8.68968057516995E-02 
501	 8.69553134402386E-02 
502	 8.71403384051473E-02 
503	 8.72715258505506E-02 
504	 8.73593784043704E-02 
505	 8.74627432448022E-02 
506	 8.76727494705327E-02 
507	 8.79605371769808E-02 
508	 8.82279847612136E-02 
509	 8.83783781784171E-02 
510	 8.83276190760828E-02 
511	 8.83470846652971E-02 
512	 8.84482986918349E-02 
513	 8.85186154934816E-02 
514	 8.87419599602935E-02 
515	 0.088874137539954 
516	 0.088875361672673 
517	 8.91405479295847E-02 
518	 8.92912009176064E-02 
519	 8.93144073291734E-02 
520	 8.93372402801716E-02 
521	 8.95379250090382E-02 
522	 8.97290844869889E-02 
523	 8.98318500392296E-02 
524	 8.99036415740372E-02 
525	 8.99433136613076E-02 
526	 8.99996240811808E-02 
527	 9.00958307935888E-02 
528	 9.01502078568524E-02 
529	 9.01779976490482E-02 
530	 9.02468424498705E-02 
531	 9.04340124469584E-02 
532	 9.04933627535234E-02 
533	 9.05694651395044E-02 
534	 9.07431663947037E-02 
535	 0.090845504194038 
536	 9.09540442002998E-02 
537	 9.10452497823681E-02 
538	 9.10799098511222E-02 
539	 9.11591223101739E-02 
540	 9.12920318081196E-02 
541	 9.14464116977953E-02 
542	 9.15502629621941E-02 
543	 9.15333660838638E-02 
544	 9.15357721291862E-02 
545	 9.16820458160567E-02 
546	 9.17989948583196E-02 
547	 9.18295060473179E-02 
548	 9.18474315919328E-02 
549	 9.20185242418362E-02 
550	 9.21065797463132E-02 
551	 9.21773680874446E-02 
552	 9.23017216695846E-02 
553	 9.24221943866877E-02 
554	 9.24808584000752E-02 
555	 9.25251494197921E-02 
556	 9.26429102334775E-02 
557	 9.27176016981888E-02 
558	 9.27754883430972E-02 
559	 9.28541684188741E-02 
560	 9.29905531556999E-02 
561	 9.30407875998706E-02 
562	 9.30672953765446E-02 
563	 9.31849251571218E-02 
564	 9.33724956024204E-02 
565	 9.34516646937067E-02 
566	 9.34343700573324E-02 
567	 0.093549443801581 
568	 9.36653897476208E-02 
569	 9.37393804646685E-02 
570	 9.37615503615355E-02 
571	 9.37531864260857E-02 
572	 9.37963635852271E-02 
573	 9.38837043571161E-02 
574	 9.39427410588422E-02 
575	 9.39536191876693E-02 
576	 9.39881537624895E-02 
577	 9.40810281535495E-02 
578	 9.41542115370134E-02 
579	 9.42328049161058E-02 
580	 9.43243690178968E-02 
581	 9.44197657159691E-02 
582	 9.44402737283587E-02 
583	 9.44328441003152E-02 
584	 9.44130866154731E-02 
585	 9.43291624317046E-02 
586	 9.44075276867965E-02 
587	 0.094527951176309 
588	 9.45339718099176E-02 
589	 9.46018945094459E-02 
590	 9.46678223016981E-02 
591	 9.46869618724784E-02 
592	 9.46433729131924E-02 
593	 9.45977368930288E-02 
594	 0.094550845118103 
595	 9.45054930080415E-02 
596	 9.45025405208325E-02 
597	 9.45461722990347E-02 
598	 9.46034311874808E-02 
599	 9.46326739975892E-02 
600	 9.47273246898559E-02 
601	 9.48253894154859E-02 
602	 0.094883899402635 
603	 9.49271298901816E-02 
604	 9.49312052057736E-02 
605	 9.49546852230741E-02 
606	 9.50588685043464E-02 
607	 9.51581478487239E-02 
608	 9.52258449666743E-02 
609	 0.095276669431355 
610	 9.53660501135492E-02 
611	 9.53424445102475E-02 
612	 9.53368712383091E-02 
613	 9.54507198602396E-02 
614	 9.54465170557498E-02 
615	 9.54350381845886E-02 
616	 9.54585738022394E-02 
617	 9.55056879296966E-02 
618	 9.55412726819556E-02 
619	 9.55471433958114E-02 
620	 9.55318647542626E-02 
621	 9.55501701781518E-02 
622	 9.56048442513729E-02 
623	 9.56515433118211E-02 
624	 9.56456592986622E-02 
625	 9.56943922565465E-02 
626	 9.57570157174865E-02 
627	 9.57982543877683E-02 
628	 0.095805669420525 
629	 9.58322274965713E-02 
630	 9.58816881201789E-02 
631	 9.59406404135717E-02 
632	 9.59947298341852E-02 
633	 9.60249224329866E-02 
634	 9.60434239737633E-02 
635	 9.60888829626883E-02 
636	 9.61993362785233E-02 
637	 9.62758291653659E-02 
638	 9.62651502805136E-02 
639	 9.62767629745381E-02 
640	 9.63233862177254E-02 
641	 9.64051535591157E-02 
642	 9.65024229895712E-02 
643	 0.096545089216373 
644	 9.65660878130704E-02 
645	 0.096604006562102 
646	 9.66915684314658E-02 
647	 0.09672320891695 
648	 9.67555624881641E-02 
649	 9.68610740221359E-02 
650	 9.69723594373374E-02 
651	 9.70147266053631E-02 
652	 9.70219959380892E-02 
653	 9.71138655969277E-02 
654	 9.71895565112923E-02 
655	 9.72539689077989E-02 
656	 9.73156024458832E-02 
657	 0.097335708167074 
658	 0.09740255320604 
659	 9.74989242999027E-02 
660	 9.75643795309535E-02 
661	 9.76444378768818E-02 
662	 9.77087735422934E-02 
663	 9.77474978062824E-02 
664	 9.77879610306296E-02 
665	 9.78733987993182E-02 
666	 9.79631378532696E-02 
667	 9.80110539837957E-02 
668	 9.80625121438281E-02 
669	 9.81038143187581E-02 
670	 9.81398338314348E-02 
671	 9.81908760295638E-02 
672	 9.82531548446334E-02 
673	 9.83242789934953E-02 
674	 9.83997148027613E-02 
675	 9.84762821254369E-02 
676	 9.84929457744203E-02 
677	 9.85230947649335E-02 
678	 9.86608461413115E-02 
679	 9.86920094183727E-02 
680	 0.098731080684583 
681	 9.88141972266606E-02 
682	 0.09883946493455 
683	 9.88632382794803E-02 
684	 9.89135006539137E-02 
685	 9.89900562580288E-02 
686	 9.90161526829746E-02 
687	 9.90628085225356E-02 
688	 9.91355640548469E-02 
689	 9.91922564742878E-02 
690	 0.099236439360612 
691	 9.92593144531861E-02 
692	 9.92716492015305E-02 
693	 9.93306626461165E-02 
694	 9.93333757303383E-02 
695	 9.93340208788753E-02 
696	 0.099414459178975 
697	 0.09947038690952 
698	 9.95007053452235E-02 
699	 9.95257255857039E-02 
700	 9.95795574764873E-02 
701	 9.96212070287539E-02 
702	 9.96392869779941E-02 
703	 9.96446655487159E-02 
704	 9.96931890464266E-02 
705	 9.97224197252054E-02 
706	 9.97339818453258E-02 
707	 9.97590960459065E-02 
708	 9.97709540299046E-02 
709	 9.97750438388507E-02 
710	 9.97872753721235E-02 
711	 9.98351089754688E-02 
712	 9.98381238035797E-02 
713	 0.099832523129092 
714	 9.98595613871122E-02 
715	 9.98423491349053E-02 
716	 9.98370887177975E-02 
717	 9.98619850366495E-02 
718	 9.98980276350267E-02 
719	 9.98550341967312E-02 
720	 9.98302056092661E-02 
721	 9.98603874001014E-02 
722	 9.98084325138299E-02 
723	 0.099799269583256 
724	 9.98232618584939E-02 
725	 9.98293049085355E-02 
726	 9.98101459677047E-02 
727	 9.97697931487342E-02 
728	 9.97358794156503E-02 
729	 9.97494410558465E-02 
730	 9.96970710836376E-02 
731	 9.96492658285746E-02 
732	 9.96533930880939E-02 
733	 9.96205330695463E-02 
734	 9.95823863931546E-02 
735	 9.95369504974381E-02 
736	 9.94813595845721E-02 
737	 9.94856130246416E-02 
738	 9.94624726039262E-02 
739	 9.94039591488377E-02 
740	 9.93972074628587E-02 
741	 9.93474364778662E-02 
742	 9.92846273267945E-02 
743	 9.92433711283465E-02 
744	 9.92008576150327E-02 
745	 9.91119039105757E-02 
746	 9.90515566815333E-02 
747	 9.91091060825667E-02 
748	 0.099041682080717 
749	 9.89451285605993E-02 
750	 9.88829948665947E-02 
751	 9.88411103916935E-02 
752	 9.87973475743494E-02 
753	 9.87656584961921E-02 
754	 9.87502834311495E-02 
755	 9.86999372821735E-02 
756	 9.86563634771436E-02 
757	 9.86020849648373E-02 
758	 9.85056865311726E-02 
759	 9.84690830177624E-02 
760	 9.84277607765902E-02 
761	 9.83637564670952E-02 
762	 9.83359524648006E-02 
763	 9.83105630105922E-02 
764	 9.82545105477153E-02 
765	 9.81673698699266E-02 
766	 9.81456855709665E-02 
767	 9.80971387324233E-02 
768	 9.80202629050531E-02 
769	 9.79572448476775E-02 
770	 9.78970095517699E-02 
771	 9.78491946027045E-02 
772	 9.78086374151691E-02 
773	 9.77519132394049E-02 
774	 0.097688087515141 
775	 9.76424709765272E-02 
776	 9.76182821712608E-02 
777	 0.097548070034243 
778	 9.74806188874729E-02 
779	 9.74379132743189E-02 
780	 9.74183101033428E-02 
781	 9.73597974730531E-02 
782	 9.73006285385751E-02 
783	 9.72487351854418E-02 
784	 9.71731901068464E-02 
785	 9.70983940945823E-02 
786	 9.70160711412437E-02 
787	 9.69331430751516E-02 
788	 0.096911238955259 
789	 9.68794042678333E-02 
790	 9.68313614035137E-02 
791	 9.67787371402905E-02 
792	 9.66848140004329E-02 
793	 9.66068294070955E-02 
794	 9.65679354782602E-02 
795	 9.65502784180444E-02 
796	 9.64640923701747E-02 
797	 9.63712898960037E-02 
798	 9.63205491416987E-02 
799	 9.62918237495568E-02 
800	 0.09623033486452 
801	 9.61465251069863E-02 
802	 9.60681377483808E-02 
803	 9.59923237779567E-02 
804	 9.59453430262836E-02 
805	 9.59103401692962E-02 
806	 9.58501387830996E-02 
807	 0.09581295745768 
808	 9.57494846648329E-02 
809	 9.56576917024669E-02 
810	 9.56074689214724E-02 
811	 9.55639801294855E-02 
812	 9.54894658847058E-02 
813	 9.53812861813658E-02 
814	 9.53289213200256E-02 
815	 9.53069810415894E-02 
816	 9.52755026257097E-02 
817	 9.52064108795029E-02 
818	 9.51834084522167E-02 
819	 9.51205490760832E-02 
820	 9.50131235478501E-02 
821	 9.49302071330047E-02 
822	 9.48483251342896E-02 
823	 9.47723821693968E-02 
824	 9.47133076637267E-02 
825	 9.46871223200906E-02 
826	 9.46352674492179E-02 
827	 0.094567839064051 
828	 9.45123144998864E-02 
829	 9.44876572049994E-02 
830	 9.44244390451237E-02 
831	 0.094348587578647 
832	 9.43229391983075E-02 
833	 0.094321508256932 
834	 9.42803319883044E-02 
835	 0.094184134973727 
836	 9.40762900198788E-02 
837	 9.41019528888378E-02 
838	 9.41120248061853E-02 
839	 9.40218343747594E-02 
840	 9.39413292644052E-02 
841	 9.38750682613518E-02 
842	 9.38121111367555E-02 
843	 9.37473783686887E-02 
844	 9.37189412398454E-02 
845	 9.37112703880408E-02 
846	 9.36638918959101E-02 
847	 9.35365195018662E-02 
848	 9.35121986859669E-02 
849	 9.34950963956812E-02 
850	 9.34493102221555E-02 
851	 9.34049442587277E-02 
852	 9.33581476432375E-02 
853	 9.32960058196333E-02 
854	 9.32263354357355E-02 
855	 9.31872024871082E-02 
856	 9.31465869855957E-02 
857	 9.31217627097215E-02 
858	 9.31123565472255E-02 
859	 9.30422803192046E-02 
860	 9.29791674173324E-02 
861	 9.29488748179957E-02 
862	 9.29469163677655E-02 
863	 9.29161021187601E-02 
864	 9.28665762578364E-02 
865	 9.28264949592865E-02 
866	 9.28172051803557E-02 
867	 9.27459014480971E-02 
868	 9.26349172623465E-02 
869	 9.25468124335928E-02 
870	 0.092558597785917 
871	 9.25586021902863E-02 
872	 9.25598192933859E-02 
873	 9.25647523735949E-02 
874	 9.25271845737272E-02 
875	 9.24576509737017E-02 
876	 9.23832228591231E-02 
877	 9.23298430723371E-02 
878	 9.23078652948828E-02 
879	 9.23007901939765E-02 
880	 9.22871529205278E-02 
881	 9.22520320514078E-02 
882	 9.22092987947961E-02 
883	 0.092190960311955 
884	 9.21592413713309E-02 
885	 9.20668681982415E-02 
886	 0.092058076127781 
887	 9.20591210278867E-02 
888	 9.20515752754091E-02 
889	 9.20700400741407E-02 
890	 9.20513123819967E-02 
891	 9.19987358117422E-02 
892	 9.19304554982099E-02 
893	 9.18700394017755E-02 
894	 9.18181642852615E-02 
895	 9.18197576917672E-02 
896	 9.18683128676632E-02 
897	 9.18568756189007E-02 
898	 9.18418497794266E-02 
899	 9.18175091652762E-02 
900	 9.17843910196344E-02 
901	 9.18038408258097E-02 
902	 9.17741412046722E-02 
903	 0.091738825714925 
904	 9.17582716343411E-02 
905	 9.17628555819311E-02 
906	 9.16823261187228E-02 
907	 9.16033903097049E-02 
908	 9.16391645802243E-02 
909	 9.16273766758133E-02 
910	 9.15628518311909E-02 
911	 9.15293148487043E-02 
912	 9.16205820004029E-02 
913	 9.16302682570176E-02 
914	 9.15849595985601E-02 
915	 9.15357443255257E-02 
916	 0.091527128257201 
917	 9.15126204039685E-02 
918	 9.15111712613588E-02 
919	 9.15081783161985E-02 
920	 9.14497910327731E-02 
921	 9.13913422925635E-02 
922	 9.13800879730224E-02 
923	 9.14088792335487E-02 
924	 9.13987970360105E-02 
925	 9.13560810865248E-02 
926	 9.13466045097928E-02 
927	 0.091373000360511 
928	 9.13020420309581E-02 
929	 9.13102949334829E-02 
930	 9.13427695423341E-02 
931	 9.13282757456632E-02 
932	 9.13010373784934E-02 
933	 9.12769916649638E-02 
934	 9.12871768980578E-02 
935	 9.13342620778372E-02 
936	 9.13461001762793E-02 
937	 0.091250579671145 
938	 9.11941010562151E-02 
939	 9.12873110594382E-02 
940	 9.12549748216969E-02 
941	 9.12297787679463E-02 
942	 9.12408790270316E-02 
943	 9.12619021278641E-02 
944	 9.12215654568672E-02 
945	 9.12276042469099E-02 
946	 0.091247545394437 
947	 9.11991895468503E-02 
948	 9.10943509482455E-02 
949	 9.10367694920127E-02 
950	 0.091013918627748 
951	 9.09833108028059E-02 
952	 9.11065218646299E-02 
953	 9.11120624582226E-02 
954	 9.10679124430055E-02 
955	 9.11789226085642E-02 
956	 9.12142629032229E-02 
957	 0.091193497072688 
958	 9.11452067094395E-02 
959	 9.10991683588093E-02 
960	 9.10827189138397E-02 
961	 9.11039810989441E-02 
962	 9.11568725076575E-02 
963	 9.12133412674224E-02 
964	 9.11813871006702E-02 
965	 9.11371474280331E-02 
966	 9.10817773334092E-02 
967	 9.09981259692031E-02 
968	 0.09113906293836 
969	 9.11491036582991E-02 
970	 9.10214156046571E-02 
971	 9.09825616673157E-02 
972	 9.09009430422461E-02 
973	 0.090919983684088 
974	 9.09824245385899E-02 
975	 9.09446292977453E-02 
976	 9.10711141587301E-02 
977	 9.11458879187246E-02 
978	 9.10835241605309E-02 
979	 9.09489949929449E-02 
980	 0.090954866227577 
981	 9.09412318592358E-02 
982	 0.090894580101902 
983	 9.09013041134387E-02 
984	 9.09752836629206E-02 
985	 9.09616499883383E-02 
986	 9.08912656175722E-02 
987	 9.08808442081362E-02 
988	 9.08526012547203E-02 
989	 0.090887380502464 
990	 9.08686809717548E-02 
991	 9.07088704335777E-02 
992	 9.09341191338122E-02 
993	 9.08672105346297E-02 
994	 9.07316494677562E-02 
995	 9.09464292223027E-02 
996	 9.08574570401467E-02 
997	 9.07810923752151E-02 
998	 9.08389896819922E-02 
999	 9.09833518361679E-02 
1000	 9.09150903194122E-02 
1001	 8.72870747920299E-02 
1002	 8.73316609231387E-02 
1003	 8.73977943973293E-02 
1004	 8.74279769572593E-02 
1005	 8.74208185699692E-02 
1006	 8.74024995026084E-02 
1007	 8.73786539844217E-02 
1008	 8.73582312712418E-02 
1009	 0.087290968494167 
1010	 8.72504983459889E-02 
1011	 8.72320902089625E-02 
1012	 8.72395644246751E-02 
1013	 8.72292329969205E-02 
1014	 0.087188466493032 
1015	 0.087156642662106 
1016	 8.71216637586144E-02 
1017	 8.70978252793901E-02 
1018	 8.70850701257614E-02 
1019	 8.70817150770502E-02 
1020	 8.70346119273562E-02 
1021	 8.69989467201042E-02 
1022	 8.69994564274832E-02 
1023	 8.69789084883508E-02 
1024	 8.69851007164629E-02 
1025	 8.69874268783939E-02 
1026	 8.69322208713721E-02 
1027	 8.68883557096569E-02 
1028	 8.68975983303175E-02 
1029	 8.69140967934803E-02 
1030	 8.68763162344221E-02 
1031	 8.68518294221274E-02 
1032	 8.68378919275887E-02 
1033	 8.68201039320018E-02 
1034	 8.67666545185297E-02 
1035	 8.67384878588953E-02 
1036	 8.67238699646296E-02 
1037	 8.66843932821935E-02 
1038	 8.66177213107313E-02 
1039	 8.65824119459929E-02 
1040	 8.65638817412426E-02 
1041	 8.65304437392756E-02 
1042	 8.65397156551188E-02 
1043	 8.65557022540918E-02 
1044	 8.65524341723523E-02 
1045	 8.65323226677196E-02 
1046	 8.65210125927223E-02 
1047	 8.65224080166455E-02 
1048	 8.65463248362067E-02 
1049	 8.65479320203354E-02 
1050	 8.65418277336878E-02 
1051	 8.65641938518111E-02 
1052	 8.65355086412732E-02 
1053	 8.64876504564848E-02 
1054	 8.64713053077408E-02 
1055	 8.64225588382293E-02 
1056	 8.63892394766156E-02 
1057	 8.63861925536096E-02 
1058	 8.64320586720214E-02 
1059	 0.086450652114206 
1060	 0.08647593200282 
1061	 8.64965528713427E-02 
1062	 8.65206263307324E-02 
1063	 8.65623190465157E-02 
1064	 8.65862602200966E-02 
1065	 8.65836144952512E-02 
1066	 8.65579326679705E-02 
1067	 8.65385815744013E-02 
1068	 8.65497077776831E-02 
1069	 8.65734392589556E-02 
1070	 8.65756029208663E-02 
1071	 8.65765871497481E-02 
1072	 8.65710189659486E-02 
1073	 8.65321205620319E-02 
1074	 8.65230833717096E-02 
1075	 8.65320053230537E-02 
1076	 8.65438595438361E-02 
1077	 0.086555546237959 
1078	 8.65646414039529E-02 
1079	 8.65581486233309E-02 
1080	 8.65739787641238E-02 
1081	 8.65801287050297E-02 
1082	 8.65860041919241E-02 
1083	 0.086586732914791 
1084	 0.086568552016065 
1085	 8.65723322027681E-02 
1086	 8.65970120871404E-02 
1087	 8.65936667157644E-02 
1088	 8.65725862728043E-02 
1089	 0.086605996395559 
1090	 8.66014216802818E-02 
1091	 8.65656860767592E-02 
1092	 8.65670004434133E-02 
1093	 8.65462434351328E-02 
1094	 8.65147294960261E-02 
1095	 8.65281224356252E-02 
1096	 8.65308558090926E-02 
1097	 8.64944273612417E-02 
1098	 8.64819369151571E-02 
1099	 8.64520183698087E-02 
1100	 8.64557604586392E-02 
1101	 8.65149258110927E-02 
1102	 8.65194878851194E-02 
1103	 8.65151966005341E-02 
1104	 8.65004683955794E-02 
1105	 8.64394780004013E-02 
1106	 8.63994770714534E-02 
1107	 8.64221977610448E-02 
1108	 8.64163338343134E-02 
1109	 8.63947211404345E-02 
1110	 8.63763871596483E-02 
1111	 8.63515768079611E-02 
1112	 8.62823219817529E-02 
1113	 8.62665088867289E-02 
1114	 8.62974571022633E-02 
1115	 8.62923435555318E-02 
1116	 8.62858550576825E-02 
1117	 0.086282997999176 
1118	 8.62691643419962E-02 
1119	 8.62479240691116E-02 
1120	 8.62620574012977E-02 
1121	 8.62561415105063E-02 
1122	 8.62688423881187E-02 
1123	 8.62942643312112E-02 
1124	 8.62901499090504E-02 
1125	 8.62797018187251E-02 
1126	 8.62701907946007E-02 
1127	 8.62299727475709E-02 
1128	 8.62163702187822E-02 
1129	 0.086224884465892 
1130	 8.62204325369747E-02 
1131	 8.62189965591551E-02 
1132	 8.62118940596368E-02 
1133	 8.62040932667028E-02 
1134	 8.61876814490817E-02 
1135	 8.61457716874715E-02 
1136	 8.61336965835757E-02 
1137	 8.61479757261833E-02 
1138	 8.61479502650078E-02 
1139	 8.61492439965521E-02 
1140	 8.61724514899126E-02 
1141	 8.61714376653835E-02 
1142	 0.086147193269012 
1143	 8.61354679154113E-02 
1144	 8.61160118335046E-02 
1145	 8.61203834821085E-02 
1146	 8.61503834381545E-02 
1147	 8.61532276310305E-02 
1148	 8.61568697388867E-02 
1149	 8.61589267722361E-02 
1150	 8.61464883983878E-02 
1151	 8.61193175220001E-02 
1152	 8.61160052557903E-02 
1153	 8.61360653309803E-02 
1154	 8.61435539153343E-02 
1155	 0.086155634306784 
1156	 8.61564143624186E-02 
1157	 8.61461644475823E-02 
1158	 8.61502028351749E-02 
1159	 8.61567415275415E-02 
1160	 0.086159641790024 
1161	 8.61828892551458E-02 
1162	 8.61823255464564E-02 
1163	 8.61378583566881E-02 
1164	 8.61370763055873E-02 
1165	 8.61643122382328E-02 
1166	 8.61653698674779E-02 
1167	 8.61812291395914E-02 
1168	 0.086224499615046 
1169	 8.62453563856086E-02 
1170	 8.62465542200154E-02 
1171	 8.62610799538189E-02 
1172	 8.62863456989845E-02 
1173	 8.63034572131206E-02 
1174	 8.63092198165992E-02 
1175	 8.63290326938547E-02 
1176	 8.63633902056259E-02 
1177	 8.63797196911309E-02 
1178	 8.63908582709534E-02 
1179	 8.64072553488409E-02 
1180	 8.64075696951804E-02 
1181	 8.64211408547705E-02 
1182	 8.64513109549221E-02 
1183	 8.64807297007069E-02 
1184	 8.64986501414462E-02 
1185	 8.65096013318938E-02 
1186	 8.65326866538979E-02 
1187	 8.65534940000149E-02 
1188	 8.65756401368591E-02 
1189	 8.66077017473206E-02 
1190	 8.66356522151101E-02 
1191	 8.66623418300307E-02 
1192	 8.66825606894102E-02 
1193	 8.66931790192892E-02 
1194	 8.67206162640847E-02 
1195	 8.67533004168191E-02 
1196	 8.67802711840142E-02 
1197	 8.68217299770645E-02 
1198	 8.68554682495802E-02 
1199	 8.68834510833873E-02 
1200	 8.68944656751835E-02 
1201	 8.69220089653834E-02 
1202	 8.69555612486934E-02 
1203	 8.69881015964204E-02 
1204	 8.70224588216046E-02 
1205	 8.70586572401454E-02 
1206	 8.70991874855088E-02 
1207	 8.71355389932857E-02 
1208	 8.71817635708895E-02 
1209	 8.72080701909537E-02 
1210	 8.72133958822231E-02 
1211	 8.72336695276891E-02 
1212	 8.72392549932652E-02 
1213	 8.72639285385911E-02 
1214	 8.73216009503469E-02 
1215	 8.73594756915739E-02 
1216	 8.73930954308085E-02 
1217	 8.74245355045535E-02 
1218	 8.74592935319589E-02 
1219	 8.74862191524586E-02 
1220	 8.75159233497434E-02 
1221	 8.75567722704863E-02 
1222	 8.75842133922961E-02 
1223	 8.75954649072692E-02 
1224	 8.76200578590972E-02 
1225	 8.76486311278566E-02 
1226	 8.76754357484812E-02 
1227	 8.77040025754057E-02 
1228	 8.77355843843379E-02 
1229	 8.77744838424929E-02 
1230	 8.78026009467191E-02 
1231	 8.78211184980721E-02 
1232	 8.78494907733918E-02 
1233	 8.78789916102486E-02 
1234	 8.78977231432226E-02 
1235	 8.79374516214777E-02 
1236	 8.80028859411645E-02 
1237	 8.80425141835198E-02 
1238	 8.80781240435866E-02 
1239	 0.088111973431036 
1240	 8.81333879488959E-02 
1241	 8.81604639029003E-02 
1242	 8.81861306834416E-02 
1243	 8.82197170502407E-02 
1244	 8.82589175464224E-02 
1245	 8.82933204254808E-02 
1246	 8.83326994310646E-02 
1247	 8.83714045590903E-02 
1248	 8.84087894219332E-02 
1249	 8.84357913987187E-02 
1250	 8.84825230481778E-02 
1251	 8.85318143570207E-02 
1252	 8.85712118993231E-02 
1253	 8.86144538144825E-02 
1254	 8.86437284926927E-02 
1255	 8.86499295871907E-02 
1256	 8.86814085879944E-02 
1257	 8.87187647763045E-02 
1258	 8.87558508678743E-02 
1259	 8.88123780274026E-02 
1260	 8.88514116876225E-02 
1261	 0.088876201911828 
1262	 8.89070903433191E-02 
1263	 8.89346964290807E-02 
1264	 8.89658039502725E-02 
1265	 8.90050167642635E-02 
1266	 8.90362474938202E-02 
1267	 0.089063177526542 
1268	 8.90885338638119E-02 
1269	 8.91166036256014E-02 
1270	 8.91392734767345E-02 
1271	 8.91688985409072E-02 
1272	 8.92035645228733E-02 
1273	 8.92380014797591E-02 
1274	 8.92715652414045E-02 
1275	 8.93117778458914E-02 
1276	 8.93562823212859E-02 
1277	 8.94036363820279E-02 
1278	 8.94543272631601E-02 
1279	 8.95095697745163E-02 
1280	 0.08956895842769 
1281	 8.96300171249825E-02 
1282	 8.97005489190335E-02 
1283	 8.97641843058954E-02 
1284	 8.98195606040603E-02 
1285	 8.98835362887939E-02 
1286	 8.99623501205024E-02 
1287	 9.00348651598512E-02 
1288	 9.01065997600411E-02 
1289	 9.01878798882047E-02 
1290	 9.02641242819951E-02 
1291	 9.03264792967803E-02 
1292	 9.04024563591705E-02 
1293	 9.04948221788969E-02 
1294	 9.05686120908468E-02 
1295	 9.06376387641854E-02 
1296	 9.07106675348027E-02 
1297	 9.07756753348775E-02 
1298	 9.08410225769475E-02 
1299	 9.09109772252329E-02 
1300	 9.09734616891326E-02 
1301	 9.10296811230815E-02 
1302	 9.10889906601975E-02 
1303	 9.11481699974231E-02 
1304	 9.12031559880886E-02 
1305	 9.12677943124775E-02 
1306	 9.13270636377872E-02 
1307	 9.13744618832317E-02 
1308	 9.14248478265398E-02 
1309	 9.14668881798021E-02 
1310	 9.14843184217823E-02 
1311	 9.15345630683822E-02 
1312	 9.16079681608958E-02 
1313	 0.091652788050135 
1314	 9.17039477573513E-02 
1315	 9.17434322079355E-02 
1316	 9.17528210003674E-02 
1317	 9.17825684585149E-02 
1318	 9.18238913315984E-02 
1319	 9.18577771727905E-02 
1320	 9.18925652151108E-02 
1321	 9.19225937818575E-02 
1322	 9.19522776061943E-02 
1323	 9.19698545911252E-02 
1324	 9.19977096273902E-02 
1325	 9.20497802329827E-02 
1326	 9.20557209638363E-02 
1327	 9.20721800918109E-02 
1328	 9.21180617442212E-02 
1329	 0.092114919034606 
1330	 9.21384071073695E-02 
1331	 9.21943074970616E-02 
1332	 9.22293616847874E-02 
1333	 9.22466793185817E-02 
1334	 9.22733135146913E-02 
1335	 9.23089255896741E-02 
1336	 9.23302662710879E-02 
1337	 9.23395703025434E-02 
1338	 9.23577210473514E-02 
1339	 9.23819381815785E-02 
1340	 9.23957799992171E-02 
1341	 9.24014099862399E-02 
1342	 9.24133945711382E-02 
1343	 9.24185324725519E-02 
1344	 9.24289573770672E-02 
1345	 9.24602461729332E-02 
1346	 9.24918350177107E-02 
1347	 9.25108480887398E-02 
1348	 9.25139156385011E-02 
1349	 9.24968418676972E-02 
1350	 9.24689816862787E-02 
1351	 9.24542194179004E-02 
1352	 9.24404664607892E-02 
1353	 9.24287505032088E-02 
1354	 9.24267830384061E-02 
1355	 9.24134951237708E-02 
1356	 9.23892316014907E-02 
1357	 9.23748572890739E-02 
1358	 9.23552536117114E-02 
1359	 0.092351423827442 
1360	 9.23565012531404E-02 
1361	 9.23676609811598E-02 
1362	 9.23878056575522E-02 
1363	 9.24127085242889E-02 
1364	 0.092439360312111 
1365	 9.24792190794269E-02 
1366	 9.25286393307061E-02 
1367	 9.25875968178573E-02 
1368	 9.26539649521346E-02 
1369	 0.092723437734714 
1370	 9.27735549346542E-02 
1371	 9.28194006761373E-02 
1372	 9.28754036632369E-02 
1373	 9.29199033354189E-02 
1374	 9.29532067018358E-02 
1375	 9.29910377643624E-02 
1376	 9.30077729600785E-02 
1377	 0.093011030751177 
1378	 9.29895326567252E-02 
1379	 9.29275435571776E-02 
1380	 9.29136278687358E-02 
1381	 9.28888593812404E-02 
1382	 0.092887271689126 
1383	 9.29335178527572E-02 
1384	 9.29638101964488E-02 
1385	 9.29791561010826E-02 
1386	 9.30137650221582E-02 
1387	 9.30799786765497E-02 
1388	 9.31211201349034E-02 
1389	 9.31584532357134E-02 
1390	 9.31907450264739E-02 
1391	 9.32097991575775E-02 
1392	 9.32191017796879E-02 
1393	 9.32159677170224E-02 
1394	 9.32219941213995E-02 
1395	 0.093229018909513 
1396	 9.32283573801434E-02 
1397	 9.32448662644342E-02 
1398	 0.093281684152729 
1399	 9.32971834698157E-02 
1400	 9.33126519317183E-02 
1401	 9.33251170510003E-02 
1402	 9.33180154846143E-02 
1403	 9.33351496818939E-02 
1404	 9.33647487498345E-02 
1405	 9.33889268591088E-02 
1406	 0.093427894495987 
1407	 9.34547362496657E-02 
1408	 0.093462457466754 
1409	 9.34906190988363E-02 
1410	 9.35222031841608E-02 
1411	 9.35600135337559E-02 
1412	 9.36080779363753E-02 
1413	 9.36709188776213E-02 
1414	 9.37178038615612E-02 
1415	 9.37542409233277E-02 
1416	 9.37935180930086E-02 
1417	 9.38382334696389E-02 
1418	 0.09388080136265 
1419	 9.39265581096278E-02 
1420	 9.39751362331769E-02 
1421	 0.094002641681268 
1422	 9.40270860911025E-02 
1423	 0.094055793361329 
1424	 0.094088130455343 
1425	 9.41161649590276E-02 
1426	 9.41570663411008E-02 
1427	 9.42092191994018E-02 
1428	 9.42581878985087E-02 
1429	 9.43115108873723E-02 
1430	 9.43576116468662E-02 
1431	 0.094409470168219 
1432	 9.44508338761152E-02 
1433	 9.44783489215519E-02 
1434	 9.45155659929441E-02 
1435	 0.094542473718048 
1436	 0.094583726658478 
1437	 9.46495966048192E-02 
1438	 9.46946809175677E-02 
1439	 9.47370907842223E-02 
1440	 9.47792208099833E-02 
1441	 9.47949468980599E-02 
1442	 0.094809007077874 
1443	 9.48383367380598E-02 
1444	 9.48729732657984E-02 
1445	 9.49074600384553E-02 
1446	 9.49487709593021E-02 
1447	 9.49922550923923E-02 
1448	 9.50111141844298E-02 
1449	 0.095035285585656 
1450	 9.50638175535158E-02 
1451	 9.50942180862862E-02 
1452	 9.51222268488846E-02 
1453	 9.51617209208174E-02 
1454	 9.52143740806927E-02 
1455	 0.095251980951213 
1456	 9.52928455849388E-02 
1457	 9.53179504497371E-02 
1458	 9.53189123555941E-02 
1459	 9.53465813549141E-02 
1460	 9.53711704635346E-02 
1461	 9.54127594982308E-02 
1462	 9.54932214447348E-02 
1463	 9.55346130404127E-02 
1464	 9.55679681814734E-02 
1465	 9.55959805694283E-02 
1466	 9.55892825265232E-02 
1467	 9.56090034728688E-02 
1468	 9.56436329147719E-02 
1469	 9.56723920818242E-02 
1470	 9.57023853151336E-02 
1471	 9.57438361817788E-02 
1472	 9.57837187869395E-02 
1473	 9.58093737197333E-02 
1474	 9.58292212834862E-02 
1475	 9.58505346043286E-02 
1476	 9.58785083395639E-02 
1477	 9.59136984279653E-02 
1478	 9.59547780583067E-02 
1479	 9.59955232454445E-02 
1480	 9.60280167798377E-02 
1481	 9.60586329980913E-02 
1482	 9.60837203789114E-02 
1483	 9.61029991563422E-02 
1484	 9.61318076437585E-02 
1485	 9.61586477176919E-02 
1486	 9.61834983259531E-02 
1487	 9.62187027434071E-02 
1488	 9.62485580429946E-02 
1489	 0.096266729092208 
1490	 9.62924160207209E-02 
1491	 9.63311463353011E-02 
1492	 9.63514948975352E-02 
1493	 9.63560576025206E-02 
1494	 9.63752021960876E-02 
1495	 9.63927144264331E-02 
1496	 9.64125613656859E-02 
1497	 9.64450368863106E-02 
1498	 9.64712813680887E-02 
1499	 9.64921197915228E-02 
1500	 9.65129269044367E-02 
1501	 9.65322300945321E-02 
1502	 9.65528620079071E-02 
1503	 9.65719689017003E-02 
1504	 9.65926436739885E-02 
1505	 9.66186690206771E-02 
1506	 9.66540461607617E-02 
1507	 9.66781033642383E-02 
1508	 9.66846074517412E-02 
1509	 9.66843158431489E-02 
1510	 9.66795441668921E-02 
1511	 9.66906220460132E-02 
1512	 9.67210564807106E-02 
1513	 9.67431589275269E-02 
1514	 9.67554598824769E-02 
1515	 9.67709198847679E-02 
1516	 0.096781368267759 
1517	 9.67964755563182E-02 
1518	 9.68248912294102E-02 
1519	 9.68354407262736E-02 
1520	 9.68301912039263E-02 
1521	 9.68415324575248E-02 
1522	 9.68499070149795E-02 
1523	 9.68685755070919E-02 
1524	 9.69060522230952E-02 
1525	 9.69270646350323E-02 
1526	 9.69436685828575E-02 
1527	 9.69574750877993E-02 
1528	 9.69624500240411E-02 
1529	 9.69750616966262E-02 
1530	 9.69996626126444E-02 
1531	 0.097005943151282 
1532	 9.69882904827168E-02 
1533	 9.70054519479309E-02 
1534	 9.70377457546146E-02 
1535	 9.70502459174906E-02 
1536	 9.70776773550559E-02 
1537	 9.70987813151757E-02 
1538	 9.70914530311367E-02 
1539	 9.71011926125762E-02 
1540	 9.71328717697753E-02 
1541	 0.097154261811863 
1542	 9.71726708917513E-02 
1543	 9.71846297005727E-02 
1544	 9.71933871773339E-02 
1545	 9.72019106324734E-02 
1546	 9.72034449281265E-02 
1547	 9.72046235268424E-02 
1548	 9.72153378208239E-02 
1549	 9.72112313813852E-02 
1550	 9.72090614897045E-02 
1551	 9.72358712588459E-02 
1552	 9.72625626515965E-02 
1553	 9.72795754799715E-02 
1554	 9.72962616206952E-02 
1555	 0.097298520607454 
1556	 9.72930743869655E-02 
1557	 9.73040236881417E-02 
1558	 9.73232146807873E-02 
1559	 9.73360002056324E-02 
1560	 9.73466058084766E-02 
1561	 9.73611872727928E-02 
1562	 9.73631693941053E-02 
1563	 9.73496838285555E-02 
1564	 9.73544817056268E-02 
1565	 9.73602978727774E-02 
1566	 9.73734483242703E-02 
1567	 9.74057642081753E-02 
1568	 9.74130150501851E-02 
1569	 9.74080846611215E-02 
1570	 0.097410387993099 
1571	 9.74065590411477E-02 
1572	 9.74042278287431E-02 
1573	 9.74052932057516E-02 
1574	 9.74082835768371E-02 
1575	 9.74116723464609E-02 
1576	 9.74097670112743E-02 
1577	 9.74064911418516E-02 
1578	 9.74064561925585E-02 
1579	 9.73959842888072E-02 
1580	 9.73995003766251E-02 
1581	 9.74216251680593E-02 
1582	 0.097432828115798 
1583	 9.74404389925495E-02 
1584	 9.74499388255999E-02 
1585	 9.74620104589183E-02 
1586	 9.74667401000472E-02 
1587	 9.74672079855131E-02 
1588	 9.74723788926485E-02 
1589	 9.74741216977702E-02 
1590	 9.74760662384236E-02 
1591	 9.74842512838476E-02 
1592	 9.74872765997491E-02 
1593	 9.74840587748008E-02 
1594	 9.74812126495083E-02 
1595	 9.74783179643438E-02 
1596	 9.74755050947358E-02 
1597	 9.74664637133882E-02 
1598	 9.74665541097912E-02 
1599	 9.74769622053037E-02 
1600	 0.097479150460381 
1601	 9.74789761664872E-02 
1602	 9.74825716695114E-02 
1603	 9.74813856321332E-02 
1604	 9.74832903358997E-02 
1605	 9.74932938788818E-02 
1606	 9.75015392463442E-02 
1607	 9.75048687504794E-02 
1608	 0.09751436013185 
1609	 9.75342468629028E-02 
1610	 9.75407646024151E-02 
1611	 9.75379298878658E-02 
1612	 9.75378854253596E-02 
1613	 9.75303477619871E-02 
1614	 9.75277024834951E-02 
1615	 0.097515973503959 
1616	 9.75065406002501E-02 
1617	 9.75241313217187E-02 
1618	 9.75427418630055E-02 
1619	 9.75640713878445E-02 
1620	 9.75795231624486E-02 
1621	 9.75823319934151E-02 
1622	 9.75562274796422E-02 
1623	 9.75548388154359E-02 
1624	 9.75642646901301E-02 
1625	 9.75635006998568E-02 
1626	 0.097559740031581 
1627	 9.75618820503225E-02 
1628	 9.75663546323814E-02 
1629	 9.75610085232546E-02 
1630	 9.75556352158971E-02 
1631	 9.75510290030959E-02 
1632	 9.75358298767036E-02 
1633	 9.75302963297125E-02 
1634	 9.75328866914247E-02 
1635	 9.75341101288996E-02 
1636	 9.75325730125223E-02 
1637	 9.75394319377715E-02 
1638	 9.75564544392766E-02 
1639	 9.75647669970238E-02 
1640	 9.75714252819656E-02 
1641	 9.75783149627457E-02 
1642	 0.097582556126914 
1643	 9.75878741852085E-02 
1644	 9.75931572168006E-02 
1645	 9.76037897046618E-02 
1646	 9.76195069867243E-02 
1647	 9.76253220414346E-02 
1648	 9.76353020343831E-02 
1649	 0.097631345559244 
1650	 9.76118769744702E-02 
1651	 9.75987984357066E-02 
1652	 0.097580204900583 
1653	 9.75685988122457E-02 
1654	 9.75539571402735E-02 
1655	 0.097554343210673 
1656	 0.09757020856444 
1657	 9.75729322926803E-02 
1658	 9.75820738666668E-02 
1659	 9.75817391038405E-02 
1660	 9.75656581837141E-02 
1661	 9.75615122190264E-02 
1662	 0.097567355216514 
1663	 9.75586231940535E-02 
1664	 9.75398615225735E-02 
1665	 9.75336021298288E-02 
1666	 9.75209974430446E-02 
1667	 9.75203988483509E-02 
1668	 9.75410405214532E-02 
1669	 0.097544944236167 
1670	 9.75446192606605E-02 
1671	 9.75422009493218E-02 
1672	 9.75266190238664E-02 
1673	 9.75292992019532E-02 
1674	 9.75439254015865E-02 
1675	 9.75474315013186E-02 
1676	 9.75533236642116E-02 
1677	 0.097561319038233 
1678	 9.75645387815431E-02 
1679	 9.75666039308312E-02 
1680	 9.75767421050804E-02 
1681	 0.097579190949112 
1682	 9.75661768452069E-02 
1683	 0.097566562930347 
1684	 9.75754466082202E-02 
1685	 0.097579920006507 
1686	 9.75809546275289E-02 
1687	 9.75949965831339E-02 
1688	 9.76198445756464E-02 
1689	 0.097632460653411 
1690	 9.76514688848001E-02 
1691	 9.76599094101092E-02 
1692	 9.76510465238895E-02 
1693	 9.76535826739899E-02 
1694	 0.097670463906434 
1695	 9.76612805726137E-02 
1696	 9.76331943066999E-02 
1697	 9.76206179458156E-02 
1698	 9.75947072197758E-02 
1699	 9.75851757616003E-02 
1700	 9.75962271235826E-02 
1701	 9.75994614355932E-02 
1702	 9.76008697716541E-02 
1703	 9.76057723726858E-02 
1704	 9.76187230532963E-02 
1705	 9.76232825319437E-02 
1706	 9.76225594532593E-02 
1707	 9.76252107515362E-02 
1708	 9.76299221518156E-02 
1709	 9.76256946611708E-02 
1710	 9.76145847183323E-02 
1711	 9.76124779198423E-02 
1712	 9.76019635922343E-02 
1713	 0.097607400921719 
1714	 9.76336800554797E-02 
1715	 9.76454503003724E-02 
1716	 9.76599456654194E-02 
1717	 9.76653278351478E-02 
1718	 9.76609408021102E-02 
1719	 9.76574273126735E-02 
1720	 9.76466238064733E-02 
1721	 9.76424284817759E-02 
1722	 9.76398346787573E-02 
1723	 0.097639345736159 
1724	 9.76520719640358E-02 
1725	 9.76396634513468E-02 
1726	 9.76095505134919E-02 
1727	 9.75975355484829E-02 
1728	 9.75771954913471E-02 
1729	 9.75633927265187E-02 
1730	 9.75689837985082E-02 
1731	 0.097559164216582 
1732	 9.75390823553621E-02 
1733	 9.75242865663375E-02 
1734	 0.097505504920859 
1735	 9.74996200114084E-02 
1736	 9.75004179988705E-02 
1737	 9.74903830853459E-02 
1738	 9.74864260986646E-02 
1739	 9.74756809262759E-02 
1740	 9.74520847941188E-02 
1741	 9.74407996482331E-02 
1742	 9.74404287683048E-02 
1743	 0.097428883893611 
1744	 9.74079428816584E-02 
1745	 9.74001677754615E-02 
1746	 9.73942822392832E-02 
1747	 9.73927255227529E-02 
1748	 9.73953716835867E-02 
1749	 9.74178261273482E-02 
1750	 9.74185746815502E-02 
1751	 9.74179605417332E-02 
1752	 9.74375239730988E-02 
1753	 9.74171501973331E-02 
1754	 9.74018448223965E-02 
1755	 9.74055007573407E-02 
1756	 9.73792887064037E-02 
1757	 9.73525273805141E-02 
1758	 9.73464803444429E-02 
1759	 9.73396718315581E-02 
1760	 9.73247491835583E-02 
1761	 9.73324041229316E-02 
1762	 0.097349263422202 
1763	 9.73390148852638E-02 
1764	 9.73415878990786E-02 
1765	 9.73548909219463E-02 
1766	 9.73392797484758E-02 
1767	 9.73309530640457E-02 
1768	 9.73513698658603E-02 
1769	 9.73493514942648E-02 
1770	 9.73336135953662E-02 
1771	 9.73346777124472E-02 
1772	 9.73224153391279E-02 
1773	 9.73115588543432E-02 
1774	 9.72999297528464E-02 
1775	 9.72883274833659E-02 
1776	 9.72843460098768E-02 
1777	 9.72754106527744E-02 
1778	 9.72959930512271E-02 
1779	 9.73065912535784E-02 
1780	 9.72843442958338E-02 
1781	 9.72685259607156E-02 
1782	 9.72472988441999E-02 
1783	 9.72902284757671E-02 
1784	 9.73051757824573E-02 
1785	 9.73333180847162E-02 
1786	 9.73457487484617E-02 
1787	 9.73166802839098E-02 
1788	 9.73038947635739E-02 
1789	 9.72876449897455E-02 
1790	 9.72747351141135E-02 
1791	 9.72801356769167E-02 
1792	 9.72735372718204E-02 
1793	 9.72730363042312E-02 
1794	 0.097267974465906 
1795	 9.72417404756712E-02 
1796	 9.72193487247522E-02 
1797	 9.71920205600748E-02 
1798	 9.71825821395382E-02 
1799	 9.71815254163037E-02 
1800	 9.71857073047506E-02 
1801	 9.45136851841973E-02 
1802	 9.46108319871689E-02 
1803	 0.094696373485161 
1804	 9.47859789571824E-02 
1805	 9.48942295427145E-02 
1806	 9.50000209766356E-02 
1807	 9.51100299809472E-02 
1808	 9.51907263042085E-02 
1809	 9.52547206177101E-02 
1810	 9.53084782589243E-02 
1811	 9.53453039228189E-02 
1812	 9.53748065093806E-02 
1813	 9.53728593672146E-02 
1814	 9.53920225403856E-02 
1815	 9.54344372673876E-02 
1816	 9.54356052188703E-02 
1817	 9.54344146384508E-02 
1818	 0.095433450411606 
1819	 9.54363688236236E-02 
1820	 9.54149606355751E-02 
1821	 9.54152530176936E-02 
1822	 9.54398899873856E-02 
1823	 9.54731927509217E-02 
1824	 9.55038855139398E-02 
1825	 0.095525494138538 
1826	 9.55435422260363E-02 
1827	 9.55643121164889E-02 
1828	 9.55534894737203E-02 
1829	 9.54960205997221E-02 
1830	 9.54662780370735E-02 
1831	 9.54300081084355E-02 
1832	 9.53944240025337E-02 
1833	 9.53829993539562E-02 
1834	 9.54105107627065E-02 
1835	 9.54214319118694E-02 
1836	 0.095440522423884 
1837	 0.095465164921306 
1838	 9.54557870448772E-02 
1839	 9.54619598893196E-02 
1840	 9.54703698504573E-02 
1841	 9.54846468544604E-02 
1842	 9.55080371677483E-02 
1843	 9.55672211852929E-02 
1844	 9.56175062512055E-02 
1845	 9.56400761938749E-02 
1846	 9.56807934662322E-02 
1847	 0.09570798091671 
1848	 9.57278944338624E-02 
1849	 9.57831557156236E-02 
1850	 9.58203652455402E-02 
1851	 9.58455938387836E-02 
1852	 9.58573081216088E-02 
1853	 9.58802824574829E-02 
1854	 9.58984934468657E-02 
1855	 9.59074507940198E-02 
1856	 9.59427020900657E-02 
1857	 9.59968744125264E-02 
1858	 9.60290442870169E-02 
1859	 9.60656663102644E-02 
1860	 0.096083328534721 
1861	 9.60828223017092E-02 
1862	 9.60738516134579E-02 
1863	 9.60679585222021E-02 
1864	 9.60360829478232E-02 
1865	 9.60058330399565E-02 
1866	 9.59452070597097E-02 
1867	 9.58763040899094E-02 
1868	 9.58101091122599E-02 
1869	 9.57643262065725E-02 
1870	 9.57541316177011E-02 
1871	 9.57451930195587E-02 
1872	 9.57440332853199E-02 
1873	 9.57796958985667E-02 
1874	 9.58173328931653E-02 
1875	 9.58498211186822E-02 
1876	 9.59157144069586E-02 
1877	 9.59898552527427E-02 
1878	 9.60603308929538E-02 
1879	 9.61143339746356E-02 
1880	 9.61573514441069E-02 
1881	 9.61979149204284E-02 
1882	 9.62152944321286E-02 
1883	 9.62126658049134E-02 
1884	 9.62007911827501E-02 
1885	 9.61857043462012E-02 
1886	 9.61455893803024E-02 
1887	 9.61096432989768E-02 
1888	 9.60819259911604E-02 
1889	 9.60452317143038E-02 
1890	 9.60212193142523E-02 
1891	 9.59850391533534E-02 
1892	 0.095952307197574 
1893	 9.58989661785305E-02 
1894	 9.58387326195863E-02 
1895	 9.57545243426047E-02 
1896	 9.56584751004447E-02 
1897	 9.55528512593467E-02 
1898	 9.54551987063595E-02 
1899	 0.095353974234257 
1900	 9.52680964254412E-02 
1901	 9.52018029365975E-02 
1902	 9.51324003839902E-02 
1903	 9.50624770976318E-02 
1904	 9.50139491261286E-02 
1905	 0.09497480259976 
1906	 9.49446684655628E-02 
1907	 9.49323576712042E-02 
1908	 9.49178662013526E-02 
1909	 9.48805576383412E-02 
1910	 9.48431325455185E-02 
1911	 9.48001519615859E-02 
1912	 9.47546056741342E-02 
1913	 9.47114085878466E-02 
1914	 9.46630185419897E-02 
1915	 9.46262589938314E-02 
1916	 9.45959818541773E-02 
1917	 9.45621137302419E-02 
1918	 9.45408731333322E-02 
1919	 9.45293861497297E-02 
1920	 9.44882459157927E-02 
1921	 9.44621303874964E-02 
1922	 0.094468940330272 
1923	 9.44738821064205E-02 
1924	 9.44857478916274E-02 
1925	 9.45369401284731E-02 
1926	 9.45544966731748E-02 
1927	 9.45520027523533E-02 
1928	 9.45502515389989E-02 
1929	 9.45708555880435E-02 
1930	 9.45857957976328E-02 
1931	 0.094601011993224 
1932	 9.46178162373821E-02 
1933	 9.46219651558082E-02 
1934	 9.46135815632446E-02 
1935	 9.45968287961809E-02 
1936	 9.45618041653116E-02 
1937	 0.094549475545195 
1938	 9.45219496447438E-02 
1939	 9.45227463822995E-02 
1940	 9.45507966549122E-02 
1941	 9.45889054732777E-02 
1942	 9.46325515394334E-02 
1943	 0.094664198788814 
1944	 9.46742272570403E-02 
1945	 9.46898831828767E-02 
1946	 0.094699522764236 
1947	 9.46800136050872E-02 
1948	 9.46952097630996E-02 
1949	 9.47404174658468E-02 
1950	 9.47588056508107E-02 
1951	 9.47711689639825E-02 
1952	 9.47984914825245E-02 
1953	 9.48071427103211E-02 
1954	 9.48307276723447E-02 
1955	 9.48720564763334E-02 
1956	 9.49057890795693E-02 
1957	 9.49357268020211E-02 
1958	 9.49512683910757E-02 
1959	 9.49805941215675E-02 
1960	 9.50184382655118E-02 
1961	 0.095053928886617 
1962	 9.50990809697663E-02 
1963	 9.51362606888918E-02 
1964	 9.51631772326848E-02 
1965	 9.51897400334444E-02 
1966	 9.52455883588946E-02 
1967	 9.52936132628063E-02 
1968	 9.53373782134368E-02 
1969	 9.53919982669342E-02 
1970	 9.54397433712897E-02 
1971	 9.54770165067342E-02 
1972	 9.55126204301362E-02 
1973	 9.55493405989373E-02 
1974	 9.55868122450818E-02 
1975	 9.56149807126963E-02 
1976	 9.56442946867395E-02 
1977	 9.56904522849912E-02 
1978	 9.57319534759314E-02 
1979	 9.57688209778415E-02 
1980	 0.095821696827818 
1981	 9.58688541721639E-02 
1982	 9.59216832030557E-02 
1983	 9.59670179939507E-02 
1984	 0.09600066577057 
1985	 9.60496925098802E-02 
1986	 9.61165004987807E-02 
1987	 9.61606243712518E-02 
1988	 9.61996906838855E-02 
1989	 0.096244640434091 
1990	 9.62703602494542E-02 
1991	 9.62775246383876E-02 
1992	 9.63020203318864E-02 
1993	 9.63264453769693E-02 
1994	 9.63680206277756E-02 
1995	 9.64310450581761E-02 
1996	 9.64720644052301E-02 
1997	 9.65233309888865E-02 
1998	 0.096561865676743 
1999	 9.65683487313289E-02 
2000	 9.65945969550418E-02 
2001	 9.66320605415069E-02 
2002	 9.66613298911648E-02 
2003	 9.67165928530806E-02 
2004	 9.67569017980971E-02 
2005	 9.68027827042041E-02 
2006	 9.68533658012382E-02 
2007	 0.096909922251689 
2008	 9.69647074222293E-02 
2009	 0.097026316457064 
2010	 9.71127741163432E-02 
2011	 9.71701337858294E-02 
2012	 9.72118223358161E-02 
2013	 9.72588534803439E-02 
2014	 9.72937063429889E-02 
2015	 9.73234049768617E-02 
2016	 9.73901103276852E-02 
2017	 9.74395993829942E-02 
2018	 9.74837131317866E-02 
2019	 9.75268157318988E-02 
2020	 9.75707440273705E-02 
2021	 9.75962952874169E-02 
2022	 9.76408327481154E-02 
2023	 9.76988698382244E-02 
2024	 0.09775411065449 
2025	 9.78159373749797E-02 
2026	 9.78753153884457E-02 
2027	 9.79266380089663E-02 
2028	 9.79962497915922E-02 
2029	 9.80599044900179E-02 
2030	 9.81358748021922E-02 
2031	 9.81750055614794E-02 
2032	 9.81961190537593E-02 
2033	 9.82248826085869E-02 
2034	 9.82202353434425E-02 
2035	 9.82487704390171E-02 
2036	 9.83106251548118E-02 
2037	 9.83488981653167E-02 
2038	 9.83850755982001E-02 
2039	 9.84195496045057E-02 
2040	 0.098433100096366 
2041	 9.84706302948559E-02 
2042	 9.85083113181565E-02 
2043	 9.85351940121144E-02 
2044	 9.85770955140058E-02 
2045	 9.86258244398748E-02 
2046	 9.86723120548538E-02 
2047	 9.87342424891472E-02 
2048	 9.87758987322559E-02 
2049	 9.88016960863333E-02 
2050	 9.88387463460172E-02 
2051	 9.88747136754896E-02 
2052	 9.89069057206323E-02 
2053	 9.89407686280044E-02 
2054	 0.098976597381131 
2055	 9.90074727141398E-02 
2056	 9.90420203387315E-02 
2057	 9.90699302928831E-02 
2058	 0.099100307155785 
2059	 0.099130673805426 
2060	 9.91502070962114E-02 
2061	 9.91804102382951E-02 
2062	 9.92269974056696E-02 
2063	 0.099257066494453 
2064	 9.92822108514868E-02 
2065	 9.93042441589286E-02 
2066	 9.93174500421526E-02 
2067	 9.93308787215576E-02 
2068	 9.93359660650275E-02 
2069	 9.93478511685253E-02 
2070	 9.93713064921824E-02 
2071	 0.099395768911036 
2072	 9.94356563129128E-02 
2073	 0.099502662699494 
2074	 9.95421849113428E-02 
2075	 9.95806961064876E-02 
2076	 9.96110521799958E-02 
2077	 9.96248020092584E-02 
2078	 9.96437229033377E-02 
2079	 0.099655556535755 
2080	 9.96786585926077E-02 
2081	 9.97044873841194E-02 
2082	 9.97326535679434E-02 
2083	 9.97608497359584E-02 
2084	 9.98060541182789E-02 
2085	 9.98519156490574E-02 
2086	 0.099907789688314 
2087	 9.99434272318919E-02 
2088	 9.99818469722386E-02 
2089	 0.100009348301325 
2090	 0.100011248087846 
2091	 0.100030837357948 
2092	 0.100057047064257 
2093	 0.100082900675312 
2094	 0.100108739079499 
2095	 0.10013826596086 
2096	 0.100176656098304 
2097	 0.100207955337181 
2098	 0.100234702052745 
2099	 0.100263110178001 
2100	 0.100300139904594 
2101	 0.100336734849162 
2102	 0.100378004198835 
2103	 0.100428032192315 
2104	 0.100478841007713 
2105	 0.100535325579067 
2106	 0.100583087353317 
2107	 0.100626657841644 
2108	 0.100681050727048 
2109	 0.100728446647118 
2110	 0.100785232434602 
2111	 0.100866495707854 
2112	 0.100932744508121 
2113	 0.100982310774407 
2114	 0.101053796418495 
2115	 0.101112391783818 
2116	 0.101169535250241 
2117	 0.101215147962866 
2118	 0.101253041198337 
2119	 0.101294836761132 
2120	 0.101323656909961 
2121	 0.101366772794132 
2122	 0.101425734118626 
2123	 0.101470914130757 
2124	 0.10152133782293 
2125	 0.101555161195656 
2126	 0.101573191268819 
2127	 0.101592884737473 
2128	 0.101593521582945 
2129	 0.101609144972077 
2130	 0.101621737330616 
2131	 0.101661203239119 
2132	 0.101682981356656 
2133	 0.101709204010243 
2134	 0.101730127949066 
2135	 0.101750108493509 
2136	 0.101755314980169 
2137	 0.101760341791254 
2138	 0.101751756108628 
2139	 0.101713052746961 
2140	 0.101694864533756 
2141	 0.101684379142898 
2142	 0.101667141994143 
2143	 0.10167480703141 
2144	 0.101643774729209 
2145	 0.101558647264372 
2146	 0.101512371519083 
2147	 0.101471213457023 
2148	 0.101427587019511 
2149	 0.101380856758401 
2150	 0.101360163831044 
2151	 0.101320542586466 
2152	 0.10125463302875 
2153	 0.101203488532956 
2154	 0.101180465746081 
2155	 0.10111988573299 
2156	 0.101022090352089 
2157	 0.100952601514158 
2158	 0.100882579717055 
2159	 0.100813372222611 
2160	 0.100771982673363 
2161	 0.100705233142668 
2162	 0.100610211210598 
2163	 0.100527895711628 
2164	 0.100443545354939 
2165	 0.100360660216754 
2166	 0.100271829982626 
2167	 0.100186817008662 
2168	 0.100099858381392 
2169	 9.99937407466164E-02 
2170	 9.99184833530312E-02 
2171	 9.98638186955404E-02 
2172	 9.98007366924359E-02 
2173	 9.97524490867108E-02 
2174	 9.96922513192684E-02 
2175	 9.96222105376713E-02 
2176	 9.95584039236373E-02 
2177	 9.94972500485763E-02 
2178	 9.94319764548449E-02 
2179	 9.93722970163496E-02 
2180	 9.93007766606751E-02 
2181	 9.92010061549779E-02 
2182	 9.91319860511739E-02 
2183	 9.90796027862888E-02 
2184	 9.90220434967934E-02 
2185	 9.89657816514543E-02 
2186	 9.89335517425408E-02 
2187	 9.88738615024258E-02 
2188	 9.87833753896615E-02 
2189	 9.87266081436026E-02 
2190	 9.86855641694091E-02 
2191	 0.098631521868162 
2192	 9.85919389405813E-02 
2193	 9.85352201480565E-02 
2194	 9.84506591647417E-02 
2195	 9.83891646630082E-02 
2196	 9.83328395811491E-02 
2197	 9.82787135804436E-02 
2198	 9.82300521952258E-02 
2199	 9.81911673057931E-02 
2200	 9.81661510739582E-02 
2201	 9.81326917839323E-02 
2202	 9.80866762600923E-02 
2203	 0.098073649955483 
2204	 0.098053779615744 
2205	 9.80230333419407E-02 
2206	 9.80164497853089E-02 
2207	 9.80380498610907E-02 
2208	 9.80355116153701E-02 
2209	 9.80331215457311E-02 
2210	 9.80264129380147E-02 
2211	 9.80075791694278E-02 
2212	 9.79962656082817E-02 
2213	 9.79915237418889E-02 
2214	 9.79813856330351E-02 
2215	 9.79655634505347E-02 
2216	 9.79557207921708E-02 
2217	 0.09792670769939 
2218	 9.79320760669113E-02 
2219	 9.79750095307587E-02 
2220	 9.79961629138378E-02 
2221	 9.80316196198552E-02 
2222	 9.80596262429333E-02 
2223	 9.80615191428668E-02 
2224	 9.80582740009247E-02 
2225	 9.80717709580654E-02 
2226	 9.80966876508575E-02 
2227	 9.81081916739508E-02 
2228	 9.81250593397775E-02 
2229	 9.81307556455756E-02 
2230	 0.098119073538464 
2231	 9.81209860762961E-02 
2232	 0.098123031795915 
2233	 9.81304132468165E-02 
2234	 9.81319464719244E-02 
2235	 9.81617344269808E-02 
2236	 9.82264955713368E-02 
2237	 9.82558716756521E-02 
2238	 9.82997589584795E-02 
2239	 9.83165086246912E-02 
2240	 9.82693226470795E-02 
2241	 9.82724068709813E-02 
2242	 9.83113879239555E-02 
2243	 9.83212822048336E-02 
2244	 9.83337217034836E-02 
2245	 9.83461470966347E-02 
2246	 9.83585052482868E-02 
2247	 9.83535139654408E-02 
2248	 9.83657261187538E-02 
2249	 9.84123258839358E-02 
2250	 0.098418547049593 
2251	 9.83932966029019E-02 
2252	 9.83976278000962E-02 
2253	 9.83971499047675E-02 
2254	 9.84143320858332E-02 
2255	 9.84582945648419E-02 
2256	 9.84857852239516E-02 
2257	 9.85119066607426E-02 
2258	 9.85390202014318E-02 
2259	 9.85595884816569E-02 
2260	 9.85848391299253E-02 
2261	 9.86285647777459E-02 
2262	 0.098651892366403 
2263	 9.86472043301054E-02 
2264	 9.86734028220162E-02 
2265	 9.87085989410599E-02 
2266	 9.87347034626548E-02 
2267	 9.87919951668943E-02 
2268	 9.88253892423831E-02 
2269	 9.88466877300058E-02 
2270	 9.88325497686697E-02 
2271	 9.88501937713376E-02 
2272	 9.88511274576017E-02 
2273	 9.88792662656162E-02 
2274	 9.89494066759594E-02 
2275	 9.89776963633221E-02 
2276	 9.90070855009409E-02 
2277	 9.90309904299419E-02 
2278	 9.90228408400681E-02 
2279	 9.90419977763321E-02 
2280	 9.90808517857567E-02 
2281	 9.91020782057988E-02 
2282	 9.91063604777588E-02 
2283	 9.91484685241316E-02 
2284	 9.92270246514441E-02 
2285	 9.92564837840805E-02 
2286	 0.099287831574678 
2287	 9.93098386179356E-02 
2288	 0.099272917032175 
2289	 9.92797271295019E-02 
2290	 9.93209514838524E-02 
2291	 9.93495611715222E-02 
2292	 9.93830316306948E-02 
2293	 9.94099650814495E-02 
2294	 9.94424907900192E-02 
2295	 9.94680687770624E-02 
2296	 9.94775633456903E-02 
2297	 9.94946261249584E-02 
2298	 9.95559763167805E-02 
2299	 9.95582791455168E-02 
2300	 9.95534926617116E-02 
2301	 9.95732983623761E-02 
2302	 9.95747007363905E-02 
2303	 9.95973775826151E-02 
2304	 0.099632828386821 
2305	 9.96716402700448E-02 
2306	 9.96616191591465E-02 
2307	 9.95935124598784E-02 
2308	 9.95804251114218E-02 
2309	 9.95424779671836E-02 
2310	 9.95646601135528E-02 
2311	 9.96738351695405E-02 
2312	 9.97025911758975E-02 
2313	 9.97143829631341E-02 
2314	 9.97365586642512E-02 
2315	 9.97155879456769E-02 
2316	 9.97298621986905E-02 
2317	 9.97646942119241E-02 
2318	 9.98206700973641E-02 
2319	 9.99200218175007E-02 
2320	 9.99607417777704E-02 
2321	 0.100004928238206 
2322	 0.100026794144662 
2323	 9.99690718682157E-02 
2324	 9.99733454568703E-02 
2325	 0.100037166449203 
2326	 0.100055612131636 
2327	 0.100074242072219 
2328	 0.100050832293488 
2329	 0.10006522974501 
2330	 0.100073892870505 
2331	 0.100103906008651 
2332	 0.100234054227561 
2333	 0.100337946344198 
2334	 0.100345931022442 
2335	 0.100377033880336 
2336	 0.100392553283856 
2337	 0.100417229923563 
2338	 0.100511148963894 
2339	 0.100599381489473 
2340	 0.100688329794051 
2341	 0.100712292766883 
2342	 0.100719364433987 
2343	 0.10077265744217 
2344	 0.10080179780877 
2345	 0.100832303216575 
2346	 0.100881193483509 
2347	 0.100906912517974 
2348	 0.100910713965975 
2349	 0.100916382977378 
2350	 0.100932003078867 
2351	 0.100923464389055 
2352	 0.100885550446159 
2353	 0.100866506427051 
2354	 0.100832973407551 
2355	 0.100827600111731 
2356	 0.100830257333396 
2357	 0.100844949184872 
2358	 0.100896618029227 
2359	 0.100918139187816 
2360	 0.100947078476517 
2361	 0.100957554408123 
2362	 0.100943473687782 
2363	 0.100934952435416 
2364	 0.100907831011629 
2365	 0.100898607654245 
2366	 0.100870996258575 
2367	 0.100891436560576 
2368	 0.100962063463846 
2369	 0.101008403047867 
2370	 0.1010858633678 
2371	 0.101149352236288 
2372	 0.101121250022675 
2373	 0.101126236305276 
2374	 0.101151474101582 
2375	 0.10111728572299 
2376	 0.101092079809296 
2377	 0.101094698301786 
2378	 0.101124841883692 
2379	 0.10115693913855 
2380	 0.101180097811337 
2381	 0.101216664934479 
2382	 0.101184221514366 
2383	 0.101149773463403 
2384	 0.101165309887934 
2385	 0.1011008723385 
2386	 0.101022567214721 
2387	 0.100972286895971 
2388	 0.100887903102969 
2389	 0.100904694933906 
2390	 0.101024911694631 
2391	 0.10109164012701 
2392	 0.101177080641053 
2393	 0.101237623852978 
2394	 0.101199241350713 
2395	 0.101141824965997 
2396	 0.101075955682508 
2397	 0.101084292870801 
2398	 0.10115245766834 
2399	 0.101223963607934 
2400	 0.101266521907214 
2401	 0.101238723217551 
2402	 0.101217651353774 
2403	 0.101197608188479 
2404	 0.101157056011025 
2405	 0.101112954987286 
2406	 0.101016872860349 
2407	 0.100874238551889 
2408	 0.100801348419827 
2409	 0.100815389756246 
2410	 0.10090078209782 
2411	 0.101018481707786 
2412	 0.101090446501258 
2413	 0.101139546212314 
2414	 0.101052849116672 
2415	 0.100907183085075 
2416	 0.100810136552156 
2417	 0.100660042641687 
2418	 0.100633103672359 
2419	 0.100730229654668 
2420	 0.100728410154257 
2421	 0.100699139144875 
2422	 0.10069104810641 
2423	 0.100668927499142 
2424	 0.100682789698341 
2425	 0.100800802159498 
2426	 0.100831737445712 
2427	 0.100800217938025 
2428	 0.100717988339166 
2429	 0.100510664308979 
2430	 0.100520706056314 
2431	 0.10059289123913 
2432	 0.10067983961587 
2433	 0.100965242254795 
2434	 0.101039226145642 
2435	 0.101029988533218 
2436	 0.100998579710831 
2437	 0.100845039735872 
2438	 0.100793861643326 
2439	 0.100733240034225 
2440	 0.100712836192334 
2441	 0.100807574558909 
2442	 0.100741644495124 
2443	 0.100621536371424 
2444	 0.100548717984293 
2445	 0.100320498046639 
2446	 0.100281973985935 
2447	 0.100421629904903 
2448	 0.10040969584379 
2449	 0.10044835867385 
2450	 0.100429456700299 
2451	 0.100261190425438 
2452	 0.100180261484794 
2453	 0.100111370740174 
2454	 0.100082825325648 
2455	 0.10013340724177 
2456	 0.100181253201753 
2457	 0.100246960332265 
2458	 0.100297585942453 
2459	 0.100348516530867 
2460	 0.100324752999777 
2461	 0.100273557927971 
2462	 0.100207212569109 
2463	 0.100120006450262 
2464	 0.100105665021328 
2465	 0.10000254714056 
2466	 0.10005199664749 
2467	 0.10026983084461 
2468	 0.100288897936222 
2469	 0.100379003415968 
2470	 0.100255872961031 
2471	 0.100081160721472 
2472	 9.99848817170617E-02 
2473	 9.98464990177923E-02 
2474	 0.099789337600013 
2475	 9.97718053754172E-02 
2476	 9.96476997934126E-02 
2477	 9.96746850716038E-02 
2478	 9.98202517153657E-02 
2479	 9.99278686682045E-02 
2480	 9.99942930140798E-02 
2481	 9.99662001802708E-02 
2482	 9.99179735669541E-02 
2483	 9.97945513450428E-02 
2484	 9.97783811781635E-02 
2485	 9.98956061828483E-02 
2486	 9.98130646283695E-02 
2487	 9.97222805833955E-02 
2488	 9.97233644440216E-02 
2489	 9.96804287990223E-02 
2490	 9.95607036032204E-02 
2491	 9.94803935572787E-02 
2492	 9.94062618680851E-02 
2493	 9.92156735786562E-02 
2494	 9.93972723912011E-02 
2495	 9.96119608910928E-02 
2496	 9.94438989237127E-02 
2497	 9.93821632162852E-02 
2498	 9.91759761953187E-02 
2499	 9.90386855637703E-02 
2500	 9.93992337785751E-02 
