Wavelength	LMW_1600001.asd
350	 7.86588881760023E-02 
351	 8.82863151943427E-02 
352	 8.95637157492649E-02 
353	 7.88397028090532E-02 
354	 8.43178848662075E-02 
355	 8.34628339154634E-02 
356	 8.24743121782578E-02 
357	 8.97010929701796E-02 
358	 9.41157348414969E-02 
359	 9.26020838854479E-02 
360	 8.84783299936115E-02 
361	 8.81874107048177E-02 
362	 8.51679443871038E-02 
363	 8.59760905668216E-02 
364	 0.091692507689321 
365	 9.28838911360357E-02 
366	 0.092555533602931 
367	 9.28904884674065E-02 
368	 9.48875796356461E-02 
369	 9.54624618865968E-02 
370	 9.56127465615096E-02 
371	 0.096662380595053 
372	 0.099458936531943 
373	 9.74846304473031E-02 
374	 9.83435641198451E-02 
375	 0.104337318223882 
376	 0.10577399130212 
377	 0.105448909546277 
378	 0.106394765524691 
379	 0.109997123154426 
380	 0.110405659812299 
381	 0.108037974540536 
382	 0.107325866374693 
383	 0.114155788456358 
384	 0.115990002780956 
385	 0.114243486860403 
386	 0.113579519252247 
387	 0.121408030235208 
388	 0.123913504628431 
389	 0.122742967069602 
390	 0.123717328562142 
391	 0.1261074672267 
392	 0.129500177886657 
393	 0.132722212521875 
394	 0.134281775054892 
395	 0.137175969711085 
396	 0.139742571111547 
397	 0.141136930402832 
398	 0.144012899712892 
399	 0.146345002869709 
400	 0.148299605370861 
401	 0.150636017965683 
402	 0.152867556205069 
403	 0.15490155105429 
404	 0.156758680711837 
405	 0.158602223831458 
406	 0.161738054921853 
407	 0.164583118947639 
408	 0.165675506503589 
409	 0.164785664709987 
410	 0.16596441628716 
411	 0.16874651957045 
412	 0.170781835138277 
413	 0.173760653354264 
414	 0.175216363299253 
415	 0.174943881973391 
416	 0.175939484252382 
417	 0.176509904551766 
418	 0.177113323250507 
419	 0.178414873210594 
420	 0.180350769720901 
421	 0.180730576728861 
422	 0.180386544019276 
423	 0.181712401838855 
424	 0.181205450385011 
425	 0.180490376714114 
426	 0.180677177841648 
427	 0.180817910081074 
428	 0.180740877159119 
429	 0.18059813792189 
430	 0.180602375528196 
431	 0.180514927696589 
432	 0.180624724897512 
433	 0.180895350629399 
434	 0.180982941532702 
435	 0.181382697854049 
436	 0.181903618769116 
437	 0.182493408022227 
438	 0.183896791402479 
439	 0.185112898778093 
440	 0.186055924962231 
441	 0.187150320326067 
442	 0.188845670234157 
443	 0.190493750616659 
444	 0.191846930363694 
445	 0.193412414740064 
446	 0.194947748401334 
447	 0.196529910029525 
448	 0.198293194944141 
449	 0.200288148795338 
450	 0.202152966724386 
451	 0.203802593742308 
452	 0.205400198500933 
453	 0.206854418413884 
454	 0.208168720186984 
455	 0.209493530727241 
456	 0.211424837936459 
457	 0.212566867875287 
458	 0.213300593890343 
459	 0.214674235187522 
460	 0.215951245380255 
461	 0.217019599179419 
462	 0.217918099067318 
463	 0.218802879103869 
464	 0.219906406365893 
465	 0.22095203047183 
466	 0.221682025003934 
467	 0.222528200571633 
468	 0.223356488108368 
469	 0.224157060465356 
470	 0.225024013558146 
471	 0.225952176871404 
472	 0.226707951825541 
473	 0.227234771516223 
474	 0.227965451783766 
475	 0.228667458624351 
476	 0.229338074596928 
477	 0.230072816986368 
478	 0.230953983084007 
479	 0.231830246624635 
480	 0.232586768029986 
481	 0.233177231871081 
482	 0.23408323340252 
483	 0.235030288835203 
484	 0.235733984959085 
485	 0.236834529788209 
486	 0.237726336635552 
487	 0.238323380762402 
488	 0.23899955706278 
489	 0.239866880696935 
490	 0.240640592458843 
491	 0.241242758530305 
492	 0.242318555574245 
493	 0.24322948498562 
494	 0.243965096091751 
495	 0.244807410909593 
496	 0.245856871599592 
497	 0.246720874037057 
498	 0.247395528215501 
499	 0.248531589279577 
500	 0.249372157272574 
501	 0.250041959387875 
502	 0.250847986937937 
503	 0.251666104447769 
504	 0.252546948386366 
505	 0.253433114989315 
506	 0.254181505815311 
507	 0.255027386998416 
508	 0.25592945014511 
509	 0.256798688294317 
510	 0.257569466962858 
511	 0.258368303285611 
512	 0.25916217258763 
513	 0.259869119963607 
514	 0.260794626471723 
515	 0.261727836877312 
516	 0.262533018507481 
517	 0.263296645038523 
518	 0.264062698227218 
519	 0.264817873976527 
520	 0.265543826541409 
521	 0.266308220679119 
522	 0.267159703688294 
523	 0.268055271212583 
524	 0.268862004741049 
525	 0.269573017032566 
526	 0.2702557912634 
527	 0.270992586818048 
528	 0.271855686655704 
529	 0.27270560554549 
530	 0.273505386086814 
531	 0.274291115321588 
532	 0.275059602324321 
533	 0.275951457312556 
534	 0.276954332223036 
535	 0.277698791620485 
536	 0.278392971283666 
537	 0.279177009208831 
538	 0.280117651172001 
539	 0.280939096581201 
540	 0.281751262165662 
541	 0.282593842166916 
542	 0.283365158010127 
543	 0.284226418375109 
544	 0.28516450176911 
545	 0.286104625754134 
546	 0.286939460767356 
547	 0.287812291352744 
548	 0.288765424556462 
549	 0.289746132228398 
550	 0.290680313188545 
551	 0.291573221186272 
552	 0.292481252570946 
553	 0.293575735297178 
554	 0.29448666475456 
555	 0.295273406656174 
556	 0.296197417052641 
557	 0.297097421369179 
558	 0.297907046925934 
559	 0.298644953011303 
560	 0.29945194705832 
561	 0.300322581751378 
562	 0.301264615211291 
563	 0.30227463055793 
564	 0.303301574758887 
565	 0.30437172477847 
566	 0.305564487741298 
567	 0.30700439183181 
568	 0.308123086119357 
569	 0.308929653749549 
570	 0.30956908127144 
571	 0.310051473301414 
572	 0.310678173188671 
573	 0.311532186077448 
574	 0.312506254411808 
575	 0.313324451990829 
576	 0.313979689613086 
577	 0.314561644842208 
578	 0.315230955559523 
579	 0.316091477121283 
580	 0.317186475453448 
581	 0.318482672385878 
582	 0.319766180219281 
583	 0.320895401572218 
584	 0.321711573337049 
585	 0.322001648045554 
586	 0.322449726930386 
587	 0.322949984501512 
588	 0.323265509992969 
589	 0.323722958379753 
590	 0.324166146696393 
591	 0.324513949786802 
592	 0.324776693081353 
593	 0.325044801389272 
594	 0.325380557615537 
595	 0.325893670195968 
596	 0.326861723559615 
597	 0.328047262771518 
598	 0.329281038576612 
599	 0.330437375554799 
600	 0.331453355988312 
601	 0.332229307833082 
602	 0.33279013238895 
603	 0.333387610452589 
604	 0.333844833809202 
605	 0.334291334755737 
606	 0.334902049032948 
607	 0.335495197911022 
608	 0.336087048177707 
609	 0.336670154422172 
610	 0.337201840222775 
611	 0.337836082826219 
612	 0.338607171247521 
613	 0.339447927645179 
614	 0.340089079630235 
615	 0.340701028934759 
616	 0.341292073610091 
617	 0.341772746555274 
618	 0.342385089975327 
619	 0.342966239947941 
620	 0.343428981957149 
621	 0.34397443079243 
622	 0.344566661891575 
623	 0.34514794010808 
624	 0.345659179159779 
625	 0.346140952096361 
626	 0.34664933292794 
627	 0.347196274136357 
628	 0.347733850861371 
629	 0.348277784734046 
630	 0.348759784060417 
631	 0.349152353747431 
632	 0.349653954417475 
633	 0.350213365873799 
634	 0.350736371504254 
635	 0.351121201594457 
636	 0.351652383995083 
637	 0.352208305994626 
638	 0.352649883355745 
639	 0.352954416567731 
640	 0.353392780412167 
641	 0.353906813180852 
642	 0.354314579772331 
643	 0.354832350807351 
644	 0.355329495820812 
645	 0.35575127757187 
646	 0.356198495362367 
647	 0.356590053784129 
648	 0.357001953927716 
649	 0.357511026745398 
650	 0.358014747410422 
651	 0.358457520514432 
652	 0.358841980132819 
653	 0.359226296775057 
654	 0.359716841562387 
655	 0.36019815344303 
656	 0.360584185498153 
657	 0.36095990826873 
658	 0.361365180919291 
659	 0.361815285212272 
660	 0.362296672049333 
661	 0.362730450906169 
662	 0.363093000989125 
663	 0.363442579740782 
664	 0.363942504294437 
665	 0.364535567494532 
666	 0.364997729144958 
667	 0.365203769138561 
668	 0.365609322991349 
669	 0.366130763087439 
670	 0.366642219604403 
671	 0.367008271000172 
672	 0.367354214916552 
673	 0.36778694025281 
674	 0.368307595581386 
675	 0.368685662673957 
676	 0.369000360305446 
677	 0.369347205165424 
678	 0.369808433531798 
679	 0.370283025596133 
680	 0.370694880073795 
681	 0.37103109018846 
682	 0.371355112086416 
683	 0.371755068680026 
684	 0.372210153633402 
685	 0.37264705400355 
686	 0.372915810767622 
687	 0.37330134567448 
688	 0.373781274390874 
689	 0.374124946675432 
690	 0.374468527737899 
691	 0.374845663413591 
692	 0.375260055349859 
693	 0.375699169289179 
694	 0.376008139621344 
695	 0.376284464771185 
696	 0.376683020479806 
697	 0.377105383647607 
698	 0.377431722871961 
699	 0.377716575358632 
700	 0.378183637285932 
701	 0.378477196174665 
702	 0.378726567285207 
703	 0.379076284947998 
704	 0.379410808912179 
705	 0.379761231139279 
706	 0.380068914615921 
707	 0.380269206571857 
708	 0.380630498637696 
709	 0.381021498070562 
710	 0.381354108488767 
711	 0.38166886826859 
712	 0.381938352840323 
713	 0.382150849044943 
714	 0.3823345058016 
715	 0.382640769628717 
716	 0.382963557420022 
717	 0.383246380148894 
718	 0.383475662617574 
719	 0.383635698054137 
720	 0.383824874330295 
721	 0.38406830032366 
722	 0.384211575684815 
723	 0.384459734683542 
724	 0.384774234311725 
725	 0.385047441569744 
726	 0.385302384579992 
727	 0.385466844143096 
728	 0.385576403153774 
729	 0.385759048382668 
730	 0.3858841935597 
731	 0.386040941930361 
732	 0.386275460454419 
733	 0.38644045035173 
734	 0.386602797440846 
735	 0.386754335303863 
736	 0.386875365059161 
737	 0.387058158997926 
738	 0.387212534127377 
739	 0.387334107010619 
740	 0.387520836897343 
741	 0.387615164760979 
742	 0.387685163307013 
743	 0.387796198351078 
744	 0.387864144855571 
745	 0.387967920136087 
746	 0.388112177674139 
747	 0.388253291935533 
748	 0.388306937174958 
749	 0.388262791757815 
750	 0.388205989253102 
751	 0.388318806349603 
752	 0.388493488733065 
753	 0.3886351012556 
754	 0.388688240474595 
755	 0.388697887366296 
756	 0.388709794453268 
757	 0.388736008200222 
758	 0.388777319438908 
759	 0.388932568264449 
760	 0.388935133562497 
761	 0.388775420894146 
762	 0.388796829898384 
763	 0.388811905129577 
764	 0.388809920230239 
765	 0.388823552025648 
766	 0.388906673155253 
767	 0.388949896307789 
768	 0.388911586115171 
769	 0.388814433318151 
770	 0.388833798218454 
771	 0.3888607412094 
772	 0.388825476985963 
773	 0.388740764590123 
774	 0.388665417293058 
775	 0.38863841670257 
776	 0.388659018336648 
777	 0.388645552692435 
778	 0.388597009900167 
779	 0.388547412397051 
780	 0.388530642472979 
781	 0.388457321245779 
782	 0.388368793306029 
783	 0.38828812057653 
784	 0.388209487576759 
785	 0.388186663795016 
786	 0.38812470211624 
787	 0.387991403939151 
788	 0.387970850773278 
789	 0.387991919142671 
790	 0.387935109575978 
791	 0.387716183477897 
792	 0.387526022177654 
793	 0.387436584151488 
794	 0.387470316994901 
795	 0.387584203404568 
796	 0.387429865592341 
797	 0.387233524666613 
798	 0.387155073222931 
799	 0.387055319913622 
800	 0.386968809730429 
801	 0.386857071912032 
802	 0.386707989820294 
803	 0.386683346217582 
804	 0.38665655841426 
805	 0.386601387773311 
806	 0.386553358983353 
807	 0.38646069169732 
808	 0.386321603481106 
809	 0.386184279006707 
810	 0.386147366924565 
811	 0.386144597239609 
812	 0.386027193709407 
813	 0.385762720644894 
814	 0.385664714674121 
815	 0.385604206654594 
816	 0.385566543307625 
817	 0.385553508372774 
818	 0.385424777116158 
819	 0.385329283200039 
820	 0.385259034258562 
821	 0.385079489181417 
822	 0.384991869870897 
823	 0.3849187074016 
824	 0.384787920659988 
825	 0.384605856982225 
826	 0.38449804303632 
827	 0.384420165188044 
828	 0.384328037965182 
829	 0.38436586387612 
830	 0.38422319645309 
831	 0.384063128815857 
832	 0.384181804490135 
833	 0.384145873928646 
834	 0.384018983566804 
835	 0.38384391613724 
836	 0.383629594893886 
837	 0.383644570127855 
838	 0.38368191580707 
839	 0.383598073038932 
840	 0.383498575795922 
841	 0.383381459265595 
842	 0.383252429066697 
843	 0.383131477853788 
844	 0.383093039412843 
845	 0.383000548882953 
846	 0.382863512275344 
847	 0.38276538247345 
848	 0.382761469731389 
849	 0.382748314893469 
850	 0.382678816433161 
851	 0.382574219483841 
852	 0.382521608252057 
853	 0.382483050070304 
854	 0.382410216692307 
855	 0.382272492017961 
856	 0.382279592964991 
857	 0.382296416275355 
858	 0.382183108105633 
859	 0.381979408197509 
860	 0.382020604883497 
861	 0.382161458735046 
862	 0.382129053723467 
863	 0.381959791812297 
864	 0.381868629249482 
865	 0.381913983719385 
866	 0.382009409071851 
867	 0.381897272713719 
868	 0.381719395997701 
869	 0.381639995473802 
870	 0.381768423020321 
871	 0.381786778557013 
872	 0.381798283413219 
873	 0.381860953725091 
874	 0.381846365488268 
875	 0.381694194804809 
876	 0.381574603904389 
877	 0.381621896213474 
878	 0.381734205412917 
879	 0.381760352450629 
880	 0.381688559781453 
881	 0.381612911810781 
882	 0.381786957691949 
883	 0.381895862793841 
884	 0.381882337692677 
885	 0.381855759983654 
886	 0.381881772770689 
887	 0.381964832255954 
888	 0.382066199320049 
889	 0.382123773180916 
890	 0.3821653865564 
891	 0.382205157936402 
892	 0.38223864912165 
893	 0.382242699838432 
894	 0.382256547846859 
895	 0.382298876593132 
896	 0.382390183353341 
897	 0.382563534699394 
898	 0.382640516573961 
899	 0.382724795368662 
900	 0.382879700420254 
901	 0.382847566801746 
902	 0.382826804511154 
903	 0.382908296737652 
904	 0.383087406546884 
905	 0.383167043059169 
906	 0.383278419288449 
907	 0.383390968514089 
908	 0.383432837093545 
909	 0.383543204898474 
910	 0.383689334331919 
911	 0.383857705142449 
912	 0.384037552755639 
913	 0.384115996762038 
914	 0.384212781953961 
915	 0.384374335856871 
916	 0.384557670424656 
917	 0.384734735228817 
918	 0.384857891298018 
919	 0.384904969567854 
920	 0.384897408227343 
921	 0.385011967492321 
922	 0.385216836105717 
923	 0.385488971985157 
924	 0.385866797377459 
925	 0.385985052797144 
926	 0.386006278647118 
927	 0.386118365123501 
928	 0.386320872369389 
929	 0.386547756436272 
930	 0.3867607829886 
931	 0.386937819885984 
932	 0.387067094760836 
933	 0.387313055073076 
934	 0.387489005080275 
935	 0.387471512110247 
936	 0.387613725249208 
937	 0.387820314990646 
938	 0.388128717247557 
939	 0.388534855679561 
940	 0.388797189777486 
941	 0.38892668296574 
942	 0.389100629667414 
943	 0.389447779247587 
944	 0.389645767689617 
945	 0.389796155210832 
946	 0.389903213647587 
947	 0.389966871330528 
948	 0.390167245665856 
949	 0.390320373124683 
950	 0.390495637125993 
951	 0.390825493947058 
952	 0.391042626586422 
953	 0.391327939853913 
954	 0.391622045896668 
955	 0.391763692193742 
956	 0.391860379541498 
957	 0.392134871529504 
958	 0.392421021712764 
959	 0.392429024692259 
960	 0.392607190264439 
961	 0.392888153152229 
962	 0.393269374096561 
963	 0.393732831587295 
964	 0.393836401487131 
965	 0.394055743839042 
966	 0.394412387760997 
967	 0.394626966496628 
968	 0.394876723290542 
969	 0.395175534299107 
970	 0.395502399668763 
971	 0.395829840567048 
972	 0.39623777188685 
973	 0.396460746260304 
974	 0.396624676869382 
975	 0.397048570245863 
976	 0.39744500958194 
977	 0.397845924561588 
978	 0.398137612248438 
979	 0.398195892300803 
980	 0.398410474314726 
981	 0.398558698773486 
982	 0.398740109182264 
983	 0.399199230462493 
984	 0.399735542640729 
985	 0.400187006218973 
986	 0.400489676445102 
987	 0.400685207389943 
988	 0.400936327808198 
989	 0.401336935671753 
990	 0.401708721968274 
991	 0.401852188724033 
992	 0.402117729484012 
993	 0.402378406955806 
994	 0.402644644639736 
995	 0.402958484209981 
996	 0.403200310618572 
997	 0.403531288791121 
998	 0.403917551073174 
999	 0.404315672923395 
1000	 0.4049876255959 
1001	 0.402719787461868 
1002	 0.402887248141943 
1003	 0.403095936197038 
1004	 0.403312315934221 
1005	 0.403463169821958 
1006	 0.403652222279372 
1007	 0.403889303890844 
1008	 0.404173434105483 
1009	 0.404361532387828 
1010	 0.404547267125022 
1011	 0.404737865924953 
1012	 0.404956799380776 
1013	 0.405104157546268 
1014	 0.405255304041071 
1015	 0.405519544975062 
1016	 0.405702519462162 
1017	 0.405916368935276 
1018	 0.406175526495766 
1019	 0.406445701473171 
1020	 0.406586101895012 
1021	 0.406800031225858 
1022	 0.407025414679099 
1023	 0.407225224322548 
1024	 0.407494075236577 
1025	 0.407654212059598 
1026	 0.407771076090661 
1027	 0.407990369756725 
1028	 0.40815443141178 
1029	 0.408395114543182 
1030	 0.408708064211895 
1031	 0.408932127149951 
1032	 0.409103804172093 
1033	 0.409317734626079 
1034	 0.409481786799961 
1035	 0.409575904707422 
1036	 0.40975001221643 
1037	 0.409924632374251 
1038	 0.410102917854165 
1039	 0.410339968486771 
1040	 0.410545621533278 
1041	 0.410752080940632 
1042	 0.41099429301205 
1043	 0.411166428767633 
1044	 0.411352094245809 
1045	 0.411523532532199 
1046	 0.411739404270852 
1047	 0.411933539358794 
1048	 0.41214124469384 
1049	 0.412337154234918 
1050	 0.412514388318402 
1051	 0.412710821385597 
1052	 0.412894119658814 
1053	 0.41307446044328 
1054	 0.413271939504465 
1055	 0.413417692747702 
1056	 0.413562915431109 
1057	 0.413761541289253 
1058	 0.413990180500873 
1059	 0.414197174484269 
1060	 0.414419015286851 
1061	 0.414724188496624 
1062	 0.414884201565263 
1063	 0.415046954421296 
1064	 0.415209500618108 
1065	 0.415286299729436 
1066	 0.415445403046428 
1067	 0.41567590300404 
1068	 0.415882045724726 
1069	 0.41606721262287 
1070	 0.41624237772462 
1071	 0.416353000723432 
1072	 0.416524611054109 
1073	 0.416750014002456 
1074	 0.416943397406918 
1075	 0.417138210560247 
1076	 0.417334364352127 
1077	 0.417508444595023 
1078	 0.41766005539284 
1079	 0.417852247418898 
1080	 0.418044368695645 
1081	 0.418242202620548 
1082	 0.418412166407522 
1083	 0.418564523951569 
1084	 0.418690702647972 
1085	 0.418841523389942 
1086	 0.418985912560944 
1087	 0.419125738448783 
1088	 0.419268727080095 
1089	 0.419406926174157 
1090	 0.419573341812259 
1091	 0.419699148536848 
1092	 0.419844313254648 
1093	 0.419994814854017 
1094	 0.420075718040515 
1095	 0.420175824562962 
1096	 0.420265309116785 
1097	 0.420311426254729 
1098	 0.420377399286449 
1099	 0.420427468665182 
1100	 0.420517468258723 
1101	 0.420625528285738 
1102	 0.420741130549195 
1103	 0.420904548858859 
1104	 0.421001555983113 
1105	 0.421114655446593 
1106	 0.421224330624698 
1107	 0.421320186240236 
1108	 0.421466547530505 
1109	 0.421541679447456 
1110	 0.421596166285656 
1111	 0.421682197603463 
1112	 0.421754177021334 
1113	 0.421826919538082 
1114	 0.421924934282032 
1115	 0.422021010159394 
1116	 0.422098037233411 
1117	 0.42218395350138 
1118	 0.422272832899281 
1119	 0.422401279206303 
1120	 0.422501133848645 
1121	 0.422579460530777 
1122	 0.422723075944046 
1123	 0.422855874019464 
1124	 0.422974448823876 
1125	 0.423114800297505 
1126	 0.423220276315612 
1127	 0.423275373560106 
1128	 0.423367991639628 
1129	 0.423474597895965 
1130	 0.423566190986693 
1131	 0.423672723164159 
1132	 0.423761649917522 
1133	 0.423807501508642 
1134	 0.4238892719684 
1135	 0.423981613469293 
1136	 0.424089839941833 
1137	 0.424201560663521 
1138	 0.42429936001273 
1139	 0.424384130282899 
1140	 0.424440094228573 
1141	 0.424520479504663 
1142	 0.424616592629308 
1143	 0.424689804306263 
1144	 0.424761607122073 
1145	 0.424825694457781 
1146	 0.424860251050625 
1147	 0.424913632367799 
1148	 0.424991565436438 
1149	 0.425040982372783 
1150	 0.425065115491423 
1151	 0.42511443441376 
1152	 0.425157768560658 
1153	 0.425211857177856 
1154	 0.425274300811572 
1155	 0.425357534067454 
1156	 0.425443873413835 
1157	 0.425537792414438 
1158	 0.425619391542448 
1159	 0.425723210228692 
1160	 0.425793328382376 
1161	 0.425818286146755 
1162	 0.425879747532697 
1163	 0.42593837786935 
1164	 0.426014491139935 
1165	 0.426119108552403 
1166	 0.426227517674448 
1167	 0.426297192145861 
1168	 0.426364469544261 
1169	 0.42644150440758 
1170	 0.42650148889365 
1171	 0.42657591495865 
1172	 0.42667381678325 
1173	 0.426756860694969 
1174	 0.426825066934809 
1175	 0.426905600477357 
1176	 0.427001024160862 
1177	 0.427080821160291 
1178	 0.427144078351374 
1179	 0.427228831173639 
1180	 0.427312842168276 
1181	 0.427404347070806 
1182	 0.427529302856729 
1183	 0.427632223133774 
1184	 0.427722984060859 
1185	 0.427802796181388 
1186	 0.427888558568631 
1187	 0.427961255581916 
1188	 0.428043840193397 
1189	 0.428144384779394 
1190	 0.428219278337628 
1191	 0.428271544830881 
1192	 0.428343168717264 
1193	 0.42839904599959 
1194	 0.42848195544068 
1195	 0.428609401045155 
1196	 0.428702534239215 
1197	 0.428798161708429 
1198	 0.428879036377466 
1199	 0.428945738874826 
1200	 0.428981833150271 
1201	 0.429043981702669 
1202	 0.429097989933721 
1203	 0.429179880302567 
1204	 0.429284046319854 
1205	 0.429373831487617 
1206	 0.429488105077764 
1207	 0.429568862023271 
1208	 0.429614968970138 
1209	 0.429686711566334 
1210	 0.429760355493924 
1211	 0.429829906781741 
1212	 0.429910410872828 
1213	 0.429986312622328 
1214	 0.430039284742285 
1215	 0.430113674645033 
1216	 0.430198445049823 
1217	 0.430306153705835 
1218	 0.430380327215721 
1219	 0.430455648213608 
1220	 0.430519697935283 
1221	 0.430550091875352 
1222	 0.430611000761007 
1223	 0.430693418878429 
1224	 0.430755931424437 
1225	 0.430814545342752 
1226	 0.430876466883133 
1227	 0.430923946251042 
1228	 0.430985091339462 
1229	 0.431055769566869 
1230	 0.43113066394923 
1231	 0.431213797432235 
1232	 0.431295774753369 
1233	 0.431380163900737 
1234	 0.43147729589418 
1235	 0.431547908081974 
1236	 0.431608800926353 
1237	 0.431668818450386 
1238	 0.431716683005253 
1239	 0.431763174343281 
1240	 0.431808415198324 
1241	 0.431851888246738 
1242	 0.431876409273042 
1243	 0.431922938248348 
1244	 0.431976044275675 
1245	 0.432037115898125 
1246	 0.432112652238786 
1247	 0.432190137207674 
1248	 0.432275948101917 
1249	 0.43236855653518 
1250	 0.432439541382763 
1251	 0.432515227561903 
1252	 0.432591938740176 
1253	 0.432657763711257 
1254	 0.432738162285246 
1255	 0.432833119058701 
1256	 0.432917242381987 
1257	 0.433002764466351 
1258	 0.433080994112269 
1259	 0.43316027558792 
1260	 0.433227790794966 
1261	 0.433272574947698 
1262	 0.433339020391062 
1263	 0.433418743142358 
1264	 0.433482431022662 
1265	 0.433558942356989 
1266	 0.433619457155188 
1267	 0.433654019403261 
1268	 0.433682689432697 
1269	 0.43373569827678 
1270	 0.433799624497484 
1271	 0.433851879055288 
1272	 0.433920135516983 
1273	 0.433964505306564 
1274	 0.433982656543772 
1275	 0.434019946998889 
1276	 0.434055225314274 
1277	 0.43409905553396 
1278	 0.434157631533699 
1279	 0.434205636979045 
1280	 0.434264091265513 
1281	 0.434298170275277 
1282	 0.434310290676487 
1283	 0.434330318753756 
1284	 0.434325777095556 
1285	 0.434346197416967 
1286	 0.434391858825062 
1287	 0.434421197969425 
1288	 0.434458538232549 
1289	 0.434501889267375 
1290	 0.434550950395468 
1291	 0.434594686159552 
1292	 0.434662960545217 
1293	 0.43475921176495 
1294	 0.4348279019843 
1295	 0.434900600083369 
1296	 0.434967530889126 
1297	 0.435004368658164 
1298	 0.4350751512001 
1299	 0.435181340854449 
1300	 0.435250597470647 
1301	 0.435318866818698 
1302	 0.435380893796701 
1303	 0.435416462765439 
1304	 0.435450835612158 
1305	 0.435528099114278 
1306	 0.435575017824774 
1307	 0.435592736538134 
1308	 0.43561134151627 
1309	 0.435623989927593 
1310	 0.435609180931942 
1311	 0.435608761834725 
1312	 0.435628684229226 
1313	 0.435617892665675 
1314	 0.435577570110141 
1315	 0.435560029447677 
1316	 0.435538320900803 
1317	 0.435521985618194 
1318	 0.435525905815364 
1319	 0.435515010931837 
1320	 0.435503060574571 
1321	 0.435480752499445 
1322	 0.435451999597912 
1323	 0.435408239613335 
1324	 0.435380353546044 
1325	 0.435350747681794 
1326	 0.435326471956256 
1327	 0.435276269193462 
1328	 0.435172530891812 
1329	 0.435086224877809 
1330	 0.435017848428369 
1331	 0.434943350413412 
1332	 0.434888678712297 
1333	 0.434871086033163 
1334	 0.43482135299266 
1335	 0.434754493042805 
1336	 0.434712946956738 
1337	 0.434670578485285 
1338	 0.434639794957331 
1339	 0.434651574360822 
1340	 0.434614691915109 
1341	 0.434569450511218 
1342	 0.434503021468071 
1343	 0.434409265276421 
1344	 0.43429456534681 
1345	 0.434190745727205 
1346	 0.434072085241178 
1347	 0.433948692686518 
1348	 0.433804685179878 
1349	 0.433601333631711 
1350	 0.433375697544611 
1351	 0.433145988964011 
1352	 0.432869088671893 
1353	 0.43263498809204 
1354	 0.432437094300991 
1355	 0.432177914146631 
1356	 0.431880379867075 
1357	 0.431630045065596 
1358	 0.43132302003973 
1359	 0.43111598882657 
1360	 0.430993534928614 
1361	 0.430863086085161 
1362	 0.430754464509466 
1363	 0.43068729823404 
1364	 0.430627123904599 
1365	 0.43062413624362 
1366	 0.430696253063985 
1367	 0.430763508997778 
1368	 0.43085213527453 
1369	 0.430934694869839 
1370	 0.430938459275533 
1371	 0.430910364369353 
1372	 0.430819281084469 
1373	 0.430682563056966 
1374	 0.430489761413767 
1375	 0.430269619009648 
1376	 0.429933158625607 
1377	 0.429511406364546 
1378	 0.429035828459942 
1379	 0.428413645371754 
1380	 0.427883000421997 
1381	 0.427320494032066 
1382	 0.426809740685389 
1383	 0.426382309698735 
1384	 0.425882837397513 
1385	 0.425449071130881 
1386	 0.424865093252291 
1387	 0.424229224691872 
1388	 0.423481201007056 
1389	 0.422654689233824 
1390	 0.421686846705494 
1391	 0.420584747961609 
1392	 0.419360734479274 
1393	 0.417960030107224 
1394	 0.41648351991886 
1395	 0.414968775771361 
1396	 0.413431538160632 
1397	 0.411940965844359 
1398	 0.410445876602301 
1399	 0.408988091379779 
1400	 0.407539553677433 
1401	 0.406161832852937 
1402	 0.404790885456732 
1403	 0.403532907462654 
1404	 0.402330159130258 
1405	 0.401238879125041 
1406	 0.400245645616691 
1407	 0.399315904982778 
1408	 0.398407319824518 
1409	 0.397707364607044 
1410	 0.396989896559846 
1411	 0.396651093641462 
1412	 0.396546519548318 
1413	 0.396697580378236 
1414	 0.397204249355174 
1415	 0.397938598308594 
1416	 0.398865079743498 
1417	 0.399958798797807 
1418	 0.40112145990544 
1419	 0.402280892965998 
1420	 0.403482751998597 
1421	 0.40463795480543 
1422	 0.405627674869186 
1423	 0.406526326289078 
1424	 0.407245934413408 
1425	 0.407759621784758 
1426	 0.40824361112814 
1427	 0.408583123618095 
1428	 0.408924421357045 
1429	 0.409202853263671 
1430	 0.409443668881559 
1431	 0.409658420181042 
1432	 0.409805950794022 
1433	 0.409872814755502 
1434	 0.409940111001716 
1435	 0.4099329634716 
1436	 0.409965195006821 
1437	 0.410025260423931 
1438	 0.410042364331503 
1439	 0.410053488514834 
1440	 0.410053626743488 
1441	 0.409974259815792 
1442	 0.409899094402491 
1443	 0.409835424596973 
1444	 0.409762361887264 
1445	 0.40974792210445 
1446	 0.409736853289711 
1447	 0.409677717171188 
1448	 0.409617160444069 
1449	 0.409514159008618 
1450	 0.409378603808656 
1451	 0.409285363475255 
1452	 0.409197591508231 
1453	 0.409132618335527 
1454	 0.409111686760604 
1455	 0.409044754561519 
1456	 0.408993707032962 
1457	 0.408884781055137 
1458	 0.408703666032374 
1459	 0.408582812165015 
1460	 0.408433013851446 
1461	 0.408339679737079 
1462	 0.408313771745736 
1463	 0.408261011965074 
1464	 0.408237099461762 
1465	 0.408183922193873 
1466	 0.408084826410473 
1467	 0.408034744760968 
1468	 0.407961664756455 
1469	 0.40795365098299 
1470	 0.408009803550059 
1471	 0.408087225990224 
1472	 0.408159634571501 
1473	 0.40824221129241 
1474	 0.408275963114281 
1475	 0.408323287819004 
1476	 0.408393199139006 
1477	 0.408486746245982 
1478	 0.408644083347226 
1479	 0.40879828448322 
1480	 0.408944466323937 
1481	 0.409079320910202 
1482	 0.409204331286943 
1483	 0.409303843803905 
1484	 0.40941652129369 
1485	 0.409524560161724 
1486	 0.409651210055106 
1487	 0.409790960165295 
1488	 0.409911109196388 
1489	 0.410043018172406 
1490	 0.410157703471427 
1491	 0.410259316998235 
1492	 0.410337519830449 
1493	 0.410391785146017 
1494	 0.410465328993286 
1495	 0.410520085449252 
1496	 0.410584650204831 
1497	 0.410683712269013 
1498	 0.410750844905755 
1499	 0.410797946278754 
1500	 0.410842064745297 
1501	 0.410869979018475 
1502	 0.410902827734352 
1503	 0.410930297597479 
1504	 0.410958195494392 
1505	 0.410988315540103 
1506	 0.411019433576496 
1507	 0.411069289657383 
1508	 0.411099910383454 
1509	 0.411101741348046 
1510	 0.411121854945045 
1511	 0.411125818178828 
1512	 0.411113383382719 
1513	 0.411136126792333 
1514	 0.411157101757266 
1515	 0.411174925198414 
1516	 0.411193911592989 
1517	 0.411182573463057 
1518	 0.411154357424013 
1519	 0.411129438203554 
1520	 0.411074835428745 
1521	 0.411048506075928 
1522	 0.411040575747024 
1523	 0.411018089640517 
1524	 0.410997917486596 
1525	 0.410971503199403 
1526	 0.410939908393845 
1527	 0.410905790445863 
1528	 0.410869783375922 
1529	 0.41082531460498 
1530	 0.410769540704634 
1531	 0.410723504427999 
1532	 0.410669652089699 
1533	 0.410630020268394 
1534	 0.410603130855559 
1535	 0.4105760310916 
1536	 0.410549323457073 
1537	 0.410534699055467 
1538	 0.410535745044313 
1539	 0.410525478783693 
1540	 0.410525378064914 
1541	 0.410515704164937 
1542	 0.410502198257283 
1543	 0.410469553216314 
1544	 0.410422891056022 
1545	 0.41037205472548 
1546	 0.410298335450411 
1547	 0.41023396684987 
1548	 0.410173120760441 
1549	 0.410110910851928 
1550	 0.410058721450849 
1551	 0.410011391289282 
1552	 0.409984835442291 
1553	 0.40994956965534 
1554	 0.409909269827231 
1555	 0.409876586196873 
1556	 0.409821174928213 
1557	 0.409782437953427 
1558	 0.409744731824165 
1559	 0.409680825105849 
1560	 0.409613326845123 
1561	 0.409524338756664 
1562	 0.409468319732142 
1563	 0.409417337654474 
1564	 0.409370153063659 
1565	 0.409350146192105 
1566	 0.409308650779174 
1567	 0.409257066663693 
1568	 0.409191342336879 
1569	 0.409127018713385 
1570	 0.409041691030718 
1571	 0.408927575505688 
1572	 0.408829375084315 
1573	 0.408716156180362 
1574	 0.408626989835288 
1575	 0.408547343232046 
1576	 0.408475968651514 
1577	 0.408421656751963 
1578	 0.408370317492842 
1579	 0.408322696463219 
1580	 0.408285686116874 
1581	 0.408278153740762 
1582	 0.408231057104309 
1583	 0.408171753388098 
1584	 0.408109459465092 
1585	 0.408021881266515 
1586	 0.407942806507175 
1587	 0.407874206003195 
1588	 0.407791438483852 
1589	 0.407690889662829 
1590	 0.407597799723639 
1591	 0.40750084071384 
1592	 0.407411723713223 
1593	 0.407338359056923 
1594	 0.407247314772236 
1595	 0.407154296373446 
1596	 0.407048448394503 
1597	 0.406921868024516 
1598	 0.406801474408587 
1599	 0.406671263152082 
1600	 0.406554773290726 
1601	 0.406439567010858 
1602	 0.406336758106855 
1603	 0.40625106089562 
1604	 0.406161120241468 
1605	 0.406076268893351 
1606	 0.405991763458242 
1607	 0.405909495962533 
1608	 0.405826391481736 
1609	 0.405737445945105 
1610	 0.405646018338086 
1611	 0.405550599044571 
1612	 0.405457652976758 
1613	 0.405365165343676 
1614	 0.405257939403249 
1615	 0.405118419419092 
1616	 0.404994517620855 
1617	 0.404901024108016 
1618	 0.404816034810397 
1619	 0.404759994213681 
1620	 0.404705195731428 
1621	 0.404617803278678 
1622	 0.404503628294702 
1623	 0.404406120800363 
1624	 0.404298990025034 
1625	 0.404197772102436 
1626	 0.404103542228336 
1627	 0.404012729206653 
1628	 0.403921200006751 
1629	 0.403825470982189 
1630	 0.40373965413163 
1631	 0.403636146685446 
1632	 0.403516941120041 
1633	 0.403405422040314 
1634	 0.403297206185176 
1635	 0.4031716205801 
1636	 0.403036224993308 
1637	 0.402905283535524 
1638	 0.40275529400732 
1639	 0.402635614789409 
1640	 0.402534729766897 
1641	 0.402428219662387 
1642	 0.402341655454402 
1643	 0.402223703516308 
1644	 0.40209263757157 
1645	 0.401958522152593 
1646	 0.401800520486222 
1647	 0.401665936438624 
1648	 0.401542821005417 
1649	 0.401408691722842 
1650	 0.401279030853407 
1651	 0.401144053649792 
1652	 0.400993268392268 
1653	 0.400863243518559 
1654	 0.400738780305819 
1655	 0.400624799597649 
1656	 0.400545243171474 
1657	 0.400411848054236 
1658	 0.400248587349197 
1659	 0.400113492845683 
1660	 0.3999467441803 
1661	 0.399822838454409 
1662	 0.399747932150724 
1663	 0.399650556382488 
1664	 0.399574974995766 
1665	 0.399446609751738 
1666	 0.399297772118251 
1667	 0.399137314105115 
1668	 0.398921436308252 
1669	 0.398747041843651 
1670	 0.398586758484925 
1671	 0.398427689536482 
1672	 0.398260261248883 
1673	 0.398136601257494 
1674	 0.398045512089091 
1675	 0.397941401057757 
1676	 0.397897182133438 
1677	 0.39776603307811 
1678	 0.397571407037844 
1679	 0.397405370806557 
1680	 0.397194808758467 
1681	 0.397030432049996 
1682	 0.3969010184182 
1683	 0.396765056720913 
1684	 0.396639929458584 
1685	 0.396513088778252 
1686	 0.396405216903305 
1687	 0.396263142159938 
1688	 0.396106392779916 
1689	 0.395946855912076 
1690	 0.395769350793791 
1691	 0.39558630486592 
1692	 0.395395503900089 
1693	 0.395210996787021 
1694	 0.395010563943702 
1695	 0.394826888560868 
1696	 0.394639837869766 
1697	 0.394493781998036 
1698	 0.394378348011043 
1699	 0.394252961898846 
1700	 0.394165998611655 
1701	 0.394046825973505 
1702	 0.393908105674503 
1703	 0.393760936980766 
1704	 0.393598271577644 
1705	 0.393451639255837 
1706	 0.393293472679485 
1707	 0.393149005877789 
1708	 0.393033326005673 
1709	 0.392891025337425 
1710	 0.392731925807719 
1711	 0.392585810563324 
1712	 0.392452502514245 
1713	 0.392278655798661 
1714	 0.392078767272356 
1715	 0.391910858559246 
1716	 0.391721703197237 
1717	 0.391555206698048 
1718	 0.391431081984185 
1719	 0.391281024359578 
1720	 0.391117634309386 
1721	 0.39095919036555 
1722	 0.390816143156169 
1723	 0.390645070590123 
1724	 0.390445503188264 
1725	 0.390267216869342 
1726	 0.390087741036084 
1727	 0.389905572387864 
1728	 0.389722090022148 
1729	 0.389566725600217 
1730	 0.389408137770603 
1731	 0.389281480365306 
1732	 0.389202534579401 
1733	 0.389086119817911 
1734	 0.388979029626321 
1735	 0.388835879410603 
1736	 0.388674892151266 
1737	 0.388493050134293 
1738	 0.388283124648009 
1739	 0.388069285621775 
1740	 0.387832686097665 
1741	 0.387614075359968 
1742	 0.387373555577156 
1743	 0.387193031909752 
1744	 0.387035469264583 
1745	 0.3868960048178 
1746	 0.386814251827973 
1747	 0.386711727977141 
1748	 0.386569906115564 
1749	 0.386404040148122 
1750	 0.386229630888958 
1751	 0.386035785366877 
1752	 0.385842743507631 
1753	 0.385647409049365 
1754	 0.385448230776254 
1755	 0.38525751993961 
1756	 0.385083083985188 
1757	 0.384932012990477 
1758	 0.384789490517725 
1759	 0.384639221591361 
1760	 0.384480098352452 
1761	 0.384341085500647 
1762	 0.384207291594576 
1763	 0.384089017106951 
1764	 0.383985941688687 
1765	 0.383866749246306 
1766	 0.383745525082358 
1767	 0.383569443064669 
1768	 0.383373366260354 
1769	 0.383203846599004 
1770	 0.383038534252369 
1771	 0.382922000995571 
1772	 0.382848038861914 
1773	 0.382773528431965 
1774	 0.382665744125143 
1775	 0.382523235331824 
1776	 0.382380160494299 
1777	 0.382240250909113 
1778	 0.382100251149546 
1779	 0.381983138440809 
1780	 0.381851502663517 
1781	 0.381706053646385 
1782	 0.381601041987015 
1783	 0.38150397170929 
1784	 0.381394729663217 
1785	 0.381281685759186 
1786	 0.381163143714551 
1787	 0.381036364394911 
1788	 0.380925447514114 
1789	 0.380827144842938 
1790	 0.380701787631005 
1791	 0.380567588828846 
1792	 0.380438760635095 
1793	 0.380289966910348 
1794	 0.380154713413668 
1795	 0.380033459309658 
1796	 0.379915790318544 
1797	 0.379794805586889 
1798	 0.379704611073651 
1799	 0.37965319795071 
1800	 0.379533162897444 
1801	 0.374007951019756 
1802	 0.374346657975245 
1803	 0.374736105866267 
1804	 0.375173686290262 
1805	 0.375580919170338 
1806	 0.375921924092776 
1807	 0.37621726739218 
1808	 0.376472447046939 
1809	 0.376676274125919 
1810	 0.376813326793424 
1811	 0.376893218446738 
1812	 0.376988857791495 
1813	 0.376974547825412 
1814	 0.376922668916939 
1815	 0.376896715558551 
1816	 0.376830128087611 
1817	 0.376764626865841 
1818	 0.376666229924242 
1819	 0.376593924787309 
1820	 0.376536863801065 
1821	 0.376458500320757 
1822	 0.376358238887584 
1823	 0.376291937778934 
1824	 0.37621149384723 
1825	 0.376089877757184 
1826	 0.375977095233831 
1827	 0.375863534920248 
1828	 0.37570640091292 
1829	 0.375507995107391 
1830	 0.37531108458647 
1831	 0.375100171780273 
1832	 0.374856235577224 
1833	 0.374599814680609 
1834	 0.374359909884868 
1835	 0.374150733502443 
1836	 0.373948228039597 
1837	 0.373772391459256 
1838	 0.373647676762033 
1839	 0.373532801803573 
1840	 0.373439848631111 
1841	 0.373345603417264 
1842	 0.373293269832103 
1843	 0.373251870539623 
1844	 0.373198774286742 
1845	 0.373173475067642 
1846	 0.373177540325377 
1847	 0.373174463444442 
1848	 0.373166647512966 
1849	 0.373186211825279 
1850	 0.373189143963816 
1851	 0.373183165447653 
1852	 0.373145474007264 
1853	 0.373137356257466 
1854	 0.373137364709016 
1855	 0.373109256380367 
1856	 0.37309122373981 
1857	 0.373073452836838 
1858	 0.373018100780057 
1859	 0.372943612697915 
1860	 0.372820716973472 
1861	 0.372675002756766 
1862	 0.37248330354024 
1863	 0.372207971600898 
1864	 0.371850560004503 
1865	 0.371469515502708 
1866	 0.370989754031996 
1867	 0.370509863043199 
1868	 0.370051816865846 
1869	 0.369591052454162 
1870	 0.369196690761816 
1871	 0.368849819820235 
1872	 0.368549789203515 
1873	 0.368305023447075 
1874	 0.368088556274005 
1875	 0.367915150818501 
1876	 0.36769895394236 
1877	 0.367436218555231 
1878	 0.367094535322951 
1879	 0.366626837819451 
1880	 0.366055016354405 
1881	 0.365380158820272 
1882	 0.364588804261984 
1883	 0.363697785708869 
1884	 0.362673196827645 
1885	 0.361543890839506 
1886	 0.360339176301476 
1887	 0.359030880362893 
1888	 0.357676418005327 
1889	 0.356259737331291 
1890	 0.354762115059568 
1891	 0.353200690554371 
1892	 0.351551396544642 
1893	 0.349864926005534 
1894	 0.348105606795671 
1895	 0.34630546227302 
1896	 0.344494479484323 
1897	 0.342655661306709 
1898	 0.34076888495265 
1899	 0.338931068251526 
1900	 0.337170358897544 
1901	 0.335481720253311 
1902	 0.333914822913065 
1903	 0.332519920930653 
1904	 0.33114493988791 
1905	 0.329831336008419 
1906	 0.328606490684886 
1907	 0.327464135103395 
1908	 0.326350527213105 
1909	 0.325309228509562 
1910	 0.324325645965412 
1911	 0.323399162674012 
1912	 0.322506116894166 
1913	 0.321661941034099 
1914	 0.320860858098509 
1915	 0.32012391141264 
1916	 0.319422269898911 
1917	 0.318793540741893 
1918	 0.318262470056074 
1919	 0.317789997690909 
1920	 0.317376266960359 
1921	 0.317018241024721 
1922	 0.316672176408535 
1923	 0.316363267816578 
1924	 0.316108287229984 
1925	 0.315920580033997 
1926	 0.315730439879437 
1927	 0.315577258093776 
1928	 0.315448639335314 
1929	 0.31530430521017 
1930	 0.315186057165531 
1931	 0.315091903621083 
1932	 0.314991483602993 
1933	 0.314944126879168 
1934	 0.31490770688548 
1935	 0.314902574236208 
1936	 0.314932496492346 
1937	 0.314987165004748 
1938	 0.315070042715756 
1939	 0.315167258116619 
1940	 0.315282845534733 
1941	 0.315425240092992 
1942	 0.315601341072526 
1943	 0.315796549293313 
1944	 0.315999283863074 
1945	 0.31621797929266 
1946	 0.316431904143236 
1947	 0.316640986506428 
1948	 0.316851328599681 
1949	 0.31705550749412 
1950	 0.317285256253151 
1951	 0.317521645000458 
1952	 0.317766802726971 
1953	 0.318038236111852 
1954	 0.318322649375675 
1955	 0.31857347632366 
1956	 0.318836805093066 
1957	 0.319122551240899 
1958	 0.319416564680591 
1959	 0.319718728068982 
1960	 0.320062428548843 
1961	 0.320375072396145 
1962	 0.320666572823414 
1963	 0.320972063838452 
1964	 0.321276540049058 
1965	 0.321581604905477 
1966	 0.321897214142704 
1967	 0.322229234188619 
1968	 0.32254120063703 
1969	 0.322856901442703 
1970	 0.323147901733267 
1971	 0.323409791146549 
1972	 0.323687762034916 
1973	 0.32394071206333 
1974	 0.324228164988291 
1975	 0.324536863421762 
1976	 0.324858969874168 
1977	 0.325167648826197 
1978	 0.325486247592925 
1979	 0.325800742286305 
1980	 0.326109106078463 
1981	 0.326412544098688 
1982	 0.326720355999797 
1983	 0.327023155684688 
1984	 0.327320149675501 
1985	 0.327604855307011 
1986	 0.32787515968082 
1987	 0.328163086210417 
1988	 0.32844161610405 
1989	 0.328730379006456 
1990	 0.329040513741761 
1991	 0.32934664915185 
1992	 0.329645121558566 
1993	 0.329930896659648 
1994	 0.330230562573902 
1995	 0.330539909857175 
1996	 0.330836440421519 
1997	 0.331130746755461 
1998	 0.331426277494375 
1999	 0.331721076255316 
2000	 0.332003841702444 
2001	 0.332272564166652 
2002	 0.332550159602915 
2003	 0.332853322572544 
2004	 0.333170404541293 
2005	 0.333476124987801 
2006	 0.333808882762759 
2007	 0.334127393561418 
2008	 0.334416090512391 
2009	 0.334729275762335 
2010	 0.3350818762096 
2011	 0.335397758036673 
2012	 0.335694506933076 
2013	 0.335994930665968 
2014	 0.336286556264245 
2015	 0.336564703830765 
2016	 0.336870139355293 
2017	 0.337173820507366 
2018	 0.337459970912258 
2019	 0.337741258412937 
2020	 0.338022180446138 
2021	 0.338289542407693 
2022	 0.33855505057994 
2023	 0.338825346941601 
2024	 0.339084308240474 
2025	 0.339330875596811 
2026	 0.339575911524159 
2027	 0.339799982960578 
2028	 0.340051670567318 
2029	 0.340306785064335 
2030	 0.340568344790045 
2031	 0.340816125725428 
2032	 0.34108263710734 
2033	 0.341319559307881 
2034	 0.341528948223047 
2035	 0.341744371900605 
2036	 0.341947065869944 
2037	 0.342157134966797 
2038	 0.342369588376274 
2039	 0.34257605264962 
2040	 0.342791710525134 
2041	 0.343005332076769 
2042	 0.343151314527086 
2043	 0.343294771970049 
2044	 0.343437737371598 
2045	 0.343545789505265 
2046	 0.343673454940657 
2047	 0.343803741286174 
2048	 0.343955445826513 
2049	 0.34411619039913 
2050	 0.344272375580796 
2051	 0.34445638691649 
2052	 0.344625371111006 
2053	 0.344767545591911 
2054	 0.344926922530239 
2055	 0.345102692870079 
2056	 0.345280370691422 
2057	 0.345430176119405 
2058	 0.345582417478548 
2059	 0.345700141542192 
2060	 0.345786491512665 
2061	 0.345863468668939 
2062	 0.345900258217284 
2063	 0.345972339411489 
2064	 0.346046138806943 
2065	 0.346120965868289 
2066	 0.346210939728119 
2067	 0.346300464071352 
2068	 0.346378865979372 
2069	 0.346467155794311 
2070	 0.346566821958031 
2071	 0.346688074847834 
2072	 0.34678912467748 
2073	 0.346893175222958 
2074	 0.346985520996749 
2075	 0.347062758265073 
2076	 0.347149407917647 
2077	 0.347245482166294 
2078	 0.347319283679243 
2079	 0.347385492860761 
2080	 0.347448035057257 
2081	 0.347489169926057 
2082	 0.347536428138421 
2083	 0.347575506769366 
2084	 0.347627955542141 
2085	 0.347695269488232 
2086	 0.347782012888746 
2087	 0.347835167607878 
2088	 0.34790033372537 
2089	 0.347936329764141 
2090	 0.34791753460564 
2091	 0.347943529848648 
2092	 0.347992583822622 
2093	 0.348022551763029 
2094	 0.348050123921547 
2095	 0.348086186532631 
2096	 0.348109418842144 
2097	 0.348144802869774 
2098	 0.348198258654092 
2099	 0.348253197872094 
2100	 0.34830725895994 
2101	 0.348356841417963 
2102	 0.348418738455089 
2103	 0.348477018643918 
2104	 0.348566974784004 
2105	 0.348677497625424 
2106	 0.348789668525535 
2107	 0.348945010244365 
2108	 0.349057305993464 
2109	 0.349130300593963 
2110	 0.349241934478738 
2111	 0.349359275762029 
2112	 0.349473933922334 
2113	 0.34962071969018 
2114	 0.349751670720345 
2115	 0.349872006337113 
2116	 0.349961205491089 
2117	 0.350092719349546 
2118	 0.350231590046316 
2119	 0.350388764323996 
2120	 0.350595870498434 
2121	 0.350742877833479 
2122	 0.350888002026176 
2123	 0.351001467627745 
2124	 0.351058850010597 
2125	 0.351137850616025 
2126	 0.351219437791117 
2127	 0.351285949050762 
2128	 0.351341613558059 
2129	 0.351397859927922 
2130	 0.351451492537609 
2131	 0.351487124026205 
2132	 0.351521524892349 
2133	 0.351564837423323 
2134	 0.351575701209656 
2135	 0.351571162274323 
2136	 0.35154296522849 
2137	 0.351501122838145 
2138	 0.351426581438146 
2139	 0.351341029770915 
2140	 0.351204865612966 
2141	 0.351018560792897 
2142	 0.350821974254799 
2143	 0.350585740173158 
2144	 0.350333447615448 
2145	 0.350054007464527 
2146	 0.349774172919732 
2147	 0.349476483234956 
2148	 0.349176148138217 
2149	 0.34884451232559 
2150	 0.348501202276441 
2151	 0.348148505800012 
2152	 0.347771498415002 
2153	 0.347378938918891 
2154	 0.346985490810843 
2155	 0.346566170532631 
2156	 0.3461252338909 
2157	 0.345654865300719 
2158	 0.345165505157183 
2159	 0.344655039441248 
2160	 0.344099060630905 
2161	 0.343544007399889 
2162	 0.342991738475805 
2163	 0.342411346206423 
2164	 0.341811224583244 
2165	 0.341188210052723 
2166	 0.340565016253968 
2167	 0.339933830493709 
2168	 0.339266552069674 
2169	 0.338599810285164 
2170	 0.337874391876608 
2171	 0.337082011401352 
2172	 0.336309023218289 
2173	 0.335533710538733 
2174	 0.334707611855692 
2175	 0.333867708923231 
2176	 0.332987756902028 
2177	 0.332045324578887 
2178	 0.331096415989299 
2179	 0.33014305464384 
2180	 0.329145926694778 
2181	 0.328095633493567 
2182	 0.327044493577956 
2183	 0.325969597894391 
2184	 0.324863379398074 
2185	 0.323775114041015 
2186	 0.322693157905973 
2187	 0.321585075040378 
2188	 0.320433527968867 
2189	 0.319357439612275 
2190	 0.318242255732259 
2191	 0.317264351544082 
2192	 0.316378303327982 
2193	 0.315535096489562 
2194	 0.314746044004897 
2195	 0.314047577146965 
2196	 0.31339028682972 
2197	 0.312852504171889 
2198	 0.312450686471263 
2199	 0.312090707250779 
2200	 0.311811166075825 
2201	 0.311606161036588 
2202	 0.311459611281315 
2203	 0.311388624090775 
2204	 0.3114254825424 
2205	 0.311542805430738 
2206	 0.311797294773874 
2207	 0.312162128861788 
2208	 0.31263681012364 
2209	 0.313261298750482 
2210	 0.313930468133748 
2211	 0.314716183227175 
2212	 0.315524932992725 
2213	 0.316449385701392 
2214	 0.317320329136031 
2215	 0.318250519093765 
2216	 0.319107601639552 
2217	 0.319951632191957 
2218	 0.320727141627806 
2219	 0.321464403952141 
2220	 0.32214011684106 
2221	 0.322738001480439 
2222	 0.323311372055902 
2223	 0.32385452929713 
2224	 0.324305682340902 
2225	 0.324719660988407 
2226	 0.325081129056323 
2227	 0.325403932709509 
2228	 0.325660859552091 
2229	 0.325905307676151 
2230	 0.326115396345826 
2231	 0.326302028449397 
2232	 0.326451225086717 
2233	 0.326585916182708 
2234	 0.326711613160187 
2235	 0.326782013552899 
2236	 0.326829511724753 
2237	 0.326823011054045 
2238	 0.326725308213975 
2239	 0.326658320873095 
2240	 0.326570937396127 
2241	 0.326471971706937 
2242	 0.326346491651562 
2243	 0.326258784700225 
2244	 0.326200682084447 
2245	 0.326107675074727 
2246	 0.325997546233156 
2247	 0.325877158747533 
2248	 0.325704820743724 
2249	 0.32544980482254 
2250	 0.325233636055836 
2251	 0.324990769814643 
2252	 0.324808169553297 
2253	 0.324630671024467 
2254	 0.324480324787512 
2255	 0.324385394946973 
2256	 0.32428675507722 
2257	 0.324193064954166 
2258	 0.324109282241598 
2259	 0.324038140069788 
2260	 0.323988188135276 
2261	 0.323972676470306 
2262	 0.323925874363914 
2263	 0.323858074587146 
2264	 0.323837752677993 
2265	 0.323798867987018 
2266	 0.323802734479685 
2267	 0.323883313108936 
2268	 0.323959881253484 
2269	 0.324064403874683 
2270	 0.32414403354093 
2271	 0.324228564544661 
2272	 0.324311878869474 
2273	 0.324372707382149 
2274	 0.324470601389646 
2275	 0.324551348862947 
2276	 0.324651987540572 
2277	 0.324697954894254 
2278	 0.324705917945484 
2279	 0.32474619237671 
2280	 0.324760207602048 
2281	 0.324822305157196 
2282	 0.324937452036679 
2283	 0.325009243893587 
2284	 0.325093169322382 
2285	 0.325139256268943 
2286	 0.325143772318074 
2287	 0.325157957597383 
2288	 0.325150091026057 
2289	 0.325162311882069 
2290	 0.32520755523487 
2291	 0.325211075485048 
2292	 0.325190909315395 
2293	 0.325172504050765 
2294	 0.325119739698468 
2295	 0.325083375526727 
2296	 0.325066286214552 
2297	 0.325049288731833 
2298	 0.324985765427978 
2299	 0.324907720227555 
2300	 0.324825827852108 
2301	 0.324753087003345 
2302	 0.324692596156759 
2303	 0.324603877692887 
2304	 0.324452860678236 
2305	 0.324266365929201 
2306	 0.324099200213223 
2307	 0.323903986972091 
2308	 0.32372950870381 
2309	 0.323600049233564 
2310	 0.323393668594515 
2311	 0.323149986344174 
2312	 0.322899985609432 
2313	 0.322587322440983 
2314	 0.322320352307127 
2315	 0.322071127745211 
2316	 0.321807943028051 
2317	 0.321564320859016 
2318	 0.321301307423819 
2319	 0.321018673345509 
2320	 0.320739557487853 
2321	 0.320432156438864 
2322	 0.320160326633465 
2323	 0.319897713411218 
2324	 0.319652193289316 
2325	 0.319447099570195 
2326	 0.319234648044228 
2327	 0.319038347963645 
2328	 0.318825457270873 
2329	 0.318606812868871 
2330	 0.318322859554629 
2331	 0.31800518663515 
2332	 0.31764627527527 
2333	 0.317254563023331 
2334	 0.316906512095604 
2335	 0.316524622680869 
2336	 0.316136365469384 
2337	 0.315819506960944 
2338	 0.315480889202116 
2339	 0.315157897719643 
2340	 0.314881397823922 
2341	 0.314551789391027 
2342	 0.314226915170472 
2343	 0.313919584107183 
2344	 0.313644600131425 
2345	 0.313367103736012 
2346	 0.313104990119423 
2347	 0.31283731921306 
2348	 0.312557818695615 
2349	 0.312298773219398 
2350	 0.312048650172317 
2351	 0.311839696173253 
2352	 0.311661948567965 
2353	 0.311506668230096 
2354	 0.311403001480971 
2355	 0.311247566574726 
2356	 0.311108911259849 
2357	 0.310893991140937 
2358	 0.310592504221359 
2359	 0.310378416109472 
2360	 0.310158139763402 
2361	 0.309960306313188 
2362	 0.309830554277497 
2363	 0.30967457875792 
2364	 0.309539060880073 
2365	 0.309333773317305 
2366	 0.309094233865962 
2367	 0.308838493149203 
2368	 0.308516220503958 
2369	 0.308182813262351 
2370	 0.307829777041092 
2371	 0.307519819140633 
2372	 0.30713559270525 
2373	 0.306864345294944 
2374	 0.306681372948028 
2375	 0.306364152594988 
2376	 0.305970847705614 
2377	 0.305526732344719 
2378	 0.305050580683005 
2379	 0.304636943421114 
2380	 0.304252890289704 
2381	 0.303862041173869 
2382	 0.303366454294392 
2383	 0.302877419063587 
2384	 0.302534643666465 
2385	 0.302147614556595 
2386	 0.301781065281353 
2387	 0.301428836725841 
2388	 0.300996551471747 
2389	 0.300595881611987 
2390	 0.300188987586943 
2391	 0.29985297044694 
2392	 0.299575073275317 
2393	 0.29925411606111 
2394	 0.298958096229659 
2395	 0.298641855281374 
2396	 0.298259708496689 
2397	 0.297851623602865 
2398	 0.297400711113561 
2399	 0.296977628289291 
2400	 0.296537257818754 
2401	 0.295989817194001 
2402	 0.295565358968527 
2403	 0.295164022564401 
2404	 0.294660137584432 
2405	 0.294173308989549 
2406	 0.293625747454863 
2407	 0.29301716552415 
2408	 0.292391423408844 
2409	 0.291869659815248 
2410	 0.291369238938277 
2411	 0.290766787608692 
2412	 0.29021295666645 
2413	 0.289660729777856 
2414	 0.289093569909839 
2415	 0.288539539078662 
2416	 0.287982632122948 
2417	 0.287398302753403 
2418	 0.286891421590856 
2419	 0.286501485754487 
2420	 0.285959765006058 
2421	 0.28535616504709 
2422	 0.284783657219326 
2423	 0.284089117050959 
2424	 0.28351162609104 
2425	 0.283099304905901 
2426	 0.28255670972076 
2427	 0.28196652768941 
2428	 0.281335169479755 
2429	 0.280598365174568 
2430	 0.280019048108932 
2431	 0.279455621105381 
2432	 0.278948270620877 
2433	 0.278642254403995 
2434	 0.278167880633118 
2435	 0.277582794044627 
2436	 0.277086441476579 
2437	 0.276529285195535 
2438	 0.27603196173439 
2439	 0.275652387833141 
2440	 0.275238878053067 
2441	 0.274833031971343 
2442	 0.27443477092371 
2443	 0.273995748623779 
2444	 0.273660103270657 
2445	 0.273402192091568 
2446	 0.273081260728647 
2447	 0.272862656686967 
2448	 0.272514453224051 
2449	 0.271987316636194 
2450	 0.27162770445423 
2451	 0.271291717965289 
2452	 0.270967880194528 
2453	 0.270777120261838 
2454	 0.270427581062971 
2455	 0.269975840111734 
2456	 0.269626350801258 
2457	 0.269293944046352 
2458	 0.268976564861619 
2459	 0.268720485904992 
2460	 0.268323929318945 
2461	 0.267722699619111 
2462	 0.267329684500463 
2463	 0.267077070898188 
2464	 0.266829591245341 
2465	 0.266729301468635 
2466	 0.266500726342892 
2467	 0.266142899957598 
2468	 0.265780708666984 
2469	 0.265381129395351 
2470	 0.265055034432016 
2471	 0.264819005477879 
2472	 0.264662015212072 
2473	 0.264511501696119 
2474	 0.264333416616178 
2475	 0.264085454604073 
2476	 0.263833637049773 
2477	 0.263357183820908 
2478	 0.26297785569244 
2479	 0.262704066255401 
2480	 0.262246915615815 
2481	 0.262074226953916 
2482	 0.26193364698615 
2483	 0.2615758579273 
2484	 0.261329284873849 
2485	 0.261161380666197 
2486	 0.260889973895098 
2487	 0.260625764188467 
2488	 0.260412699123414 
2489	 0.259927597933876 
2490	 0.259436156062068 
2491	 0.259092065808498 
2492	 0.258621308731527 
2493	 0.25833593110254 
2494	 0.258128486508088 
2495	 0.257957555451625 
2496	 0.258013976840325 
2497	 0.257859450142361 
2498	 0.257557879355267 
2499	 0.257294153255513 
2500	 0.25700566844741 
