Wavelength	LMW_1100004.asd
350	 3.92378240762444E-02 
351	 4.34474263832438E-02 
352	 4.07967440914025E-02 
353	 3.21220164028029E-02 
354	 2.97119869510875E-02 
355	 3.30320352156434E-02 
356	 3.65536433622063E-02 
357	 3.60164558441323E-02 
358	 3.74593806215793E-02 
359	 3.74514684480249E-02 
360	 3.61124386198305E-02 
361	 3.57569766608919E-02 
362	 3.41973094590127E-02 
363	 3.32950108894816E-02 
364	 0.034290144560757 
365	 3.69494255863806E-02 
366	 3.79365334668015E-02 
367	 0.037546206765209 
368	 3.68948880235047E-02 
369	 0.035446004298375 
370	 3.42221059984447E-02 
371	 3.45673905588453E-02 
372	 0.037616632159352 
373	 4.00393133667732E-02 
374	 4.01754436719239E-02 
375	 3.85460243011557E-02 
376	 3.89306965698075E-02 
377	 3.70488000502891E-02 
378	 3.53651892103593E-02 
379	 3.68959401252018E-02 
380	 3.85308052545672E-02 
381	 3.73643889420418E-02 
382	 0.035628326245351 
383	 3.86296240318911E-02 
384	 3.89945867242863E-02 
385	 3.94084779723748E-02 
386	 4.11832277987942E-02 
387	 4.01163804112474E-02 
388	 4.01696800547251E-02 
389	 4.07769116476419E-02 
390	 4.04464977880387E-02 
391	 0.040325029275424 
392	 4.20764799525588E-02 
393	 4.47555847678945E-02 
394	 4.54665278203767E-02 
395	 4.60216342334801E-02 
396	 4.60754078843944E-02 
397	 4.56237568766579E-02 
398	 4.62193314712543E-02 
399	 4.57527211535215E-02 
400	 4.57624998312276E-02 
401	 4.79452050673223E-02 
402	 4.72235381942886E-02 
403	 4.57116106207299E-02 
404	 4.52273234042408E-02 
405	 4.66519978342501E-02 
406	 4.69329330507378E-02 
407	 4.70731686230949E-02 
408	 4.79467206251823E-02 
409	 4.78761804703895E-02 
410	 4.79986039739009E-02 
411	 4.82794780837171E-02 
412	 4.81973650760973E-02 
413	 4.79150760448392E-02 
414	 4.78131389804236E-02 
415	 4.79552815297146E-02 
416	 4.80059370124399E-02 
417	 4.75205791509379E-02 
418	 4.76813882115198E-02 
419	 4.90246265419396E-02 
420	 4.86699740497825E-02 
421	 4.80060471218211E-02 
422	 4.78159482642705E-02 
423	 4.82917354507361E-02 
424	 4.83249315110456E-02 
425	 0.047948223519328 
426	 4.75520902076375E-02 
427	 4.78937740065072E-02 
428	 4.81357610840926E-02 
429	 0.048079604165206 
430	 4.78508668455999E-02 
431	 4.80997913082039E-02 
432	 4.78520070710202E-02 
433	 4.72607692020004E-02 
434	 4.75545426068065E-02 
435	 4.77252476728039E-02 
436	 4.77605678200017E-02 
437	 4.77586851593568E-02 
438	 4.75396970240985E-02 
439	 4.75016270984678E-02 
440	 4.77973950220218E-02 
441	 0.048307237204506 
442	 4.78167323249825E-02 
443	 4.77815470189659E-02 
444	 4.85065621635208E-02 
445	 4.81957655009279E-02 
446	 4.80492781713414E-02 
447	 4.81146457455525E-02 
448	 4.81649861598726E-02 
449	 4.82291263324019E-02 
450	 4.83478292600917E-02 
451	 4.84916358682094E-02 
452	 4.85847557490915E-02 
453	 0.048891378171499 
454	 4.89423812143723E-02 
455	 4.85852905590955E-02 
456	 4.87523255852305E-02 
457	 4.87794912723952E-02 
458	 4.86934991832768E-02 
459	 4.87956129384128E-02 
460	 4.90023245534275E-02 
461	 4.90091546408928E-02 
462	 4.88059530005378E-02 
463	 4.88109608126453E-02 
464	 4.87809988812112E-02 
465	 0.048804695212842 
466	 4.89718365511361E-02 
467	 4.90440807082311E-02 
468	 4.90525451573985E-02 
469	 0.04902127312426 
470	 4.89662021491351E-02 
471	 0.048940604419347 
472	 4.88573479065812E-02 
473	 0.048708498205184 
474	 4.87406000026124E-02 
475	 4.87254133356283E-02 
476	 4.85741926281875E-02 
477	 4.83181349705439E-02 
478	 4.83347790956529E-02 
479	 0.04847327439381 
480	 4.85378516833909E-02 
481	 4.83303994429836E-02 
482	 4.85495394192881E-02 
483	 4.88119658185199E-02 
484	 4.86846738462502E-02 
485	 4.88738530168593E-02 
486	 4.88135770511692E-02 
487	 0.048523969844357 
488	 4.85103527190797E-02 
489	 4.85292548435106E-02 
490	 4.86149689906548E-02 
491	 4.87201388349121E-02 
492	 4.84677030935763E-02 
493	 4.82572835556635E-02 
494	 4.82750978190356E-02 
495	 4.85383873480695E-02 
496	 4.86634302776981E-02 
497	 0.048596663300246 
498	 0.048485772477477 
499	 4.87265792594163E-02 
500	 4.87450246927658E-02 
501	 4.85917488952907E-02 
502	 4.84997541368866E-02 
503	 4.86167213670975E-02 
504	 4.86731710626449E-02 
505	 4.86459284058731E-02 
506	 4.87348058182798E-02 
507	 4.86595238674087E-02 
508	 4.85371528419743E-02 
509	 4.85122618993062E-02 
510	 0.048611572632117 
511	 4.86117213635322E-02 
512	 4.85536945153063E-02 
513	 4.86028836183696E-02 
514	 4.86280274375155E-02 
515	 4.86440886326322E-02 
516	 4.86905996627688E-02 
517	 4.88430559349252E-02 
518	 4.87397280342505E-02 
519	 4.85988091659209E-02 
520	 4.87465272029184E-02 
521	 4.90148338375943E-02 
522	 4.90386061292445E-02 
523	 4.88272925673166E-02 
524	 4.87824654821185E-02 
525	 4.88596595673816E-02 
526	 4.89081065449192E-02 
527	 4.88425287929997E-02 
528	 4.88787945643368E-02 
529	 0.048933381817307 
530	 4.89554528649115E-02 
531	 4.89291986776689E-02 
532	 4.89824090828559E-02 
533	 0.04904431307508 
534	 4.90692819384288E-02 
535	 4.91277877574753E-02 
536	 4.91635793607219E-02 
537	 4.91841262367857E-02 
538	 4.92252826806756E-02 
539	 4.93416594981919E-02 
540	 4.93872053965856E-02 
541	 4.93752306659473E-02 
542	 4.95509792136548E-02 
543	 4.95926376231798E-02 
544	 4.96064797778085E-02 
545	 4.97374649980392E-02 
546	 4.97966970735377E-02 
547	 4.97896898310456E-02 
548	 4.98092277445909E-02 
549	 5.00005348698993E-02 
550	 5.01369695684083E-02 
551	 5.02177580891711E-02 
552	 5.02940907611632E-02 
553	 5.04382454654756E-02 
554	 5.05547148561356E-02 
555	 5.06453747876891E-02 
556	 5.07625129860947E-02 
557	 0.050913629954457 
558	 5.10321252359335E-02 
559	 5.11275858055579E-02 
560	 5.13618759305825E-02 
561	 5.15683542281212E-02 
562	 5.17847377250467E-02 
563	 5.20934993192071E-02 
564	 5.24223770471249E-02 
565	 5.27278144646787E-02 
566	 5.30271918686638E-02 
567	 5.34013544766765E-02 
568	 5.37696864387852E-02 
569	 5.40695613582947E-02 
570	 5.42838348161889E-02 
571	 5.45039720739495E-02 
572	 5.48462043746286E-02 
573	 5.52746582332044E-02 
574	 5.56478618185873E-02 
575	 5.59969725682051E-02 
576	 5.63711226738374E-02 
577	 5.67898264433232E-02 
578	 5.71864558347302E-02 
579	 5.76935448597776E-02 
580	 5.82933919374993E-02 
581	 5.89061238201879E-02 
582	 5.95414240841857E-02 
583	 6.01394601394489E-02 
584	 6.06897848041279E-02 
585	 6.12600720480016E-02 
586	 6.18237967896069E-02 
587	 6.23742519608112E-02 
588	 6.29299801048012E-02 
589	 6.36071946574789E-02 
590	 6.42696360133297E-02 
591	 6.48682191242017E-02 
592	 6.54441510696513E-02 
593	 0.065963908838828 
594	 6.64620455664184E-02 
595	 6.69969579124226E-02 
596	 6.76584237117717E-02 
597	 6.83808434823903E-02 
598	 0.069098235075089 
599	 6.97660686411423E-02 
600	 7.05355553783137E-02 
601	 7.12280320910705E-02 
602	 7.17595921843294E-02 
603	 7.22782374356189E-02 
604	 0.072840615795492 
605	 7.34028692053524E-02 
606	 7.39041519779498E-02 
607	 7.44473079168105E-02 
608	 7.49413463690391E-02 
609	 7.53767466972342E-02 
610	 7.58484394280333E-02 
611	 0.07628111971323 
612	 7.67388606051093E-02 
613	 7.72403559590603E-02 
614	 7.75375471398847E-02 
615	 7.78900882223205E-02 
616	 7.82888692536231E-02 
617	 7.85487127225691E-02 
618	 7.88352848588477E-02 
619	 7.91419818915075E-02 
620	 7.94344537732977E-02 
621	 7.96687674416943E-02 
622	 7.99180542323986E-02 
623	 8.01610602575343E-02 
624	 8.03507890686536E-02 
625	 8.05368374065343E-02 
626	 8.07684800579235E-02 
627	 8.10234235955553E-02 
628	 0.081186220558802 
629	 8.13850834662351E-02 
630	 8.15916473421637E-02 
631	 8.17562824418314E-02 
632	 8.19139588088983E-02 
633	 8.21107921349727E-02 
634	 8.23233891563018E-02 
635	 8.24777355582943E-02 
636	 8.26457482233074E-02 
637	 8.28264497940636E-02 
638	 8.29999234616504E-02 
639	 0.083128386206152 
640	 8.32725119021501E-02 
641	 8.34601932193847E-02 
642	 8.36858731991606E-02 
643	 8.38258857865825E-02 
644	 8.40074859301299E-02 
645	 8.42547230667528E-02 
646	 8.44065130512923E-02 
647	 8.45897411420256E-02 
648	 8.48030002604471E-02 
649	 0.085008553044141 
650	 8.51755277998935E-02 
651	 8.53744399793716E-02 
652	 8.55984075210292E-02 
653	 8.57776394228942E-02 
654	 0.086005268194192 
655	 8.62336525789491E-02 
656	 8.64330695058888E-02 
657	 8.66832809646655E-02 
658	 8.69398920952769E-02 
659	 8.72021946472937E-02 
660	 8.74787443869239E-02 
661	 0.087693447413402 
662	 0.087910874880241 
663	 8.81769345510417E-02 
664	 8.84915564472775E-02 
665	 8.88096952479391E-02 
666	 8.90770309864218E-02 
667	 0.089289125241522 
668	 8.96409110419796E-02 
669	 8.99929360081876E-02 
670	 9.03114130792046E-02 
671	 9.06546392428016E-02 
672	 9.09743618456715E-02 
673	 9.13151356281728E-02 
674	 9.16964521937872E-02 
675	 9.20437973078447E-02 
676	 9.23851406511052E-02 
677	 9.27385151667219E-02 
678	 9.31162581171569E-02 
679	 9.35023937343204E-02 
680	 9.39143362356596E-02 
681	 9.43524946452583E-02 
682	 9.47931164137743E-02 
683	 9.51911056432753E-02 
684	 9.55949979359073E-02 
685	 9.60545027360716E-02 
686	 9.65321862964093E-02 
687	 9.69765652905788E-02 
688	 9.74010412962336E-02 
689	 9.78630960539492E-02 
690	 9.83496060503197E-02 
691	 0.098848725298175 
692	 9.93492933665424E-02 
693	 9.98432571304603E-02 
694	 0.100333726916392 
695	 0.100827590238823 
696	 0.101334576051324 
697	 0.101868581944463 
698	 0.102395059176097 
699	 0.102937119544123 
700	 0.103574961068853 
701	 0.10413760086499 
702	 0.104661413031713 
703	 0.105204076636841 
704	 0.105739661803017 
705	 0.10633809226059 
706	 0.106942533602397 
707	 0.107453989962977 
708	 0.108032495481545 
709	 0.10861725550492 
710	 0.109176688669178 
711	 0.109758027373142 
712	 0.110342381287128 
713	 0.110892042981071 
714	 0.111399042320261 
715	 0.111979658992395 
716	 0.112571185122842 
717	 0.113137718012226 
718	 0.113668681737339 
719	 0.114183145587624 
720	 0.114712954366396 
721	 0.115252258362578 
722	 0.115716709206652 
723	 0.116216069521191 
724	 0.116736749400481 
725	 0.117224879322486 
726	 0.117660347849712 
727	 0.118066981192792 
728	 0.118475248649076 
729	 0.118912102375788 
730	 0.119283566293421 
731	 0.119637668275448 
732	 0.120004085216137 
733	 0.12030145901994 
734	 0.120590809129533 
735	 0.12087094891284 
736	 0.121120358284716 
737	 0.121360661575722 
738	 0.121566528884234 
739	 0.121746406907834 
740	 0.121945434160441 
741	 0.122065281180754 
742	 0.12214554239559 
743	 0.12222386730904 
744	 0.122242474273991 
745	 0.122270784634834 
746	 0.12230649717488 
747	 0.12231047154463 
748	 0.122258577949963 
749	 0.122179162061934 
750	 0.122088326824039 
751	 0.121981073255896 
752	 0.121906038193999 
753	 0.121811305359772 
754	 0.121648076857207 
755	 0.121443112088763 
756	 0.121244566432525 
757	 0.121039861876962 
758	 0.120793706870237 
759	 0.120573090549384 
760	 0.120285942201974 
761	 0.119944243560563 
762	 0.119702322405092 
763	 0.119407188756532 
764	 0.119093085350936 
765	 0.118804610172435 
766	 0.118484611059769 
767	 0.118143768265536 
768	 0.117795591166278 
769	 0.117453820539645 
770	 0.117122705009245 
771	 0.116769776487222 
772	 0.116389151213674 
773	 0.116009952861795 
774	 0.115621538529266 
775	 0.115224760965951 
776	 0.114831540311416 
777	 0.114487622282981 
778	 0.114089988979648 
779	 0.113669921501116 
780	 0.113304870430324 
781	 0.112929689397632 
782	 0.112544903317043 
783	 0.112161122363477 
784	 0.111793642814694 
785	 0.111413064979196 
786	 0.111035173782481 
787	 0.110672059962181 
788	 0.110306249217629 
789	 0.109933838260916 
790	 0.109548495046491 
791	 0.109148666002536 
792	 0.108750329668341 
793	 0.108403464059477 
794	 0.108097740052787 
795	 0.107772625168513 
796	 0.107430052350611 
797	 0.107074796195642 
798	 0.106717528714996 
799	 0.106375122420475 
800	 0.106049006237816 
801	 0.105722428975058 
802	 0.105385465974241 
803	 0.105078825960532 
804	 0.104777016159122 
805	 0.10447481573391 
806	 0.104180231216251 
807	 0.103890556544647 
808	 0.103590751813805 
809	 0.103288160637461 
810	 0.103018215451469 
811	 0.102791476482998 
812	 0.102539267128396 
813	 0.102231100285448 
814	 0.101983624652191 
815	 0.101769925648908 
816	 0.101552306441018 
817	 0.10130038635566 
818	 0.101061861375256 
819	 0.100828894888076 
820	 0.100593072267551 
821	 0.100351786405969 
822	 0.100140886397082 
823	 9.99688929166945E-02 
824	 9.98121271613732E-02 
825	 9.96042028868221E-02 
826	 9.94292871880524E-02 
827	 9.92583573206837E-02 
828	 9.90608401599558E-02 
829	 9.89079372957791E-02 
830	 9.87056757658644E-02 
831	 9.85121117048723E-02 
832	 9.84266977749298E-02 
833	 9.83173099292391E-02 
834	 9.81741417065408E-02 
835	 9.80120318002134E-02 
836	 9.78636472253062E-02 
837	 9.77826204597913E-02 
838	 9.77242824126608E-02 
839	 9.76346858219152E-02 
840	 9.74750320658569E-02 
841	 9.73392103682574E-02 
842	 9.72433035391239E-02 
843	 9.71714128255366E-02 
844	 0.097090509435997 
845	 9.70023300408509E-02 
846	 9.69053952692013E-02 
847	 9.68072921566789E-02 
848	 9.67649540491187E-02 
849	 9.67200942609323E-02 
850	 9.66634503776623E-02 
851	 9.66332445212327E-02 
852	 9.66440019637084E-02 
853	 9.66073191330878E-02 
854	 0.096507505616394 
855	 9.64521302501812E-02 
856	 9.64672138386171E-02 
857	 9.64964077547121E-02 
858	 9.64839699984725E-02 
859	 0.096427864352195 
860	 0.096419387738426 
861	 9.64539499161077E-02 
862	 9.64891765987753E-02 
863	 9.65005835124194E-02 
864	 9.65166061576075E-02 
865	 9.65457483950184E-02 
866	 9.65829970487914E-02 
867	 9.66352241883358E-02 
868	 9.66769499386985E-02 
869	 9.67048076464696E-02 
870	 9.67426744537228E-02 
871	 9.68270950034348E-02 
872	 9.69406535359072E-02 
873	 9.70441273419186E-02 
874	 9.70832910541822E-02 
875	 9.71319468616942E-02 
876	 9.71755164855026E-02 
877	 9.72148434743579E-02 
878	 0.097352591417142 
879	 0.097499907065459 
880	 9.76147071100479E-02 
881	 0.097695399352961 
882	 9.78194240795025E-02 
883	 9.79948434863655E-02 
884	 9.81623489794697E-02 
885	 9.82562534714318E-02 
886	 9.84091330575371E-02 
887	 9.85708454789935E-02 
888	 9.87283408258541E-02 
889	 9.89063782438227E-02 
890	 9.90595197934177E-02 
891	 9.92396149207534E-02 
892	 9.94498994675888E-02 
893	 9.96200159663294E-02 
894	 9.97366699245513E-02 
895	 9.99074749263095E-02 
896	 0.100161450245005 
897	 0.100347293074057 
898	 0.100561586180521 
899	 0.100822124715074 
900	 0.101100247046372 
901	 0.10129438806954 
902	 0.10154371202083 
903	 0.101817603140077 
904	 0.102046782702259 
905	 0.102251157301268 
906	 0.102518025308112 
907	 0.102795793893633 
908	 0.103017913497077 
909	 0.103416966320022 
910	 0.103774110062023 
911	 0.10405303052298 
912	 0.104355262056429 
913	 0.104706580688315 
914	 0.105039529387087 
915	 0.105350839420834 
916	 0.105697543197808 
917	 0.106054778950782 
918	 0.106406400106032 
919	 0.106737664858487 
920	 0.107043823297754 
921	 0.107449049826884 
922	 0.107880211592436 
923	 0.108297379782659 
924	 0.108758473683307 
925	 0.109103734000301 
926	 0.109485180809882 
927	 0.109983504270015 
928	 0.110426811427859 
929	 0.110843743909582 
930	 0.111315727774682 
931	 0.111850883982318 
932	 0.112256923467547 
933	 0.112732628945369 
934	 0.113219896501717 
935	 0.113672665575898 
936	 0.114315076381275 
937	 0.114883262685776 
938	 0.115358475404259 
939	 0.11583904127084 
940	 0.116494129017558 
941	 0.117156617201073 
942	 0.117719849783427 
943	 0.118188369235214 
944	 0.118852832748913 
945	 0.119484887048765 
946	 0.120093146429149 
947	 0.120746880267618 
948	 0.121242844929755 
949	 0.121815527965249 
950	 0.122486209673982 
951	 0.1231648335879 
952	 0.123862814555044 
953	 0.124609503559237 
954	 0.125357564164587 
955	 0.126042605319639 
956	 0.126758219181044 
957	 0.127507479828507 
958	 0.128230866292618 
959	 0.128871693220743 
960	 0.129578200460947 
961	 0.130408530323815 
962	 0.131321384221154 
963	 0.132208124975321 
964	 0.132975998767824 
965	 0.133825631817879 
966	 0.134701728106446 
967	 0.135434816010526 
968	 0.136342099655243 
969	 0.137257940610159 
970	 0.138104513924 
971	 0.138913732562375 
972	 0.139820948044659 
973	 0.140782914446535 
974	 0.14174424783364 
975	 0.142677761718274 
976	 0.143693895922853 
977	 0.14467285414518 
978	 0.145560690392958 
979	 0.146389758885114 
980	 0.1473265472621 
981	 0.148269259094618 
982	 0.149247311965374 
983	 0.150345535916617 
984	 0.151430145117657 
985	 0.152493775596024 
986	 0.153508679741085 
987	 0.154473622063686 
988	 0.155576419654898 
989	 0.15656945610543 
990	 0.157578730649172 
991	 0.158828068664147 
992	 0.160045469536926 
993	 0.16096755017409 
994	 0.161905080188488 
995	 0.163204675128521 
996	 0.164234582500119 
997	 0.165374164891696 
998	 0.166554598092639 
999	 0.167613220709054 
1000	 0.16873062611922 
1001	 0.167660704351241 
1002	 0.168811829976821 
1003	 0.169874489519508 
1004	 0.17092485818177 
1005	 0.171999452344339 
1006	 0.173017690056076 
1007	 0.173943818200899 
1008	 0.174956117496136 
1009	 0.175992803328335 
1010	 0.177005014529636 
1011	 0.178091811923738 
1012	 0.179119277377133 
1013	 0.180091841053944 
1014	 0.181107173630094 
1015	 0.182109725863787 
1016	 0.183091922639715 
1017	 0.184092891098656 
1018	 0.18511693689601 
1019	 0.186122607871111 
1020	 0.187088137571113 
1021	 0.188061388530287 
1022	 0.189015004836004 
1023	 0.189927435328875 
1024	 0.190872021656943 
1025	 0.191835118735718 
1026	 0.192776467189173 
1027	 0.193692660599523 
1028	 0.194617386459318 
1029	 0.195560103552467 
1030	 0.196511137430646 
1031	 0.197423147569402 
1032	 0.198352542313417 
1033	 0.199203911341921 
1034	 0.200041984631823 
1035	 0.20087022317022 
1036	 0.201660996185645 
1037	 0.202495741368877 
1038	 0.203337266132302 
1039	 0.204188666463528 
1040	 0.205081351153957 
1041	 0.205953069653531 
1042	 0.206830486445675 
1043	 0.207670512919455 
1044	 0.208504480377993 
1045	 0.209309078190311 
1046	 0.210192263765995 
1047	 0.211058900360005 
1048	 0.21192483504185 
1049	 0.212804310073118 
1050	 0.213668013712575 
1051	 0.214532299972451 
1052	 0.215361222885113 
1053	 0.216202984174926 
1054	 0.217021703926333 
1055	 0.217824743469674 
1056	 0.218680317370351 
1057	 0.21951033789801 
1058	 0.22033253146908 
1059	 0.221174221165179 
1060	 0.222023515711934 
1061	 0.222845265676634 
1062	 0.223694787419809 
1063	 0.224544480392063 
1064	 0.225377650290778 
1065	 0.226207790168067 
1066	 0.227023888464801 
1067	 0.227903650170753 
1068	 0.228799506015611 
1069	 0.229636835428122 
1070	 0.230512948239759 
1071	 0.231420036647473 
1072	 0.23228661221456 
1073	 0.23314988999422 
1074	 0.234027703380472 
1075	 0.234888324463678 
1076	 0.235716031905225 
1077	 0.236636104158028 
1078	 0.237514629808316 
1079	 0.238352953629419 
1080	 0.239251078790736 
1081	 0.240098132391943 
1082	 0.240912559724657 
1083	 0.24178319037228 
1084	 0.242696463061484 
1085	 0.243568079184711 
1086	 0.244434729944893 
1087	 0.245319559594307 
1088	 0.24618529285313 
1089	 0.247073445412896 
1090	 0.247984645985883 
1091	 0.248882649340372 
1092	 0.249767793917588 
1093	 0.250644477451556 
1094	 0.251532037423461 
1095	 0.252418155949914 
1096	 0.25333096163144 
1097	 0.254237058912123 
1098	 0.25513640812048 
1099	 0.256049885261467 
1100	 0.256941927438469 
1101	 0.257793593012778 
1102	 0.258688885646287 
1103	 0.259588629907493 
1104	 0.260506213303854 
1105	 0.261458669014452 
1106	 0.262408972425545 
1107	 0.263350501250303 
1108	 0.264280034031408 
1109	 0.265211877915624 
1110	 0.26615278312653 
1111	 0.267089405228567 
1112	 0.268051239589847 
1113	 0.26895741242806 
1114	 0.269810349704537 
1115	 0.270720695839743 
1116	 0.271627727098244 
1117	 0.272548822953075 
1118	 0.273503970758827 
1119	 0.27446225403613 
1120	 0.27541591162081 
1121	 0.276330517985576 
1122	 0.277286036139399 
1123	 0.278277888551213 
1124	 0.279233068803593 
1125	 0.280184480728607 
1126	 0.281133165095963 
1127	 0.282049844407616 
1128	 0.28300078357387 
1129	 0.283983760119376 
1130	 0.284930846209573 
1131	 0.285867820275451 
1132	 0.28681674429989 
1133	 0.287738796595848 
1134	 0.288685015043313 
1135	 0.289670978582753 
1136	 0.290632877575015 
1137	 0.291572326417773 
1138	 0.292524279171259 
1139	 0.293443444457476 
1140	 0.294329653105889 
1141	 0.295231540691544 
1142	 0.296119374571275 
1143	 0.297025855636707 
1144	 0.297945154176592 
1145	 0.298857950340528 
1146	 0.299785429501194 
1147	 0.300683485126532 
1148	 0.301568040886369 
1149	 0.302449098339141 
1150	 0.303314531617195 
1151	 0.304179124976076 
1152	 0.305028349419994 
1153	 0.305891842280633 
1154	 0.30676035761108 
1155	 0.307639471584736 
1156	 0.308496601234727 
1157	 0.309355888869451 
1158	 0.310207561323166 
1159	 0.311038951013408 
1160	 0.311878232887865 
1161	 0.312728827355472 
1162	 0.313565813173115 
1163	 0.314397776173644 
1164	 0.315223024861206 
1165	 0.316050180148351 
1166	 0.316865650602158 
1167	 0.317643529837497 
1168	 0.318424837190574 
1169	 0.319226822065018 
1170	 0.320033687352751 
1171	 0.32082504278347 
1172	 0.321648869229161 
1173	 0.322419207673609 
1174	 0.323139734768596 
1175	 0.323882697320977 
1176	 0.324623318043593 
1177	 0.325354559419535 
1178	 0.326089913661667 
1179	 0.326810491100088 
1180	 0.327512806448713 
1181	 0.328216323068576 
1182	 0.328915296707502 
1183	 0.329614001973642 
1184	 0.330301247182631 
1185	 0.330989412972666 
1186	 0.331656198368882 
1187	 0.332313234265788 
1188	 0.332953880194503 
1189	 0.333592019536067 
1190	 0.334190015280844 
1191	 0.334748984444421 
1192	 0.335321482916014 
1193	 0.335868481261654 
1194	 0.336422480006705 
1195	 0.337007796966407 
1196	 0.337551297350343 
1197	 0.338072843552501 
1198	 0.338579557806446 
1199	 0.339067611324763 
1200	 0.339512687422985 
1201	 0.340010871010548 
1202	 0.340527943086109 
1203	 0.341013864262153 
1204	 0.341509967788875 
1205	 0.341997895475166 
1206	 0.342453880775418 
1207	 0.3429260171964 
1208	 0.343434054078153 
1209	 0.343900399305293 
1210	 0.34434654562143 
1211	 0.344780129396553 
1212	 0.34519258112863 
1213	 0.345599744223027 
1214	 0.345986746145895 
1215	 0.346378281099606 
1216	 0.346767400875624 
1217	 0.347159601423437 
1218	 0.347526802337335 
1219	 0.34788716969507 
1220	 0.348237524510971 
1221	 0.348555973622471 
1222	 0.348901196254056 
1223	 0.349270615494374 
1224	 0.349605021641411 
1225	 0.349931068484784 
1226	 0.350252281009446 
1227	 0.350548306065115 
1228	 0.350849617510011 
1229	 0.351161148736489 
1230	 0.351460341337201 
1231	 0.351742167117636 
1232	 0.352029880209126 
1233	 0.352316983433731 
1234	 0.352609039177093 
1235	 0.352876966774957 
1236	 0.353148153565671 
1237	 0.353387952388928 
1238	 0.353583773436568 
1239	 0.353815195228139 
1240	 0.354050037348126 
1241	 0.354277061448914 
1242	 0.3545112409616 
1243	 0.354747601982279 
1244	 0.354977047416114 
1245	 0.355204402568561 
1246	 0.355454821453016 
1247	 0.355679729492031 
1248	 0.355881617380644 
1249	 0.356082794690696 
1250	 0.356273122922299 
1251	 0.356461180113786 
1252	 0.356652651216869 
1253	 0.356845928476138 
1254	 0.35703012662061 
1255	 0.357209682107237 
1256	 0.35739293615669 
1257	 0.357578421623053 
1258	 0.357750297024055 
1259	 0.357922746556034 
1260	 0.358085961064783 
1261	 0.358220314046129 
1262	 0.358378114856279 
1263	 0.358553576724819 
1264	 0.358715290968689 
1265	 0.358887554450737 
1266	 0.35904371486922 
1267	 0.359187103737217 
1268	 0.359322231930266 
1269	 0.359444966647189 
1270	 0.359547432136225 
1271	 0.359672378720435 
1272	 0.359797888486211 
1273	 0.359916508326827 
1274	 0.360040967918112 
1275	 0.360170083583069 
1276	 0.360289754926772 
1277	 0.360414170686417 
1278	 0.360553453141719 
1279	 0.360685334494132 
1280	 0.360821929125407 
1281	 0.360936347145034 
1282	 0.361048309828361 
1283	 0.361146340713812 
1284	 0.361213923743787 
1285	 0.361281513123988 
1286	 0.361363180290745 
1287	 0.361449067062122 
1288	 0.361530993557067 
1289	 0.361609402975459 
1290	 0.361706043280048 
1291	 0.361811226534655 
1292	 0.36190666943479 
1293	 0.362019495348159 
1294	 0.362116123084952 
1295	 0.362189194638435 
1296	 0.362279286623523 
1297	 0.362363718362355 
1298	 0.362470692545957 
1299	 0.362601503086823 
1300	 0.362718446512384 
1301	 0.362851848702899 
1302	 0.36296972043354 
1303	 0.363069399839785 
1304	 0.363169780325283 
1305	 0.363277325826773 
1306	 0.36337278010336 
1307	 0.363464685137648 
1308	 0.363546818254724 
1309	 0.36361899718311 
1310	 0.363675902802598 
1311	 0.363739402600546 
1312	 0.363809291583804 
1313	 0.363847478110276 
1314	 0.363866505927447 
1315	 0.363893272810418 
1316	 0.36389658866698 
1317	 0.363914007489579 
1318	 0.363959061419704 
1319	 0.36397355173167 
1320	 0.363975701034323 
1321	 0.36396622204157 
1322	 0.36394040277598 
1323	 0.363905074209016 
1324	 0.363860944692621 
1325	 0.36383947671702 
1326	 0.363811781132567 
1327	 0.363773556188919 
1328	 0.363736522127848 
1329	 0.363666241611518 
1330	 0.363601277253526 
1331	 0.36352047924926 
1332	 0.363451772068689 
1333	 0.36338093888612 
1334	 0.363322085866847 
1335	 0.363279134668836 
1336	 0.363216972912086 
1337	 0.363157117827581 
1338	 0.363084320642135 
1339	 0.363001366081052 
1340	 0.362910245611228 
1341	 0.362818009807446 
1342	 0.362710134068943 
1343	 0.36259412050881 
1344	 0.362447646729803 
1345	 0.362318093876992 
1346	 0.362176831214594 
1347	 0.362027217910303 
1348	 0.361885009275756 
1349	 0.361691373947469 
1350	 0.361465477481447 
1351	 0.361248318985628 
1352	 0.361000607372236 
1353	 0.360774919618237 
1354	 0.360568245759868 
1355	 0.360339535347443 
1356	 0.360085282301543 
1357	 0.359863913752251 
1358	 0.359617662699242 
1359	 0.359441697349038 
1360	 0.359322262658233 
1361	 0.359199756724106 
1362	 0.359105307840469 
1363	 0.359027868497817 
1364	 0.35895600275475 
1365	 0.358907041543604 
1366	 0.358879590524701 
1367	 0.358886863804666 
1368	 0.358922955294909 
1369	 0.358930348002194 
1370	 0.358911216752989 
1371	 0.358866154330309 
1372	 0.358762017807584 
1373	 0.358608504023368 
1374	 0.3584046427208 
1375	 0.358184114532164 
1376	 0.357853307205355 
1377	 0.357432422473108 
1378	 0.356981061564149 
1379	 0.356409511767229 
1380	 0.355909461791157 
1381	 0.355394856138517 
1382	 0.354898549673449 
1383	 0.354447240715203 
1384	 0.353953884448275 
1385	 0.353507618080228 
1386	 0.35293951106784 
1387	 0.352330888041476 
1388	 0.351650389323066 
1389	 0.350895335635876 
1390	 0.350048832656514 
1391	 0.349145734269566 
1392	 0.348169637309429 
1393	 0.347111163204217 
1394	 0.346000899337813 
1395	 0.34483817226181 
1396	 0.343651192165959 
1397	 0.342452843665885 
1398	 0.341214584249791 
1399	 0.339973518323475 
1400	 0.338733062231817 
1401	 0.337456997309159 
1402	 0.336132429919386 
1403	 0.334848352248682 
1404	 0.333530647481381 
1405	 0.332283950371032 
1406	 0.331083704453678 
1407	 0.329884701560662 
1408	 0.3287059615347 
1409	 0.327567393494153 
1410	 0.326418010832241 
1411	 0.325355877574529 
1412	 0.324345924651725 
1413	 0.323399284932015 
1414	 0.322529826318209 
1415	 0.321699466644373 
1416	 0.320898529751699 
1417	 0.320134518531019 
1418	 0.319399122422476 
1419	 0.318700606155169 
1420	 0.318075047119971 
1421	 0.317507918442216 
1422	 0.316985259952833 
1423	 0.316488430482838 
1424	 0.315993024255209 
1425	 0.315506390600009 
1426	 0.31506561169388 
1427	 0.314624523322954 
1428	 0.314254756715099 
1429	 0.3139441391932 
1430	 0.313658794781164 
1431	 0.313447957293011 
1432	 0.313199624150524 
1433	 0.31294127015145 
1434	 0.312729913316028 
1435	 0.312502356005023 
1436	 0.312334635645676 
1437	 0.312263361350788 
1438	 0.312152777924268 
1439	 0.312037834429921 
1440	 0.311951127410322 
1441	 0.311847681881202 
1442	 0.311746978177443 
1443	 0.311679478248454 
1444	 0.311613719372764 
1445	 0.311607606791323 
1446	 0.31161079210133 
1447	 0.311622215629182 
1448	 0.311666299636294 
1449	 0.311632526639059 
1450	 0.311593275584691 
1451	 0.311576409321723 
1452	 0.311531834571254 
1453	 0.311540763776442 
1454	 0.311605695969951 
1455	 0.311633040021938 
1456	 0.311674379288122 
1457	 0.311697072191435 
1458	 0.311689383232067 
1459	 0.31170983462699 
1460	 0.311716232503717 
1461	 0.311769955399788 
1462	 0.311854774704387 
1463	 0.311941545151301 
1464	 0.312072080291703 
1465	 0.312184089250199 
1466	 0.312274591647008 
1467	 0.312403904274282 
1468	 0.312515418462673 
1469	 0.312692406004545 
1470	 0.312934923436347 
1471	 0.313172329949733 
1472	 0.313437751691746 
1473	 0.313725505683544 
1474	 0.313954800323282 
1475	 0.314208875795958 
1476	 0.314464020596799 
1477	 0.314723734396822 
1478	 0.3150660985434 
1479	 0.315405255179767 
1480	 0.315750064326784 
1481	 0.316116825639757 
1482	 0.316445866673732 
1483	 0.316734343656377 
1484	 0.317053042799003 
1485	 0.317368341217997 
1486	 0.317697766812683 
1487	 0.318044742620717 
1488	 0.318382404605096 
1489	 0.318735138322537 
1490	 0.31906042620665 
1491	 0.319366252816283 
1492	 0.319684166773621 
1493	 0.319983265778304 
1494	 0.320299889247748 
1495	 0.320630434268236 
1496	 0.320956573812033 
1497	 0.321299515446744 
1498	 0.321624885937502 
1499	 0.321958040861041 
1500	 0.322263855689294 
1501	 0.322535661277655 
1502	 0.322817786042126 
1503	 0.323092875467319 
1504	 0.323349413150554 
1505	 0.323645188789448 
1506	 0.323930942214437 
1507	 0.324212018981353 
1508	 0.32449792831271 
1509	 0.324753061589861 
1510	 0.324994574401107 
1511	 0.325241566775413 
1512	 0.325491741551065 
1513	 0.325746734647807 
1514	 0.325997904030187 
1515	 0.32625283626202 
1516	 0.326514339176292 
1517	 0.326757879824518 
1518	 0.327002863302562 
1519	 0.327233242092144 
1520	 0.327435635694997 
1521	 0.327660124292646 
1522	 0.327886651385292 
1523	 0.32812250433174 
1524	 0.328383279538997 
1525	 0.328597468988858 
1526	 0.328796309319297 
1527	 0.328997261348823 
1528	 0.329167870902435 
1529	 0.329355682009863 
1530	 0.329556199721696 
1531	 0.329746095053409 
1532	 0.329933196094909 
1533	 0.330114064200035 
1534	 0.330298272350312 
1535	 0.330469607149074 
1536	 0.330605065887925 
1537	 0.330778192843466 
1538	 0.330972281758079 
1539	 0.331154560499393 
1540	 0.331365747579171 
1541	 0.331548604981247 
1542	 0.331701504487967 
1543	 0.33186217047512 
1544	 0.332012551686485 
1545	 0.332171206985783 
1546	 0.332331097862495 
1547	 0.332494233496846 
1548	 0.332677865376005 
1549	 0.332853303606777 
1550	 0.333010156686001 
1551	 0.333168636118334 
1552	 0.333304162237102 
1553	 0.333421956581853 
1554	 0.333552071970228 
1555	 0.33366807994194 
1556	 0.333769214094159 
1557	 0.333885136794697 
1558	 0.334009812283048 
1559	 0.334133081755516 
1560	 0.334246715941702 
1561	 0.334366114713742 
1562	 0.334471390375964 
1563	 0.334548501672641 
1564	 0.334663908929086 
1565	 0.334806771823486 
1566	 0.334912687483677 
1567	 0.335016955166831 
1568	 0.335117291813228 
1569	 0.335194630265794 
1570	 0.335276539210043 
1571	 0.335378444652548 
1572	 0.335445434443307 
1573	 0.335473987842253 
1574	 0.335531396202541 
1575	 0.335585422893054 
1576	 0.335649186276708 
1577	 0.335728788192981 
1578	 0.335805179176118 
1579	 0.335880758516837 
1580	 0.33595901950275 
1581	 0.336048822864602 
1582	 0.336124319265764 
1583	 0.336183125851442 
1584	 0.336263390195857 
1585	 0.336352416813285 
1586	 0.33643413072029 
1587	 0.336534161233196 
1588	 0.336613342831735 
1589	 0.336676565146343 
1590	 0.336737296087404 
1591	 0.336791770242723 
1592	 0.336840392394603 
1593	 0.336879305179242 
1594	 0.336915172142003 
1595	 0.336935977499703 
1596	 0.336971885935874 
1597	 0.337029523648051 
1598	 0.337056045195807 
1599	 0.337070580643923 
1600	 0.337087949344993 
1601	 0.337066945511377 
1602	 0.337079038003613 
1603	 0.337134406656523 
1604	 0.337162943988834 
1605	 0.337181332590976 
1606	 0.337207584425239 
1607	 0.337226227654596 
1608	 0.337238070049526 
1609	 0.337279941758303 
1610	 0.337321476646615 
1611	 0.337352919808333 
1612	 0.337378345614623 
1613	 0.337413104821756 
1614	 0.337456680903952 
1615	 0.337488921153387 
1616	 0.337518127794328 
1617	 0.337531923427568 
1618	 0.337534503310767 
1619	 0.337533445342218 
1620	 0.337531647256638 
1621	 0.337531941745793 
1622	 0.337524899288672 
1623	 0.33752574856573 
1624	 0.337535112437352 
1625	 0.337537159283341 
1626	 0.337535138190804 
1627	 0.337537207882385 
1628	 0.337546750411073 
1629	 0.337534233465067 
1630	 0.337512773218867 
1631	 0.337493889822398 
1632	 0.337455493703869 
1633	 0.337440976619343 
1634	 0.337441540205907 
1635	 0.337436828358523 
1636	 0.33744347545821 
1637	 0.337428935029631 
1638	 0.337410233833956 
1639	 0.337377055811597 
1640	 0.337323236567368 
1641	 0.337280412968725 
1642	 0.337230812697081 
1643	 0.337190775186728 
1644	 0.337150635390097 
1645	 0.337123781692708 
1646	 0.337100525670637 
1647	 0.337094557907979 
1648	 0.337109345440957 
1649	 0.337117001421866 
1650	 0.337149616543073 
1651	 0.337136084372465 
1652	 0.337097860941602 
1653	 0.337066151251058 
1654	 0.337008984312079 
1655	 0.33696693579066 
1656	 0.33694456921045 
1657	 0.336893999007038 
1658	 0.336816263654632 
1659	 0.336766814989009 
1660	 0.336723418855546 
1661	 0.336671823214618 
1662	 0.336631803262752 
1663	 0.33658617594275 
1664	 0.336534466563193 
1665	 0.336469046398788 
1666	 0.33641102706555 
1667	 0.336329115371178 
1668	 0.336204312321786 
1669	 0.336115646325722 
1670	 0.336027593049846 
1671	 0.335959937644809 
1672	 0.335914966062755 
1673	 0.335869829398901 
1674	 0.335841077803622 
1675	 0.335801814030559 
1676	 0.33578206065391 
1677	 0.335718421909395 
1678	 0.335627580918189 
1679	 0.335540329945227 
1680	 0.335408668714224 
1681	 0.33532595652222 
1682	 0.335277808903616 
1683	 0.335207695121744 
1684	 0.335154992323897 
1685	 0.335079137526141 
1686	 0.334970556682984 
1687	 0.334888728614678 
1688	 0.334823874633406 
1689	 0.334735476471722 
1690	 0.33464647636856 
1691	 0.334551714400507 
1692	 0.334439685517676 
1693	 0.334327325291928 
1694	 0.334208310691547 
1695	 0.33410499606918 
1696	 0.333998891137086 
1697	 0.333900622994611 
1698	 0.333820589733022 
1699	 0.333736292686303 
1700	 0.333650495926455 
1701	 0.33355876225104 
1702	 0.333469365431226 
1703	 0.333383989361701 
1704	 0.333297136666496 
1705	 0.333203089907933 
1706	 0.33310872572041 
1707	 0.333020063357289 
1708	 0.332928322770078 
1709	 0.332830595706269 
1710	 0.332740226433756 
1711	 0.332641071950633 
1712	 0.33252952084356 
1713	 0.332415829273783 
1714	 0.33230348531308 
1715	 0.33218780318386 
1716	 0.332048144917334 
1717	 0.331943369927512 
1718	 0.331879446028446 
1719	 0.331756373338949 
1720	 0.331631104284587 
1721	 0.331479361332176 
1722	 0.331269117416651 
1723	 0.331090215092865 
1724	 0.330910417523077 
1725	 0.330748337837887 
1726	 0.330602986086653 
1727	 0.330435747309746 
1728	 0.330270663654033 
1729	 0.330104175781494 
1730	 0.329916770921016 
1731	 0.329747287662992 
1732	 0.329600563841767 
1733	 0.329443316805004 
1734	 0.329281664145897 
1735	 0.329113451475856 
1736	 0.328950809059841 
1737	 0.328760142256522 
1738	 0.328554725701333 
1739	 0.328335058706413 
1740	 0.328091143672897 
1741	 0.32785877739644 
1742	 0.327607453140896 
1743	 0.327405291324157 
1744	 0.327229903666976 
1745	 0.327046303654235 
1746	 0.326881866211895 
1747	 0.326683181441631 
1748	 0.326487463871033 
1749	 0.326262674432328 
1750	 0.326093071408225 
1751	 0.325908776597334 
1752	 0.32567818346308 
1753	 0.325463042039069 
1754	 0.325255033388154 
1755	 0.325048521354024 
1756	 0.324867358928243 
1757	 0.324701586270383 
1758	 0.324515736747438 
1759	 0.324341656673469 
1760	 0.324197389819943 
1761	 0.3240300810164 
1762	 0.323854720281585 
1763	 0.323674752080171 
1764	 0.323475866064721 
1765	 0.323308881384376 
1766	 0.323140264040198 
1767	 0.322948793628454 
1768	 0.322775334413984 
1769	 0.322607276160406 
1770	 0.322437690733344 
1771	 0.322281511177566 
1772	 0.322137491321413 
1773	 0.321982100742003 
1774	 0.321833488422998 
1775	 0.321694425955944 
1776	 0.321504615173966 
1777	 0.321285966977027 
1778	 0.321088840945472 
1779	 0.320931675279956 
1780	 0.320813304598452 
1781	 0.320703220189823 
1782	 0.320595600530631 
1783	 0.320462800912469 
1784	 0.320329385386867 
1785	 0.320192698433695 
1786	 0.320074576221843 
1787	 0.31995646666813 
1788	 0.319840273477829 
1789	 0.31974611244822 
1790	 0.319660837204474 
1791	 0.319575620558086 
1792	 0.319486410155075 
1793	 0.31941380651656 
1794	 0.319315883535765 
1795	 0.319191119988526 
1796	 0.319093166643968 
1797	 0.318999981102375 
1798	 0.318922849189079 
1799	 0.318866026250295 
1800	 0.318779309965656 
1801	 0.313043460872746 
1802	 0.31338221632738 
1803	 0.313721145152444 
1804	 0.314084928327514 
1805	 0.314430074847048 
1806	 0.314728375526608 
1807	 0.31506672376651 
1808	 0.31534099373261 
1809	 0.315607678387533 
1810	 0.315791612804547 
1811	 0.315926288153564 
1812	 0.316014854712395 
1813	 0.316055888969416 
1814	 0.316086704783231 
1815	 0.31608267822302 
1816	 0.316059496819193 
1817	 0.316042908676479 
1818	 0.315983520271894 
1819	 0.315958504714988 
1820	 0.315964395078987 
1821	 0.315949011841753 
1822	 0.315905443025941 
1823	 0.315884752124973 
1824	 0.315862405672678 
1825	 0.315821067917164 
1826	 0.315773386790643 
1827	 0.315717417932915 
1828	 0.315634840455959 
1829	 0.315516632607184 
1830	 0.315407715584684 
1831	 0.31529769098617 
1832	 0.315159514584539 
1833	 0.315003898944254 
1834	 0.314838451144979 
1835	 0.314681414853115 
1836	 0.314571401062442 
1837	 0.314502743766143 
1838	 0.314448066293569 
1839	 0.314400350895484 
1840	 0.314380978574114 
1841	 0.314332598028354 
1842	 0.314281461263728 
1843	 0.314255862800714 
1844	 0.314202149414064 
1845	 0.314127583875627 
1846	 0.314063151444462 
1847	 0.313985212874747 
1848	 0.313867647658274 
1849	 0.313732673798083 
1850	 0.313598765466726 
1851	 0.313459469436671 
1852	 0.313281958636416 
1853	 0.313071441257557 
1854	 0.312857565079198 
1855	 0.312598237018706 
1856	 0.312298782723868 
1857	 0.311988307020554 
1858	 0.311648204603446 
1859	 0.31127497721109 
1860	 0.310808771196484 
1861	 0.310278079776166 
1862	 0.309677916114768 
1863	 0.308993087440687 
1864	 0.308191644010511 
1865	 0.307347959976712 
1866	 0.306426551803563 
1867	 0.305474793396518 
1868	 0.304492966599067 
1869	 0.303487598944472 
1870	 0.302507524438778 
1871	 0.301496960631601 
1872	 0.300473114734304 
1873	 0.299467021410487 
1874	 0.298401280726798 
1875	 0.297289436369137 
1876	 0.296144924319656 
1877	 0.294889560463718 
1878	 0.293511819853928 
1879	 0.29199830529971 
1880	 0.290334705418364 
1881	 0.288485298845814 
1882	 0.286551004923696 
1883	 0.284498309353485 
1884	 0.282310363331717 
1885	 0.280027512610065 
1886	 0.277633785923571 
1887	 0.275106298414312 
1888	 0.27247390428442 
1889	 0.269703824874397 
1890	 0.266866923311121 
1891	 0.264008689034746 
1892	 0.261052468948719 
1893	 0.258102375109443 
1894	 0.25512783029823 
1895	 0.252134521030059 
1896	 0.24909812786315 
1897	 0.246069610251111 
1898	 0.243045275833037 
1899	 0.240076303283562 
1900	 0.237203653583619 
1901	 0.234409934721724 
1902	 0.231761186681336 
1903	 0.229262439561648 
1904	 0.22685667070632 
1905	 0.224548182457 
1906	 0.222391139732593 
1907	 0.220359566606352 
1908	 0.218433702416369 
1909	 0.216631649948931 
1910	 0.214940615082556 
1911	 0.213355005114313 
1912	 0.211863816028734 
1913	 0.210470767349903 
1914	 0.209185936339125 
1915	 0.207986974035405 
1916	 0.206881161104662 
1917	 0.205856180839547 
1918	 0.204945704968876 
1919	 0.204120102681686 
1920	 0.203384675628012 
1921	 0.202754545792691 
1922	 0.2021878009127 
1923	 0.201700394857759 
1924	 0.201278534055886 
1925	 0.200946772439635 
1926	 0.200653841255613 
1927	 0.200427575409882 
1928	 0.200242004437059 
1929	 0.200093248081039 
1930	 0.199976005464795 
1931	 0.199908599669511 
1932	 0.199871487795066 
1933	 0.199880543440013 
1934	 0.199939254403803 
1935	 0.200018497226448 
1936	 0.200119475379577 
1937	 0.200268190959106 
1938	 0.200458040193219 
1939	 0.200671087460888 
1940	 0.200919106482048 
1941	 0.201206186252483 
1942	 0.201505397564389 
1943	 0.201819576867295 
1944	 0.202162733901266 
1945	 0.202532477026043 
1946	 0.202901471612927 
1947	 0.203281995961685 
1948	 0.203681246981216 
1949	 0.20407697396079 
1950	 0.204504426931127 
1951	 0.204958807780325 
1952	 0.205435676672482 
1953	 0.205921671673382 
1954	 0.206441066725247 
1955	 0.206932708296574 
1956	 0.207431546168251 
1957	 0.207962678927788 
1958	 0.208493255037938 
1959	 0.209059512456996 
1960	 0.209684754784027 
1961	 0.210287509714946 
1962	 0.210898962745884 
1963	 0.211517632081459 
1964	 0.212134798883172 
1965	 0.212760124394659 
1966	 0.213409476727866 
1967	 0.214045547810361 
1968	 0.214687407580827 
1969	 0.215336130933914 
1970	 0.215978070076321 
1971	 0.216621628918546 
1972	 0.217260902258452 
1973	 0.217887914907055 
1974	 0.218528082041995 
1975	 0.219176832076057 
1976	 0.219816364173263 
1977	 0.220460366651971 
1978	 0.221118642921945 
1979	 0.221752147833293 
1980	 0.22240419930745 
1981	 0.223065120982929 
1982	 0.223725583045846 
1983	 0.224406654963236 
1984	 0.225121754081443 
1985	 0.225812616037556 
1986	 0.226517523157745 
1987	 0.22720323132994 
1988	 0.227877607999981 
1989	 0.228529745437723 
1990	 0.229189893708026 
1991	 0.22984563590999 
1992	 0.230493249636783 
1993	 0.231134385977867 
1994	 0.231779339764287 
1995	 0.232411379648075 
1996	 0.233053682322397 
1997	 0.233707485211003 
1998	 0.234351859506411 
1999	 0.234987211372115 
2000	 0.235640509544294 
2001	 0.236299930083272 
2002	 0.236958917958559 
2003	 0.237648832518625 
2004	 0.238302537735188 
2005	 0.238943038132647 
2006	 0.23956056556528 
2007	 0.240191167652145 
2008	 0.240810856951716 
2009	 0.241430069565406 
2010	 0.242056857065459 
2011	 0.24267325865177 
2012	 0.243266728500141 
2013	 0.243876924621033 
2014	 0.244490402433094 
2015	 0.245119376067081 
2016	 0.245734604938782 
2017	 0.246347031042951 
2018	 0.246946817850247 
2019	 0.247528217208418 
2020	 0.248112989231069 
2021	 0.248695954105264 
2022	 0.249269928413976 
2023	 0.249843565698152 
2024	 0.250408004738812 
2025	 0.250950345049964 
2026	 0.25150879680575 
2027	 0.252076256833363 
2028	 0.25262877561423 
2029	 0.253185264990259 
2030	 0.253758902945335 
2031	 0.254296810148306 
2032	 0.254820097433938 
2033	 0.255330503597928 
2034	 0.255812183911768 
2035	 0.256304508100938 
2036	 0.256795556517934 
2037	 0.25727462660484 
2038	 0.257757485826871 
2039	 0.258223972738123 
2040	 0.258667625381773 
2041	 0.259115944750364 
2042	 0.259542520450551 
2043	 0.259960228408498 
2044	 0.260406957607055 
2045	 0.260870085483632 
2046	 0.26130948530371 
2047	 0.2617699853946 
2048	 0.262198257845686 
2049	 0.262582090531536 
2050	 0.262990313711918 
2051	 0.263404698848226 
2052	 0.263812959639577 
2053	 0.264231062636116 
2054	 0.26463327286266 
2055	 0.265020301806758 
2056	 0.265406518486208 
2057	 0.265791664517516 
2058	 0.266173115991657 
2059	 0.266543700515646 
2060	 0.266908074473891 
2061	 0.267272342454467 
2062	 0.267617141447802 
2063	 0.267979903847757 
2064	 0.268367449575004 
2065	 0.268729396353964 
2066	 0.269076501406533 
2067	 0.269435357249956 
2068	 0.269786291501596 
2069	 0.270131897708643 
2070	 0.270499387329407 
2071	 0.270895624276405 
2072	 0.271252622565054 
2073	 0.271604027018384 
2074	 0.271947626211921 
2075	 0.272266198193572 
2076	 0.272599417684663 
2077	 0.272942907777285 
2078	 0.273270588690548 
2079	 0.273588857004273 
2080	 0.27390936430212 
2081	 0.274215151749779 
2082	 0.274534733332328 
2083	 0.274868739501638 
2084	 0.275192332755839 
2085	 0.275518932141808 
2086	 0.275861661517002 
2087	 0.276166132910493 
2088	 0.276450215265349 
2089	 0.276739956869359 
2090	 0.276996732719455 
2091	 0.27728717198995 
2092	 0.277599498420769 
2093	 0.277903471638017 
2094	 0.278213958651339 
2095	 0.278524616704149 
2096	 0.278835048271053 
2097	 0.279144724924688 
2098	 0.279448313619181 
2099	 0.279776449334787 
2100	 0.280079057319314 
2101	 0.280374515251593 
2102	 0.28066632708196 
2103	 0.280951911972254 
2104	 0.281227660928409 
2105	 0.28148317472863 
2106	 0.281765547597238 
2107	 0.282049637026903 
2108	 0.282339105869247 
2109	 0.282655579089901 
2110	 0.282956125161455 
2111	 0.283228132581772 
2112	 0.283532055240197 
2113	 0.283851909324875 
2114	 0.284174194331517 
2115	 0.284509083269592 
2116	 0.28488384316971 
2117	 0.285199935506917 
2118	 0.285503110315385 
2119	 0.285789704474534 
2120	 0.286048219448275 
2121	 0.286298172067872 
2122	 0.286539995202586 
2123	 0.286763336075508 
2124	 0.286947780738107 
2125	 0.287152834523579 
2126	 0.287365694540508 
2127	 0.287562604456341 
2128	 0.287750547635873 
2129	 0.287944814868414 
2130	 0.288134220536763 
2131	 0.28832000194671 
2132	 0.28849045877691 
2133	 0.288665226360334 
2134	 0.28882394994702 
2135	 0.288959498878294 
2136	 0.289092342506825 
2137	 0.289232917014384 
2138	 0.289345168437424 
2139	 0.289446774977075 
2140	 0.289517260265696 
2141	 0.289550791375104 
2142	 0.289589663540173 
2143	 0.289602127722148 
2144	 0.289616244188999 
2145	 0.289636571245734 
2146	 0.289646879197217 
2147	 0.289649096174364 
2148	 0.289644072893358 
2149	 0.289619057178788 
2150	 0.289586097934432 
2151	 0.289538162622808 
2152	 0.289461044268601 
2153	 0.28939594162685 
2154	 0.289342333644406 
2155	 0.289251313108287 
2156	 0.289143313950477 
2157	 0.289027881631134 
2158	 0.28886561001089 
2159	 0.288737587236671 
2160	 0.288631750363564 
2161	 0.288509444238483 
2162	 0.288400940441299 
2163	 0.288273543924343 
2164	 0.288129185055444 
2165	 0.287979201902396 
2166	 0.287811480129026 
2167	 0.287634230104375 
2168	 0.287438127430591 
2169	 0.287216601991095 
2170	 0.287001082581695 
2171	 0.28676142094558 
2172	 0.286551085898305 
2173	 0.286343975905893 
2174	 0.286152541379278 
2175	 0.285983383380433 
2176	 0.285812287612038 
2177	 0.285670578239043 
2178	 0.285493006053471 
2179	 0.285303813206326 
2180	 0.285105797967827 
2181	 0.28487768026715 
2182	 0.284653594094395 
2183	 0.284415726625398 
2184	 0.284197548278554 
2185	 0.283978548195281 
2186	 0.283753830681241 
2187	 0.283542942693668 
2188	 0.283351301777371 
2189	 0.283143560804124 
2190	 0.28291940616918 
2191	 0.282729498071743 
2192	 0.282555324061574 
2193	 0.282376777393246 
2194	 0.282225285332995 
2195	 0.282055156768226 
2196	 0.281841274787165 
2197	 0.281680698012885 
2198	 0.281541105165482 
2199	 0.281419244664082 
2200	 0.281325836244179 
2201	 0.281254719438784 
2202	 0.2812221744939 
2203	 0.281174918257206 
2204	 0.281126500630229 
2205	 0.281097066122802 
2206	 0.281057274678846 
2207	 0.280979325311543 
2208	 0.280967003242103 
2209	 0.281002470348052 
2210	 0.281010329417134 
2211	 0.281048814566059 
2212	 0.281053277359016 
2213	 0.281028285727596 
2214	 0.281014117774842 
2215	 0.280991463727876 
2216	 0.280974708724752 
2217	 0.280957283707731 
2218	 0.280943808784182 
2219	 0.280932173760154 
2220	 0.280926731284488 
2221	 0.280936141798069 
2222	 0.280928871136651 
2223	 0.280941821108759 
2224	 0.280932414953301 
2225	 0.280913711978618 
2226	 0.280903885045345 
2227	 0.280831253548805 
2228	 0.280714735718233 
2229	 0.28061356453157 
2230	 0.280452718127375 
2231	 0.280357885213041 
2232	 0.280305322684782 
2233	 0.280230008079724 
2234	 0.280164951835111 
2235	 0.280104525602486 
2236	 0.280059866755157 
2237	 0.279980857466851 
2238	 0.279885909532785 
2239	 0.279800243281138 
2240	 0.279674089461268 
2241	 0.279582542016584 
2242	 0.27951970192351 
2243	 0.279460379747542 
2244	 0.279426747332121 
2245	 0.27938689009381 
2246	 0.279274423817976 
2247	 0.279199982965093 
2248	 0.279106901040181 
2249	 0.278975475217616 
2250	 0.278857897453441 
2251	 0.278753029894136 
2252	 0.278653530344554 
2253	 0.278523331434353 
2254	 0.278441391433607 
2255	 0.278417628742488 
2256	 0.278352236305958 
2257	 0.27828088149262 
2258	 0.278215992681401 
2259	 0.278148799655855 
2260	 0.278070807570231 
2261	 0.277987491857724 
2262	 0.277910160474373 
2263	 0.277817055737576 
2264	 0.277738190254056 
2265	 0.277672747981976 
2266	 0.27761571591581 
2267	 0.27758475575215 
2268	 0.277523979566195 
2269	 0.277468248286311 
2270	 0.277380868710988 
2271	 0.277277809200734 
2272	 0.277183618540724 
2273	 0.27711302382675 
2274	 0.277049778626096 
2275	 0.276973253237908 
2276	 0.27689000280298 
2277	 0.27682030010978 
2278	 0.276755223966705 
2279	 0.276683572579631 
2280	 0.27661361894791 
2281	 0.276550983300734 
2282	 0.276497527400096 
2283	 0.276415402230489 
2284	 0.276336466483476 
2285	 0.276243024316257 
2286	 0.276104641278974 
2287	 0.275987908493516 
2288	 0.275866254932248 
2289	 0.275780039913794 
2290	 0.275721397029008 
2291	 0.275649945888167 
2292	 0.275620525048242 
2293	 0.275540910600058 
2294	 0.27540850919393 
2295	 0.275301303421879 
2296	 0.275168254756824 
2297	 0.275072898432097 
2298	 0.275013753879295 
2299	 0.274968031049935 
2300	 0.274893282645513 
2301	 0.274788061025333 
2302	 0.274647984851681 
2303	 0.274465412807025 
2304	 0.274288700335052 
2305	 0.274158334710096 
2306	 0.274017826080401 
2307	 0.273883438779931 
2308	 0.273744602083987 
2309	 0.273615321055683 
2310	 0.273462825831091 
2311	 0.273309187318605 
2312	 0.273145190843159 
2313	 0.272963011475965 
2314	 0.272769638534461 
2315	 0.272570722350216 
2316	 0.272353083597962 
2317	 0.272092550711305 
2318	 0.27188761258485 
2319	 0.271701071929278 
2320	 0.271508872488161 
2321	 0.27133636152936 
2322	 0.271174937091986 
2323	 0.271021187546199 
2324	 0.270840248030734 
2325	 0.270675473253367 
2326	 0.270497892832632 
2327	 0.270271794177336 
2328	 0.270080507023421 
2329	 0.269930510964238 
2330	 0.269782043472206 
2331	 0.269639219183021 
2332	 0.269461577214395 
2333	 0.269287405936324 
2334	 0.269105210021521 
2335	 0.268916549705709 
2336	 0.26878392703049 
2337	 0.268579732010381 
2338	 0.268323905207894 
2339	 0.268095570477493 
2340	 0.267866063166375 
2341	 0.267676469131928 
2342	 0.267475663562162 
2343	 0.267225763384528 
2344	 0.266948206528276 
2345	 0.26665246680484 
2346	 0.266318341339246 
2347	 0.266005210752799 
2348	 0.265671017669535 
2349	 0.265350035189268 
2350	 0.265063986377884 
2351	 0.264724991016443 
2352	 0.264354591640309 
2353	 0.263985763671161 
2354	 0.263546358961093 
2355	 0.263200956002846 
2356	 0.262919842074823 
2357	 0.262635523242564 
2358	 0.262430840850832 
2359	 0.262127711001128 
2360	 0.261773059889973 
2361	 0.261420038828215 
2362	 0.261039102146977 
2363	 0.260657304390688 
2364	 0.260236967438762 
2365	 0.259845819611063 
2366	 0.259437277723316 
2367	 0.259043514298634 
2368	 0.258718708641374 
2369	 0.258343617118861 
2370	 0.257929680159135 
2371	 0.257567560863821 
2372	 0.25712350097596 
2373	 0.256698578063192 
2374	 0.256345218396731 
2375	 0.255914683346637 
2376	 0.255464408566912 
2377	 0.255049197326043 
2378	 0.254625504653884 
2379	 0.254188079570922 
2380	 0.253760730870962 
2381	 0.253359658747214 
2382	 0.252878030007345 
2383	 0.25235043312081 
2384	 0.25189991118444 
2385	 0.251433292249131 
2386	 0.250982892791544 
2387	 0.250621078139173 
2388	 0.250241926835379 
2389	 0.249824230182406 
2390	 0.249418421434419 
2391	 0.24896608636994 
2392	 0.248511127676723 
2393	 0.248105194673166 
2394	 0.24763401849926 
2395	 0.24714671171948 
2396	 0.246661196898977 
2397	 0.246150876826958 
2398	 0.245662965651052 
2399	 0.245143311990883 
2400	 0.244596520501401 
2401	 0.244080111066746 
2402	 0.243708768724085 
2403	 0.243365930571755 
2404	 0.242926901257968 
2405	 0.242525732962282 
2406	 0.241998852742487 
2407	 0.241360387006962 
2408	 0.240866142216146 
2409	 0.240340291331459 
2410	 0.239770549431183 
2411	 0.239313961459668 
2412	 0.238868257129383 
2413	 0.238371364647295 
2414	 0.237820955681811 
2415	 0.237272764451433 
2416	 0.236685794475858 
2417	 0.235968462743153 
2418	 0.235408441671665 
2419	 0.234908574180413 
2420	 0.23439202551191 
2421	 0.233964499444004 
2422	 0.233485882137738 
2423	 0.233001122232534 
2424	 0.232541524828253 
2425	 0.232102514424184 
2426	 0.23160067031272 
2427	 0.231032845827141 
2428	 0.23046885476645 
2429	 0.229855508568558 
2430	 0.229323934201131 
2431	 0.22885397572979 
2432	 0.228402630658906 
2433	 0.228058653545657 
2434	 0.227516253898656 
2435	 0.22685264210147 
2436	 0.226316923925113 
2437	 0.225672977398716 
2438	 0.225136404444816 
2439	 0.224812369986676 
2440	 0.224331069026585 
2441	 0.223776660979252 
2442	 0.223275932559888 
2443	 0.222776748476371 
2444	 0.222232295815431 
2445	 0.22161256254611 
2446	 0.221106888386778 
2447	 0.220617085337391 
2448	 0.220182543997674 
2449	 0.219946497997761 
2450	 0.219505490421995 
2451	 0.218966801628706 
2452	 0.218460480564103 
2453	 0.217818951132404 
2454	 0.217259431875513 
2455	 0.216820923616691 
2456	 0.216305989184364 
2457	 0.215688296721873 
2458	 0.215281588179976 
2459	 0.215014082327537 
2460	 0.214516395288155 
2461	 0.214069541728715 
2462	 0.213542355954757 
2463	 0.212759067287828 
2464	 0.212243870910159 
2465	 0.211853762647411 
2466	 0.211382369021338 
2467	 0.210948568079966 
2468	 0.210499195347161 
2469	 0.210045295620979 
2470	 0.209789716816834 
2471	 0.209368638639375 
2472	 0.208841922944371 
2473	 0.2084158788603 
2474	 0.207852943155977 
2475	 0.207482758557017 
2476	 0.207116317063643 
2477	 0.206434057843376 
2478	 0.20584347562616 
2479	 0.205224779760513 
2480	 0.204687622504569 
2481	 0.204421107906539 
2482	 0.204051155371887 
2483	 0.203491939883423 
2484	 0.203151715531918 
2485	 0.202811041334053 
2486	 0.202336149602999 
2487	 0.202137914546158 
2488	 0.201672443789657 
2489	 0.201123725264495 
2490	 0.20098365275669 
2491	 0.200618165051982 
2492	 0.2002820851131 
2493	 0.200075927382872 
2494	 0.199616825949077 
2495	 0.199498303498425 
2496	 0.199359143492934 
2497	 0.198924155264271 
2498	 0.198576140538051 
2499	 0.197998783329908 
2500	 0.197670550829558 
