Wavelength	LMW_1300002.asd
350	 5.63780643933833E-02 
351	 5.84925677267856E-02 
352	 5.27417027522075E-02 
353	 4.54958559150498E-02 
354	 4.59357011873557E-02 
355	 4.82194591687198E-02 
356	 5.11274321776862E-02 
357	 5.43181852862918E-02 
358	 5.66473730906271E-02 
359	 5.49115854869582E-02 
360	 5.20985886860852E-02 
361	 5.37815121894731E-02 
362	 4.66893096123319E-02 
363	 4.39863387440879E-02 
364	 4.96556169457108E-02 
365	 4.88519192294089E-02 
366	 4.55364719293699E-02 
367	 4.29854695399177E-02 
368	 4.36839306661597E-02 
369	 4.75578751103454E-02 
370	 4.89020393046178E-02 
371	 4.70693869581259E-02 
372	 4.51847341464971E-02 
373	 4.66721195067527E-02 
374	 0.047921914403126 
375	 4.67472244069176E-02 
376	 4.47585970560828E-02 
377	 4.58651745274231E-02 
378	 4.82358036991426E-02 
379	 4.90402151482189E-02 
380	 5.00931929702555E-02 
381	 4.90403236595705E-02 
382	 4.77866906614243E-02 
383	 5.08239377730718E-02 
384	 5.22068455290492E-02 
385	 5.14397881694561E-02 
386	 4.97984425933147E-02 
387	 5.03426979054045E-02 
388	 4.99357240387826E-02 
389	 4.95719182847385E-02 
390	 5.05692958465166E-02 
391	 0.049178797338317 
392	 4.86245155676186E-02 
393	 5.00393478334042E-02 
394	 5.23562727917396E-02 
395	 5.26046541488807E-02 
396	 5.24994665243346E-02 
397	 5.34189656742788E-02 
398	 5.43064200149031E-02 
399	 5.47060704530263E-02 
400	 5.55176943640472E-02 
401	 5.73876473357604E-02 
402	 5.65972791422872E-02 
403	 0.055706822356559 
404	 5.59309093407851E-02 
405	 5.67034453499697E-02 
406	 5.80888998005342E-02 
407	 0.058800861987359 
408	 5.81783817345488E-02 
409	 5.75912529151352E-02 
410	 5.66054708199797E-02 
411	 5.62272188191876E-02 
412	 5.76305843132625E-02 
413	 5.86586898933226E-02 
414	 5.81601468245519E-02 
415	 5.69713133659282E-02 
416	 5.82463577689301E-02 
417	 5.83348454315273E-02 
418	 5.78478649645013E-02 
419	 5.79151639938326E-02 
420	 5.77221612017711E-02 
421	 5.72659313378766E-02 
422	 5.70882090567095E-02 
423	 5.78425810380648E-02 
424	 5.74730959631659E-02 
425	 5.68341225558571E-02 
426	 5.66135899764307E-02 
427	 5.64846080700401E-02 
428	 5.66752047303597E-02 
429	 5.67775761145856E-02 
430	 5.63844130707955E-02 
431	 5.60777643638827E-02 
432	 5.59090128062618E-02 
433	 5.60221080317117E-02 
434	 0.056636055512154 
435	 5.66581459666775E-02 
436	 5.64290286272186E-02 
437	 5.63671241814047E-02 
438	 5.62775973800734E-02 
439	 5.63070344488988E-02 
440	 5.65304512293094E-02 
441	 5.69267692959645E-02 
442	 5.70176930716749E-02 
443	 5.73621075426864E-02 
444	 5.79304756528453E-02 
445	 5.76412728864903E-02 
446	 5.77781389651676E-02 
447	 5.82135336475556E-02 
448	 5.84961783046065E-02 
449	 5.86508723518608E-02 
450	 5.89697086335082E-02 
451	 5.93796802133378E-02 
452	 5.95223786711431E-02 
453	 5.98211600045091E-02 
454	 5.99178236788372E-02 
455	 5.96780492631931E-02 
456	 5.98314401092796E-02 
457	 6.00116964315427E-02 
458	 6.01389121574468E-02 
459	 6.02797711123468E-02 
460	 6.06818311354899E-02 
461	 6.07643703813449E-02 
462	 6.05325606619513E-02 
463	 6.09017328104501E-02 
464	 6.10665357746739E-02 
465	 6.10064571151127E-02 
466	 6.09484961285279E-02 
467	 6.11757473653348E-02 
468	 6.14911297532307E-02 
469	 6.16037961949519E-02 
470	 6.12424593768425E-02 
471	 6.14992366079728E-02 
472	 6.18195732479395E-02 
473	 6.17354563079557E-02 
474	 6.16247003751634E-02 
475	 6.17339844786604E-02 
476	 6.18837198497203E-02 
477	 6.17741192691641E-02 
478	 6.18350106397598E-02 
479	 6.20149349937161E-02 
480	 6.21921293546777E-02 
481	 6.22055586463684E-02 
482	 6.24358850253805E-02 
483	 6.26649369774797E-02 
484	 0.06264663790011 
485	 6.27575292385403E-02 
486	 6.26619021075111E-02 
487	 6.24513832326849E-02 
488	 6.25588118690986E-02 
489	 0.062794639800149 
490	 6.28678404515676E-02 
491	 6.27107173376653E-02 
492	 6.28641953463878E-02 
493	 6.27685321831092E-02 
494	 6.25548532568164E-02 
495	 6.26436522258037E-02 
496	 6.30169224952104E-02 
497	 6.31410847659649E-02 
498	 0.062894928358568 
499	 6.28167119222924E-02 
500	 6.28333888017489E-02 
501	 0.062982451631471 
502	 6.32303697971899E-02 
503	 6.31939789393984E-02 
504	 6.30758149693588E-02 
505	 6.30007795278619E-02 
506	 6.29960766831335E-02 
507	 6.29749864002549E-02 
508	 6.30606719789499E-02 
509	 6.32660617452363E-02 
510	 6.32105198143635E-02 
511	 6.30736141759326E-02 
512	 6.29920375225486E-02 
513	 6.30576072432122E-02 
514	 6.31505494195081E-02 
515	 6.32096621557865E-02 
516	 6.32308910633688E-02 
517	 6.32959046320249E-02 
518	 6.32972026232005E-02 
519	 6.32230842406979E-02 
520	 6.31369533379913E-02 
521	 6.33159401592838E-02 
522	 6.33809280867618E-02 
523	 0.063243924961797 
524	 6.31562033072048E-02 
525	 6.32112016826794E-02 
526	 6.33001971944276E-02 
527	 6.33231873487711E-02 
528	 6.33899101455727E-02 
529	 6.33821365596001E-02 
530	 6.33244528057692E-02 
531	 6.33329904684747E-02 
532	 0.063406817490107 
533	 6.35103786058368E-02 
534	 6.36144684505656E-02 
535	 6.37283407862556E-02 
536	 6.37348380376955E-02 
537	 6.37045760959876E-02 
538	 0.063763240222929 
539	 6.38467001030912E-02 
540	 6.38431599445045E-02 
541	 6.37980718023134E-02 
542	 6.39692035601711E-02 
543	 6.40407596179543E-02 
544	 6.40828896502648E-02 
545	 6.42134059956827E-02 
546	 6.43014498179803E-02 
547	 0.064318645161421 
548	 6.43563744870807E-02 
549	 6.45824896689068E-02 
550	 6.46496880553262E-02 
551	 6.46717668242424E-02 
552	 6.47868543220654E-02 
553	 6.49783253207668E-02 
554	 6.50967687434418E-02 
555	 0.065197173859713 
556	 6.54202665790204E-02 
557	 6.55972492573854E-02 
558	 6.57523606201392E-02 
559	 6.59262748730433E-02 
560	 6.61522407201093E-02 
561	 6.63562735206707E-02 
562	 0.06657710132352 
563	 6.68676623941925E-02 
564	 6.71332287415762E-02 
565	 6.73799737653387E-02 
566	 6.76521246445057E-02 
567	 6.80265464207396E-02 
568	 6.84318642540656E-02 
569	 6.88447486075275E-02 
570	 6.92333789602715E-02 
571	 0.069480783590434 
572	 6.98119428136266E-02 
573	 7.02737719172242E-02 
574	 7.07707613542444E-02 
575	 7.11780358245785E-02 
576	 7.15600911048781E-02 
577	 7.19684697074684E-02 
578	 7.23327860327145E-02 
579	 7.28361493384076E-02 
580	 0.073487532199524 
581	 7.42009840406576E-02 
582	 7.48510213295099E-02 
583	 0.075472100508213 
584	 7.60837780674515E-02 
585	 7.66623209614545E-02 
586	 7.72566503765172E-02 
587	 7.78622073861394E-02 
588	 7.84643911591078E-02 
589	 7.90908917111166E-02 
590	 0.079705927239632 
591	 8.03038465826244E-02 
592	 8.09111807318314E-02 
593	 8.15308245778676E-02 
594	 8.21690153769067E-02 
595	 0.082837223160526 
596	 8.35650151588527E-02 
597	 8.43224187851856E-02 
598	 8.50843927920822E-02 
599	 8.58322406741982E-02 
600	 0.086564158026855 
601	 8.72058793818253E-02 
602	 8.77543714105603E-02 
603	 8.83481964473881E-02 
604	 8.89609101469086E-02 
605	 0.089538241930214 
606	 9.00410375105389E-02 
607	 9.05958683368565E-02 
608	 9.11016324927911E-02 
609	 9.15500823970052E-02 
610	 9.20530867659739E-02 
611	 9.26059008199563E-02 
612	 9.31305140780593E-02 
613	 9.35641046396102E-02 
614	 9.39697386881195E-02 
615	 9.43397611962257E-02 
616	 9.46877250824125E-02 
617	 9.50371357275121E-02 
618	 9.53774794679689E-02 
619	 0.095675669757754 
620	 9.59303664651913E-02 
621	 0.096213665369786 
622	 9.64913348308139E-02 
623	 9.67571412418153E-02 
624	 9.70150534665111E-02 
625	 9.72721767688995E-02 
626	 9.74911641881546E-02 
627	 9.76838418205905E-02 
628	 9.79294505987803E-02 
629	 9.81652398653549E-02 
630	 9.83630997790961E-02 
631	 9.85270784467636E-02 
632	 9.87433440815919E-02 
633	 9.89587028870994E-02 
634	 9.91521481961027E-02 
635	 9.93343010601453E-02 
636	 9.95361482683524E-02 
637	 9.97440015066199E-02 
638	 9.99280295210288E-02 
639	 0.100028622355913 
640	 0.100193375393992 
641	 0.100429621117569 
642	 0.10067190005322 
643	 0.100877997709781 
644	 0.101070127428145 
645	 0.101262618455379 
646	 0.101447323709762 
647	 0.101611981379023 
648	 0.101774776512792 
649	 0.101967681509152 
650	 0.102245907165932 
651	 0.102482903623429 
652	 0.102668142558469 
653	 0.1028961413062 
654	 0.103186457952423 
655	 0.103424190011783 
656	 0.103571691497974 
657	 0.103849698661505 
658	 0.104107383788344 
659	 0.104350245451913 
660	 0.104638866099345 
661	 0.104867778473833 
662	 0.105096673921931 
663	 0.105373452837266 
664	 0.105706768039065 
665	 0.106043871678409 
666	 0.106342388301889 
667	 0.106597797151657 
668	 0.106931641788596 
669	 0.107281710149482 
670	 0.107617560669566 
671	 0.107940128291419 
672	 0.108251862331368 
673	 0.108594402851959 
674	 0.108985551622814 
675	 0.10938110538297 
676	 0.109733494049219 
677	 0.110079781343876 
678	 0.110485174339669 
679	 0.110903088656576 
680	 0.11130776257008 
681	 0.111707693360346 
682	 0.112153610743263 
683	 0.11257058710373 
684	 0.112992742901801 
685	 0.113456943803376 
686	 0.11390368111117 
687	 0.114342323486102 
688	 0.11479146777865 
689	 0.115271075179809 
690	 0.115743161561216 
691	 0.116225399208327 
692	 0.116726547259026 
693	 0.117224631314198 
694	 0.117694669255911 
695	 0.118166170505021 
696	 0.118679272988354 
697	 0.119204889100742 
698	 0.119724042848969 
699	 0.120252751104558 
700	 0.120838838710027 
701	 0.121338868500806 
702	 0.121835998376411 
703	 0.122404143995646 
704	 0.122950626184136 
705	 0.123486751652684 
706	 0.124022324937403 
707	 0.124569093433225 
708	 0.125154274535138 
709	 0.125728099191073 
710	 0.126271240928955 
711	 0.126822835761346 
712	 0.127352550164785 
713	 0.127875766466835 
714	 0.128412677119122 
715	 0.128946882949775 
716	 0.129488818248945 
717	 0.130025271714743 
718	 0.130528872294296 
719	 0.131038615826915 
720	 0.131511882439923 
721	 0.131934343665906 
722	 0.132362610754152 
723	 0.132839027756143 
724	 0.133322729313835 
725	 0.133758177393123 
726	 0.134196413691069 
727	 0.134564797123434 
728	 0.134880386734626 
729	 0.13524172260021 
730	 0.13558940462352 
731	 0.135923127064628 
732	 0.136245950921144 
733	 0.136545839627466 
734	 0.136821645342613 
735	 0.137056102366365 
736	 0.137239264892614 
737	 0.137438404675078 
738	 0.137631795186397 
739	 0.13780261532081 
740	 0.137947176596655 
741	 0.138056076065442 
742	 0.13814023267054 
743	 0.138207357860258 
744	 0.138244779493834 
745	 0.138245995139392 
746	 0.138230692207443 
747	 0.138219973564909 
748	 0.138150941077128 
749	 0.138047557711204 
750	 0.137932313088181 
751	 0.137815787075783 
752	 0.137737460399473 
753	 0.137636299410866 
754	 0.137462735601328 
755	 0.137268156283221 
756	 0.137076586775696 
757	 0.136863832482619 
758	 0.136594394430832 
759	 0.136356686809752 
760	 0.136093663580777 
761	 0.135798886827475 
762	 0.135543924786061 
763	 0.13526449800933 
764	 0.134948578633666 
765	 0.134609537369288 
766	 0.134296699500081 
767	 0.133960871423332 
768	 0.133616419350231 
769	 0.133299340552605 
770	 0.132959102155046 
771	 0.132599465742265 
772	 0.132225983426692 
773	 0.131840263504891 
774	 0.131443501917804 
775	 0.131065657971134 
776	 0.130712610526509 
777	 0.130307762238157 
778	 0.129931148384722 
779	 0.129560300514444 
780	 0.129144339706241 
781	 0.128774779711739 
782	 0.128404711759655 
783	 0.1280199567496 
784	 0.127650462466654 
785	 0.127245772945842 
786	 0.126840397406615 
787	 0.126463903806772 
788	 0.126095267548391 
789	 0.125723119865894 
790	 0.125338661457508 
791	 0.124942422374968 
792	 0.124564805647096 
793	 0.12423166137802 
794	 0.12391068691364 
795	 0.123530867180975 
796	 0.123172828312894 
797	 0.122826600210191 
798	 0.12247773311099 
799	 0.122129143618228 
800	 0.121808697257601 
801	 0.121482256548599 
802	 0.121122908308612 
803	 0.120806085776688 
804	 0.120523288551016 
805	 0.120238438418024 
806	 0.119911726101282 
807	 0.119622730717048 
808	 0.119319722272193 
809	 0.118997688815364 
810	 0.11872729332556 
811	 0.118489629355134 
812	 0.118216308354213 
813	 0.117888063837162 
814	 0.117646411977503 
815	 0.117410433083501 
816	 0.117163759170223 
817	 0.116919209622749 
818	 0.116699697198246 
819	 0.116474155495503 
820	 0.116227726427743 
821	 0.115968206588474 
822	 0.115757540114491 
823	 0.115554485299392 
824	 0.115334021624384 
825	 0.115124515250876 
826	 0.114952294220718 
827	 0.114765068086143 
828	 0.114536796443428 
829	 0.114398342403824 
830	 0.114240719742428 
831	 0.114075438667689 
832	 0.113957509983582 
833	 0.113819212258026 
834	 0.113664935940772 
835	 0.11350222020865 
836	 0.113339946194022 
837	 0.113230813807736 
838	 0.113113276402125 
839	 0.112967559087317 
840	 0.112877238418975 
841	 0.112756563126494 
842	 0.112639124487194 
843	 0.11256172512465 
844	 0.112463627399179 
845	 0.112390080432987 
846	 0.112313648015389 
847	 0.112198235300971 
848	 0.112163398146912 
849	 0.112087797282374 
850	 0.111984793407664 
851	 0.111977316179669 
852	 0.111942358831196 
853	 0.111883087843263 
854	 0.111816513988133 
855	 0.111753420545873 
856	 0.111818154697285 
857	 0.111881618105692 
858	 0.111838367883595 
859	 0.1117998120556 
860	 0.111778900399589 
861	 0.111783598522263 
862	 0.11180810688037 
863	 0.111818470598328 
864	 0.111853536871771 
865	 0.111901029111784 
866	 0.111922507501241 
867	 0.111945999359305 
868	 0.111955747949156 
869	 0.111966412935072 
870	 0.112023455408316 
871	 0.112122320171075 
872	 0.112217712151024 
873	 0.112286820932857 
874	 0.112354287872104 
875	 0.112408701167739 
876	 0.11248595062963 
877	 0.112597480190968 
878	 0.112657487366117 
879	 0.112782824145371 
880	 0.112918487244976 
881	 0.112992827263119 
882	 0.113132662006116 
883	 0.113266309221408 
884	 0.113388074577359 
885	 0.113528525745741 
886	 0.113681182157305 
887	 0.113837982611567 
888	 0.114003362200919 
889	 0.114185710141486 
890	 0.114317210637882 
891	 0.114468414340931 
892	 0.114664161953336 
893	 0.114849669194425 
894	 0.115012412619191 
895	 0.115205018191352 
896	 0.115441861646692 
897	 0.115646532354514 
898	 0.115872352791617 
899	 0.116092216588085 
900	 0.116294344279007 
901	 0.116564172925948 
902	 0.116792352010628 
903	 0.116996797707333 
904	 0.117234352987644 
905	 0.117526941135405 
906	 0.117819895265979 
907	 0.118078303318624 
908	 0.118307167902124 
909	 0.118635305896521 
910	 0.118950066108707 
911	 0.119256796483632 
912	 0.119622695169048 
913	 0.119910912336446 
914	 0.120209514371992 
915	 0.120535184544014 
916	 0.120834303775698 
917	 0.121183048639879 
918	 0.121536929423475 
919	 0.121879984210473 
920	 0.122246388737865 
921	 0.12265763376238 
922	 0.123064206134391 
923	 0.123442474971362 
924	 0.123827154295035 
925	 0.124233364269035 
926	 0.124636829280775 
927	 0.125040866087152 
928	 0.125511918783907 
929	 0.125988133775582 
930	 0.126452120091081 
931	 0.126904860412262 
932	 0.127358863932701 
933	 0.127870978736195 
934	 0.128381306317123 
935	 0.128841511973929 
936	 0.129342222330287 
937	 0.129870008146316 
938	 0.130386050273731 
939	 0.130880142275517 
940	 0.131475006414538 
941	 0.132038837088008 
942	 0.132574346149919 
943	 0.133124956573579 
944	 0.133649158501522 
945	 0.134200524909924 
946	 0.134795015674202 
947	 0.135406318912713 
948	 0.135920033823154 
949	 0.136503415328277 
950	 0.137175255953196 
951	 0.137863340188186 
952	 0.138515950845477 
953	 0.139128997684546 
954	 0.139763822755529 
955	 0.140476721854415 
956	 0.141117311850567 
957	 0.141788829852697 
958	 0.142482239398431 
959	 0.143132846739655 
960	 0.143833793217018 
961	 0.144517204140012 
962	 0.145234026689285 
963	 0.146062322362021 
964	 0.146749110459323 
965	 0.147480466514374 
966	 0.148302473068752 
967	 0.149123585596534 
968	 0.149775946145988 
969	 0.150515682986806 
970	 0.151353835880992 
971	 0.152133136959364 
972	 0.152930917475049 
973	 0.153747650570458 
974	 0.154579741102807 
975	 0.155426724408471 
976	 0.156297872932061 
977	 0.15720169190549 
978	 0.158068089594659 
979	 0.158814804222715 
980	 0.15957465594302 
981	 0.160391259073239 
982	 0.161266432926045 
983	 0.162164178527271 
984	 0.162991541445964 
985	 0.163860690331556 
986	 0.164792945482676 
987	 0.165731840846666 
988	 0.16658695020367 
989	 0.16737331292799 
990	 0.168214133381814 
991	 0.169206332309366 
992	 0.170120860599106 
993	 0.170926767809331 
994	 0.171757980656025 
995	 0.172728663871845 
996	 0.1735482769992 
997	 0.174681808117452 
998	 0.175781999070197 
999	 0.176475939321544 
1000	 0.177500966246956 
1001	 0.177082743188709 
1002	 0.177931130629842 
1003	 0.178805508669545 
1004	 0.179639159683091 
1005	 0.180441244055353 
1006	 0.181238540103351 
1007	 0.182016638312025 
1008	 0.182798795969852 
1009	 0.183555425393917 
1010	 0.184354937653582 
1011	 0.185225736220167 
1012	 0.186013407035658 
1013	 0.186767333409601 
1014	 0.187574452869332 
1015	 0.188332098669788 
1016	 0.189096159197804 
1017	 0.189872668651964 
1018	 0.190684433282037 
1019	 0.191451289510614 
1020	 0.192188188634936 
1021	 0.192902101600457 
1022	 0.193597435675556 
1023	 0.194262206321169 
1024	 0.194906250844664 
1025	 0.195576097267083 
1026	 0.196255450840331 
1027	 0.196920470628516 
1028	 0.197646277565668 
1029	 0.198423568056278 
1030	 0.199124556275089 
1031	 0.199793168522461 
1032	 0.200454473358004 
1033	 0.201087426720899 
1034	 0.201641926317133 
1035	 0.202282389181841 
1036	 0.202989287890346 
1037	 0.203667657141455 
1038	 0.204343494817645 
1039	 0.204939946349352 
1040	 0.205487100163087 
1041	 0.206051700301214 
1042	 0.206684226653411 
1043	 0.207351596112042 
1044	 0.20795637089553 
1045	 0.208546831742707 
1046	 0.209160038648862 
1047	 0.209777450383224 
1048	 0.21035520677289 
1049	 0.210962037382881 
1050	 0.211556487286513 
1051	 0.212099920947743 
1052	 0.21266124302705 
1053	 0.213268649075722 
1054	 0.213876843403304 
1055	 0.214456312917662 
1056	 0.214984815125216 
1057	 0.215525861876402 
1058	 0.216062843040039 
1059	 0.216607060316826 
1060	 0.217140232297908 
1061	 0.217691280820425 
1062	 0.218261980043117 
1063	 0.218817138604599 
1064	 0.219309361776323 
1065	 0.21981905509234 
1066	 0.220386287594424 
1067	 0.22088583491493 
1068	 0.221372462634164 
1069	 0.221884167875308 
1070	 0.222372203222105 
1071	 0.222786049696954 
1072	 0.223260195739138 
1073	 0.223766464278464 
1074	 0.224264871106563 
1075	 0.224772625521589 
1076	 0.22524790720125 
1077	 0.225740910374804 
1078	 0.226264220176361 
1079	 0.226724896668132 
1080	 0.227182985146786 
1081	 0.22765158234517 
1082	 0.228072145411005 
1083	 0.228543762423197 
1084	 0.229058696187642 
1085	 0.22953988953165 
1086	 0.230040359630832 
1087	 0.230506445948645 
1088	 0.230932691603449 
1089	 0.231361870307074 
1090	 0.23182394580906 
1091	 0.232281368276785 
1092	 0.232775647852934 
1093	 0.233232556500344 
1094	 0.233667154222498 
1095	 0.234132649998739 
1096	 0.234555966033823 
1097	 0.234986262769633 
1098	 0.235439412504013 
1099	 0.235895882709025 
1100	 0.236351937580383 
1101	 0.236828519961897 
1102	 0.237310565912191 
1103	 0.23779911639605 
1104	 0.238278983827351 
1105	 0.238759557566555 
1106	 0.239233876776638 
1107	 0.239702602541638 
1108	 0.240192182986876 
1109	 0.240683313812915 
1110	 0.241160803086143 
1111	 0.24164689382847 
1112	 0.242131120348982 
1113	 0.242609320040615 
1114	 0.243073347696513 
1115	 0.243570914669203 
1116	 0.244086111068133 
1117	 0.244586517061702 
1118	 0.245087402776836 
1119	 0.245628370960728 
1120	 0.246137176797274 
1121	 0.246593638897186 
1122	 0.247102806674555 
1123	 0.247595924740789 
1124	 0.248082863332978 
1125	 0.248575495723836 
1126	 0.249056669603761 
1127	 0.249511688718748 
1128	 0.249997521822504 
1129	 0.250498508328553 
1130	 0.250980612529924 
1131	 0.251467013165435 
1132	 0.251946082211765 
1133	 0.252405652852116 
1134	 0.252881755771375 
1135	 0.25336373091987 
1136	 0.253856994634255 
1137	 0.254357094064234 
1138	 0.254818669477079 
1139	 0.255255326348445 
1140	 0.255655285593177 
1141	 0.256082245983667 
1142	 0.256494601932322 
1143	 0.256909510409639 
1144	 0.25734558117879 
1145	 0.257762098319028 
1146	 0.258163652580261 
1147	 0.258556388135804 
1148	 0.258944496880956 
1149	 0.259329972956313 
1150	 0.259701446646995 
1151	 0.26006727894846 
1152	 0.260461009443143 
1153	 0.260830469016281 
1154	 0.261197076617021 
1155	 0.261556134314655 
1156	 0.261924762467428 
1157	 0.262292244586276 
1158	 0.262653903013116 
1159	 0.263029722629914 
1160	 0.263380632133159 
1161	 0.263708399477961 
1162	 0.264043027398329 
1163	 0.264367695632508 
1164	 0.264698303213379 
1165	 0.265040651852582 
1166	 0.26537123875046 
1167	 0.265683015570589 
1168	 0.265995305574024 
1169	 0.266302821037477 
1170	 0.266588017809352 
1171	 0.266898467836356 
1172	 0.267233768544333 
1173	 0.267538745389989 
1174	 0.267851430628846 
1175	 0.268132644544267 
1176	 0.26837403237825 
1177	 0.26863427348635 
1178	 0.268884106258012 
1179	 0.269141300581517 
1180	 0.269411773245 
1181	 0.269674451943497 
1182	 0.269930554213658 
1183	 0.270192823096902 
1184	 0.270447499901521 
1185	 0.270697039330631 
1186	 0.270951590254362 
1187	 0.271210848382625 
1188	 0.271454946929288 
1189	 0.271706035146743 
1190	 0.271932035690158 
1191	 0.272133760325815 
1192	 0.272340524825637 
1193	 0.272538663576146 
1194	 0.27273224383459 
1195	 0.272922841396271 
1196	 0.273109486143803 
1197	 0.27328525019266 
1198	 0.273463502910418 
1199	 0.273641289535429 
1200	 0.273818212306293 
1201	 0.273996908250174 
1202	 0.274174731066801 
1203	 0.274355965041566 
1204	 0.274540348806801 
1205	 0.274722884977354 
1206	 0.274917379048168 
1207	 0.275088512686242 
1208	 0.275244131483893 
1209	 0.275406544406789 
1210	 0.275564345200034 
1211	 0.275713127479083 
1212	 0.275862949735853 
1213	 0.276007803211597 
1214	 0.276134235750225 
1215	 0.276266909733139 
1216	 0.27640145088277 
1217	 0.276544537843966 
1218	 0.276672766865822 
1219	 0.276790180902943 
1220	 0.276921212646178 
1221	 0.277053349300871 
1222	 0.277182887921392 
1223	 0.277332870366945 
1224	 0.277451681479947 
1225	 0.277532256167524 
1226	 0.277648429345408 
1227	 0.277781880474102 
1228	 0.27789361141336 
1229	 0.278004262114882 
1230	 0.278126160608492 
1231	 0.278233765360747 
1232	 0.278345008610261 
1233	 0.27846395190124 
1234	 0.278613561845178 
1235	 0.278728958237301 
1236	 0.278830090468449 
1237	 0.278927076560653 
1238	 0.279012629756209 
1239	 0.279103629498997 
1240	 0.279191301564054 
1241	 0.279272017179738 
1242	 0.279338368329906 
1243	 0.279429178542454 
1244	 0.279517030839184 
1245	 0.279620017450313 
1246	 0.279776935847631 
1247	 0.279888394889419 
1248	 0.279972870128539 
1249	 0.28006606456126 
1250	 0.280154135406829 
1251	 0.280217072544471 
1252	 0.280294579032725 
1253	 0.280381527408727 
1254	 0.280465967333338 
1255	 0.280541856874202 
1256	 0.280626656659894 
1257	 0.280726249109459 
1258	 0.280814190514359 
1259	 0.280892820932599 
1260	 0.280980504551717 
1261	 0.281072109636294 
1262	 0.281160753201079 
1263	 0.281259547205198 
1264	 0.281344437236831 
1265	 0.281414584036947 
1266	 0.281490165780314 
1267	 0.281559923777119 
1268	 0.281633680647932 
1269	 0.281708732115183 
1270	 0.281792540327579 
1271	 0.281865682016047 
1272	 0.281936463998302 
1273	 0.282001578934931 
1274	 0.282052046700519 
1275	 0.282122385800006 
1276	 0.282203893660831 
1277	 0.282272417956443 
1278	 0.28234212125844 
1279	 0.28241719051014 
1280	 0.28249365640664 
1281	 0.282553205731936 
1282	 0.282621577150857 
1283	 0.282673490230648 
1284	 0.282689306255348 
1285	 0.282715015048912 
1286	 0.282768420536999 
1287	 0.282831834048515 
1288	 0.282891899417733 
1289	 0.282970869432808 
1290	 0.283033845267184 
1291	 0.283085263876973 
1292	 0.283139716039805 
1293	 0.283205479660723 
1294	 0.283243857167635 
1295	 0.283272790225101 
1296	 0.28329173590991 
1297	 0.283276950807231 
1298	 0.28328461141047 
1299	 0.283306138385226 
1300	 0.283306399714831 
1301	 0.283317106329915 
1302	 0.283307925198612 
1303	 0.283268975588132 
1304	 0.28322523555208 
1305	 0.283206737012905 
1306	 0.283188829461402 
1307	 0.283213910525667 
1308	 0.283236290939815 
1309	 0.283217440146539 
1310	 0.283181373546023 
1311	 0.283142122718747 
1312	 0.283062213762995 
1313	 0.283014473717222 
1314	 0.282987276225054 
1315	 0.282944770310336 
1316	 0.282890286816732 
1317	 0.282849442428211 
1318	 0.282806586761362 
1319	 0.282780460818146 
1320	 0.28278147276848 
1321	 0.282765116700208 
1322	 0.28275336630689 
1323	 0.282725381497714 
1324	 0.282695904396182 
1325	 0.282685629448582 
1326	 0.282684923378336 
1327	 0.282690742716517 
1328	 0.282703990583439 
1329	 0.282711150872663 
1330	 0.282711250242265 
1331	 0.282705407696417 
1332	 0.282707691611983 
1333	 0.282699773849471 
1334	 0.282708322509096 
1335	 0.282727257506052 
1336	 0.282757906011424 
1337	 0.282794251511042 
1338	 0.282838665778168 
1339	 0.282908393811189 
1340	 0.282958780649566 
1341	 0.283004267248483 
1342	 0.283051448795893 
1343	 0.283086788536482 
1344	 0.283135764375256 
1345	 0.283195985829557 
1346	 0.283231191753049 
1347	 0.283258476639529 
1348	 0.283277314909378 
1349	 0.283264702616644 
1350	 0.283256852903956 
1351	 0.283252261465712 
1352	 0.283240163781876 
1353	 0.283234464543421 
1354	 0.283246228096931 
1355	 0.28323230631804 
1356	 0.283202118446844 
1357	 0.283186682920953 
1358	 0.283147095486531 
1359	 0.283145996016788 
1360	 0.28317138487993 
1361	 0.283198697269594 
1362	 0.283243598331859 
1363	 0.283292246877965 
1364	 0.283337009463637 
1365	 0.283405242504376 
1366	 0.283490986563651 
1367	 0.283584745874258 
1368	 0.283704661334935 
1369	 0.283811940654923 
1370	 0.283891328885772 
1371	 0.283959794569381 
1372	 0.28398888848256 
1373	 0.284005629061198 
1374	 0.283999278357238 
1375	 0.283982336883121 
1376	 0.283920605898234 
1377	 0.283832936249009 
1378	 0.283710014246652 
1379	 0.283528485469148 
1380	 0.283373078191985 
1381	 0.283177858593945 
1382	 0.283026866512127 
1383	 0.282926293543193 
1384	 0.282779496282839 
1385	 0.282644450543621 
1386	 0.282474613145091 
1387	 0.282269021080865 
1388	 0.282053936829371 
1389	 0.281841005937992 
1390	 0.281592431474562 
1391	 0.281277269379266 
1392	 0.280918902974355 
1393	 0.280492663514727 
1394	 0.280038908950395 
1395	 0.279594973833652 
1396	 0.279135722985204 
1397	 0.278680389879844 
1398	 0.278228807288046 
1399	 0.277756084161709 
1400	 0.277277840001173 
1401	 0.276783050610482 
1402	 0.276254799064325 
1403	 0.275757211197571 
1404	 0.275259193003953 
1405	 0.27477217066667 
1406	 0.274306391316179 
1407	 0.273828600134191 
1408	 0.273333833183165 
1409	 0.272870880554772 
1410	 0.272391719783118 
1411	 0.271976977872444 
1412	 0.271606499527761 
1413	 0.271253666723346 
1414	 0.270960347064138 
1415	 0.270686843385599 
1416	 0.270395685785821 
1417	 0.270144321151064 
1418	 0.269888315957066 
1419	 0.269624770366127 
1420	 0.269407943541176 
1421	 0.269195540679069 
1422	 0.26899930122609 
1423	 0.268810532232645 
1424	 0.268598125177733 
1425	 0.268364682940461 
1426	 0.268164978751528 
1427	 0.267945516932027 
1428	 0.26778210711602 
1429	 0.267675233299771 
1430	 0.267541121649506 
1431	 0.26741984697613 
1432	 0.26729999447769 
1433	 0.2671672133399 
1434	 0.267058617315838 
1435	 0.266963772015607 
1436	 0.266878015585062 
1437	 0.266819831714308 
1438	 0.266743186785379 
1439	 0.266662882891609 
1440	 0.266592984462493 
1441	 0.266505302695855 
1442	 0.266413855825923 
1443	 0.266356863357345 
1444	 0.266309254027093 
1445	 0.266256998673969 
1446	 0.266229403865297 
1447	 0.266196643052988 
1448	 0.266144517845945 
1449	 0.266108856302919 
1450	 0.266075961696887 
1451	 0.266059616959133 
1452	 0.266043700705447 
1453	 0.266063056224905 
1454	 0.266119251733416 
1455	 0.266152765499512 
1456	 0.266197679023194 
1457	 0.266233870281902 
1458	 0.266252659486635 
1459	 0.26629479063646 
1460	 0.266334905866532 
1461	 0.266405437736765 
1462	 0.26650670794811 
1463	 0.266594820691262 
1464	 0.266711746940312 
1465	 0.266805549713876 
1466	 0.266873629223822 
1467	 0.266953285101384 
1468	 0.267017442757918 
1469	 0.267109087069107 
1470	 0.2672171936446 
1471	 0.267336215727832 
1472	 0.267470596469911 
1473	 0.267585135611344 
1474	 0.267665084945307 
1475	 0.267759875849878 
1476	 0.267861849473202 
1477	 0.267977771319844 
1478	 0.268150208046833 
1479	 0.268323622706794 
1480	 0.268481624650111 
1481	 0.268647813371511 
1482	 0.268796466633872 
1483	 0.268914587728737 
1484	 0.269071195971588 
1485	 0.269240487782554 
1486	 0.269403549832238 
1487	 0.269584437143151 
1488	 0.269748803004235 
1489	 0.269903900555902 
1490	 0.27005936722559 
1491	 0.270216027266128 
1492	 0.2703651617264 
1493	 0.270501663659843 
1494	 0.270647629332944 
1495	 0.270792794677528 
1496	 0.270937644346051 
1497	 0.271096626031497 
1498	 0.271236123963951 
1499	 0.271363534299244 
1500	 0.271493216567598 
1501	 0.271612091737148 
1502	 0.271730024407774 
1503	 0.271839644667882 
1504	 0.271965796648651 
1505	 0.272096299923378 
1506	 0.272226240654744 
1507	 0.272362828749062 
1508	 0.272492894089483 
1509	 0.272595269239315 
1510	 0.272693112533079 
1511	 0.272809425375744 
1512	 0.272923332671568 
1513	 0.273055845385873 
1514	 0.273201671167289 
1515	 0.27331170671361 
1516	 0.273413646898619 
1517	 0.273518080635438 
1518	 0.273606806455063 
1519	 0.273703747212801 
1520	 0.273804199584646 
1521	 0.273912770637818 
1522	 0.274019639208001 
1523	 0.274131492204959 
1524	 0.274265643577512 
1525	 0.274375330034254 
1526	 0.274470203816374 
1527	 0.274567160928572 
1528	 0.274654950826077 
1529	 0.274748161937598 
1530	 0.274847593806828 
1531	 0.274938561664581 
1532	 0.275025566322968 
1533	 0.275107629543605 
1534	 0.275183440988179 
1535	 0.27525915051313 
1536	 0.275324554845437 
1537	 0.275406602354651 
1538	 0.27549377391705 
1539	 0.275579561321049 
1540	 0.275682579780638 
1541	 0.275772427922027 
1542	 0.275840633258046 
1543	 0.275931527456445 
1544	 0.276031339479326 
1545	 0.276133066653408 
1546	 0.276251584240452 
1547	 0.2763688203521 
1548	 0.276467525810212 
1549	 0.276556059272373 
1550	 0.276633059741315 
1551	 0.27670395530765 
1552	 0.276775286691451 
1553	 0.276835165059288 
1554	 0.27689813179388 
1555	 0.276967830835035 
1556	 0.277018404113455 
1557	 0.277085809834633 
1558	 0.277166714395291 
1559	 0.277223770833586 
1560	 0.277288205498849 
1561	 0.277369022181003 
1562	 0.277417030473959 
1563	 0.277437610190273 
1564	 0.277486153539702 
1565	 0.277531915030247 
1566	 0.277587968460948 
1567	 0.277669471241889 
1568	 0.277719577565242 
1569	 0.277754000019688 
1570	 0.277796036543183 
1571	 0.277824740745415 
1572	 0.277869635080068 
1573	 0.27792370221615 
1574	 0.277976847056366 
1575	 0.278036743130937 
1576	 0.278089720847282 
1577	 0.278151071389399 
1578	 0.27819637194764 
1579	 0.278220563258089 
1580	 0.278266315859499 
1581	 0.278319991883158 
1582	 0.278359625923575 
1583	 0.27840262481444 
1584	 0.278444583820116 
1585	 0.278470229119328 
1586	 0.278504745746817 
1587	 0.278551230865164 
1588	 0.278596333486009 
1589	 0.278649661360679 
1590	 0.278682110300602 
1591	 0.278700163063335 
1592	 0.278728592990934 
1593	 0.278750415361437 
1594	 0.278767482431012 
1595	 0.278796548418137 
1596	 0.278812969322762 
1597	 0.278806774829906 
1598	 0.278809065965051 
1599	 0.278817270156695 
1600	 0.278821688624363 
1601	 0.278810912294477 
1602	 0.278822482732658 
1603	 0.278846507309573 
1604	 0.278868596954231 
1605	 0.278903251748223 
1606	 0.278940359680132 
1607	 0.278974012290528 
1608	 0.279017114289229 
1609	 0.279059103485789 
1610	 0.27910190171809 
1611	 0.27914352237426 
1612	 0.279174786312263 
1613	 0.279206163276452 
1614	 0.279224534964011 
1615	 0.279228326514511 
1616	 0.279240807388218 
1617	 0.279246102813252 
1618	 0.279267453593416 
1619	 0.27930113853551 
1620	 0.279311873043233 
1621	 0.27932337234462 
1622	 0.279329449806439 
1623	 0.279351016636825 
1624	 0.279370648939413 
1625	 0.279392427901439 
1626	 0.279427971566226 
1627	 0.279459173721913 
1628	 0.279490416421153 
1629	 0.279503183267199 
1630	 0.279518248934345 
1631	 0.27951764364868 
1632	 0.279483412557629 
1633	 0.279481788080848 
1634	 0.279493903916209 
1635	 0.279497660663173 
1636	 0.279512589572295 
1637	 0.279507276607802 
1638	 0.279481968754557 
1639	 0.279481593960536 
1640	 0.279485202959249 
1641	 0.279484323494158 
1642	 0.279499226153756 
1643	 0.279498207280965 
1644	 0.27947807514071 
1645	 0.279474312891575 
1646	 0.279466464864647 
1647	 0.279484783906008 
1648	 0.279522853690043 
1649	 0.279551541929864 
1650	 0.279606759492672 
1651	 0.27962443082518 
1652	 0.279613322104556 
1653	 0.279620190186935 
1654	 0.27961705146728 
1655	 0.279624897459689 
1656	 0.279651704580704 
1657	 0.279656646054039 
1658	 0.279652272269052 
1659	 0.279648375454148 
1660	 0.279640294686253 
1661	 0.27962245826958 
1662	 0.279590719191738 
1663	 0.279578165415828 
1664	 0.279564778307321 
1665	 0.279554069198136 
1666	 0.279568187397524 
1667	 0.279555118806616 
1668	 0.27951948220514 
1669	 0.279497812412014 
1670	 0.279467856526289 
1671	 0.279453833809199 
1672	 0.279448402704427 
1673	 0.279450703361912 
1674	 0.279467190051564 
1675	 0.279477551967194 
1676	 0.279503944086728 
1677	 0.279503451473882 
1678	 0.279495184414713 
1679	 0.279469025255161 
1680	 0.279391281124216 
1681	 0.279380032857954 
1682	 0.279400324640499 
1683	 0.279399230750975 
1684	 0.279433600124765 
1685	 0.279437282805723 
1686	 0.27940522827737 
1687	 0.279383747517048 
1688	 0.279368147584081 
1689	 0.279348990551389 
1690	 0.279314469285065 
1691	 0.279290992800508 
1692	 0.279278925206405 
1693	 0.279258840130654 
1694	 0.279240855005068 
1695	 0.279213027613548 
1696	 0.279163044955876 
1697	 0.279148842237663 
1698	 0.279147582210807 
1699	 0.279143714013981 
1700	 0.279162124376148 
1701	 0.279176179522893 
1702	 0.279179863704937 
1703	 0.279193149405379 
1704	 0.279235407935303 
1705	 0.279236582857093 
1706	 0.279219536190599 
1707	 0.279196033018294 
1708	 0.279139794902367 
1709	 0.279113663208712 
1710	 0.279103827632677 
1711	 0.279071983121347 
1712	 0.279037968320294 
1713	 0.279005670774806 
1714	 0.278952108831327 
1715	 0.278925177892758 
1716	 0.278913365006481 
1717	 0.278910552506036 
1718	 0.278939343432858 
1719	 0.278911963334181 
1720	 0.278870377911074 
1721	 0.278828439006999 
1722	 0.278747276488807 
1723	 0.278688392573639 
1724	 0.278654332839174 
1725	 0.27858890295481 
1726	 0.278494875466933 
1727	 0.278427701246604 
1728	 0.278351733603175 
1729	 0.278310233003655 
1730	 0.278309022241599 
1731	 0.27826858861299 
1732	 0.278230406687427 
1733	 0.278182806334103 
1734	 0.278108798587705 
1735	 0.278055459627717 
1736	 0.278023940458193 
1737	 0.277954335834158 
1738	 0.277861823815103 
1739	 0.277783465474452 
1740	 0.277685736717638 
1741	 0.277628383993863 
1742	 0.277594386303182 
1743	 0.277558085246354 
1744	 0.27754130610879 
1745	 0.277492926416302 
1746	 0.277445090700752 
1747	 0.277375896299479 
1748	 0.277303647696867 
1749	 0.277227156227835 
1750	 0.277127498109948 
1751	 0.277058739944383 
1752	 0.276993083354533 
1753	 0.276922377682195 
1754	 0.276899704789878 
1755	 0.276861232368303 
1756	 0.276798552772791 
1757	 0.27675141478848 
1758	 0.276684243048225 
1759	 0.276609854055144 
1760	 0.276557650530966 
1761	 0.276504871539459 
1762	 0.276443005294552 
1763	 0.276382061164682 
1764	 0.27631325589583 
1765	 0.276263625400899 
1766	 0.276231920374706 
1767	 0.276181042445313 
1768	 0.276132599269645 
1769	 0.276091581804561 
1770	 0.276049875003637 
1771	 0.276034635390844 
1772	 0.27600623898697 
1773	 0.275953527523856 
1774	 0.275901469922249 
1775	 0.275822802726351 
1776	 0.275759920073778 
1777	 0.275716148458032 
1778	 0.275656591782228 
1779	 0.275647956995138 
1780	 0.275643308885437 
1781	 0.275583388511727 
1782	 0.275575316715747 
1783	 0.275575313945564 
1784	 0.275572527532508 
1785	 0.275638494605214 
1786	 0.275637162216561 
1787	 0.275565603272324 
1788	 0.275539871811818 
1789	 0.275511164279321 
1790	 0.275497259054344 
1791	 0.275524448128234 
1792	 0.275515102611894 
1793	 0.275476903731585 
1794	 0.275458518764319 
1795	 0.275442041387459 
1796	 0.2754199982024 
1797	 0.275408497230957 
1798	 0.275399543889079 
1799	 0.275366032317859 
1800	 0.27536992243128 
1801	 0.274287431784095 
1802	 0.274467711026364 
1803	 0.274635608226748 
1804	 0.274858188966848 
1805	 0.275058972105269 
1806	 0.275227430736904 
1807	 0.27540467740131 
1808	 0.275528235341978 
1809	 0.275613351811323 
1810	 0.275685204557557 
1811	 0.275727581159329 
1812	 0.275739295677854 
1813	 0.275760373508866 
1814	 0.27577927976732 
1815	 0.275792693490892 
1816	 0.275844811943049 
1817	 0.275861274893518 
1818	 0.275852529237872 
1819	 0.275870024506866 
1820	 0.275901077259701 
1821	 0.275878261218264 
1822	 0.275915974542905 
1823	 0.275963147505534 
1824	 0.275949316205092 
1825	 0.275971047214065 
1826	 0.275997005020026 
1827	 0.275990724712039 
1828	 0.27595835369115 
1829	 0.275915673450194 
1830	 0.275852943809338 
1831	 0.275746523327408 
1832	 0.275643277844464 
1833	 0.275556249860133 
1834	 0.275487095411538 
1835	 0.275446319196063 
1836	 0.275427468698827 
1837	 0.275423995672452 
1838	 0.275431805952015 
1839	 0.275417794939581 
1840	 0.27539307360336 
1841	 0.275354721374716 
1842	 0.275333827032797 
1843	 0.275315997688099 
1844	 0.275318645146183 
1845	 0.275330661761975 
1846	 0.275332700661443 
1847	 0.275339138397931 
1848	 0.275327270946829 
1849	 0.275319262406874 
1850	 0.275313267936077 
1851	 0.275318420198646 
1852	 0.27528236676006 
1853	 0.275249528352081 
1854	 0.275190653607547 
1855	 0.275081009486008 
1856	 0.274992912478192 
1857	 0.27489510602959 
1858	 0.274772144483466 
1859	 0.274646956316384 
1860	 0.274482529108725 
1861	 0.274286631177181 
1862	 0.27405627892784 
1863	 0.273810665933122 
1864	 0.273513357262975 
1865	 0.273171603248375 
1866	 0.272783538178274 
1867	 0.272354029953678 
1868	 0.271904410273452 
1869	 0.271476196310857 
1870	 0.271057978232172 
1871	 0.270629212413321 
1872	 0.270205609434396 
1873	 0.26979625224346 
1874	 0.269348616728201 
1875	 0.268907869809197 
1876	 0.268454750507426 
1877	 0.267940102663573 
1878	 0.267375435327744 
1879	 0.266733471086979 
1880	 0.265987791703182 
1881	 0.265127670689172 
1882	 0.264233163860176 
1883	 0.263275083141253 
1884	 0.262207400800509 
1885	 0.261109347134492 
1886	 0.259958791253534 
1887	 0.258688789379308 
1888	 0.257372311757234 
1889	 0.255980560563603 
1890	 0.254524314756411 
1891	 0.253038529037975 
1892	 0.251488728918324 
1893	 0.249905106455401 
1894	 0.248273575572916 
1895	 0.246633826937401 
1896	 0.244934876067737 
1897	 0.243248570608409 
1898	 0.241541759511122 
1899	 0.23983160938495 
1900	 0.238178459686545 
1901	 0.236561635427486 
1902	 0.235028538242236 
1903	 0.233584739380575 
1904	 0.232187741010416 
1905	 0.23084614984229 
1906	 0.229585867241532 
1907	 0.228362260920747 
1908	 0.227178913644075 
1909	 0.226061733524128 
1910	 0.224970100350223 
1911	 0.223936323178479 
1912	 0.222964249725617 
1913	 0.222031382941792 
1914	 0.221124764201553 
1915	 0.220294342185959 
1916	 0.219517358753595 
1917	 0.21879759216541 
1918	 0.218163071872077 
1919	 0.217588862905926 
1920	 0.217088512763794 
1921	 0.216624584095045 
1922	 0.216175549051175 
1923	 0.215810720547786 
1924	 0.215489913045298 
1925	 0.215226486535623 
1926	 0.21499900788571 
1927	 0.214851120162 
1928	 0.214678652874651 
1929	 0.214536193592199 
1930	 0.214422144500255 
1931	 0.214306772929238 
1932	 0.214226625749251 
1933	 0.214177496704314 
1934	 0.214159609012608 
1935	 0.214170384565992 
1936	 0.214230183719231 
1937	 0.214292608636763 
1938	 0.2143686654712 
1939	 0.214465562755079 
1940	 0.214575261073905 
1941	 0.214709987063847 
1942	 0.214870137939144 
1943	 0.215070833619599 
1944	 0.215314379873546 
1945	 0.215568667252129 
1946	 0.215829434567578 
1947	 0.216127174971668 
1948	 0.216402545322992 
1949	 0.216659250280096 
1950	 0.216943632920318 
1951	 0.217237605241761 
1952	 0.217534028179143 
1953	 0.217844520310235 
1954	 0.218181667257947 
1955	 0.218529981020778 
1956	 0.218874083852944 
1957	 0.219240891215768 
1958	 0.219632564963023 
1959	 0.220023110725212 
1960	 0.220434513643647 
1961	 0.220835039256215 
1962	 0.221234098870644 
1963	 0.221636688980039 
1964	 0.222051978179363 
1965	 0.222438721166036 
1966	 0.22281090999163 
1967	 0.223209638680109 
1968	 0.223608773024148 
1969	 0.223995180234084 
1970	 0.224400445326507 
1971	 0.224832556590619 
1972	 0.225253045487363 
1973	 0.225663169978793 
1974	 0.226088433768348 
1975	 0.226537323556598 
1976	 0.226966496922262 
1977	 0.227377659938944 
1978	 0.227792134126062 
1979	 0.228203602248785 
1980	 0.228612560522729 
1981	 0.229027828095998 
1982	 0.229450962967893 
1983	 0.229884698109189 
1984	 0.23031958227968 
1985	 0.230759197304374 
1986	 0.231240173996318 
1987	 0.231676456683878 
1988	 0.232082827715131 
1989	 0.232497058116992 
1990	 0.232908711673242 
1991	 0.23329224148571 
1992	 0.233702444173399 
1993	 0.234134088253057 
1994	 0.234552426121996 
1995	 0.234964546144019 
1996	 0.235386333851795 
1997	 0.235810421502547 
1998	 0.236236335569908 
1999	 0.236681697008238 
2000	 0.237107252291733 
2001	 0.23753219983163 
2002	 0.237931783270183 
2003	 0.238340794783116 
2004	 0.238745646724437 
2005	 0.239151291496371 
2006	 0.239561579246539 
2007	 0.239972714654439 
2008	 0.240379323247328 
2009	 0.240787409450676 
2010	 0.241209353041786 
2011	 0.241617089661078 
2012	 0.24201134277724 
2013	 0.242410178702317 
2014	 0.242811434526469 
2015	 0.243200694303721 
2016	 0.243592712217692 
2017	 0.243981683895706 
2018	 0.244363604960887 
2019	 0.244739846067126 
2020	 0.245105605879018 
2021	 0.245459918484074 
2022	 0.245818363513469 
2023	 0.246164405714176 
2024	 0.246522509485632 
2025	 0.246885225450935 
2026	 0.247254337092623 
2027	 0.247636049172386 
2028	 0.24800978514437 
2029	 0.248375763321704 
2030	 0.248750709866194 
2031	 0.249091482328454 
2032	 0.249403566892852 
2033	 0.249726977085087 
2034	 0.250028660501935 
2035	 0.250354188547641 
2036	 0.250712235649113 
2037	 0.251032375808454 
2038	 0.251340514443631 
2039	 0.251645020263925 
2040	 0.251924880504946 
2041	 0.252203887816897 
2042	 0.252496463465514 
2043	 0.252784984155922 
2044	 0.25306977838084 
2045	 0.253345361122636 
2046	 0.253628367698914 
2047	 0.253910865666493 
2048	 0.254200154740114 
2049	 0.25449850707227 
2050	 0.254788865992099 
2051	 0.255092532635753 
2052	 0.255371358461718 
2053	 0.255614001850288 
2054	 0.255886109655017 
2055	 0.256175029282382 
2056	 0.25644963592787 
2057	 0.256701930914763 
2058	 0.256964082426472 
2059	 0.257201364390443 
2060	 0.257383568224813 
2061	 0.25760804064091 
2062	 0.257852674870415 
2063	 0.258086496960087 
2064	 0.258342220364053 
2065	 0.258561308366005 
2066	 0.258744131927296 
2067	 0.258949740364016 
2068	 0.2591342068175 
2069	 0.259337483099667 
2070	 0.259558516102734 
2071	 0.259812898349839 
2072	 0.260045048150139 
2073	 0.260287037395318 
2074	 0.260501699306882 
2075	 0.26069762567208 
2076	 0.260905316797373 
2077	 0.261093772525548 
2078	 0.261303534473019 
2079	 0.261536137647488 
2080	 0.261755781835975 
2081	 0.261979071431771 
2082	 0.262195729908106 
2083	 0.262409776309873 
2084	 0.262608760466319 
2085	 0.262824273075824 
2086	 0.263050254853484 
2087	 0.26325315822959 
2088	 0.263449773429516 
2089	 0.263651256457941 
2090	 0.263835682733023 
2091	 0.264032158872394 
2092	 0.264246380151899 
2093	 0.2644490608883 
2094	 0.264639619420092 
2095	 0.264838477341716 
2096	 0.265045574714604 
2097	 0.265244619379265 
2098	 0.265447243833154 
2099	 0.265643375877597 
2100	 0.265825803949732 
2101	 0.26599127852694 
2102	 0.266171593649356 
2103	 0.266347645481032 
2104	 0.266526554220509 
2105	 0.266700925783679 
2106	 0.26689936548016 
2107	 0.267097591262095 
2108	 0.267317324799248 
2109	 0.267583782710452 
2110	 0.267821854425361 
2111	 0.26805606166812 
2112	 0.268288954442868 
2113	 0.26851938724816 
2114	 0.268732446610074 
2115	 0.268959074351713 
2116	 0.269197983422078 
2117	 0.26941305143623 
2118	 0.269621471286759 
2119	 0.269826109905353 
2120	 0.270008179200406 
2121	 0.270209029367858 
2122	 0.27041458707826 
2123	 0.270620950530782 
2124	 0.270860552472806 
2125	 0.271050612932581 
2126	 0.271212891935454 
2127	 0.271378901677067 
2128	 0.271526795787082 
2129	 0.271654852645943 
2130	 0.271768949160842 
2131	 0.271887817124553 
2132	 0.271998337049757 
2133	 0.272079070304669 
2134	 0.272180657109078 
2135	 0.272307136746944 
2136	 0.272399094829274 
2137	 0.272485407290583 
2138	 0.272545363380222 
2139	 0.272585711377178 
2140	 0.272612412660946 
2141	 0.272607785795457 
2142	 0.272607401660664 
2143	 0.272598451924908 
2144	 0.27258246669065 
2145	 0.272562398346682 
2146	 0.272532824642984 
2147	 0.272484808480187 
2148	 0.272452146071282 
2149	 0.272391814778287 
2150	 0.272314164609621 
2151	 0.272244576829753 
2152	 0.272171988532893 
2153	 0.27207988552621 
2154	 0.271988960033871 
2155	 0.271878905592567 
2156	 0.271737240908338 
2157	 0.271604148165768 
2158	 0.271478646720108 
2159	 0.271328553392869 
2160	 0.271163779796691 
2161	 0.270991956940297 
2162	 0.27079539984372 
2163	 0.270606263283948 
2164	 0.270418169367275 
2165	 0.270223498793491 
2166	 0.27002781242883 
2167	 0.269830562774229 
2168	 0.269627105973808 
2169	 0.269414601279249 
2170	 0.269212614349473 
2171	 0.269011918284894 
2172	 0.268811292288637 
2173	 0.268616830425078 
2174	 0.268416879556211 
2175	 0.268200568264734 
2176	 0.268010312047226 
2177	 0.267830245340293 
2178	 0.267656561975444 
2179	 0.267534520684316 
2180	 0.267355268943207 
2181	 0.267139523387005 
2182	 0.266931690683631 
2183	 0.266702480978969 
2184	 0.266456002997392 
2185	 0.266223329669958 
2186	 0.266001914477456 
2187	 0.265778118362673 
2188	 0.26554637041401 
2189	 0.265325980012168 
2190	 0.265113487060855 
2191	 0.264906666563843 
2192	 0.264683528356142 
2193	 0.264504989599369 
2194	 0.264352178942635 
2195	 0.264212568342355 
2196	 0.264099610159718 
2197	 0.264001693827389 
2198	 0.263932514816948 
2199	 0.263854620265511 
2200	 0.263780648299015 
2201	 0.263726977025987 
2202	 0.26367877217928 
2203	 0.263631425084899 
2204	 0.263610722478593 
2205	 0.263623087746781 
2206	 0.263628116837965 
2207	 0.263645514900769 
2208	 0.26365140305139 
2209	 0.263659192062322 
2210	 0.263670091599372 
2211	 0.263664901630994 
2212	 0.263688995437377 
2213	 0.263738107334696 
2214	 0.263777885977988 
2215	 0.263834347853008 
2216	 0.263879045987629 
2217	 0.263908941679085 
2218	 0.263948995731659 
2219	 0.263995020912298 
2220	 0.264033668173119 
2221	 0.264063349046475 
2222	 0.264115369722762 
2223	 0.264167658345616 
2224	 0.26418752663512 
2225	 0.264209161002315 
2226	 0.264230540407334 
2227	 0.264237075115194 
2228	 0.264220070389178 
2229	 0.26422407276699 
2230	 0.26422762507615 
2231	 0.26423910041751 
2232	 0.264253748260228 
2233	 0.264282405266071 
2234	 0.264349101291531 
2235	 0.264353714894693 
2236	 0.264351062628614 
2237	 0.26432281417402 
2238	 0.264219427219531 
2239	 0.264162233571146 
2240	 0.264094969204547 
2241	 0.264069533813094 
2242	 0.264095322017196 
2243	 0.264096042570268 
2244	 0.26414949084544 
2245	 0.264139609254709 
2246	 0.264075052630785 
2247	 0.26399711159392 
2248	 0.263898373481546 
2249	 0.263745155096417 
2250	 0.263650234071983 
2251	 0.263553600280926 
2252	 0.263486008284221 
2253	 0.263445023161599 
2254	 0.263404918420715 
2255	 0.263392452002709 
2256	 0.263363424090723 
2257	 0.263330672307308 
2258	 0.263309890599198 
2259	 0.263304310648686 
2260	 0.263266344159229 
2261	 0.263203652897695 
2262	 0.263177231101378 
2263	 0.263127389462456 
2264	 0.263117407794673 
2265	 0.263173178777702 
2266	 0.263203015970608 
2267	 0.263231870753725 
2268	 0.263264264623937 
2269	 0.263297701363383 
2270	 0.263332109246675 
2271	 0.263360696935617 
2272	 0.263382381916683 
2273	 0.263354129410327 
2274	 0.263328453298403 
2275	 0.263350736100501 
2276	 0.263396836444967 
2277	 0.263402867054463 
2278	 0.263441343594998 
2279	 0.263440512427416 
2280	 0.263362291194299 
2281	 0.263364949930083 
2282	 0.263438742501509 
2283	 0.263437106994986 
2284	 0.263412126890816 
2285	 0.26339960686582 
2286	 0.26332715772518 
2287	 0.263310792284399 
2288	 0.263359203142424 
2289	 0.263378397356068 
2290	 0.263419981487203 
2291	 0.263423493631027 
2292	 0.263384346932402 
2293	 0.263361551968022 
2294	 0.263299123317559 
2295	 0.263281868047486 
2296	 0.26330008707849 
2297	 0.263344095390727 
2298	 0.263332418007397 
2299	 0.263317061113448 
2300	 0.263264322851336 
2301	 0.263193123888765 
2302	 0.263181866501188 
2303	 0.263164318481522 
2304	 0.26313654123339 
2305	 0.263122540648765 
2306	 0.263083568947615 
2307	 0.26303453826438 
2308	 0.262972815407144 
2309	 0.262886708434434 
2310	 0.262805465072483 
2311	 0.262718184384295 
2312	 0.262620921075365 
2313	 0.262518318615123 
2314	 0.262419337515065 
2315	 0.262298702766714 
2316	 0.262191359514978 
2317	 0.262098359315813 
2318	 0.262011470534983 
2319	 0.261934031570307 
2320	 0.261856328326224 
2321	 0.261785408830059 
2322	 0.261698088814416 
2323	 0.261575101918041 
2324	 0.261499369834424 
2325	 0.261444473044732 
2326	 0.261412048114304 
2327	 0.261425825887391 
2328	 0.261443154336183 
2329	 0.261428600684351 
2330	 0.261299602624441 
2331	 0.261131975343206 
2332	 0.260983694866841 
2333	 0.260863449363772 
2334	 0.260778395694361 
2335	 0.260692462972882 
2336	 0.260587390953817 
2337	 0.260477844837316 
2338	 0.260355939531367 
2339	 0.260261915078773 
2340	 0.260190022303383 
2341	 0.260087695828468 
2342	 0.260014555278518 
2343	 0.259912060320633 
2344	 0.25976016171413 
2345	 0.25961504812606 
2346	 0.259447072439448 
2347	 0.259284512198639 
2348	 0.259094231483418 
2349	 0.258953128211051 
2350	 0.25885663728059 
2351	 0.25870868450479 
2352	 0.258567792531875 
2353	 0.258425284801256 
2354	 0.258247123462911 
2355	 0.258058649453503 
2356	 0.257923058189603 
2357	 0.257677333182681 
2358	 0.257319162918568 
2359	 0.25703242605507 
2360	 0.256676658908587 
2361	 0.256420156439648 
2362	 0.256271945777875 
2363	 0.256084191555477 
2364	 0.255932368166816 
2365	 0.255739310786873 
2366	 0.255549445660877 
2367	 0.25529596884219 
2368	 0.254983443451814 
2369	 0.254690723349482 
2370	 0.254359598402385 
2371	 0.254026345350661 
2372	 0.253764624133454 
2373	 0.253496850085875 
2374	 0.25322713098554 
2375	 0.253016622272185 
2376	 0.252786051574286 
2377	 0.252507778097806 
2378	 0.252277036767061 
2379	 0.252026323928213 
2380	 0.251727720724027 
2381	 0.251504411405542 
2382	 0.251262089666206 
2383	 0.250968242673901 
2384	 0.250663005076607 
2385	 0.250333043107967 
2386	 0.250032679774928 
2387	 0.249729552540965 
2388	 0.249490176675229 
2389	 0.249276843928388 
2390	 0.24898975478565 
2391	 0.248657298109347 
2392	 0.248329658687965 
2393	 0.248047608584129 
2394	 0.247773390809772 
2395	 0.247511208263611 
2396	 0.247212659344521 
2397	 0.246844959492286 
2398	 0.246505392233351 
2399	 0.246252339670958 
2400	 0.24604895074893 
2401	 0.245830014753457 
2402	 0.245584823784271 
2403	 0.2452898238326 
2404	 0.244860069831747 
2405	 0.244479959599275 
2406	 0.244159107489163 
2407	 0.243732884799367 
2408	 0.243402494831824 
2409	 0.243084500043004 
2410	 0.242810939919469 
2411	 0.242617990617081 
2412	 0.242351667067452 
2413	 0.242104334950237 
2414	 0.241776126048634 
2415	 0.241352035451084 
2416	 0.241026385776193 
2417	 0.240777340965593 
2418	 0.240506030278291 
2419	 0.240265209218383 
2420	 0.240014451135638 
2421	 0.239784096831244 
2422	 0.239487525866087 
2423	 0.239146530151847 
2424	 0.238798728225878 
2425	 0.238414847967088 
2426	 0.237989012703388 
2427	 0.237526413931946 
2428	 0.237155058457384 
2429	 0.236771426413177 
2430	 0.236425763824318 
2431	 0.23615301451657 
2432	 0.235847663678679 
2433	 0.235533033535068 
2434	 0.235234733718447 
2435	 0.234982813032622 
2436	 0.234666162113839 
2437	 0.234329895015404 
2438	 0.234005054336985 
2439	 0.233602934354426 
2440	 0.233299721206793 
2441	 0.233098039993195 
2442	 0.232765735270168 
2443	 0.232398569524348 
2444	 0.232068249465468 
2445	 0.231663616343466 
2446	 0.231312796609304 
2447	 0.231035166395536 
2448	 0.23079325737987 
2449	 0.230599074881661 
2450	 0.230299374610999 
2451	 0.229990919450838 
2452	 0.229700689218435 
2453	 0.229350411528535 
2454	 0.229002617798623 
2455	 0.22865900392884 
2456	 0.228344736413745 
2457	 0.228020536833202 
2458	 0.22757660729055 
2459	 0.227168852981367 
2460	 0.226783295933529 
2461	 0.226241652466232 
2462	 0.225875040372339 
2463	 0.225682947065589 
2464	 0.225440511649811 
2465	 0.225164553085226 
2466	 0.224828627808991 
2467	 0.224545747371869 
2468	 0.224126496394733 
2469	 0.223596565385041 
2470	 0.223261956883631 
2471	 0.222847586762547 
2472	 0.222646610682211 
2473	 0.222354083793509 
2474	 0.222094512163941 
2475	 0.221966498647783 
2476	 0.221650224365005 
2477	 0.221426851025773 
2478	 0.221231302208833 
2479	 0.220784810516123 
2480	 0.220425002623457 
2481	 0.220132771603325 
2482	 0.2198559147964 
2483	 0.219640959189381 
2484	 0.219312167739331 
2485	 0.219038870683753 
2486	 0.218898796941768 
2487	 0.218742849297189 
2488	 0.218648700428982 
2489	 0.218499312897052 
2490	 0.218208254567359 
2491	 0.218010609505588 
2492	 0.217830163004258 
2493	 0.217575753092091 
2494	 0.217388246348105 
2495	 0.217221642896307 
2496	 0.21688393762724 
2497	 0.216491129937422 
2498	 0.216114366105732 
2499	 0.215712817892412 
2500	 0.215492893543999 
