Wavelength	LMW_1400001.asd
350	 0.055028989183734 
351	 7.17632869835614E-02 
352	 7.49527468301764E-02 
353	 5.52993072663375E-02 
354	 6.16678206287161E-02 
355	 0.062348596279002 
356	 6.03645990716737E-02 
357	 6.42935205619826E-02 
358	 7.02580865388519E-02 
359	 0.0693392869813 
360	 6.50773353986154E-02 
361	 6.76409264924361E-02 
362	 6.59982312217321E-02 
363	 6.45510044483089E-02 
364	 0.065232286975385 
365	 6.30826105239741E-02 
366	 6.17987140817778E-02 
367	 6.24293187687161E-02 
368	 6.46487713642118E-02 
369	 6.65301100553155E-02 
370	 6.53071073989621E-02 
371	 6.31066298290004E-02 
372	 6.49606708394146E-02 
373	 6.90185845201259E-02 
374	 6.80106605933308E-02 
375	 6.26906611848025E-02 
376	 6.90487177067878E-02 
377	 6.82636756325821E-02 
378	 6.52310641112507E-02 
379	 6.79137702956414E-02 
380	 6.51980113334713E-02 
381	 0.063365518519231 
382	 6.48034317895509E-02 
383	 6.80376568983522E-02 
384	 6.81997487685418E-02 
385	 6.59498527141698E-02 
386	 6.41051794029735E-02 
387	 6.83343335867723E-02 
388	 6.84608176588747E-02 
389	 6.68043110962899E-02 
390	 6.81048097529148E-02 
391	 0.067707112370108 
392	 6.79757386380059E-02 
393	 0.068937162849848 
394	 0.068594022473086 
395	 6.90084104068445E-02 
396	 6.98177508265315E-02 
397	 7.01624132701094E-02 
398	 6.86865906507831E-02 
399	 6.90551090694968E-02 
400	 7.09384114352328E-02 
401	 7.22787518931648E-02 
402	 7.08885483608531E-02 
403	 6.98628495842863E-02 
404	 7.01680453512865E-02 
405	 7.03188469677826E-02 
406	 7.11308905783308E-02 
407	 7.15920883734011E-02 
408	 7.10660710434112E-02 
409	 7.05808404534176E-02 
410	 0.070218585050039 
411	 7.03629514469975E-02 
412	 7.12735283266599E-02 
413	 7.16116273457914E-02 
414	 7.18205183727478E-02 
415	 7.18495739896473E-02 
416	 7.07700984558691E-02 
417	 7.05447368771086E-02 
418	 7.11802381443034E-02 
419	 7.20177922819967E-02 
420	 7.20609179591538E-02 
421	 7.19240770726213E-02 
422	 0.072089385010659 
423	 7.27979940559698E-02 
424	 7.29598159443913E-02 
425	 0.072872916616846 
426	 7.27494889255752E-02 
427	 7.21842416798711E-02 
428	 7.25535826557651E-02 
429	 7.31596923255254E-02 
430	 7.30205949771808E-02 
431	 7.34530051366358E-02 
432	 7.35367644671912E-02 
433	 7.32768925142665E-02 
434	 7.36043216682087E-02 
435	 7.36014358132673E-02 
436	 0.073399803499304 
437	 7.33256632213272E-02 
438	 7.36876087102329E-02 
439	 7.40732941701314E-02 
440	 7.42578897784907E-02 
441	 7.41964862092422E-02 
442	 7.43776546110245E-02 
443	 7.47862923000503E-02 
444	 0.075194755845047 
445	 7.51406046141006E-02 
446	 7.51396619232738E-02 
447	 7.54257664680887E-02 
448	 7.59201714063738E-02 
449	 7.55850086574455E-02 
450	 7.56727861311198E-02 
451	 7.62980404738478E-02 
452	 7.65735817966819E-02 
453	 7.66104358485346E-02 
454	 7.65825463063126E-02 
455	 7.67130806801941E-02 
456	 7.73554661108886E-02 
457	 0.07768558403693 
458	 7.77126475781392E-02 
459	 7.78324728933799E-02 
460	 7.81177118884825E-02 
461	 7.82102207464465E-02 
462	 7.81843931493738E-02 
463	 7.87787594023926E-02 
464	 7.90027710586831E-02 
465	 0.078964731185144 
466	 7.90248479011016E-02 
467	 7.91931520911485E-02 
468	 7.94803785479273E-02 
469	 7.98579336734714E-02 
470	 8.02610239082723E-02 
471	 8.05985197726291E-02 
472	 8.07233018052528E-02 
473	 8.06882656560518E-02 
474	 8.10380635477031E-02 
475	 8.12317930225015E-02 
476	 8.13835275961766E-02 
477	 0.081807501745842 
478	 8.20638472404574E-02 
479	 8.22117286162071E-02 
480	 8.23928680110533E-02 
481	 8.28011219298426E-02 
482	 8.30957352880319E-02 
483	 0.083394838995316 
484	 0.083809463997319 
485	 8.38834984146526E-02 
486	 8.38875043168057E-02 
487	 8.40185116206419E-02 
488	 8.43688854993904E-02 
489	 8.46210314107058E-02 
490	 8.48326683362235E-02 
491	 0.085054817944888 
492	 8.51290866955642E-02 
493	 8.52665950241528E-02 
494	 8.54666398225753E-02 
495	 8.56584980327281E-02 
496	 8.61140201673091E-02 
497	 8.63364764003893E-02 
498	 8.62543026390465E-02 
499	 0.08652211962248 
500	 8.67024848313279E-02 
501	 8.68381316183962E-02 
502	 8.70500004602328E-02 
503	 0.087187870588312 
504	 8.73053103010569E-02 
505	 8.74345725915585E-02 
506	 8.75822857189666E-02 
507	 8.77778471786402E-02 
508	 8.79813641966243E-02 
509	 8.81409763609995E-02 
510	 8.82176452485657E-02 
511	 8.81669995806004E-02 
512	 0.088134602231255 
513	 8.83377125752334E-02 
514	 8.86808146241769E-02 
515	 8.88125613947809E-02 
516	 8.87070253252727E-02 
517	 8.89218519755948E-02 
518	 8.92155935965146E-02 
519	 8.93732768406595E-02 
520	 8.92907881950996E-02 
521	 8.94072119664223E-02 
522	 0.089621025967295 
523	 8.97843640965113E-02 
524	 0.089743331068436 
525	 8.97942885041654E-02 
526	 0.089883442146245 
527	 8.99271754592394E-02 
528	 9.00142506436513E-02 
529	 9.01177922338227E-02 
530	 9.02320358247306E-02 
531	 9.03610710153425E-02 
532	 9.04528842654488E-02 
533	 9.05459516671807E-02 
534	 9.06479649168192E-02 
535	 0.090669796023572 
536	 9.06824435885027E-02 
537	 9.07540872051826E-02 
538	 9.09243550222426E-02 
539	 9.10659098495561E-02 
540	 9.11209612107408E-02 
541	 9.11410542187948E-02 
542	 9.13106923274537E-02 
543	 9.14580217004683E-02 
544	 9.15250411064518E-02 
545	 9.15239338896254E-02 
546	 9.16024662563919E-02 
547	 9.17009044674102E-02 
548	 9.18071775491614E-02 
549	 9.19481245698782E-02 
550	 9.19877233191645E-02 
551	 9.20073913134908E-02 
552	 9.21055247433085E-02 
553	 9.23452547352791E-02 
554	 9.24196224277777E-02 
555	 9.23905596883127E-02 
556	 9.24963180047222E-02 
557	 9.26048583717194E-02 
558	 9.27003447941557E-02 
559	 0.092790513603956 
560	 9.29067271380023E-02 
561	 9.29680085601811E-02 
562	 9.30274797102433E-02 
563	 9.31593892377615E-02 
564	 9.32822647096855E-02 
565	 9.33665206170861E-02 
566	 9.34195422134687E-02 
567	 9.34854741447362E-02 
568	 9.35498240307116E-02 
569	 9.36102022202862E-02 
570	 9.36605549199013E-02 
571	 9.36667024179868E-02 
572	 9.37315287221931E-02 
573	 9.38328743176026E-02 
574	 9.38648974789451E-02 
575	 9.38759648534564E-02 
576	 9.39311170714266E-02 
577	 9.40392384323983E-02 
578	 9.40770716086238E-02 
579	 9.41398409210404E-02 
580	 0.094232049730188 
581	 9.43211263717073E-02 
582	 9.44170177628203E-02 
583	 9.43968050552291E-02 
584	 9.42747807017645E-02 
585	 9.42685711361253E-02 
586	 9.43280611554539E-02 
587	 9.44156588210287E-02 
588	 0.094492035513086 
589	 9.45281699312029E-02 
590	 9.45525156522216E-02 
591	 9.45709712298992E-02 
592	 9.45656349523015E-02 
593	 9.44844180301738E-02 
594	 9.44176567775043E-02 
595	 0.094427956410533 
596	 9.44252826058817E-02 
597	 9.44935755385053E-02 
598	 0.094586373930019 
599	 9.46057132046376E-02 
600	 9.46845070222706E-02 
601	 9.47658408400025E-02 
602	 9.48000862327785E-02 
603	 9.47831089207457E-02 
604	 9.48200095437235E-02 
605	 9.48879940869355E-02 
606	 9.49384432652572E-02 
607	 9.50734995669715E-02 
608	 9.51808776020309E-02 
609	 0.095222136176278 
610	 9.52566419751885E-02 
611	 9.52573971336204E-02 
612	 9.52606736066419E-02 
613	 9.52984396075441E-02 
614	 9.53447045655327E-02 
615	 9.53687742026092E-02 
616	 9.53709658768285E-02 
617	 9.53779966659964E-02 
618	 9.54599688224875E-02 
619	 9.54602667187393E-02 
620	 9.53451748379257E-02 
621	 9.54188499260275E-02 
622	 9.55221856359156E-02 
623	 9.56008010757437E-02 
624	 9.56378026013056E-02 
625	 9.56142342563126E-02 
626	 9.56253522825108E-02 
627	 9.56937267247966E-02 
628	 9.57359835469243E-02 
629	 9.57907034961214E-02 
630	 0.095812035994173 
631	 9.57756144000254E-02 
632	 9.58150084469984E-02 
633	 9.59052145667463E-02 
634	 9.59880406141636E-02 
635	 9.59938708125698E-02 
636	 9.60865855965973E-02 
637	 9.62007946091189E-02 
638	 9.62525248053048E-02 
639	 9.61949927931129E-02 
640	 9.62438197392776E-02 
641	 9.63700639326617E-02 
642	 9.64344118376796E-02 
643	 0.096449075553978 
644	 9.64874729220156E-02 
645	 9.65654553994911E-02 
646	 9.66060447574301E-02 
647	 9.66490243033389E-02 
648	 0.096701730162528 
649	 9.67629464750077E-02 
650	 9.68351372237279E-02 
651	 9.68918933439405E-02 
652	 9.69488714403647E-02 
653	 9.70544991628547E-02 
654	 9.71636404168655E-02 
655	 9.72272846649365E-02 
656	 9.72417960874036E-02 
657	 9.73188884672229E-02 
658	 9.73529460373171E-02 
659	 9.73879802312083E-02 
660	 9.75111625790357E-02 
661	 9.75631176548054E-02 
662	 9.75949473947431E-02 
663	 9.76497179097353E-02 
664	 9.77283587817186E-02 
665	 9.78234055815936E-02 
666	 9.79019740771038E-02 
667	 9.79389455123688E-02 
668	 9.79581798184545E-02 
669	 0.098055219347061 
670	 0.098167152778112 
671	 9.81200137511634E-02 
672	 9.81910001136724E-02 
673	 9.83000205806262E-02 
674	 9.83539847451561E-02 
675	 9.83743999326933E-02 
676	 9.84252410586677E-02 
677	 9.85066928973912E-02 
678	 9.85878824960379E-02 
679	 9.86576312250728E-02 
680	 9.87208049704341E-02 
681	 9.87727336171466E-02 
682	 0.098793775117801 
683	 9.88340116683207E-02 
684	 9.89131933066901E-02 
685	 9.90179507094123E-02 
686	 9.90607687049121E-02 
687	 9.90476086195028E-02 
688	 9.90478078333528E-02 
689	 9.91534313441368E-02 
690	 9.91656950506878E-02 
691	 9.91779455738874E-02 
692	 9.92476909650868E-02 
693	 9.92748813001415E-02 
694	 0.099286406369289 
695	 0.099316634740256 
696	 9.93877600782146E-02 
697	 9.94305724939535E-02 
698	 9.94478645347701E-02 
699	 9.94669220207045E-02 
700	 9.95327487231781E-02 
701	 9.95963810253935E-02 
702	 0.099622566574613 
703	 0.099608332119506 
704	 9.96244545866317E-02 
705	 9.96686102606834E-02 
706	 9.97085254707177E-02 
707	 9.97051148448247E-02 
708	 9.97120586805011E-02 
709	 9.97465839493435E-02 
710	 0.099794775372222 
711	 9.98054015645937E-02 
712	 0.099789751766849 
713	 0.099789621324118 
714	 9.98241289782197E-02 
715	 9.97820898453003E-02 
716	 9.98124248762829E-02 
717	 9.98857807343224E-02 
718	 9.98550596700831E-02 
719	 9.98639631237404E-02 
720	 9.98714312593015E-02 
721	 0.099840497894362 
722	 9.97853320613751E-02 
723	 0.099809655121267 
724	 9.98514331836374E-02 
725	 9.98204616541284E-02 
726	 9.98159366211421E-02 
727	 9.97702616049854E-02 
728	 9.97021866663208E-02 
729	 9.97079411344299E-02 
730	 9.96582246490761E-02 
731	 9.96260329624287E-02 
732	 9.96486531704214E-02 
733	 9.95848518982693E-02 
734	 9.95574823846094E-02 
735	 9.95501256643378E-02 
736	 9.95032327120893E-02 
737	 9.94696592436229E-02 
738	 9.94316967778773E-02 
739	 9.93898184222693E-02 
740	 9.93678856745808E-02 
741	 0.09932358130055 
742	 0.099262809499475 
743	 0.099204075494267 
744	 9.91702037083952E-02 
745	 9.91364521114591E-02 
746	 9.90924179911065E-02 
747	 9.90380789622847E-02 
748	 9.89949084287802E-02 
749	 9.89230360070666E-02 
750	 9.88311703732357E-02 
751	 9.87909685616665E-02 
752	 9.87885663498668E-02 
753	 9.87639719957387E-02 
754	 0.098686824811854 
755	 9.86439819178785E-02 
756	 9.86153963312107E-02 
757	 9.85662093096677E-02 
758	 9.84711712478934E-02 
759	 9.84399061986657E-02 
760	 9.84031483272464E-02 
761	 9.83387088177715E-02 
762	 9.83036369749377E-02 
763	 0.098254271389303 
764	 9.81935496786534E-02 
765	 9.81360439499535E-02 
766	 0.098098999294105 
767	 9.80541254762657E-02 
768	 9.79876342942148E-02 
769	 9.79018795902319E-02 
770	 9.78432602621399E-02 
771	 9.78228152175337E-02 
772	 9.78070304297526E-02 
773	 9.77187391015286E-02 
774	 0.097662204870295 
775	 9.76223320216534E-02 
776	 9.75724170902108E-02 
777	 9.75352228153406E-02 
778	 9.74681842651974E-02 
779	 9.73971944125271E-02 
780	 9.73653292674664E-02 
781	 9.73042641892559E-02 
782	 9.72561224344652E-02 
783	 9.72254095944272E-02 
784	 9.71692254944475E-02 
785	 0.09708215102063 
786	 0.097001301119844 
787	 9.69500271527423E-02 
788	 9.68973356992461E-02 
789	 9.68686441206007E-02 
790	 9.68166820116454E-02 
791	 9.66975483637272E-02 
792	 9.66257284435329E-02 
793	 9.65757351335453E-02 
794	 9.65373305553247E-02 
795	 9.65160529024934E-02 
796	 9.64688267349767E-02 
797	 9.63917068815918E-02 
798	 9.63024708159162E-02 
799	 9.62439835147628E-02 
800	 9.61883393854764E-02 
801	 9.61230816685497E-02 
802	 9.60473927268041E-02 
803	 9.59865171619335E-02 
804	 0.095924732664654 
805	 9.58645815320607E-02 
806	 9.58188070968618E-02 
807	 9.57830319913891E-02 
808	 9.57208651817752E-02 
809	 9.56304673000912E-02 
810	 9.55577895198681E-02 
811	 9.55201697578481E-02 
812	 9.54763710311102E-02 
813	 9.53995334633227E-02 
814	 9.53412283917548E-02 
815	 9.52721837319552E-02 
816	 9.51990746313207E-02 
817	 9.51446892174348E-02 
818	 9.51394677366263E-02 
819	 9.50918193064317E-02 
820	 9.49948560112851E-02 
821	 9.49175008424065E-02 
822	 9.48378520968856E-02 
823	 0.094783367433553 
824	 9.47514114750513E-02 
825	 9.46818170017408E-02 
826	 9.46115645587105E-02 
827	 9.45419964021897E-02 
828	 0.094474994816579 
829	 9.44472148358608E-02 
830	 9.43896360427127E-02 
831	 9.43312779618686E-02 
832	 9.43300856570554E-02 
833	 9.43068221702791E-02 
834	 9.42253829249234E-02 
835	 9.41188368166907E-02 
836	 0.094075511178096 
837	 9.40706549882341E-02 
838	 9.40418760546514E-02 
839	 9.39619543279404E-02 
840	 9.38735607962382E-02 
841	 9.38136617386761E-02 
842	 9.37701971617212E-02 
843	 9.37248764716968E-02 
844	 9.36926948617928E-02 
845	 9.36838066477695E-02 
846	 9.36413414212851E-02 
847	 9.35158476243134E-02 
848	 9.34751957121448E-02 
849	 9.34477703511375E-02 
850	 9.34046461554837E-02 
851	 9.33653655905343E-02 
852	 9.33186929515607E-02 
853	 9.32770330522111E-02 
854	 9.32345305563562E-02 
855	 9.31564315394793E-02 
856	 9.31157013329271E-02 
857	 9.31218776075336E-02 
858	 9.31334694828587E-02 
859	 9.30185109885705E-02 
860	 9.29291129332972E-02 
861	 9.29018134208844E-02 
862	 9.29074101506406E-02 
863	 9.28395575712122E-02 
864	 9.27980679276401E-02 
865	 9.27915849813771E-02 
866	 0.092765727586864 
867	 9.26845806438141E-02 
868	 9.26267300137313E-02 
869	 9.26021034824723E-02 
870	 9.25449687163259E-02 
871	 9.25000687419185E-02 
872	 0.092482405721893 
873	 9.24865736596589E-02 
874	 9.24840580087109E-02 
875	 9.24211944917634E-02 
876	 9.23359391428359E-02 
877	 9.22828181673887E-02 
878	 9.22956560881984E-02 
879	 9.22930734473308E-02 
880	 9.22598612625535E-02 
881	 9.22152875327072E-02 
882	 9.22048766526259E-02 
883	 9.21789224496351E-02 
884	 9.21190780811715E-02 
885	 9.20400768637981E-02 
886	 9.20157411389965E-02 
887	 9.20199531337875E-02 
888	 9.20260173122741E-02 
889	 9.20177592087195E-02 
890	 9.20189739075321E-02 
891	 9.19832852999296E-02 
892	 9.19090358996347E-02 
893	 9.18581115504252E-02 
894	 9.18187134742812E-02 
895	 9.18019254559716E-02 
896	 9.18146082017323E-02 
897	 9.18529064460632E-02 
898	 9.17937068759013E-02 
899	 9.17338731001238E-02 
900	 9.17609101242698E-02 
901	 9.17785775868541E-02 
902	 9.17585941351931E-02 
903	 9.17221149035153E-02 
904	 9.17010314536632E-02 
905	 9.16841764901772E-02 
906	 9.16473061894709E-02 
907	 9.15925973783751E-02 
908	 9.15461305158705E-02 
909	 0.091577287823671 
910	 0.091574367598351 
911	 9.15526244843921E-02 
912	 9.15951399102111E-02 
913	 9.15908429126021E-02 
914	 9.15682650598869E-02 
915	 9.15339623968898E-02 
916	 9.14734528161255E-02 
917	 9.14593194250961E-02 
918	 9.14829793829247E-02 
919	 9.14758096773893E-02 
920	 9.13411823380833E-02 
921	 0.091352615254431 
922	 9.13874325591702E-02 
923	 9.13637601850729E-02 
924	 9.13612011544694E-02 
925	 9.13330455048346E-02 
926	 0.091319762791264 
927	 9.13348689230382E-02 
928	 9.13124983382703E-02 
929	 9.13095618617706E-02 
930	 9.12801346700849E-02 
931	 0.091221507111012 
932	 9.12883914372941E-02 
933	 0.09127651548824 
934	 9.12330839485644E-02 
935	 9.12441152615748E-02 
936	 9.12858193732412E-02 
937	 0.091243886061711 
938	 9.11893809669237E-02 
939	 9.12081564164557E-02 
940	 0.091196041684498 
941	 0.091202913396808 
942	 9.12226840438699E-02 
943	 9.12323821941039E-02 
944	 9.12399536176154E-02 
945	 9.11978563433705E-02 
946	 9.11762024777482E-02 
947	 9.12248434169491E-02 
948	 9.10524659227183E-02 
949	 9.09920502884056E-02 
950	 9.10458665721982E-02 
951	 0.091054936346494 
952	 9.10624318714602E-02 
953	 9.10948569644082E-02 
954	 0.091109657788337 
955	 9.10545367372374E-02 
956	 0.091033368086641 
957	 9.10656878617112E-02 
958	 9.10678768447604E-02 
959	 9.09544638455141E-02 
960	 0.090965118061661 
961	 9.10201692247253E-02 
962	 9.10485575600122E-02 
963	 9.10155924313828E-02 
964	 0.090962136574531 
965	 9.09734067736308E-02 
966	 9.10180406441845E-02 
967	 9.09980698283756E-02 
968	 9.09319554896181E-02 
969	 9.09403645212568E-02 
970	 9.09851249329431E-02 
971	 9.09422097754425E-02 
972	 9.09014137592276E-02 
973	 9.08814394266338E-02 
974	 9.08552508290744E-02 
975	 9.08107347887821E-02 
976	 9.10006540246218E-02 
977	 9.11036380401592E-02 
978	 9.10405273930886E-02 
979	 9.09325962494996E-02 
980	 9.08381180678327E-02 
981	 9.08483208589598E-02 
982	 9.08944955016856E-02 
983	 9.08453765973086E-02 
984	 9.07923276443347E-02 
985	 9.08746123067317E-02 
986	 9.09086490955138E-02 
987	 9.06771605809554E-02 
988	 9.07266376219975E-02 
989	 9.08298765867979E-02 
990	 9.08445217286871E-02 
991	 9.07537846164526E-02 
992	 9.07758045196161E-02 
993	 9.06918657202257E-02 
994	 0.090656443812753 
995	 9.08271501002214E-02 
996	 9.06386243676384E-02 
997	 9.06643759498868E-02 
998	 9.07497558045793E-02 
999	 0.090635091379102 
1000	 9.08278179800885E-02 
1001	 8.75576005807704E-02 
1002	 8.75457509538274E-02 
1003	 8.74550165261728E-02 
1004	 8.74156939029294E-02 
1005	 8.74316462879387E-02 
1006	 8.74001318587386E-02 
1007	 8.73595840625274E-02 
1008	 8.73157968412789E-02 
1009	 8.72507913365636E-02 
1010	 8.72040934120348E-02 
1011	 0.087257654066776 
1012	 8.72965294330348E-02 
1013	 8.73228803007722E-02 
1014	 8.73542613747903E-02 
1015	 8.73219818758319E-02 
1016	 8.73115339463393E-02 
1017	 8.73025736196255E-02 
1018	 8.73130027944868E-02 
1019	 8.72701762191069E-02 
1020	 8.72061228059022E-02 
1021	 8.71546452375794E-02 
1022	 8.71061991562752E-02 
1023	 8.70601340401246E-02 
1024	 8.70622079453328E-02 
1025	 8.70646839217963E-02 
1026	 8.70352349373721E-02 
1027	 8.70101990562443E-02 
1028	 8.69948096934665E-02 
1029	 8.69779109850806E-02 
1030	 8.69392962136199E-02 
1031	 0.086900114319251 
1032	 8.68565039079362E-02 
1033	 8.68170577061535E-02 
1034	 8.67717514578188E-02 
1035	 8.67327326471002E-02 
1036	 8.67252446674841E-02 
1037	 8.67238718625557E-02 
1038	 8.66998097549939E-02 
1039	 8.66960444382441E-02 
1040	 8.66827155154034E-02 
1041	 8.66237280731586E-02 
1042	 8.66271912883923E-02 
1043	 8.66412310127836E-02 
1044	 8.66136369624685E-02 
1045	 0.086567203404535 
1046	 8.65632175282954E-02 
1047	 8.64959320615598E-02 
1048	 8.64149820713157E-02 
1049	 0.086433715371062 
1050	 8.64553336172796E-02 
1051	 0.086475195287121 
1052	 8.64882502742112E-02 
1053	 8.65125437628068E-02 
1054	 8.65414290902255E-02 
1055	 8.65222485697216E-02 
1056	 0.086541122886928 
1057	 8.65581600563383E-02 
1058	 8.65500136906307E-02 
1059	 8.65447563787078E-02 
1060	 8.65654595763047E-02 
1061	 8.65585391024255E-02 
1062	 0.086523799440198 
1063	 8.65789312869406E-02 
1064	 8.66333171990164E-02 
1065	 8.66436096156892E-02 
1066	 8.66835286616123E-02 
1067	 8.66834681022358E-02 
1068	 8.66349495834233E-02 
1069	 8.66301965103272E-02 
1070	 8.66256324165455E-02 
1071	 0.086591797997722 
1072	 0.08659339805167 
1073	 8.66744252007602E-02 
1074	 8.66911672367553E-02 
1075	 8.66887560219226E-02 
1076	 8.66715925609448E-02 
1077	 8.66792775035125E-02 
1078	 8.66275290325749E-02 
1079	 8.66511128384324E-02 
1080	 8.67055808918014E-02 
1081	 8.66975188705242E-02 
1082	 8.67131910187231E-02 
1083	 8.67048393856014E-02 
1084	 8.66678828407566E-02 
1085	 8.66440556126385E-02 
1086	 8.66035229661992E-02 
1087	 8.65955434624249E-02 
1088	 8.66067201794431E-02 
1089	 8.66065048123082E-02 
1090	 8.66293728858178E-02 
1091	 8.65956580330125E-02 
1092	 8.65178038895391E-02 
1093	 8.65188671613848E-02 
1094	 8.65131260805611E-02 
1095	 8.64903229906722E-02 
1096	 8.65102862879247E-02 
1097	 8.65303858512061E-02 
1098	 8.65438610462574E-02 
1099	 8.65874540285947E-02 
1100	 8.65851087888515E-02 
1101	 8.65313300771685E-02 
1102	 8.65157609993192E-02 
1103	 8.64934887636381E-02 
1104	 8.64806557693754E-02 
1105	 0.086500384573827 
1106	 8.65209622274393E-02 
1107	 8.64968575222806E-02 
1108	 8.64773653930344E-02 
1109	 8.64497474457699E-02 
1110	 8.64209112938552E-02 
1111	 8.64029978061543E-02 
1112	 0.086390155066506 
1113	 8.63762531120377E-02 
1114	 8.63629110491649E-02 
1115	 8.63588043952082E-02 
1116	 8.63740799394676E-02 
1117	 8.63637400748472E-02 
1118	 8.63354884442733E-02 
1119	 8.63323305271255E-02 
1120	 8.63321478633739E-02 
1121	 8.63123556486432E-02 
1122	 8.63270053718681E-02 
1123	 0.086342772554949 
1124	 8.63366522340756E-02 
1125	 8.63114659351796E-02 
1126	 8.63004289099303E-02 
1127	 8.62786622255337E-02 
1128	 8.62704358069866E-02 
1129	 8.62677376357576E-02 
1130	 8.62680940561219E-02 
1131	 8.62869565687066E-02 
1132	 8.62905275306841E-02 
1133	 8.62956924829498E-02 
1134	 8.62910497892306E-02 
1135	 8.62761277312493E-02 
1136	 8.62483071342609E-02 
1137	 8.62392787002334E-02 
1138	 8.62071934931964E-02 
1139	 0.086194773776765 
1140	 8.61884199057348E-02 
1141	 8.61931659124064E-02 
1142	 8.62129275408133E-02 
1143	 8.62223634271155E-02 
1144	 8.62415626777985E-02 
1145	 8.62456268116857E-02 
1146	 8.62258001328716E-02 
1147	 8.62264321220271E-02 
1148	 8.62382729396557E-02 
1149	 8.62404170167705E-02 
1150	 8.62437979886365E-02 
1151	 0.086260468826834 
1152	 8.62337902870105E-02 
1153	 8.62230895251193E-02 
1154	 8.62173493380221E-02 
1155	 8.62103630780961E-02 
1156	 8.62044774019674E-02 
1157	 8.62036643464662E-02 
1158	 8.62081459179766E-02 
1159	 8.62141513542637E-02 
1160	 8.62202548153204E-02 
1161	 8.62358704167167E-02 
1162	 8.62485746983508E-02 
1163	 0.086254470384368 
1164	 8.62656255722581E-02 
1165	 8.62887888827814E-02 
1166	 8.63006396715787E-02 
1167	 8.63061243872618E-02 
1168	 8.63102730396768E-02 
1169	 8.63226947312894E-02 
1170	 8.63317735788929E-02 
1171	 8.63517459603425E-02 
1172	 8.63935658725651E-02 
1173	 8.64075256375682E-02 
1174	 8.64067165683848E-02 
1175	 8.64180807984425E-02 
1176	 8.64162325836229E-02 
1177	 8.64284238213797E-02 
1178	 8.64640291902893E-02 
1179	 8.64842603404878E-02 
1180	 8.64940391075998E-02 
1181	 0.086512351208909 
1182	 0.086535704000241 
1183	 8.65490818760935E-02 
1184	 0.086567758059028 
1185	 8.65953033318342E-02 
1186	 8.66134958148144E-02 
1187	 8.66191330162535E-02 
1188	 8.66409552847895E-02 
1189	 8.66670550573563E-02 
1190	 8.66959474413474E-02 
1191	 8.67422411418293E-02 
1192	 0.086770389044828 
1193	 8.67864783542773E-02 
1194	 8.68108378925393E-02 
1195	 8.68316467050667E-02 
1196	 8.68529139994469E-02 
1197	 8.68702137444203E-02 
1198	 8.69021799411634E-02 
1199	 8.69403234327911E-02 
1200	 8.69823834266527E-02 
1201	 8.70212450796604E-02 
1202	 8.70766516944699E-02 
1203	 8.71113838689378E-02 
1204	 8.71288794757705E-02 
1205	 8.71560510143451E-02 
1206	 8.71836779114414E-02 
1207	 8.72095029100254E-02 
1208	 8.72259973107356E-02 
1209	 8.72597352509868E-02 
1210	 8.73112755100127E-02 
1211	 8.73447907298255E-02 
1212	 8.73792978843359E-02 
1213	 8.74134506724871E-02 
1214	 8.74268809134108E-02 
1215	 8.74528883560114E-02 
1216	 8.74856640598851E-02 
1217	 8.75343156019223E-02 
1218	 8.75678478038354E-02 
1219	 8.75993094232716E-02 
1220	 8.76308532028259E-02 
1221	 8.76594626528381E-02 
1222	 8.76861562118876E-02 
1223	 8.77130500276941E-02 
1224	 8.77381596035508E-02 
1225	 8.77518201415008E-02 
1226	 8.77796825817995E-02 
1227	 8.78171827967864E-02 
1228	 8.78508210703695E-02 
1229	 8.78888594439554E-02 
1230	 8.79281571850614E-02 
1231	 8.79653636703436E-02 
1232	 8.80044650057586E-02 
1233	 0.088045641634207 
1234	 8.80983077304101E-02 
1235	 8.81264930104788E-02 
1236	 8.81416570197358E-02 
1237	 8.81661786540295E-02 
1238	 8.81753946418086E-02 
1239	 0.088204107526476 
1240	 8.82497933950919E-02 
1241	 8.82881904557883E-02 
1242	 8.83276460755081E-02 
1243	 8.83699807094773E-02 
1244	 8.84194173501654E-02 
1245	 8.84587721937793E-02 
1246	 8.84985142489718E-02 
1247	 8.85333284427821E-02 
1248	 8.85552410791907E-02 
1249	 8.85786836257008E-02 
1250	 8.86268624498489E-02 
1251	 8.86618919185448E-02 
1252	 8.86943569863873E-02 
1253	 8.87336854569768E-02 
1254	 0.088761108038284 
1255	 8.87617304372663E-02 
1256	 8.87978588178392E-02 
1257	 8.88604649520958E-02 
1258	 8.88958086421478E-02 
1259	 8.89351549603768E-02 
1260	 8.89672577908388E-02 
1261	 8.89709663355322E-02 
1262	 8.89939624093322E-02 
1263	 8.90314795529942E-02 
1264	 8.90663545836156E-02 
1265	 8.91036718554256E-02 
1266	 8.91384697251465E-02 
1267	 8.91753874011465E-02 
1268	 8.92112835115485E-02 
1269	 8.92418990890631E-02 
1270	 0.089266101255405 
1271	 8.92997571495069E-02 
1272	 0.089331242073827 
1273	 8.93712892561044E-02 
1274	 8.94217659914793E-02 
1275	 8.94663241071018E-02 
1276	 8.95090438375478E-02 
1277	 8.95581145689897E-02 
1278	 8.96070928726519E-02 
1279	 8.96626636019829E-02 
1280	 0.08973489509781 
1281	 8.97906344520029E-02 
1282	 8.98304537805203E-02 
1283	 0.089888138731472 
1284	 8.99559368513991E-02 
1285	 9.00055817440422E-02 
1286	 9.00681873819901E-02 
1287	 9.01558408575632E-02 
1288	 9.02385321444869E-02 
1289	 9.03268908687698E-02 
1290	 0.090403677503696 
1291	 9.04864147962017E-02 
1292	 9.05544354867157E-02 
1293	 0.090592079284677 
1294	 9.06629544207153E-02 
1295	 9.07545810553349E-02 
1296	 9.08322981184503E-02 
1297	 9.09272927804606E-02 
1298	 9.09984390709068E-02 
1299	 9.10398947524677E-02 
1300	 9.10992498427952E-02 
1301	 9.11553524669745E-02 
1302	 9.12148414088651E-02 
1303	 9.12875349732745E-02 
1304	 9.13542927546857E-02 
1305	 9.14094817201265E-02 
1306	 9.14686868477399E-02 
1307	 9.15099056653955E-02 
1308	 0.091557507852693 
1309	 9.16061360336682E-02 
1310	 9.16549527431291E-02 
1311	 9.16987335681666E-02 
1312	 9.17416085459575E-02 
1313	 9.17838819744975E-02 
1314	 9.18251417612125E-02 
1315	 9.18598228182257E-02 
1316	 0.091890705622508 
1317	 9.19262036696717E-02 
1318	 9.19564671817096E-02 
1319	 9.19854633082576E-02 
1320	 9.20135437988134E-02 
1321	 9.20521099374887E-02 
1322	 9.20989721822228E-02 
1323	 9.21352614753462E-02 
1324	 9.21673126364674E-02 
1325	 9.22009518488992E-02 
1326	 9.22097820204627E-02 
1327	 9.22119929389574E-02 
1328	 9.22234838607856E-02 
1329	 9.22511346222396E-02 
1330	 9.22835766291654E-02 
1331	 9.23286185773596E-02 
1332	 9.23612233516837E-02 
1333	 9.24035307674841E-02 
1334	 9.24267966855334E-02 
1335	 0.092428571196925 
1336	 9.24495764410932E-02 
1337	 9.24708638710259E-02 
1338	 9.24908667927496E-02 
1339	 9.25276413352662E-02 
1340	 9.25490898447731E-02 
1341	 9.25550229893431E-02 
1342	 9.25696937684964E-02 
1343	 9.25927715951212E-02 
1344	 9.25923247582106E-02 
1345	 9.26005823294512E-02 
1346	 9.26192307522185E-02 
1347	 9.26133165797597E-02 
1348	 9.26102352683527E-02 
1349	 9.26038086242165E-02 
1350	 9.25830019567192E-02 
1351	 9.25775285821417E-02 
1352	 9.25812636450476E-02 
1353	 9.25759153647275E-02 
1354	 9.25781522430971E-02 
1355	 0.092563161487763 
1356	 9.25258122182082E-02 
1357	 9.25127135200668E-02 
1358	 9.24973256166302E-02 
1359	 9.24950179123781E-02 
1360	 9.25134811774404E-02 
1361	 9.25276946296051E-02 
1362	 0.092535654365091 
1363	 9.25599008795727E-02 
1364	 0.092593860115756 
1365	 9.26329983058062E-02 
1366	 9.26757393509198E-02 
1367	 9.27389039359913E-02 
1368	 9.28132820140521E-02 
1369	 9.28790592762659E-02 
1370	 9.29385489912491E-02 
1371	 9.29996904103089E-02 
1372	 9.30353638173053E-02 
1373	 9.30655461971139E-02 
1374	 9.30944029517689E-02 
1375	 9.31248904408018E-02 
1376	 9.31296153798806E-02 
1377	 9.31201572226477E-02 
1378	 0.093113625663067 
1379	 9.30878685614785E-02 
1380	 0.093073186327563 
1381	 9.30485845693135E-02 
1382	 9.30521579706266E-02 
1383	 9.30674451908416E-02 
1384	 9.30897891200277E-02 
1385	 9.31417874898378E-02 
1386	 9.31849414786069E-02 
1387	 9.32329063310589E-02 
1388	 9.32675984708372E-02 
1389	 9.33045966806366E-02 
1390	 9.33296580470254E-02 
1391	 9.33266114302233E-02 
1392	 9.33337179421156E-02 
1393	 0.093341385087522 
1394	 9.33389036764141E-02 
1395	 9.33522024919315E-02 
1396	 9.33753736005693E-02 
1397	 9.34005074929512E-02 
1398	 9.34378846070548E-02 
1399	 9.34593549665145E-02 
1400	 9.34802817351242E-02 
1401	 9.34910941375974E-02 
1402	 9.34806760507303E-02 
1403	 0.093497632145835 
1404	 9.35180072468952E-02 
1405	 9.35494738289729E-02 
1406	 9.36110235724196E-02 
1407	 9.36451747531688E-02 
1408	 9.36721352653794E-02 
1409	 9.36957537087664E-02 
1410	 9.36910759734868E-02 
1411	 9.37153037518194E-02 
1412	 9.37520158694168E-02 
1413	 9.37984804154422E-02 
1414	 9.38427623038966E-02 
1415	 9.38870047780479E-02 
1416	 9.39122259327543E-02 
1417	 9.39445050977234E-02 
1418	 9.39887137714507E-02 
1419	 9.40337180091528E-02 
1420	 9.40927299685763E-02 
1421	 9.41416646178338E-02 
1422	 9.41900764317933E-02 
1423	 9.42358728813628E-02 
1424	 9.42668803957831E-02 
1425	 9.42837278308044E-02 
1426	 9.43059147417169E-02 
1427	 9.43074644105572E-02 
1428	 0.094338870357003 
1429	 9.43829326400593E-02 
1430	 9.44315616598061E-02 
1431	 0.094504861589936 
1432	 9.45623735557901E-02 
1433	 9.46238778898759E-02 
1434	 9.46642952592887E-02 
1435	 9.46852468463266E-02 
1436	 9.47181078682769E-02 
1437	 9.47373305769798E-02 
1438	 0.09477010981212 
1439	 9.48218141524379E-02 
1440	 9.48627499179991E-02 
1441	 9.48918026898281E-02 
1442	 9.49233613601356E-02 
1443	 9.49484242063423E-02 
1444	 9.49755327181609E-02 
1445	 9.50272677167379E-02 
1446	 9.50786873981216E-02 
1447	 9.51099603135151E-02 
1448	 9.51453494958638E-02 
1449	 9.51691203784576E-02 
1450	 9.51846321680904E-02 
1451	 9.52160293818071E-02 
1452	 9.52608728744692E-02 
1453	 9.53037469099939E-02 
1454	 9.53558981465442E-02 
1455	 9.53919821464791E-02 
1456	 9.54270370653262E-02 
1457	 9.54562158933469E-02 
1458	 9.54671531118945E-02 
1459	 9.54933377146563E-02 
1460	 9.55207839789401E-02 
1461	 9.55580501893478E-02 
1462	 0.09561128376593 
1463	 9.56503496216887E-02 
1464	 9.56997156889976E-02 
1465	 9.57278378659163E-02 
1466	 9.57257605045758E-02 
1467	 0.095743739529108 
1468	 9.57557797564767E-02 
1469	 9.57806198089397E-02 
1470	 9.58228948511461E-02 
1471	 9.58646741529462E-02 
1472	 9.59025533683674E-02 
1473	 9.59374275507326E-02 
1474	 9.59576387831587E-02 
1475	 9.59819251237334E-02 
1476	 9.60022904331953E-02 
1477	 9.60212819792602E-02 
1478	 9.60569962808166E-02 
1479	 9.60874971137195E-02 
1480	 9.61290917534429E-02 
1481	 9.61691177652585E-02 
1482	 9.61976482165437E-02 
1483	 0.096219541494597 
1484	 9.62445068749932E-02 
1485	 9.62597543755025E-02 
1486	 9.62848431648969E-02 
1487	 9.63170542865941E-02 
1488	 9.63469194644704E-02 
1489	 9.63794065432287E-02 
1490	 9.64036109658327E-02 
1491	 9.64257746484232E-02 
1492	 9.64444544409552E-02 
1493	 9.64507853878163E-02 
1494	 9.64740802984769E-02 
1495	 9.65008107636905E-02 
1496	 9.65323473327057E-02 
1497	 9.65802083788214E-02 
1498	 9.66178276569633E-02 
1499	 9.66671606617073E-02 
1500	 9.66908296844333E-02 
1501	 9.66877008999132E-02 
1502	 9.66963009246326E-02 
1503	 9.66893351901363E-02 
1504	 9.66929351875867E-02 
1505	 9.67249552732314E-02 
1506	 9.67636608569181E-02 
1507	 9.67848271932512E-02 
1508	 9.68050511185089E-02 
1509	 0.096816375228759 
1510	 9.68121706926333E-02 
1511	 9.68161836517719E-02 
1512	 0.09683015636837 
1513	 9.68391417135981E-02 
1514	 9.68494095191473E-02 
1515	 9.68815440497986E-02 
1516	 9.69147909822599E-02 
1517	 9.69305198577943E-02 
1518	 9.69439290898342E-02 
1519	 0.096955106915109 
1520	 9.69447649650552E-02 
1521	 9.69586761542584E-02 
1522	 9.69874499422937E-02 
1523	 9.70091920027377E-02 
1524	 9.70390742609028E-02 
1525	 9.70572957346017E-02 
1526	 9.70700000498594E-02 
1527	 9.70837099435051E-02 
1528	 9.70915326802636E-02 
1529	 9.70974559526284E-02 
1530	 9.70977471257148E-02 
1531	 9.71112911643926E-02 
1532	 9.71326027597805E-02 
1533	 9.71471852837511E-02 
1534	 9.71669121816519E-02 
1535	 9.71809142422268E-02 
1536	 9.71831450586766E-02 
1537	 9.71953446566688E-02 
1538	 9.72184786691895E-02 
1539	 9.72327228918287E-02 
1540	 0.097241130772264 
1541	 9.72535211439303E-02 
1542	 9.72607143897983E-02 
1543	 9.72740252064307E-02 
1544	 0.09729960663339 
1545	 0.097314841237603 
1546	 9.73200129929351E-02 
1547	 9.73404958382247E-02 
1548	 9.73475249168403E-02 
1549	 0.097358397389156 
1550	 9.73783895969429E-02 
1551	 9.73797556501203E-02 
1552	 0.097389530596522 
1553	 9.74060412393069E-02 
1554	 0.097407512831476 
1555	 9.74138489334201E-02 
1556	 9.74283771360781E-02 
1557	 9.74403270282361E-02 
1558	 0.097460669584839 
1559	 9.74801999086414E-02 
1560	 9.74833178713722E-02 
1561	 9.74671630543477E-02 
1562	 9.74653458777908E-02 
1563	 9.74568121208466E-02 
1564	 9.74659205392696E-02 
1565	 9.74881671349889E-02 
1566	 9.75019968905804E-02 
1567	 9.75251575825716E-02 
1568	 9.75332099823621E-02 
1569	 9.75318672580593E-02 
1570	 9.75359841746165E-02 
1571	 9.75360909707779E-02 
1572	 9.75374440290475E-02 
1573	 9.75396445666133E-02 
1574	 9.75421215119734E-02 
1575	 0.097544600076378 
1576	 9.75410772475167E-02 
1577	 9.75325628126115E-02 
1578	 9.75337088439186E-02 
1579	 9.75357701285895E-02 
1580	 9.75378989372784E-02 
1581	 9.75464107801639E-02 
1582	 9.75564896312295E-02 
1583	 9.75648232308262E-02 
1584	 9.75731902266916E-02 
1585	 9.75898386825337E-02 
1586	 9.75984820700069E-02 
1587	 0.097597649487405 
1588	 9.76015158002582E-02 
1589	 9.76077623049373E-02 
1590	 0.097612160085446 
1591	 9.76165429886498E-02 
1592	 9.76211311607138E-02 
1593	 9.76256142210111E-02 
1594	 9.76258649450909E-02 
1595	 9.76282733735959E-02 
1596	 9.76226538916041E-02 
1597	 9.76041350094371E-02 
1598	 9.75974480283617E-02 
1599	 9.75971755202818E-02 
1600	 9.75866755315334E-02 
1601	 9.75629276444567E-02 
1602	 9.75619660993661E-02 
1603	 9.75715040307904E-02 
1604	 9.75757234646236E-02 
1605	 9.76038442999844E-02 
1606	 9.76183921225474E-02 
1607	 9.76242504270054E-02 
1608	 9.76081717339442E-02 
1609	 9.76167075079598E-02 
1610	 9.76200510576117E-02 
1611	 9.76157499229712E-02 
1612	 9.76347142272438E-02 
1613	 9.76513844588904E-02 
1614	 9.76496427968088E-02 
1615	 9.76437833667943E-02 
1616	 9.76354636591956E-02 
1617	 9.76352603842039E-02 
1618	 9.76423302970104E-02 
1619	 9.76512582682988E-02 
1620	 9.76673021059662E-02 
1621	 9.76728823653726E-02 
1622	 9.76648581071443E-02 
1623	 9.76691716896705E-02 
1624	 0.097681027893305 
1625	 9.76826322636633E-02 
1626	 9.76806270095979E-02 
1627	 9.76843124262537E-02 
1628	 9.76858747475111E-02 
1629	 9.76874998043197E-02 
1630	 0.097696932641064 
1631	 9.76928274922218E-02 
1632	 9.76720150492807E-02 
1633	 9.76759141955246E-02 
1634	 9.76881482021951E-02 
1635	 9.76955155361733E-02 
1636	 9.77196302657669E-02 
1637	 9.77232284969614E-02 
1638	 9.77088014735954E-02 
1639	 9.77060987345539E-02 
1640	 9.77029105270568E-02 
1641	 9.77017786665648E-02 
1642	 0.097700699879777 
1643	 9.77082029974609E-02 
1644	 9.77233820526678E-02 
1645	 9.77289429573383E-02 
1646	 9.77413134401744E-02 
1647	 9.77393928087152E-02 
1648	 0.097717408934191 
1649	 9.77160950065327E-02 
1650	 0.097719885869597 
1651	 0.097722846017447 
1652	 9.77390410022833E-02 
1653	 0.097739819096696 
1654	 9.77348847531908E-02 
1655	 9.77223057478171E-02 
1656	 9.76924439614458E-02 
1657	 9.76839400947302E-02 
1658	 9.76800561922531E-02 
1659	 9.76740077251889E-02 
1660	 9.76778158018778E-02 
1661	 9.76820901941954E-02 
1662	 9.76794225958086E-02 
1663	 9.76849317762019E-02 
1664	 9.77070671716202E-02 
1665	 9.77150765012739E-02 
1666	 9.77220117407359E-02 
1667	 0.097715780424406 
1668	 9.76884510568977E-02 
1669	 9.76872736910472E-02 
1670	 0.097686582371023 
1671	 9.76934271134375E-02 
1672	 9.77312142847381E-02 
1673	 9.77389364263655E-02 
1674	 9.77246362771837E-02 
1675	 9.77279974838639E-02 
1676	 9.77290295624287E-02 
1677	 9.77343018694491E-02 
1678	 9.77632066826741E-02 
1679	 9.77588098916988E-02 
1680	 9.77267026914992E-02 
1681	 9.77177920974789E-02 
1682	 9.77034151874562E-02 
1683	 9.76938855575971E-02 
1684	 9.76960753405362E-02 
1685	 9.77036209492909E-02 
1686	 9.77074536587838E-02 
1687	 9.77195147188619E-02 
1688	 9.77610628274185E-02 
1689	 9.77696496012373E-02 
1690	 9.77554050959908E-02 
1691	 9.77561048461893E-02 
1692	 9.77499397164949E-02 
1693	 9.77471294433257E-02 
1694	 0.097762102752194 
1695	 9.77545206264406E-02 
1696	 9.77225747133459E-02 
1697	 9.77132825120823E-02 
1698	 0.097701449878427 
1699	 9.77026760867466E-02 
1700	 9.77278475975075E-02 
1701	 9.77369287284124E-02 
1702	 0.097744677442809 
1703	 0.097748630611474 
1704	 9.77389014311731E-02 
1705	 9.77466363279663E-02 
1706	 9.77717929049763E-02 
1707	 0.097773753700543 
1708	 9.77709245116676E-02 
1709	 0.097770078739131 
1710	 9.77503677214889E-02 
1711	 9.77450989077555E-02 
1712	 9.77481526745759E-02 
1713	 9.77625178951443E-02 
1714	 9.77949767587384E-02 
1715	 9.77972346503306E-02 
1716	 9.77937508919805E-02 
1717	 9.77960809130204E-02 
1718	 9.77749170519421E-02 
1719	 9.77716121344944E-02 
1720	 9.77965527252557E-02 
1721	 9.77991058836819E-02 
1722	 9.77887903788059E-02 
1723	 9.77780360196901E-02 
1724	 9.77619513295924E-02 
1725	 0.097749614833342 
1726	 9.77320277225753E-02 
1727	 0.097719173315626 
1728	 9.77095481643753E-02 
1729	 9.77011552060622E-02 
1730	 9.76905054458947E-02 
1731	 0.097693451718334 
1732	 9.77175014336586E-02 
1733	 9.77090670112393E-02 
1734	 9.76945135961381E-02 
1735	 9.76739872929894E-02 
1736	 9.76231192315737E-02 
1737	 9.76015828631835E-02 
1738	 9.75898326345356E-02 
1739	 9.75794635002388E-02 
1740	 9.75865789956593E-02 
1741	 9.75708538762096E-02 
1742	 9.75479620704991E-02 
1743	 9.75345472511928E-02 
1744	 9.75090341661247E-02 
1745	 9.75019424411186E-02 
1746	 9.75087072203292E-02 
1747	 9.75092941356526E-02 
1748	 9.75044039809099E-02 
1749	 0.0975063458374 
1750	 9.75252396657734E-02 
1751	 0.097523405361908 
1752	 9.75362541254642E-02 
1753	 9.75305303678207E-02 
1754	 9.74955449188057E-02 
1755	 9.74900550769095E-02 
1756	 9.74935527092368E-02 
1757	 9.74892556218319E-02 
1758	 9.74834923962882E-02 
1759	 9.74857621544107E-02 
1760	 0.097488769959118 
1761	 9.74747792881326E-02 
1762	 9.74707577824826E-02 
1763	 9.74631189528509E-02 
1764	 9.74455295268652E-02 
1765	 9.74552396399676E-02 
1766	 9.74758111889303E-02 
1767	 9.74790496741906E-02 
1768	 9.74635143490621E-02 
1769	 9.74434589950199E-02 
1770	 9.74304655844123E-02 
1771	 9.74314888607268E-02 
1772	 9.74321737770945E-02 
1773	 9.74282959240479E-02 
1774	 9.74381834694094E-02 
1775	 9.74378267687061E-02 
1776	 9.74347731093428E-02 
1777	 9.74385593148308E-02 
1778	 9.74285330529083E-02 
1779	 9.74235524152966E-02 
1780	 9.74195563656453E-02 
1781	 9.74008454616674E-02 
1782	 9.73956892985945E-02 
1783	 9.74217186172524E-02 
1784	 9.74329726672493E-02 
1785	 9.74584525346388E-02 
1786	 9.74661826585122E-02 
1787	 9.74462520362932E-02 
1788	 0.09743960183035 
1789	 9.74371060643148E-02 
1790	 9.74354452303239E-02 
1791	 9.74470243258679E-02 
1792	 9.74385462479098E-02 
1793	 9.74093381960232E-02 
1794	 9.73888534649924E-02 
1795	 9.73562491878106E-02 
1796	 9.73471290664108E-02 
1797	 9.73647414891698E-02 
1798	 9.73687889458462E-02 
1799	 9.73681835536707E-02 
1800	 9.73703670744231E-02 
1801	 9.45981236260432E-02 
1802	 9.47102465634748E-02 
1803	 9.48226536637492E-02 
1804	 9.49373915548132E-02 
1805	 9.50281263716301E-02 
1806	 0.095130960892007 
1807	 9.52557624232583E-02 
1808	 9.53216612894027E-02 
1809	 9.53554124440541E-02 
1810	 9.53929581324584E-02 
1811	 9.54132327334134E-02 
1812	 9.53803125194056E-02 
1813	 9.53796989998007E-02 
1814	 9.54336268592458E-02 
1815	 9.54538073966694E-02 
1816	 9.54757330366301E-02 
1817	 9.54949367247257E-02 
1818	 9.55060707442114E-02 
1819	 9.55186184595964E-02 
1820	 9.55261695633986E-02 
1821	 9.55451466939447E-02 
1822	 9.55725841175096E-02 
1823	 9.55961612256929E-02 
1824	 9.55869028713754E-02 
1825	 9.55664058576935E-02 
1826	 9.55509885339031E-02 
1827	 9.55299070950142E-02 
1828	 9.55200425182563E-02 
1829	 9.55425706607306E-02 
1830	 9.55377772232681E-02 
1831	 9.55194935246995E-02 
1832	 9.54999151983571E-02 
1833	 9.54847823928167E-02 
1834	 9.54577354470695E-02 
1835	 0.09543721643737 
1836	 9.54111610886669E-02 
1837	 9.54335396079497E-02 
1838	 9.54793363111884E-02 
1839	 9.55131334182517E-02 
1840	 9.55574727599542E-02 
1841	 9.56367002011862E-02 
1842	 9.56789458775274E-02 
1843	 9.57111825805698E-02 
1844	 9.57709355728065E-02 
1845	 9.58148728986104E-02 
1846	 9.58426615179486E-02 
1847	 9.58542146867931E-02 
1848	 0.095858954129879 
1849	 9.58671674842742E-02 
1850	 9.58951856909947E-02 
1851	 9.59412889215854E-02 
1852	 9.59857547964404E-02 
1853	 9.60390932965785E-02 
1854	 0.096103390144744 
1855	 0.096110603777034 
1856	 0.096132498730222 
1857	 9.61799707557602E-02 
1858	 9.61866377368516E-02 
1859	 9.62144851855915E-02 
1860	 9.62370207056759E-02 
1861	 0.096261714279285 
1862	 9.62548816631303E-02 
1863	 9.62617868870098E-02 
1864	 0.096242669430091 
1865	 9.62068535998734E-02 
1866	 9.61486626135523E-02 
1867	 9.60774531938061E-02 
1868	 9.60253945400214E-02 
1869	 0.09598266506497 
1870	 9.59631270407492E-02 
1871	 9.59584127386611E-02 
1872	 9.59698773863775E-02 
1873	 9.59983989283741E-02 
1874	 9.60564029813309E-02 
1875	 9.61015706681558E-02 
1876	 9.61253624247963E-02 
1877	 9.61825545050494E-02 
1878	 9.62208793119223E-02 
1879	 9.62330195987216E-02 
1880	 9.62638150238524E-02 
1881	 9.63213499445553E-02 
1882	 9.63376858960135E-02 
1883	 9.63331618674222E-02 
1884	 0.096349425038188 
1885	 9.63400380360646E-02 
1886	 9.62941220656193E-02 
1887	 9.62513330457361E-02 
1888	 9.62290299910765E-02 
1889	 9.61912136877563E-02 
1890	 9.61641595927254E-02 
1891	 9.61288834580248E-02 
1892	 9.60942997157595E-02 
1893	 9.60414146902849E-02 
1894	 9.59832699025321E-02 
1895	 9.59032345993966E-02 
1896	 9.58282877900957E-02 
1897	 9.57392685468096E-02 
1898	 9.56308951428434E-02 
1899	 9.55468702782333E-02 
1900	 9.54606400202247E-02 
1901	 9.53691471406252E-02 
1902	 9.52985121174325E-02 
1903	 9.52537565382617E-02 
1904	 9.51998798516874E-02 
1905	 9.51415843045132E-02 
1906	 9.51098932961902E-02 
1907	 9.50855907187273E-02 
1908	 9.50526989702272E-02 
1909	 9.50344621465427E-02 
1910	 9.50085750356658E-02 
1911	 9.49773870729863E-02 
1912	 9.49201832571245E-02 
1913	 9.48712026615917E-02 
1914	 9.48184555560112E-02 
1915	 9.47726801848497E-02 
1916	 9.47121683836485E-02 
1917	 9.46913946151889E-02 
1918	 9.46734964159577E-02 
1919	 9.46350832411462E-02 
1920	 9.46457717335414E-02 
1921	 9.46528677868631E-02 
1922	 0.094660163842164 
1923	 9.46690581909042E-02 
1924	 9.46676559191175E-02 
1925	 9.46464361917829E-02 
1926	 0.094647261853319 
1927	 0.094650180971017 
1928	 9.46562870154043E-02 
1929	 9.46932778153748E-02 
1930	 9.46912642318152E-02 
1931	 9.46901371903373E-02 
1932	 9.47110738508564E-02 
1933	 9.47116685798037E-02 
1934	 9.47093200932216E-02 
1935	 9.47052929217447E-02 
1936	 9.46887467586892E-02 
1937	 9.46856458185168E-02 
1938	 9.46833672866096E-02 
1939	 9.46873651099477E-02 
1940	 9.46976779419953E-02 
1941	 9.47196508624829E-02 
1942	 9.47246494054743E-02 
1943	 9.47449367787559E-02 
1944	 9.47820037467408E-02 
1945	 9.47967138479641E-02 
1946	 9.48164313219432E-02 
1947	 9.48481114871778E-02 
1948	 9.48621818784588E-02 
1949	 9.48514151683245E-02 
1950	 9.48665040013282E-02 
1951	 9.48870990261519E-02 
1952	 0.094913919721153 
1953	 0.094951931783303 
1954	 9.49740840146509E-02 
1955	 9.49794216097293E-02 
1956	 9.50060679106024E-02 
1957	 9.50388570536778E-02 
1958	 9.50801693652926E-02 
1959	 0.095123156007007 
1960	 9.51844468702728E-02 
1961	 9.52260513052028E-02 
1962	 9.52522676059457E-02 
1963	 9.52923311971125E-02 
1964	 0.095337544494383 
1965	 0.09537795603166 
1966	 0.095415828115494 
1967	 9.54504676692864E-02 
1968	 9.54855548356291E-02 
1969	 9.55087373767263E-02 
1970	 9.55392637354116E-02 
1971	 9.55828139287173E-02 
1972	 0.095612039971746 
1973	 9.56195849529771E-02 
1974	 9.56514840389092E-02 
1975	 9.56890025696356E-02 
1976	 9.57339058010298E-02 
1977	 9.57869123034798E-02 
1978	 9.58383065123857E-02 
1979	 9.58825835154416E-02 
1980	 9.59352453780681E-02 
1981	 9.59880439647553E-02 
1982	 9.60490894889571E-02 
1983	 9.61034848632973E-02 
1984	 9.61517670230563E-02 
1985	 9.62070576848375E-02 
1986	 9.62816148244375E-02 
1987	 9.63259218602185E-02 
1988	 9.63538371379832E-02 
1989	 9.63889728655372E-02 
1990	 9.64068781699868E-02 
1991	 9.64122001616844E-02 
1992	 9.64325791956988E-02 
1993	 9.64601463908608E-02 
1994	 9.64905878949882E-02 
1995	 9.65291377218059E-02 
1996	 9.65593216965468E-02 
1997	 9.65959563703193E-02 
1998	 0.096628377301432 
1999	 9.66438262039221E-02 
2000	 0.096671570879609 
2001	 9.67066548437579E-02 
2002	 9.67403391231976E-02 
2003	 9.67842766864597E-02 
2004	 9.68343617968356E-02 
2005	 9.68873047900571E-02 
2006	 9.69451803648733E-02 
2007	 9.70126480132174E-02 
2008	 9.70900624169402E-02 
2009	 9.71600214362534E-02 
2010	 9.72468852254935E-02 
2011	 9.73142640938115E-02 
2012	 9.73670054823683E-02 
2013	 9.74205992524221E-02 
2014	 9.74721590725907E-02 
2015	 9.75070726530617E-02 
2016	 9.75516803603706E-02 
2017	 9.76016568880174E-02 
2018	 9.76411068266226E-02 
2019	 9.76768162198252E-02 
2020	 9.77128643783339E-02 
2021	 9.77364897589228E-02 
2022	 9.77742539553517E-02 
2023	 9.78156799670459E-02 
2024	 9.78663824881122E-02 
2025	 9.79317448113778E-02 
2026	 9.79885651595335E-02 
2027	 0.098044676611335 
2028	 9.81092949646017E-02 
2029	 9.81681390607735E-02 
2030	 9.82295969375796E-02 
2031	 9.82717228648438E-02 
2032	 9.83036368231858E-02 
2033	 9.83394731135008E-02 
2034	 0.098357655041613 
2035	 9.83862086128805E-02 
2036	 9.84245629389576E-02 
2037	 9.84622768288046E-02 
2038	 9.84998722181885E-02 
2039	 9.85362620374299E-02 
2040	 9.85746950452212E-02 
2041	 9.86156590431462E-02 
2042	 9.86520298054014E-02 
2043	 9.86715546923833E-02 
2044	 9.87115648857803E-02 
2045	 9.87591511024722E-02 
2046	 0.09880455391254 
2047	 9.88685602886119E-02 
2048	 9.89076866963193E-02 
2049	 9.89226537679394E-02 
2050	 9.89585460430257E-02 
2051	 9.90021480561512E-02 
2052	 9.90321749993877E-02 
2053	 9.90567128842114E-02 
2054	 0.099096394586881 
2055	 9.91421273293229E-02 
2056	 9.91702154680357E-02 
2057	 9.92018349244227E-02 
2058	 9.92479191187024E-02 
2059	 0.099287372644199 
2060	 9.93141759771174E-02 
2061	 9.93412414961286E-02 
2062	 9.93806290309527E-02 
2063	 9.94055760210874E-02 
2064	 9.94061364585159E-02 
2065	 9.94230796606345E-02 
2066	 9.94405072696554E-02 
2067	 9.94678809865645E-02 
2068	 9.95085649969956E-02 
2069	 9.95434991630443E-02 
2070	 9.95781651851436E-02 
2071	 9.96177709187582E-02 
2072	 9.96564825235566E-02 
2073	 9.96950169826471E-02 
2074	 9.97258495780794E-02 
2075	 9.97563837818231E-02 
2076	 9.97867264663522E-02 
2077	 9.98100018792167E-02 
2078	 9.98321298573893E-02 
2079	 9.98585932582585E-02 
2080	 9.98803384482743E-02 
2081	 9.98923140280005E-02 
2082	 9.99068860600898E-02 
2083	 9.99185561482719E-02 
2084	 9.99343259690367E-02 
2085	 9.99580673594965E-02 
2086	 9.99787635020879E-02 
2087	 0.100018842998348 
2088	 0.100078136849982 
2089	 0.100129898403464 
2090	 0.100199357570864 
2091	 0.100246238917046 
2092	 0.100281165787201 
2093	 0.10031713693125 
2094	 0.100347875909041 
2095	 0.100370922538405 
2096	 0.100376024263094 
2097	 0.10040111907543 
2098	 0.100429897182973 
2099	 0.100456909953087 
2100	 0.100493753173477 
2101	 0.100552196053645 
2102	 0.100598029665491 
2103	 0.100639380816356 
2104	 0.100680224301279 
2105	 0.100722749828768 
2106	 0.100763767866137 
2107	 0.100796549531763 
2108	 0.100839496759946 
2109	 0.100883258783249 
2110	 0.100937430355951 
2111	 0.101003841214403 
2112	 0.101065594947654 
2113	 0.101129665415718 
2114	 0.101205793615969 
2115	 0.101262726123203 
2116	 0.101314292608317 
2117	 0.101354899271474 
2118	 0.10137631625556 
2119	 0.101417866920251 
2120	 0.101460371878402 
2121	 0.101502829662358 
2122	 0.101555879105911 
2123	 0.101604210208218 
2124	 0.101656419083709 
2125	 0.101690938717511 
2126	 0.101722223124388 
2127	 0.101745515407889 
2128	 0.101728110263007 
2129	 0.101744834997135 
2130	 0.101782793624542 
2131	 0.101823381625843 
2132	 0.101849220161496 
2133	 0.101891159545407 
2134	 0.101903587790263 
2135	 0.101881694010839 
2136	 0.101883653505452 
2137	 0.101895583160954 
2138	 0.101891036856443 
2139	 0.101891959068025 
2140	 0.101872609834941 
2141	 0.101824710910273 
2142	 0.101788392821156 
2143	 0.101742155367108 
2144	 0.101704857775866 
2145	 0.101687731088088 
2146	 0.101651022718605 
2147	 0.101601649511779 
2148	 0.101553808642301 
2149	 0.101513874372228 
2150	 0.101470934005076 
2151	 0.101421527745116 
2152	 0.101382476506284 
2153	 0.101330929621509 
2154	 0.101254524554845 
2155	 0.101199082257542 
2156	 0.101167608916841 
2157	 0.101107103168602 
2158	 0.101027428430094 
2159	 0.100962358030327 
2160	 0.100897006559184 
2161	 0.100821964357994 
2162	 0.10074601942773 
2163	 0.100677796928657 
2164	 0.100618434387144 
2165	 0.100522842209063 
2166	 0.100447914153424 
2167	 0.100389440811504 
2168	 0.100321217997602 
2169	 0.100245061526796 
2170	 0.100169456318091 
2171	 0.100101888954186 
2172	 0.100019263818167 
2173	 9.99093528591186E-02 
2174	 9.98322652527912E-02 
2175	 9.97687000964543E-02 
2176	 9.97018214178423E-02 
2177	 9.96518055383891E-02 
2178	 9.95963611130687E-02 
2179	 9.95363268654487E-02 
2180	 9.94742787460391E-02 
2181	 9.94180513132782E-02 
2182	 9.93559748672216E-02 
2183	 9.92802559222339E-02 
2184	 9.92093983808951E-02 
2185	 9.91495649683408E-02 
2186	 9.90949246967476E-02 
2187	 0.099044319858479 
2188	 9.90134666367997E-02 
2189	 9.89571758943931E-02 
2190	 9.88895616374437E-02 
2191	 9.88260543468383E-02 
2192	 9.87543391380939E-02 
2193	 9.86807590215122E-02 
2194	 9.85941046434632E-02 
2195	 9.85331953412629E-02 
2196	 9.84692505643127E-02 
2197	 9.84279890420088E-02 
2198	 9.84359594975405E-02 
2199	 9.84166643094835E-02 
2200	 9.83958271815197E-02 
2201	 9.83682302798023E-02 
2202	 9.83133002544205E-02 
2203	 9.82712259150758E-02 
2204	 9.82588562864336E-02 
2205	 9.82655458525917E-02 
2206	 9.82601325836021E-02 
2207	 9.82780637558621E-02 
2208	 9.82783572326597E-02 
2209	 9.82648873456093E-02 
2210	 9.82527232889618E-02 
2211	 9.82462521206351E-02 
2212	 9.82287826081059E-02 
2213	 0.098191500037408 
2214	 0.098170938170718 
2215	 9.81609092296049E-02 
2216	 9.81417897296477E-02 
2217	 9.81053279443403E-02 
2218	 9.80979707686318E-02 
2219	 9.81025338613068E-02 
2220	 0.098110573744706 
2221	 9.81501317810948E-02 
2222	 9.81788948610554E-02 
2223	 9.81936822455339E-02 
2224	 9.81916573045363E-02 
2225	 9.81953249949042E-02 
2226	 0.098189642668641 
2227	 9.82002299012079E-02 
2228	 9.82165208872196E-02 
2229	 9.82273332357888E-02 
2230	 9.82489412546683E-02 
2231	 9.82560729613007E-02 
2232	 9.82413011152268E-02 
2233	 9.82569933056852E-02 
2234	 9.82809076548929E-02 
2235	 9.83060326732347E-02 
2236	 9.83593716104947E-02 
2237	 9.83891503043129E-02 
2238	 9.84027522768402E-02 
2239	 9.84263978123368E-02 
2240	 9.84453132808659E-02 
2241	 9.84642145022697E-02 
2242	 9.84807440050519E-02 
2243	 0.098509302475203 
2244	 0.098560709171912 
2245	 9.85911779672127E-02 
2246	 9.85820008897794E-02 
2247	 9.85596445044373E-02 
2248	 9.85627142643561E-02 
2249	 9.85340247780298E-02 
2250	 9.85481556380364E-02 
2251	 9.86208006034599E-02 
2252	 9.86371192552022E-02 
2253	 9.86100149056424E-02 
2254	 9.86395024255056E-02 
2255	 9.86949565421668E-02 
2256	 9.87330373837994E-02 
2257	 9.88109330665585E-02 
2258	 9.88377777646014E-02 
2259	 9.87999319690513E-02 
2260	 9.88096485835054E-02 
2261	 9.88320577779573E-02 
2262	 9.88479472199625E-02 
2263	 9.88724307620681E-02 
2264	 9.89098854349236E-02 
2265	 0.0989526208321 
2266	 9.89863596258841E-02 
2267	 9.90540596041871E-02 
2268	 9.90794557684821E-02 
2269	 9.90566949282483E-02 
2270	 9.90507898084884E-02 
2271	 9.90394900420616E-02 
2272	 9.90487493402362E-02 
2273	 9.90664481288839E-02 
2274	 9.90601196497275E-02 
2275	 9.90749715253188E-02 
2276	 0.099076551823539 
2277	 0.099111588822423 
2278	 9.91892118671434E-02 
2279	 9.92306253852791E-02 
2280	 9.92583853706709E-02 
2281	 9.93011438214168E-02 
2282	 9.93562234398092E-02 
2283	 9.93789105774979E-02 
2284	 9.93990592781739E-02 
2285	 9.94118704646554E-02 
2286	 9.93753165317165E-02 
2287	 9.93774125500544E-02 
2288	 9.93946085221702E-02 
2289	 9.94320375741824E-02 
2290	 9.95270420240933E-02 
2291	 9.95550494785997E-02 
2292	 9.95555431047181E-02 
2293	 9.95668128364199E-02 
2294	 9.95193545331281E-02 
2295	 9.95039471157498E-02 
2296	 9.95208416387584E-02 
2297	 9.95489777762447E-02 
2298	 9.95329262400717E-02 
2299	 9.95875348166585E-02 
2300	 9.96214556267899E-02 
2301	 9.96355373267035E-02 
2302	 9.97064022635496E-02 
2303	 0.099762503528294 
2304	 9.97861278423123E-02 
2305	 9.98334308360207E-02 
2306	 9.98549517289101E-02 
2307	 9.98329246714293E-02 
2308	 9.98307858716432E-02 
2309	 9.98362945483169E-02 
2310	 9.98469645514536E-02 
2311	 9.98591358360036E-02 
2312	 9.98610310230684E-02 
2313	 9.98598700024996E-02 
2314	 9.98744631868701E-02 
2315	 9.98822235960015E-02 
2316	 9.99019334238214E-02 
2317	 9.99493853106265E-02 
2318	 9.99827566165433E-02 
2319	 0.100023066706257 
2320	 0.100033268456086 
2321	 9.99929863940611E-02 
2322	 0.100027641515927 
2323	 0.100090233710403 
2324	 0.100130264182568 
2325	 0.100223399357117 
2326	 0.100290636822787 
2327	 0.100317862558999 
2328	 0.100345201651493 
2329	 0.100384490549669 
2330	 0.10043993380871 
2331	 0.100500873460818 
2332	 0.100528154605085 
2333	 0.100573623257187 
2334	 0.100610348640949 
2335	 0.100628262545014 
2336	 0.100659496044491 
2337	 0.100679495243186 
2338	 0.100676112797847 
2339	 0.100669352476163 
2340	 0.100689608803245 
2341	 0.100701810107644 
2342	 0.100759962302487 
2343	 0.100832755752376 
2344	 0.100881211334685 
2345	 0.100927631394462 
2346	 0.100982903767013 
2347	 0.10102821782391 
2348	 0.101070505817464 
2349	 0.101078039589333 
2350	 0.101082019878447 
2351	 0.101064242520085 
2352	 0.100974224133692 
2353	 0.1009486774174 
2354	 0.100942166112185 
2355	 0.100928548720741 
2356	 0.100953990888074 
2357	 0.100953936592956 
2358	 0.100944949594599 
2359	 0.100952714322683 
2360	 0.100940593050743 
2361	 0.100944714776113 
2362	 0.100947614376335 
2363	 0.100990968120881 
2364	 0.101087369527853 
2365	 0.101137423747136 
2366	 0.101198197598634 
2367	 0.10122664765137 
2368	 0.101211122322507 
2369	 0.101205568855546 
2370	 0.101183222799125 
2371	 0.101213671556621 
2372	 0.101161217764755 
2373	 0.101147066179467 
2374	 0.101201514619994 
2375	 0.101221483650682 
2376	 0.101283206125805 
2377	 0.101347300423532 
2378	 0.101341713460588 
2379	 0.101310203218991 
2380	 0.101269282441343 
2381	 0.10123963272189 
2382	 0.101274752733252 
2383	 0.101284530099793 
2384	 0.101227652582001 
2385	 0.101210324365073 
2386	 0.101252232406348 
2387	 0.101281797416962 
2388	 0.10135096669114 
2389	 0.101393756393739 
2390	 0.101359716828602 
2391	 0.101390686663456 
2392	 0.101373055413854 
2393	 0.101333827954469 
2394	 0.101375344031647 
2395	 0.10132840646465 
2396	 0.101292305614269 
2397	 0.101354626877502 
2398	 0.101346053095298 
2399	 0.101257789690556 
2400	 0.101256907467067 
2401	 0.101284923754373 
2402	 0.101235839535031 
2403	 0.10132892737738 
2404	 0.101443688602172 
2405	 0.101420283360533 
2406	 0.101450880713885 
2407	 0.101434204202815 
2408	 0.101329119736805 
2409	 0.101263522207231 
2410	 0.101284288227452 
2411	 0.101306065509246 
2412	 0.101309828804872 
2413	 0.10136869704158 
2414	 0.10128780458921 
2415	 0.10115188689433 
2416	 0.101110371857022 
2417	 0.101069250139962 
2418	 0.101086723291565 
2419	 0.101256549013819 
2420	 0.101241919495707 
2421	 0.101109163498199 
2422	 0.101112206631979 
2423	 0.101115761200444 
2424	 0.101123949612756 
2425	 0.101256112680964 
2426	 0.101260060513197 
2427	 0.101123614955715 
2428	 0.101059441239785 
2429	 0.101043744193422 
2430	 0.100977492351831 
2431	 0.1008640369675 
2432	 0.100825544190634 
2433	 0.100774579041567 
2434	 0.100765293422016 
2435	 0.100844875966431 
2436	 0.100821510160224 
2437	 0.100774548311535 
2438	 0.100760910433235 
2439	 0.100702321938664 
2440	 0.100682475800123 
2441	 0.100759853884022 
2442	 0.100727914909337 
2443	 0.100586872729775 
2444	 0.100572709468622 
2445	 0.100561088404351 
2446	 0.100527547950734 
2447	 0.100608926354865 
2448	 0.100595116268002 
2449	 0.100454172095593 
2450	 0.100446253208753 
2451	 0.100496440633631 
2452	 0.100424215359487 
2453	 0.100403679487414 
2454	 0.100344528514115 
2455	 0.100116344235251 
2456	 0.100021522252393 
2457	 9.99742313804564E-02 
2458	 0.100014471162357 
2459	 0.100180236564697 
2460	 0.100249557281476 
2461	 0.100370185848004 
2462	 0.100350132111065 
2463	 0.100202578229698 
2464	 0.100128594781678 
2465	 0.100007575423734 
2466	 9.99986393517754E-02 
2467	 0.100073219959255 
2468	 9.99959430417504E-02 
2469	 9.99054916725791E-02 
2470	 9.97732774617555E-02 
2471	 9.96728127844081E-02 
2472	 9.96689238556306E-02 
2473	 9.95535938876966E-02 
2474	 9.94952697857328E-02 
2475	 9.94910739288579E-02 
2476	 9.94101480466092E-02 
2477	 9.96558492622499E-02 
2478	 9.99431018528701E-02 
2479	 9.99144846154511E-02 
2480	 9.98477722677719E-02 
2481	 9.98083410665207E-02 
2482	 9.96687511119698E-02 
2483	 9.95699845221161E-02 
2484	 9.97395358989233E-02 
2485	 9.98632363303318E-02 
2486	 9.97922332593784E-02 
2487	 9.98274743599382E-02 
2488	 9.97777137728998E-02 
2489	 9.96909122792761E-02 
2490	 9.98220099142268E-02 
2491	 0.099855170966367 
2492	 0.099816725313692 
2493	 9.98315141198513E-02 
2494	 9.97130247270437E-02 
2495	 9.96932240363965E-02 
2496	 9.98243892325864E-02 
2497	 9.96549758119651E-02 
2498	 9.93431158159245E-02 
2499	 9.91414252701864E-02 
2500	 9.89752252837502E-02 
