Wavelength	LMW_1900007.asd
350	 4.79202030452351E-02 
351	 0.043546046118946 
352	 4.11676369871323E-02 
353	 4.25413030974272E-02 
354	 4.75278018280821E-02 
355	 4.94853930139851E-02 
356	 5.07867911926931E-02 
357	 5.41765389238925E-02 
358	 5.51879995539694E-02 
359	 4.92862691424883E-02 
360	 4.20197552055285E-02 
361	 4.40186295413393E-02 
362	 4.69699927506458E-02 
363	 4.74515737599737E-02 
364	 4.66348157409734E-02 
365	 5.24564466019858E-02 
366	 4.66293328156647E-02 
367	 4.01559013109185E-02 
368	 4.59338104255395E-02 
369	 5.22538844682344E-02 
370	 5.35965765809051E-02 
371	 5.08840521336799E-02 
372	 4.93103442450509E-02 
373	 4.89456856188482E-02 
374	 0.05045632709727 
375	 5.29936885559535E-02 
376	 5.32525902401971E-02 
377	 5.22550073523081E-02 
378	 5.31935085988312E-02 
379	 5.74146654170025E-02 
380	 5.62840180761452E-02 
381	 5.38301569715901E-02 
382	 5.29408483729808E-02 
383	 5.48566021905095E-02 
384	 5.65972174279255E-02 
385	 5.52110582890629E-02 
386	 5.20384690746569E-02 
387	 5.65485106811261E-02 
388	 5.93264966143734E-02 
389	 5.88876961084773E-02 
390	 5.71387223439732E-02 
391	 5.88307548240616E-02 
392	 5.96935509790625E-02 
393	 5.94484744568367E-02 
394	 6.12427261461784E-02 
395	 6.12365197121038E-02 
396	 0.061344680748896 
397	 0.062927487798687 
398	 6.43112756575301E-02 
399	 6.49038107082042E-02 
400	 6.54513093012931E-02 
401	 6.65794529428795E-02 
402	 6.47130636420539E-02 
403	 6.46685609634086E-02 
404	 0.066594081093754 
405	 0.06571432223295 
406	 6.56527049613179E-02 
407	 6.67070072097312E-02 
408	 6.79732764585644E-02 
409	 6.71273297714691E-02 
410	 6.68112870896489E-02 
411	 6.71998775633711E-02 
412	 6.73901008678912E-02 
413	 6.79142663092094E-02 
414	 6.85295409928536E-02 
415	 6.90607072464431E-02 
416	 0.06950859935068 
417	 6.93477114678344E-02 
418	 6.92579028235109E-02 
419	 6.98549289160336E-02 
420	 7.06799771369659E-02 
421	 7.06167612497158E-02 
422	 7.01211822499579E-02 
423	 7.05238444526118E-02 
424	 0.070897661323112 
425	 7.10756803714537E-02 
426	 7.12966493516454E-02 
427	 7.24891679955771E-02 
428	 7.25181784739737E-02 
429	 7.20656638490694E-02 
430	 7.23900082049343E-02 
431	 7.26210010547054E-02 
432	 7.28679851637284E-02 
433	 7.31010227429551E-02 
434	 7.31368296949272E-02 
435	 7.35775647436057E-02 
436	 7.40094835308206E-02 
437	 7.40529356748886E-02 
438	 7.38374660166039E-02 
439	 7.42714797260288E-02 
440	 7.48649487773814E-02 
441	 7.46400434232234E-02 
442	 7.49321441311431E-02 
443	 7.53434090858658E-02 
444	 7.55095226199602E-02 
445	 0.075355616838588 
446	 0.075581753752525 
447	 7.59235391719195E-02 
448	 7.60105146584172E-02 
449	 7.63561401472836E-02 
450	 7.65597965810776E-02 
451	 0.076721624619876 
452	 7.73262042798089E-02 
453	 7.75109962307585E-02 
454	 7.74532243059852E-02 
455	 7.74870048198104E-02 
456	 7.78925878237534E-02 
457	 7.80918159872552E-02 
458	 7.81074203300617E-02 
459	 7.82428499271704E-02 
460	 0.078625864419948 
461	 0.078855181182508 
462	 7.88366243487428E-02 
463	 7.89604808082959E-02 
464	 7.91706787839105E-02 
465	 7.94371195217684E-02 
466	 7.97204813371862E-02 
467	 8.00069576650903E-02 
468	 8.00405983952125E-02 
469	 7.99100597906008E-02 
470	 7.99826830175814E-02 
471	 8.03932211977474E-02 
472	 8.07204133124382E-02 
473	 8.07459460568394E-02 
474	 8.09300656287238E-02 
475	 8.12532202228718E-02 
476	 0.081480848805283 
477	 8.13686331083065E-02 
478	 8.13848935069316E-02 
479	 8.17151633871219E-02 
480	 8.21310748152288E-02 
481	 8.18696958962806E-02 
482	 8.22047302581878E-02 
483	 8.27037552644946E-02 
484	 8.27575619981445E-02 
485	 0.083132067404199 
486	 8.32328328872404E-02 
487	 8.30264040807275E-02 
488	 8.29708963539908E-02 
489	 8.32552495854663E-02 
490	 0.083492479757856 
491	 8.34722906576904E-02 
492	 0.083697234655841 
493	 8.37673836726648E-02 
494	 8.37518749383179E-02 
495	 8.39072874694098E-02 
496	 8.41323451077578E-02 
497	 8.42889957651757E-02 
498	 8.43636157822419E-02 
499	 8.45259982421688E-02 
500	 8.47459033095874E-02 
501	 8.49132438992621E-02 
502	 8.49539937836254E-02 
503	 8.50731601581775E-02 
504	 0.085140236860212 
505	 8.51650347093073E-02 
506	 8.52872559998565E-02 
507	 8.54243172640483E-02 
508	 8.55501497498348E-02 
509	 8.56217073788237E-02 
510	 0.085485349001423 
511	 8.55305997354795E-02 
512	 8.57338386080463E-02 
513	 8.58686163178785E-02 
514	 8.61215278206575E-02 
515	 8.62614756715391E-02 
516	 8.62089874856679E-02 
517	 8.62012076663339E-02 
518	 8.62474730124329E-02 
519	 8.63211989719683E-02 
520	 8.64030509865875E-02 
521	 8.66448566205659E-02 
522	 8.67843777921134E-02 
523	 0.086806471156308 
524	 8.69684674000279E-02 
525	 8.69478123514835E-02 
526	 8.69605826158698E-02 
527	 8.71710829581219E-02 
528	 8.71998676096865E-02 
529	 8.72238291159881E-02 
530	 8.72995306264381E-02 
531	 8.73920000274108E-02 
532	 8.73646660165131E-02 
533	 8.74214048905085E-02 
534	 8.76314673058495E-02 
535	 8.76838666942446E-02 
536	 8.77618528506871E-02 
537	 8.78555938570889E-02 
538	 8.78981994303347E-02 
539	 8.79446387725371E-02 
540	 8.79901989120391E-02 
541	 8.80626521218582E-02 
542	 8.82442470929823E-02 
543	 8.82408702763935E-02 
544	 8.82287032289984E-02 
545	 0.088409737130241 
546	 8.85451345952838E-02 
547	 8.86216711546867E-02 
548	 8.86422115383723E-02 
549	 8.86254485297121E-02 
550	 8.87133207424969E-02 
551	 8.87961502179757E-02 
552	 8.88073514223606E-02 
553	 8.89277438656706E-02 
554	 8.89950458484431E-02 
555	 8.90379806177883E-02 
556	 8.91703643220266E-02 
557	 0.089302939841578 
558	 8.94213542110804E-02 
559	 8.95381810553196E-02 
560	 8.97058214964404E-02 
561	 8.97777244626015E-02 
562	 8.97901448550148E-02 
563	 8.98392139397271E-02 
564	 8.99652494284084E-02 
565	 8.99855499681277E-02 
566	 8.99216946645091E-02 
567	 9.00308337102268E-02 
568	 9.01607697834021E-02 
569	 9.03058664050323E-02 
570	 0.09046551802471 
571	 9.05454508672073E-02 
572	 9.06248122010443E-02 
573	 9.07181878569526E-02 
574	 9.07953446911956E-02 
575	 9.08886419862362E-02 
576	 9.09905923015628E-02 
577	 0.091078519992767 
578	 9.11100845253329E-02 
579	 9.11021507835616E-02 
580	 0.091094800065643 
581	 9.11190874772114E-02 
582	 9.10475523968524E-02 
583	 9.10256841258833E-02 
584	 9.11002614980734E-02 
585	 9.11449665409528E-02 
586	 9.12958313057658E-02 
587	 9.14517494516899E-02 
588	 9.14928546310483E-02 
589	 9.15258766460902E-02 
590	 9.16114107966268E-02 
591	 9.17344550444033E-02 
592	 9.18172445241071E-02 
593	 9.19440711466014E-02 
594	 9.20968902710055E-02 
595	 9.22298506136211E-02 
596	 9.22789098556723E-02 
597	 9.22878687283754E-02 
598	 9.22787940212882E-02 
599	 0.092265977885032 
600	 9.22978671416653E-02 
601	 9.23247114720569E-02 
602	 9.23159257232351E-02 
603	 9.22880910227356E-02 
604	 0.092349290896677 
605	 0.092432353215863 
606	 9.24364288332228E-02 
607	 9.24626253115619E-02 
608	 9.25188705029029E-02 
609	 9.26106928537696E-02 
610	 9.27450626426071E-02 
611	 9.27736657297931E-02 
612	 9.27731166707494E-02 
613	 9.28333992697786E-02 
614	 9.28943299116212E-02 
615	 0.092892300323462 
616	 9.28755362396748E-02 
617	 9.29549314788389E-02 
618	 9.29680749803599E-02 
619	 9.29922514286671E-02 
620	 9.30781003424683E-02 
621	 9.31479419931288E-02 
622	 9.31801876206174E-02 
623	 9.31783731023792E-02 
624	 9.31661558359302E-02 
625	 9.31879677810558E-02 
626	 9.32260235756223E-02 
627	 9.32716132839078E-02 
628	 9.33359753970625E-02 
629	 0.09339387840154 
630	 9.34358299383124E-02 
631	 9.34605279871508E-02 
632	 9.34724412228956E-02 
633	 9.35015559225492E-02 
634	 9.35494160772257E-02 
635	 9.35942476292492E-02 
636	 9.36479840985747E-02 
637	 9.36749851520157E-02 
638	 9.36740710496761E-02 
639	 9.37528987580371E-02 
640	 9.37883288059424E-02 
641	 0.093801522286361 
642	 9.38679790766728E-02 
643	 9.39234463105559E-02 
644	 9.39785948065646E-02 
645	 9.40248302617438E-02 
646	 0.094014268421828 
647	 9.40319794236681E-02 
648	 9.40758163160134E-02 
649	 9.41164337072452E-02 
650	 9.41287729565539E-02 
651	 9.41638436299446E-02 
652	 0.094225372997738 
653	 9.42758698687663E-02 
654	 9.43479949391992E-02 
655	 9.43781176133538E-02 
656	 9.43486389018146E-02 
657	 0.09439105511264 
658	 0.094493123635432 
659	 9.45936763398831E-02 
660	 9.46193881452828E-02 
661	 9.46326240554456E-02 
662	 9.46687252785453E-02 
663	 9.47368663894481E-02 
664	 9.48151886283264E-02 
665	 0.094835728677069 
666	 9.48362897956834E-02 
667	 9.48711042718176E-02 
668	 9.49148149812416E-02 
669	 9.49750615629901E-02 
670	 9.50308744623881E-02 
671	 9.50433608303083E-02 
672	 9.50888720822944E-02 
673	 0.095136963889728 
674	 9.51727926895334E-02 
675	 9.52738216008324E-02 
676	 9.53148216464571E-02 
677	 9.53108137689141E-02 
678	 9.53341233681898E-02 
679	 9.53745840551611E-02 
680	 9.54177038593173E-02 
681	 9.54491689863299E-02 
682	 9.54560928556157E-02 
683	 0.095510265285783 
684	 0.095573997394213 
685	 9.56022539012762E-02 
686	 9.56310330747172E-02 
687	 9.57044848175033E-02 
688	 9.57824440435692E-02 
689	 9.57748694090313E-02 
690	 9.57649297333145E-02 
691	 0.09575099273483 
692	 9.57477971934789E-02 
693	 0.095834720943167 
694	 9.59058209747367E-02 
695	 9.59170904298109E-02 
696	 9.58762288726864E-02 
697	 9.59233653980029E-02 
698	 9.59864800963772E-02 
699	 9.60207315108959E-02 
700	 9.60260204766368E-02 
701	 9.60424513081557E-02 
702	 9.60722024626166E-02 
703	 9.60971706162801E-02 
704	 9.60597034145283E-02 
705	 9.60878013754164E-02 
706	 9.61435884655362E-02 
707	 9.61211653094673E-02 
708	 9.61426767508033E-02 
709	 9.61842704051062E-02 
710	 9.62224183189684E-02 
711	 0.096256463211379 
712	 9.63046380062411E-02 
713	 9.63227965260404E-02 
714	 9.62909304864192E-02 
715	 9.63490458673038E-02 
716	 9.63792336909391E-02 
717	 9.63663367832831E-02 
718	 9.63712312257596E-02 
719	 9.63644183909403E-02 
720	 9.63554388136723E-02 
721	 0.096354180513039 
722	 9.63626165520022E-02 
723	 9.63619089606046E-02 
724	 9.63745170249381E-02 
725	 9.64123938892133E-02 
726	 9.63517729480536E-02 
727	 9.63671439946706E-02 
728	 9.64575651826084E-02 
729	 9.64547889352808E-02 
730	 9.64499256662536E-02 
731	 9.64438820696935E-02 
732	 9.64328255003648E-02 
733	 0.096441326550949 
734	 9.64239996779152E-02 
735	 9.63954554140905E-02 
736	 9.63865963995043E-02 
737	 9.63578589826351E-02 
738	 9.63357674228579E-02 
739	 9.63338912641566E-02 
740	 9.63457616609563E-02 
741	 9.63513911256268E-02 
742	 9.63395335377121E-02 
743	 9.63125048468568E-02 
744	 9.62981144550129E-02 
745	 9.63017601187385E-02 
746	 9.63183062227163E-02 
747	 9.63287124813784E-02 
748	 0.096264099189964 
749	 0.096224222777429 
750	 9.62367824779737E-02 
751	 9.62251070959374E-02 
752	 9.62026886720567E-02 
753	 0.096180754547251 
754	 9.61624781508694E-02 
755	 9.61197184324324E-02 
756	 9.61139580696253E-02 
757	 9.61194540496657E-02 
758	 0.096080278626984 
759	 9.60861198106822E-02 
760	 9.60698512696402E-02 
761	 9.60192893850096E-02 
762	 0.096007242452514 
763	 9.60083008496643E-02 
764	 9.60148156595343E-02 
765	 9.60168982742231E-02 
766	 9.59857458221547E-02 
767	 9.59757915866678E-02 
768	 9.59828433338291E-02 
769	 9.59735649809592E-02 
770	 9.59454500575616E-02 
771	 9.59263421909845E-02 
772	 9.59155673674035E-02 
773	 0.095877013924999 
774	 9.58908924004845E-02 
775	 9.59032292991164E-02 
776	 9.58628749461975E-02 
777	 9.58084866967086E-02 
778	 9.57534513766079E-02 
779	 9.57353231092985E-02 
780	 9.57782828177818E-02 
781	 9.57708594411438E-02 
782	 9.57553600343016E-02 
783	 9.57355525848029E-02 
784	 9.56677429855981E-02 
785	 9.56748340857425E-02 
786	 0.095697395149541 
787	 9.56707975244874E-02 
788	 9.55959370947689E-02 
789	 9.56008959345324E-02 
790	 9.56296250887081E-02 
791	 9.55824067293902E-02 
792	 9.55488072853342E-02 
793	 9.55111502051825E-02 
794	 9.54807561864088E-02 
795	 9.54900224560081E-02 
796	 9.54564628395097E-02 
797	 9.54235728411513E-02 
798	 9.54219828503131E-02 
799	 9.54225741626491E-02 
800	 9.54070243848477E-02 
801	 9.53840113621519E-02 
802	 9.53655478743853E-02 
803	 9.53359712918765E-02 
804	 9.53035609179445E-02 
805	 9.52898198679464E-02 
806	 9.53131437676278E-02 
807	 9.53070946614354E-02 
808	 9.52615828655757E-02 
809	 9.52046305907214E-02 
810	 9.52009797624104E-02 
811	 9.52171888573552E-02 
812	 9.52059865904417E-02 
813	 0.095158789313943 
814	 9.51830979395644E-02 
815	 9.51665356601645E-02 
816	 9.51124115016908E-02 
817	 9.50744062675287E-02 
818	 9.50907955906413E-02 
819	 9.50943898327904E-02 
820	 9.50477899020316E-02 
821	 9.49569260949008E-02 
822	 9.49340947496328E-02 
823	 9.49499739061694E-02 
824	 9.49652286732232E-02 
825	 9.49649879208462E-02 
826	 0.094941392004142 
827	 9.49268035432073E-02 
828	 9.49398081879209E-02 
829	 9.49172135954015E-02 
830	 9.49049298306809E-02 
831	 9.48981680760501E-02 
832	 9.48715403559267E-02 
833	 9.48332978410976E-02 
834	 9.48413031824006E-02 
835	 0.094867495541893 
836	 9.48133613708782E-02 
837	 9.47963846342629E-02 
838	 9.48178601412056E-02 
839	 9.48295057008616E-02 
840	 9.47330460238298E-02 
841	 9.47045473074777E-02 
842	 9.47204438847203E-02 
843	 9.47168197994649E-02 
844	 9.46898774608628E-02 
845	 9.47098357438834E-02 
846	 9.47433782567835E-02 
847	 9.47271358777997E-02 
848	 9.47387669391313E-02 
849	 9.47248239793917E-02 
850	 9.46716009013671E-02 
851	 9.46124124108757E-02 
852	 9.46239338875909E-02 
853	 9.46634150865482E-02 
854	 0.094671898123584 
855	 9.45997552440499E-02 
856	 9.45864538765872E-02 
857	 9.46195361346474E-02 
858	 9.46451519984955E-02 
859	 0.094602343591844 
860	 9.45908014036142E-02 
861	 9.45992488008233E-02 
862	 9.45832276695914E-02 
863	 0.09454293928517 
864	 9.45393069381014E-02 
865	 9.45622320347379E-02 
866	 9.45646427803011E-02 
867	 0.094596288872601 
868	 9.45906944702915E-02 
869	 9.45492199211316E-02 
870	 9.45469582609495E-02 
871	 9.45547237870089E-02 
872	 9.45481078436692E-02 
873	 9.45289898654138E-02 
874	 9.45396616752803E-02 
875	 9.45419449115192E-02 
876	 9.45327100537055E-02 
877	 9.45084239019598E-02 
878	 9.44263580081248E-02 
879	 0.094472294705975 
880	 9.45608429179289E-02 
881	 9.45531377198265E-02 
882	 9.45352416196948E-02 
883	 9.45171333131611E-02 
884	 9.44901923981282E-02 
885	 9.44452517306389E-02 
886	 9.44375506230633E-02 
887	 0.09444186927515 
888	 9.44535028101369E-02 
889	 9.44838065698055E-02 
890	 9.44783104663469E-02 
891	 0.094429559218986 
892	 9.43838395532488E-02 
893	 9.44319800569166E-02 
894	 9.44194825296376E-02 
895	 9.44101049134604E-02 
896	 9.44478574070513E-02 
897	 9.44630865407693E-02 
898	 9.45242368233545E-02 
899	 9.45417111287472E-02 
900	 9.44741635747566E-02 
901	 9.45164679852859E-02 
902	 9.45236388820096E-02 
903	 9.44764987162776E-02 
904	 9.44225830099871E-02 
905	 9.44832050975941E-02 
906	 9.45157376381541E-02 
907	 9.45002838327764E-02 
908	 9.44902043878938E-02 
909	 9.45641733582374E-02 
910	 9.45284202546834E-02 
911	 9.44674893298612E-02 
912	 9.45881279176334E-02 
913	 9.45341131499668E-02 
914	 0.094487607467983 
915	 0.094515430624627 
916	 9.45413127475187E-02 
917	 9.45736829877691E-02 
918	 0.094590158618566 
919	 0.094585091339905 
920	 9.45766566334201E-02 
921	 9.45909593386168E-02 
922	 9.46422964060854E-02 
923	 9.46897415576252E-02 
924	 9.46287504023497E-02 
925	 0.094588651866905 
926	 9.45858613241232E-02 
927	 9.45869613298849E-02 
928	 9.45177547637569E-02 
929	 9.45838738873262E-02 
930	 9.46445058929322E-02 
931	 9.45783077254762E-02 
932	 9.45111296368545E-02 
933	 9.46116460370341E-02 
934	 9.47175856335306E-02 
935	 0.094686025585192 
936	 9.47470291178793E-02 
937	 9.47066922220525E-02 
938	 9.46413677924378E-02 
939	 9.46745913195673E-02 
940	 9.47750929075644E-02 
941	 9.47589429290112E-02 
942	 9.47485946693728E-02 
943	 9.48805144078189E-02 
944	 9.48292308796055E-02 
945	 9.47540810449033E-02 
946	 9.47081521436104E-02 
947	 9.46892696071262E-02 
948	 9.47009575847971E-02 
949	 9.47251249480921E-02 
950	 9.47680323552357E-02 
951	 9.48331004397078E-02 
952	 9.48512736973594E-02 
953	 9.48332867248462E-02 
954	 9.47897006671227E-02 
955	 9.47501438447338E-02 
956	 9.48518653047735E-02 
957	 9.48822755152922E-02 
958	 9.48237100485854E-02 
959	 9.47936711225785E-02 
960	 9.48400791616728E-02 
961	 9.48748311269328E-02 
962	 9.48825633264606E-02 
963	 9.48934124929391E-02 
964	 9.48404548523389E-02 
965	 9.49321242746645E-02 
966	 0.095068926301543 
967	 9.50112380402587E-02 
968	 9.50788936040158E-02 
969	 9.50402418540357E-02 
970	 9.49092632866507E-02 
971	 9.48698654398873E-02 
972	 9.48824247738139E-02 
973	 9.49181103346745E-02 
974	 9.49395711127809E-02 
975	 9.49225279199244E-02 
976	 9.49332307148965E-02 
977	 0.094893162380891 
978	 9.49054973456301E-02 
979	 9.51000578388911E-02 
980	 9.50487406771085E-02 
981	 9.50948645150929E-02 
982	 9.51515456368862E-02 
983	 9.49612451494845E-02 
984	 9.50102507970503E-02 
985	 9.50640149997502E-02 
986	 9.50133035252878E-02 
987	 9.49084705618179E-02 
988	 9.50600395114181E-02 
989	 9.50060797256713E-02 
990	 9.48823754914762E-02 
991	 9.50224264921119E-02 
992	 9.50609806795343E-02 
993	 9.50585115450227E-02 
994	 9.50490602341248E-02 
995	 9.50435596292849E-02 
996	 9.50040853839285E-02 
997	 0.095144406982611 
998	 0.095274347897519 
999	 9.51898396284236E-02 
1000	 9.52295994534558E-02 
1001	 0.094461331478006 
1002	 9.45099217057687E-02 
1003	 0.094497182478513 
1004	 9.44748100563087E-02 
1005	 9.44347406994418E-02 
1006	 9.44551600257235E-02 
1007	 9.44859018571199E-02 
1008	 9.44847852639437E-02 
1009	 9.45395961165284E-02 
1010	 9.45240007433369E-02 
1011	 9.45156594272178E-02 
1012	 9.45397719037244E-02 
1013	 9.45178957848621E-02 
1014	 9.45371697315835E-02 
1015	 9.45406020445567E-02 
1016	 9.44795559153327E-02 
1017	 9.44496340054793E-02 
1018	 9.44482676649928E-02 
1019	 9.44450207146158E-02 
1020	 0.094397266178958 
1021	 9.44063917977805E-02 
1022	 9.44606547485557E-02 
1023	 9.44842745494374E-02 
1024	 9.44784893260569E-02 
1025	 0.094467535889588 
1026	 9.44242504797581E-02 
1027	 9.43801996598238E-02 
1028	 9.44033277495377E-02 
1029	 9.44534158176316E-02 
1030	 9.45026170894324E-02 
1031	 9.45209449973713E-02 
1032	 9.45405126692623E-02 
1033	 9.45044133778123E-02 
1034	 9.44543253537885E-02 
1035	 9.44220306772813E-02 
1036	 9.43849927165015E-02 
1037	 9.43941081596331E-02 
1038	 9.44084059403565E-02 
1039	 9.43815573503132E-02 
1040	 9.43697638585942E-02 
1041	 9.43676108298953E-02 
1042	 9.44017353190203E-02 
1043	 9.44394592320698E-02 
1044	 9.44543003580828E-02 
1045	 0.094468817820531 
1046	 9.44909780459235E-02 
1047	 9.44837364121011E-02 
1048	 9.44891276315775E-02 
1049	 9.45197502937435E-02 
1050	 9.45073964952677E-02 
1051	 9.45039226087423E-02 
1052	 9.45199465212404E-02 
1053	 9.45291130429146E-02 
1054	 0.094568666781433 
1055	 9.45822347725739E-02 
1056	 9.45726058207912E-02 
1057	 9.45955080643438E-02 
1058	 9.46480092852528E-02 
1059	 9.46790036280183E-02 
1060	 9.47235672160756E-02 
1061	 0.094746209127998 
1062	 9.47582235198481E-02 
1063	 9.47373056902168E-02 
1064	 0.094702576730905 
1065	 9.47154808552414E-02 
1066	 9.47361327771983E-02 
1067	 9.47444803014018E-02 
1068	 9.47455468799581E-02 
1069	 9.47521024873582E-02 
1070	 9.47709970305502E-02 
1071	 9.47899054557901E-02 
1072	 9.47906665538825E-02 
1073	 9.47939441151786E-02 
1074	 9.48069465162228E-02 
1075	 9.48080258271429E-02 
1076	 9.48159753522202E-02 
1077	 9.48051564162871E-02 
1078	 9.48182950069443E-02 
1079	 9.47880173536781E-02 
1080	 9.47573586111674E-02 
1081	 9.48140445753586E-02 
1082	 9.48371694266248E-02 
1083	 9.48239222634464E-02 
1084	 9.47921206980273E-02 
1085	 0.094763203341727 
1086	 9.46765469952977E-02 
1087	 0.094653300839177 
1088	 9.46612648792551E-02 
1089	 9.46806570035268E-02 
1090	 0.094695772017611 
1091	 9.47135940115248E-02 
1092	 9.47423144001548E-02 
1093	 9.47487516230214E-02 
1094	 9.47593701162132E-02 
1095	 9.47964202590321E-02 
1096	 9.47957703094523E-02 
1097	 9.47807054460835E-02 
1098	 9.47801692821737E-02 
1099	 9.47726221991705E-02 
1100	 0.094774590367092 
1101	 0.094791381039405 
1102	 9.47990164591013E-02 
1103	 9.48192941462725E-02 
1104	 9.48139808900376E-02 
1105	 9.47555822439117E-02 
1106	 0.09476473850304 
1107	 9.48123356668474E-02 
1108	 9.48264223800579E-02 
1109	 9.48520694049139E-02 
1110	 0.094891810276137 
1111	 9.49123747461582E-02 
1112	 9.48909489936411E-02 
1113	 9.48997987572835E-02 
1114	 9.49310119589623E-02 
1115	 9.49426806010899E-02 
1116	 9.49331733738963E-02 
1117	 9.49519238023723E-02 
1118	 9.49850709165203E-02 
1119	 9.50129660523094E-02 
1120	 9.50618415505056E-02 
1121	 9.51029341961762E-02 
1122	 9.51106536581255E-02 
1123	 9.51302322474013E-02 
1124	 9.51479874597348E-02 
1125	 9.51500738979559E-02 
1126	 9.51739311055224E-02 
1127	 9.52185998872516E-02 
1128	 9.52436482671644E-02 
1129	 9.52539633181104E-02 
1130	 9.52838417387912E-02 
1131	 9.53241345873642E-02 
1132	 9.53578450509829E-02 
1133	 9.54087400510487E-02 
1134	 9.54465065734558E-02 
1135	 9.54763730017094E-02 
1136	 9.54838552027326E-02 
1137	 9.55075859723592E-02 
1138	 9.55245250174257E-02 
1139	 0.09554781066213 
1140	 9.55776920848041E-02 
1141	 9.55984755851546E-02 
1142	 9.56201179177978E-02 
1143	 9.56358846676998E-02 
1144	 9.56404246290041E-02 
1145	 9.56534388576709E-02 
1146	 9.56644680749726E-02 
1147	 9.56794169900997E-02 
1148	 9.56942869470613E-02 
1149	 0.095717704013841 
1150	 9.57453995505073E-02 
1151	 9.57838394196625E-02 
1152	 0.095816619209763 
1153	 0.095838824914404 
1154	 9.58529724430177E-02 
1155	 0.09584564491623 
1156	 9.58563052547131E-02 
1157	 9.58728923915878E-02 
1158	 9.58856153852489E-02 
1159	 9.58985305633229E-02 
1160	 9.59138849941449E-02 
1161	 9.59317367151733E-02 
1162	 9.59423998212518E-02 
1163	 9.59529141519738E-02 
1164	 9.59633946852545E-02 
1165	 9.59707103242056E-02 
1166	 9.59718312816684E-02 
1167	 9.59739912017662E-02 
1168	 9.59917024362831E-02 
1169	 9.60060195138962E-02 
1170	 9.60206491245317E-02 
1171	 9.60391514845245E-02 
1172	 9.60673510623243E-02 
1173	 9.60826925230595E-02 
1174	 9.60892270887679E-02 
1175	 9.61062027170833E-02 
1176	 9.61205572720068E-02 
1177	 9.61411543664999E-02 
1178	 0.09617455237902 
1179	 9.62013061996413E-02 
1180	 9.62204712120161E-02 
1181	 9.62465639973451E-02 
1182	 9.62689942893628E-02 
1183	 9.63067758022238E-02 
1184	 9.63430030855564E-02 
1185	 9.63898402484304E-02 
1186	 9.64235352048348E-02 
1187	 9.64574952447802E-02 
1188	 9.64837868526927E-02 
1189	 9.65028853738313E-02 
1190	 9.65191969753428E-02 
1191	 9.65311084264989E-02 
1192	 9.65407872097673E-02 
1193	 9.65364744204466E-02 
1194	 9.65480315611955E-02 
1195	 9.65640988466384E-02 
1196	 0.096583018494408 
1197	 9.66077969325833E-02 
1198	 9.66395733893041E-02 
1199	 9.66761691369254E-02 
1200	 9.67241580478708E-02 
1201	 9.67464286831484E-02 
1202	 9.67621316201414E-02 
1203	 9.67853019854856E-02 
1204	 9.67924813688515E-02 
1205	 9.68113809321761E-02 
1206	 0.096839866666065 
1207	 9.68755920145769E-02 
1208	 9.69221818998764E-02 
1209	 9.69504809600277E-02 
1210	 9.69790934255652E-02 
1211	 9.70106039636339E-02 
1212	 9.70260817372341E-02 
1213	 9.70464897756388E-02 
1214	 9.70797103388307E-02 
1215	 9.71103384857916E-02 
1216	 9.71386655550934E-02 
1217	 9.71638623428102E-02 
1218	 0.097177140389737 
1219	 9.71799756024553E-02 
1220	 9.72023918303837E-02 
1221	 9.72204946700839E-02 
1222	 9.72433732676873E-02 
1223	 0.097294797535697 
1224	 9.73184329102083E-02 
1225	 0.09731248021836 
1226	 0.09733037456149 
1227	 9.73536075811905E-02 
1228	 9.73765967617436E-02 
1229	 9.74205756749388E-02 
1230	 9.74458013542407E-02 
1231	 9.74481278893616E-02 
1232	 9.74657249988828E-02 
1233	 9.74859411119436E-02 
1234	 9.75028522216101E-02 
1235	 9.75255034036043E-02 
1236	 9.75573590142328E-02 
1237	 9.75905136521113E-02 
1238	 0.097628772332712 
1239	 9.76563413429511E-02 
1240	 9.76950330274521E-02 
1241	 9.77111660075529E-02 
1242	 9.76926056877651E-02 
1243	 9.77036985395392E-02 
1244	 9.77139334087491E-02 
1245	 9.77373923261231E-02 
1246	 9.77964565650676E-02 
1247	 9.78292374913215E-02 
1248	 9.78619283300185E-02 
1249	 9.78754997810912E-02 
1250	 9.78708720233984E-02 
1251	 9.78829432872558E-02 
1252	 9.79066782818461E-02 
1253	 9.79442107105814E-02 
1254	 9.79700241999571E-02 
1255	 9.80091843757775E-02 
1256	 9.80303272954594E-02 
1257	 9.80333748096941E-02 
1258	 9.80449463823863E-02 
1259	 9.80486094782813E-02 
1260	 9.80666959078734E-02 
1261	 0.098103545764932 
1262	 9.81191485508864E-02 
1263	 9.81295578205359E-02 
1264	 9.81417140856662E-02 
1265	 9.81358432857771E-02 
1266	 9.81401696963344E-02 
1267	 9.81507104057035E-02 
1268	 9.81719987558431E-02 
1269	 9.81899262758013E-02 
1270	 0.09820686927606 
1271	 9.82262100818637E-02 
1272	 9.82517756134176E-02 
1273	 9.82750356298693E-02 
1274	 9.82950676504473E-02 
1275	 9.83185321205605E-02 
1276	 9.83392050121771E-02 
1277	 9.83703057775187E-02 
1278	 9.84124970832418E-02 
1279	 9.84483179862924E-02 
1280	 9.84852410909545E-02 
1281	 9.85273161042586E-02 
1282	 0.098566869669394 
1283	 9.86089631152767E-02 
1284	 9.86564085607321E-02 
1285	 9.87044228049092E-02 
1286	 9.87625491014924E-02 
1287	 9.88359792287204E-02 
1288	 9.89057849088416E-02 
1289	 9.90021014856786E-02 
1290	 9.90519420304859E-02 
1291	 9.90667433418415E-02 
1292	 0.099116608679094 
1293	 9.91629888877482E-02 
1294	 9.92160589468747E-02 
1295	 9.93096077046041E-02 
1296	 9.93547545610421E-02 
1297	 9.93584737592682E-02 
1298	 9.93832602074133E-02 
1299	 9.94016774492552E-02 
1300	 9.94242329515266E-02 
1301	 9.94681741502139E-02 
1302	 9.94882073860708E-02 
1303	 9.94950263869008E-02 
1304	 9.94852234500106E-02 
1305	 9.94914278222794E-02 
1306	 9.95115122229795E-02 
1307	 9.95238993903844E-02 
1308	 9.95451836053874E-02 
1309	 9.95399470523802E-02 
1310	 9.95006762006493E-02 
1311	 9.94908554374566E-02 
1312	 9.94748331998982E-02 
1313	 9.94791381111493E-02 
1314	 9.95185128255612E-02 
1315	 0.099522864134693 
1316	 9.95179219329191E-02 
1317	 9.95192450621609E-02 
1318	 9.94977081840993E-02 
1319	 9.94937499583702E-02 
1320	 9.95089903352799E-02 
1321	 9.95191383408933E-02 
1322	 9.95292961685139E-02 
1323	 9.95443361127455E-02 
1324	 9.95485225045566E-02 
1325	 9.95378859803676E-02 
1326	 9.95278374793134E-02 
1327	 9.95392234361023E-02 
1328	 9.95711127293957E-02 
1329	 9.95849770174438E-02 
1330	 9.95996367778486E-02 
1331	 9.96100526147517E-02 
1332	 9.96249179080524E-02 
1333	 9.96429350117757E-02 
1334	 9.96587807482054E-02 
1335	 9.96658689454276E-02 
1336	 9.96886519749699E-02 
1337	 0.099704292206457 
1338	 0.099743745598933 
1339	 9.98236575297907E-02 
1340	 9.98734540296236E-02 
1341	 9.99197871657026E-02 
1342	 0.09996270051773 
1343	 9.99915074799593E-02 
1344	 0.100019491200072 
1345	 0.100045167673848 
1346	 0.100088192475513 
1347	 0.10013222879807 
1348	 0.100175855813328 
1349	 0.100219765073178 
1350	 0.100258743863858 
1351	 0.100302736179456 
1352	 0.100337178710971 
1353	 0.100380227385171 
1354	 0.100440874270364 
1355	 0.100484179228151 
1356	 0.100514885105615 
1357	 0.100555607275484 
1358	 0.100591466120106 
1359	 0.100637948720364 
1360	 0.100707142828685 
1361	 0.100748689258623 
1362	 0.10077486665198 
1363	 0.100810560901017 
1364	 0.100826205676125 
1365	 0.100859805439864 
1366	 0.100917716913555 
1367	 0.100967738678553 
1368	 0.100998153521246 
1369	 0.101039165469195 
1370	 0.101068232919143 
1371	 0.10106747392922 
1372	 0.101065963212885 
1373	 0.101071201818444 
1374	 0.101072644257659 
1375	 0.10106283316625 
1376	 0.101073325709573 
1377	 0.10109521415299 
1378	 0.101106525670604 
1379	 0.101133918883442 
1380	 0.101137342563596 
1381	 0.101124344695998 
1382	 0.101111982512448 
1383	 0.101085750220248 
1384	 0.101061848380009 
1385	 0.101042529840562 
1386	 0.101014716956787 
1387	 0.100979742554798 
1388	 0.100943162491632 
1389	 0.100902646848271 
1390	 0.100856088508297 
1391	 0.100808950350945 
1392	 0.100770479184842 
1393	 0.100733219301467 
1394	 0.100678719722425 
1395	 0.100613386855117 
1396	 0.100546131703528 
1397	 0.100470622395751 
1398	 0.100380692362374 
1399	 0.100298030069378 
1400	 0.100215429509595 
1401	 0.100130423621133 
1402	 0.100043957342314 
1403	 9.99519335796619E-02 
1404	 9.98545899373172E-02 
1405	 0.099762294951614 
1406	 9.96624177128003E-02 
1407	 9.95806352016511E-02 
1408	 9.95103867010311E-02 
1409	 9.94363395865227E-02 
1410	 0.099361556317821 
1411	 9.93009901409873E-02 
1412	 0.099248214382122 
1413	 9.91975929112382E-02 
1414	 9.91547993605948E-02 
1415	 9.91192244497224E-02 
1416	 9.90818877471247E-02 
1417	 9.90681802748579E-02 
1418	 9.90695890197337E-02 
1419	 0.099077437484211 
1420	 9.90865236281707E-02 
1421	 0.099067591231369 
1422	 9.90514553470025E-02 
1423	 9.90513258108478E-02 
1424	 9.90581656070051E-02 
1425	 9.90792762528761E-02 
1426	 0.099098319417567 
1427	 9.91221284422013E-02 
1428	 9.91451822759088E-02 
1429	 9.91623852637961E-02 
1430	 9.91903466150711E-02 
1431	 9.92370170316625E-02 
1432	 9.92669836110511E-02 
1433	 9.92913792867492E-02 
1434	 9.93198492106037E-02 
1435	 9.93419364036784E-02 
1436	 9.93637875365418E-02 
1437	 9.93827440214157E-02 
1438	 9.94147809080391E-02 
1439	 9.94507840282772E-02 
1440	 9.94858901246358E-02 
1441	 9.95357680874866E-02 
1442	 9.95878372644698E-02 
1443	 9.96324282653359E-02 
1444	 9.96705296528497E-02 
1445	 9.97044075349036E-02 
1446	 0.099734087983456 
1447	 0.099766207677377 
1448	 9.98033720793915E-02 
1449	 9.98327147523184E-02 
1450	 9.98720094297213E-02 
1451	 9.99058081199734E-02 
1452	 0.099929228066751 
1453	 9.99628960658533E-02 
1454	 0.100001274612501 
1455	 0.100046186332033 
1456	 0.100109741928638 
1457	 0.100143639926734 
1458	 0.10016442155585 
1459	 0.100192756577549 
1460	 0.100196099234048 
1461	 0.100226590614092 
1462	 0.100289839339242 
1463	 0.10032674014725 
1464	 0.100357105007747 
1465	 0.100391994148254 
1466	 0.100412141429983 
1467	 0.100444796690313 
1468	 0.100491817027528 
1469	 0.100530863816282 
1470	 0.100563456598468 
1471	 0.100608810957315 
1472	 0.10065725544146 
1473	 0.100702991254601 
1474	 0.100756587926077 
1475	 0.100811317705262 
1476	 0.100860162576968 
1477	 0.100908838159024 
1478	 0.100956905892711 
1479	 0.10100324460797 
1480	 0.101046537969999 
1481	 0.101079454197066 
1482	 0.101114696946081 
1483	 0.101141886306344 
1484	 0.101185355626777 
1485	 0.10123656705462 
1486	 0.101284994278191 
1487	 0.101340670323725 
1488	 0.101391404796403 
1489	 0.101438836390798 
1490	 0.101484650819467 
1491	 0.101533219032762 
1492	 0.101575984087498 
1493	 0.101606760218017 
1494	 0.101654078611951 
1495	 0.101714239685088 
1496	 0.101759347105351 
1497	 0.101805243092543 
1498	 0.101848440898792 
1499	 0.10187518360257 
1500	 0.101913376753915 
1501	 0.101965352471228 
1502	 0.102004782659026 
1503	 0.102036154017602 
1504	 0.102075769782392 
1505	 0.102100313920231 
1506	 0.102133494193374 
1507	 0.102181739719393 
1508	 0.102215729852676 
1509	 0.102247968613272 
1510	 0.102282649700864 
1511	 0.10231141609426 
1512	 0.102336987672904 
1513	 0.102379417259874 
1514	 0.102425254433496 
1515	 0.102452676176483 
1516	 0.10250158559127 
1517	 0.102540285580951 
1518	 0.102571712336444 
1519	 0.102607636776443 
1520	 0.102644683206711 
1521	 0.102681043253024 
1522	 0.102725238333833 
1523	 0.102750214795245 
1524	 0.10276323203897 
1525	 0.102788285318804 
1526	 0.102802973324493 
1527	 0.102827864246735 
1528	 0.102866958795565 
1529	 0.102903342019878 
1530	 0.102943711686009 
1531	 0.102972930995477 
1532	 0.103000927212106 
1533	 0.103026594633275 
1534	 0.103035749426194 
1535	 0.10305820317783 
1536	 0.103096167153283 
1537	 0.10312053909304 
1538	 0.103137407062497 
1539	 0.103160083918725 
1540	 0.10317431494654 
1541	 0.103200178621828 
1542	 0.103242586046718 
1543	 0.103273910137364 
1544	 0.103308301475582 
1545	 0.103333818223528 
1546	 0.103351634163346 
1547	 0.103361721050796 
1548	 0.103373118753995 
1549	 0.103400271188312 
1550	 0.103420199939512 
1551	 0.10344251257646 
1552	 0.103477882735115 
1553	 0.103491125430717 
1554	 0.103494390547152 
1555	 0.103520696439242 
1556	 0.10354503944004 
1557	 0.103564336620628 
1558	 0.103600807622356 
1559	 0.103631022486968 
1560	 0.103658025062354 
1561	 0.103680125878225 
1562	 0.103698633492877 
1563	 0.103712087412366 
1564	 0.103730621596342 
1565	 0.103741850527138 
1566	 0.10376506362993 
1567	 0.103803029354335 
1568	 0.103827638420844 
1569	 0.103854020887749 
1570	 0.103870386817049 
1571	 0.103871939842658 
1572	 0.103885441993712 
1573	 0.103899053852671 
1574	 0.103911588342783 
1575	 0.103931861784465 
1576	 0.103946558956469 
1577	 0.103949880989481 
1578	 0.103968037462539 
1579	 0.103992996873724 
1580	 0.104015428962262 
1581	 0.104047888401323 
1582	 0.104072312712149 
1583	 0.104094971274496 
1584	 0.104110769145676 
1585	 0.104120213219463 
1586	 0.104130983807764 
1587	 0.10412683033134 
1588	 0.104140948680546 
1589	 0.104169813409685 
1590	 0.104191787254752 
1591	 0.104222636915244 
1592	 0.104246890330205 
1593	 0.104264911737532 
1594	 0.104281748485434 
1595	 0.104294319651775 
1596	 0.10431019532235 
1597	 0.104328703486482 
1598	 0.104342042285992 
1599	 0.104353415692929 
1600	 0.104366583368303 
1601	 0.104372861384603 
1602	 0.104381965846151 
1603	 0.104405925682808 
1604	 0.10441366026053 
1605	 0.10440450289703 
1606	 0.104407984522749 
1607	 0.104412126090488 
1608	 0.104409752420043 
1609	 0.104413190035489 
1610	 0.104417407967075 
1611	 0.104435373746127 
1612	 0.104441747295359 
1613	 0.104450162947883 
1614	 0.104481025855502 
1615	 0.10448702349786 
1616	 0.104497775183308 
1617	 0.104532793586356 
1618	 0.104552168757218 
1619	 0.104575374580505 
1620	 0.104597476526578 
1621	 0.104610864922488 
1622	 0.104614015786131 
1623	 0.104629973807157 
1624	 0.104646107601143 
1625	 0.104658435026176 
1626	 0.10467854848021 
1627	 0.104683486643053 
1628	 0.104673774230737 
1629	 0.104681726162072 
1630	 0.104690053717961 
1631	 0.104703630565017 
1632	 0.104736144607007 
1633	 0.104737292276024 
1634	 0.104721692823281 
1635	 0.104719695108922 
1636	 0.104696580567996 
1637	 0.104710127171039 
1638	 0.10475740584306 
1639	 0.104778527661827 
1640	 0.104802303433677 
1641	 0.104825207393003 
1642	 0.104835918598708 
1643	 0.104854984458728 
1644	 0.104886795844131 
1645	 0.104905346121038 
1646	 0.104919115333463 
1647	 0.104925791877193 
1648	 0.104922403769494 
1649	 0.104927758945218 
1650	 0.104931000395294 
1651	 0.104933358331089 
1652	 0.104941627024259 
1653	 0.10494374403417 
1654	 0.104938822209245 
1655	 0.104936373986733 
1656	 0.104927508088927 
1657	 0.10493761282835 
1658	 0.104953545235288 
1659	 0.104973728063533 
1660	 0.105014665237867 
1661	 0.105040141574976 
1662	 0.105060018829923 
1663	 0.105079278283794 
1664	 0.105101740989514 
1665	 0.105108477596204 
1666	 0.105101485434247 
1667	 0.105102802896467 
1668	 0.10509773568987 
1669	 0.10509374122842 
1670	 0.105095156413975 
1671	 0.105094132696306 
1672	 0.105080797795372 
1673	 0.105085084980871 
1674	 0.105096211113544 
1675	 0.105117229792508 
1676	 0.105163471332294 
1677	 0.105180420227358 
1678	 0.105193623815329 
1679	 0.105199258238946 
1680	 0.105175925828851 
1681	 0.105176898198247 
1682	 0.105199021775641 
1683	 0.105196526060523 
1684	 0.105180069731087 
1685	 0.105180813416989 
1686	 0.105178463858432 
1687	 0.105175190783276 
1688	 0.105180917657553 
1689	 0.105194112261045 
1690	 0.105203765741364 
1691	 0.105214230693836 
1692	 0.105243840800883 
1693	 0.105258295232753 
1694	 0.105259832617749 
1695	 0.105260462193057 
1696	 0.105253447608396 
1697	 0.105262858235326 
1698	 0.105280702966689 
1699	 0.10528237370823 
1700	 0.105282395024117 
1701	 0.105291908079867 
1702	 0.105286896289937 
1703	 0.105297722534213 
1704	 0.105347533909131 
1705	 0.105354822013357 
1706	 0.105333944421886 
1707	 0.105329687873056 
1708	 0.105306808094966 
1709	 0.105309410610447 
1710	 0.105336501119341 
1711	 0.105351769257271 
1712	 0.105379454365837 
1713	 0.105385426176247 
1714	 0.105370309450846 
1715	 0.105372597063503 
1716	 0.105374890888227 
1717	 0.105377182037736 
1718	 0.105391044597413 
1719	 0.105394814265435 
1720	 0.105384216554897 
1721	 0.105384102756406 
1722	 0.105398999267341 
1723	 0.105392771445323 
1724	 0.105371408849368 
1725	 0.105363490152902 
1726	 0.105349403124025 
1727	 0.10534148500536 
1728	 0.1053466408327 
1729	 0.105346745794438 
1730	 0.105339753519153 
1731	 0.105339765080199 
1732	 0.105359059041219 
1733	 0.105345734998701 
1734	 0.105311169785623 
1735	 0.10528724587661 
1736	 0.105248942869832 
1737	 0.105230217293292 
1738	 0.105226809268894 
1739	 0.105222843242627 
1740	 0.105221685339095 
1741	 0.105208981474956 
1742	 0.105200825746293 
1743	 0.105186818349663 
1744	 0.105160860572033 
1745	 0.105145425892223 
1746	 0.105134202113279 
1747	 0.105120572147935 
1748	 0.10509913305513 
1749	 0.105069256189677 
1750	 0.105049279069503 
1751	 0.10505634955302 
1752	 0.105080036648339 
1753	 0.105084818661885 
1754	 0.105082393449517 
1755	 0.105061658762394 
1756	 0.105025438189446 
1757	 0.10500563578885 
1758	 0.104992446503218 
1759	 0.104978078440422 
1760	 0.104964836903465 
1761	 0.104947542988164 
1762	 0.104934684744948 
1763	 0.104923565334731 
1764	 0.104907411519379 
1765	 0.104915394065813 
1766	 0.104942898725502 
1767	 0.104954952294111 
1768	 0.104960909249861 
1769	 0.104969603888672 
1770	 0.104956444866467 
1771	 0.104949178295932 
1772	 0.104958912850883 
1773	 0.104934192764808 
1774	 0.104901045883878 
1775	 0.104878942937966 
1776	 0.104848054305719 
1777	 0.104837574784108 
1778	 0.104838149572633 
1779	 0.104838803333792 
1780	 0.104866903137832 
1781	 0.10488450137633 
1782	 0.104888719359226 
1783	 0.104880411032899 
1784	 0.104867350286251 
1785	 0.104849331259875 
1786	 0.104839190515497 
1787	 0.104826717360096 
1788	 0.104814426863964 
1789	 0.104793871012834 
1790	 0.104796800907123 
1791	 0.104826116395992 
1792	 0.104837988596909 
1793	 0.104856708416729 
1794	 0.104854771693471 
1795	 0.104812828158202 
1796	 0.104817680930276 
1797	 0.104847051578467 
1798	 0.10486867643443 
1799	 0.104926068563214 
1800	 0.10493680548563 
1801	 0.101795076658123 
1802	 0.101845519388533 
1803	 0.10189366869662 
1804	 0.101897299111055 
1805	 0.101900603146984 
1806	 0.101918828306125 
1807	 0.101912977441587 
1808	 0.1019233439543 
1809	 0.101966584019428 
1810	 0.101972167773651 
1811	 0.101945358247592 
1812	 0.10194432386955 
1813	 0.101954810652608 
1814	 0.101981976182697 
1815	 0.102025122661673 
1816	 0.10209147594651 
1817	 0.102136090372842 
1818	 0.102178214793052 
1819	 0.102202623669972 
1820	 0.102224582439159 
1821	 0.102217039586472 
1822	 0.102203507891798 
1823	 0.102204010129395 
1824	 0.102193113318134 
1825	 0.102193765329414 
1826	 0.102209328896286 
1827	 0.102228749692705 
1828	 0.102239806943779 
1829	 0.102255780131042 
1830	 0.102264374122375 
1831	 0.102265974200897 
1832	 0.10225835999861 
1833	 0.102257022679794 
1834	 0.102278483765237 
1835	 0.10230779088145 
1836	 0.102299631593514 
1837	 0.102280650969118 
1838	 0.102281875224585 
1839	 0.102294111192009 
1840	 0.102304239623848 
1841	 0.102343199260853 
1842	 0.102392363573512 
1843	 0.102400296095738 
1844	 0.102387604455261 
1845	 0.102387969194682 
1846	 0.102377909812905 
1847	 0.102363973120043 
1848	 0.102360584704574 
1849	 0.102348184328048 
1850	 0.102341739923187 
1851	 0.102340604083276 
1852	 0.102346864004242 
1853	 0.102333654862095 
1854	 0.102330224892275 
1855	 0.102307529122512 
1856	 0.102269632375395 
1857	 0.10224142783412 
1858	 0.102205638895819 
1859	 0.102176535293351 
1860	 0.102135583783174 
1861	 0.102093515693365 
1862	 0.102052667829265 
1863	 0.102002440691516 
1864	 0.101928557146789 
1865	 0.101873937223311 
1866	 0.10183544930765 
1867	 0.101799556936708 
1868	 0.101757173542885 
1869	 0.101705800629437 
1870	 0.101645777868706 
1871	 0.101558148066694 
1872	 0.101435969103383 
1873	 0.101319610781775 
1874	 0.101209359423457 
1875	 0.101074046660568 
1876	 0.100950461531302 
1877	 0.100809301968351 
1878	 0.100633724140584 
1879	 0.100450098297936 
1880	 0.100255929235848 
1881	 0.100037272391694 
1882	 9.98197629257831E-02 
1883	 9.95965945804861E-02 
1884	 0.099373351276585 
1885	 9.91320644794912E-02 
1886	 9.88816137405203E-02 
1887	 9.86047973000359E-02 
1888	 0.098294966138848 
1889	 9.79689366258887E-02 
1890	 9.76397526336412E-02 
1891	 0.097300233409489 
1892	 9.69466313620408E-02 
1893	 9.65870852833793E-02 
1894	 9.62188335623492E-02 
1895	 0.095841614222332 
1896	 9.54464087592216E-02 
1897	 9.50852417429508E-02 
1898	 0.094725203198304 
1899	 9.43605412949638E-02 
1900	 9.40101303588099E-02 
1901	 9.36564066824523E-02 
1902	 9.33187002806349E-02 
1903	 9.29810722896999E-02 
1904	 9.26655606979537E-02 
1905	 9.23598847214958E-02 
1906	 9.20968384821225E-02 
1907	 9.18353874514582E-02 
1908	 9.15666090882143E-02 
1909	 9.13425114297992E-02 
1910	 9.11167373562096E-02 
1911	 9.08771375065865E-02 
1912	 9.06884635029023E-02 
1913	 9.05029501274221E-02 
1914	 9.03136617741071E-02 
1915	 9.01499633071151E-02 
1916	 9.00173016422561E-02 
1917	 8.98859021987075E-02 
1918	 8.97569576877171E-02 
1919	 8.96419146670652E-02 
1920	 8.95494798820693E-02 
1921	 8.94616558821243E-02 
1922	 8.93814486118664E-02 
1923	 8.93279695671478E-02 
1924	 8.92758537876425E-02 
1925	 8.92241582526718E-02 
1926	 8.91907242676264E-02 
1927	 8.91796620594716E-02 
1928	 8.91586513377466E-02 
1929	 8.91494989811158E-02 
1930	 8.91544045852621E-02 
1931	 8.91477783871016E-02 
1932	 8.91565990668537E-02 
1933	 8.91660899549058E-02 
1934	 0.089172494628953 
1935	 8.92027036590879E-02 
1936	 8.92586170480765E-02 
1937	 8.92987123060008E-02 
1938	 8.93561890888428E-02 
1939	 8.93995387100766E-02 
1940	 8.94202200016969E-02 
1941	 0.089457822276418 
1942	 0.089499040227282 
1943	 8.95400803980276E-02 
1944	 8.96202298218446E-02 
1945	 8.96940024644026E-02 
1946	 8.97782069852644E-02 
1947	 8.98910262630759E-02 
1948	 8.99831145499123E-02 
1949	 9.00621474001886E-02 
1950	 9.01537721080531E-02 
1951	 9.02522089122827E-02 
1952	 9.03401246390655E-02 
1953	 9.04235671325792E-02 
1954	 9.05100188631293E-02 
1955	 9.05848982370091E-02 
1956	 9.06502153794151E-02 
1957	 9.07421313438444E-02 
1958	 9.08577009103019E-02 
1959	 9.09584756342654E-02 
1960	 9.10663204378973E-02 
1961	 9.11765186743885E-02 
1962	 9.12780161237901E-02 
1963	 9.13863900184211E-02 
1964	 9.15033952318935E-02 
1965	 9.16256380258663E-02 
1966	 9.17383424763673E-02 
1967	 9.18533108452754E-02 
1968	 9.19702366784716E-02 
1969	 9.20890221130078E-02 
1970	 9.22041878955701E-02 
1971	 9.23155194442205E-02 
1972	 9.24364166077945E-02 
1973	 9.25720979838848E-02 
1974	 9.26871300712206E-02 
1975	 9.27962324121136E-02 
1976	 0.092905096641177 
1977	 9.30021609992003E-02 
1978	 9.31039177881613E-02 
1979	 9.32155679564917E-02 
1980	 9.33350663589736E-02 
1981	 9.34582049193022E-02 
1982	 9.35879912766342E-02 
1983	 9.37123746363379E-02 
1984	 9.38444046144857E-02 
1985	 9.39677634797612E-02 
1986	 9.40806247918105E-02 
1987	 9.41981281763035E-02 
1988	 9.43153886094283E-02 
1989	 0.094434174053035 
1990	 9.45588391077777E-02 
1991	 9.46782666118725E-02 
1992	 9.47946552339749E-02 
1993	 9.49061523758793E-02 
1994	 9.50270299945728E-02 
1995	 9.51497434982691E-02 
1996	 9.52718402812757E-02 
1997	 9.54104740806747E-02 
1998	 9.55273559719909E-02 
1999	 9.56226433698312E-02 
2000	 9.57280643389026E-02 
2001	 9.58312571238475E-02 
2002	 9.59299540279307E-02 
2003	 9.60351319508725E-02 
2004	 9.61459955741709E-02 
2005	 9.62557609254886E-02 
2006	 9.63645467591661E-02 
2007	 9.64756568023194E-02 
2008	 9.65977936862086E-02 
2009	 9.67048974498463E-02 
2010	 9.67937438434886E-02 
2011	 9.68998002859968E-02 
2012	 9.70037860634861E-02 
2013	 9.71140948892733E-02 
2014	 9.72431931675946E-02 
2015	 9.73730608196428E-02 
2016	 9.74761593476555E-02 
2017	 9.75707539898821E-02 
2018	 9.76646552076526E-02 
2019	 0.097738500319381 
2020	 9.78295061370412E-02 
2021	 9.79311541648758E-02 
2022	 9.80289662149908E-02 
2023	 9.81254692120838E-02 
2024	 9.82233329927091E-02 
2025	 9.83077871705274E-02 
2026	 9.84162991734945E-02 
2027	 9.85430434832447E-02 
2028	 9.86700969773716E-02 
2029	 9.87944061348426E-02 
2030	 9.89426094064815E-02 
2031	 9.90509687866159E-02 
2032	 9.91410084256389E-02 
2033	 9.92276349324739E-02 
2034	 9.92891905343476E-02 
2035	 9.93678910720895E-02 
2036	 9.94483188216124E-02 
2037	 9.95233036198276E-02 
2038	 9.95969932476135E-02 
2039	 9.96763157287383E-02 
2040	 0.099754846315787 
2041	 9.98340382382508E-02 
2042	 9.99089844163259E-02 
2043	 9.99883540167295E-02 
2044	 0.100064702293176 
2045	 0.100127597475653 
2046	 0.100205378328749 
2047	 0.100295912756249 
2048	 0.1003793749035 
2049	 0.100465598344463 
2050	 0.100547620446548 
2051	 0.100626763777544 
2052	 0.100704761057583 
2053	 0.100793252075106 
2054	 0.100860444875643 
2055	 0.100912721708219 
2056	 0.100964649131298 
2057	 0.101011529574589 
2058	 0.101038367279046 
2059	 0.101078911779043 
2060	 0.101116718761681 
2061	 0.10117481129146 
2062	 0.101244524210856 
2063	 0.101312152900972 
2064	 0.101398608171203 
2065	 0.101474730662331 
2066	 0.101546485255006 
2067	 0.101612222477804 
2068	 0.101670427613962 
2069	 0.101742718652758 
2070	 0.101795186547856 
2071	 0.101830805519537 
2072	 0.101883190079448 
2073	 0.101927905894964 
2074	 0.101988284634114 
2075	 0.102077535740911 
2076	 0.10213257286456 
2077	 0.102167589673679 
2078	 0.102225738154855 
2079	 0.102270094854765 
2080	 0.102328955478578 
2081	 0.1024249575231 
2082	 0.102500738181957 
2083	 0.102564901662657 
2084	 0.102630914735437 
2085	 0.102695553686067 
2086	 0.102756985623015 
2087	 0.102817003382955 
2088	 0.102877824980315 
2089	 0.102932525462564 
2090	 0.102980312241914 
2091	 0.103032032138494 
2092	 0.103080197950554 
2093	 0.103132853576547 
2094	 0.103180653592642 
2095	 0.103242441649468 
2096	 0.103330711936233 
2097	 0.103391975111691 
2098	 0.103443166324586 
2099	 0.103499143411465 
2100	 0.103552869444635 
2101	 0.103582141534953 
2102	 0.103638014298395 
2103	 0.103723372716467 
2104	 0.103778697576201 
2105	 0.103818040263998 
2106	 0.103872580886475 
2107	 0.103918382414435 
2108	 0.103974860474181 
2109	 0.104049304530687 
2110	 0.10411744037797 
2111	 0.104191818067644 
2112	 0.104256004618074 
2113	 0.104322284604279 
2114	 0.104366249677722 
2115	 0.104433909824911 
2116	 0.104504983376317 
2117	 0.10456352618598 
2118	 0.104624848228197 
2119	 0.104692131842103 
2120	 0.104747319743814 
2121	 0.104809851147771 
2122	 0.10490404827134 
2123	 0.104963135280145 
2124	 0.104986726244955 
2125	 0.105035335636032 
2126	 0.105088719310443 
2127	 0.105132652714821 
2128	 0.105207919661931 
2129	 0.105241580811325 
2130	 0.105229810549984 
2131	 0.105225587994773 
2132	 0.10523269316234 
2133	 0.105217957184556 
2134	 0.105238105798967 
2135	 0.105305910173093 
2136	 0.105322605489087 
2137	 0.105324592777785 
2138	 0.105330855681142 
2139	 0.105312639090045 
2140	 0.105307202454563 
2141	 0.105329632376918 
2142	 0.105317400463964 
2143	 0.105270051696524 
2144	 0.105246794429338 
2145	 0.105219758929072 
2146	 0.105194308464716 
2147	 0.10517693841887 
2148	 0.105180224448375 
2149	 0.105154604254341 
2150	 0.105115400833769 
2151	 0.105073652177958 
2152	 0.105023540339253 
2153	 0.104968142175688 
2154	 0.10489107437517 
2155	 0.104842843299124 
2156	 0.104818565252933 
2157	 0.104763015420839 
2158	 0.104707676315095 
2159	 0.104648749697548 
2160	 0.10456735596572 
2161	 0.104485577496591 
2162	 0.104404465742867 
2163	 0.104328125401862 
2164	 0.104251763684662 
2165	 0.104155025069263 
2166	 0.104076481738411 
2167	 0.104018768496513 
2168	 0.103938766171492 
2169	 0.103839644729772 
2170	 0.103766265176354 
2171	 0.103697017252481 
2172	 0.103632796851039 
2173	 0.103596124815767 
2174	 0.103532831869579 
2175	 0.103463634340292 
2176	 0.103380502136978 
2177	 0.103271622466195 
2178	 0.103177402811188 
2179	 0.103071961052378 
2180	 0.102982033808958 
2181	 0.102899792372037 
2182	 0.102829647709019 
2183	 0.102777981216463 
2184	 0.10272634917027 
2185	 0.102665537704249 
2186	 0.102613212653921 
2187	 0.102548418271696 
2188	 0.102463757131893 
2189	 0.102395337197287 
2190	 0.102333018341375 
2191	 0.102269716596272 
2192	 0.10220477530149 
2193	 0.102147703646376 
2194	 0.102087561219849 
2195	 0.102044424368439 
2196	 0.1020233517579 
2197	 0.101992237608617 
2198	 0.101966947199892 
2199	 0.101939318452775 
2200	 0.101892472083853 
2201	 0.101867071030123 
2202	 0.101862579530108 
2203	 0.101857367818344 
2204	 0.101838663693348 
2205	 0.101825690048526 
2206	 0.10180409417792 
2207	 0.101754506502547 
2208	 0.101742595853561 
2209	 0.101748710448579 
2210	 0.101753103641093 
2211	 0.101775576963408 
2212	 0.101787601751758 
2213	 0.101796318950786 
2214	 0.101809709735103 
2215	 0.101844489928891 
2216	 0.101839602147242 
2217	 0.101809470989261 
2218	 0.101786207292435 
2219	 0.101710414251908 
2220	 0.101689435094696 
2221	 0.101700693755834 
2222	 0.101732610800497 
2223	 0.101770794661805 
2224	 0.101790300032064 
2225	 0.101803738779513 
2226	 0.101794702857883 
2227	 0.10180530477042 
2228	 0.101818665418543 
2229	 0.101840304755006 
2230	 0.101872723944345 
2231	 0.101895547222068 
2232	 0.101915876510039 
2233	 0.101944727223333 
2234	 0.101980746159109 
2235	 0.102004501863001 
2236	 0.102040335185627 
2237	 0.102053563711915 
2238	 0.102014131673352 
2239	 0.102028423290664 
2240	 0.10207478693628 
2241	 0.102102800468513 
2242	 0.102156476956974 
2243	 0.102195795884936 
2244	 0.102206184119726 
2245	 0.102233797879778 
2246	 0.102247274292393 
2247	 0.102258423963949 
2248	 0.102260757843548 
2249	 0.102235174046641 
2250	 0.102239882119085 
2251	 0.102250084983378 
2252	 0.102280961675251 
2253	 0.102344064008687 
2254	 0.102371336524373 
2255	 0.102402626787749 
2256	 0.102421629335214 
2257	 0.10239990224976 
2258	 0.102417487583824 
2259	 0.102451550614908 
2260	 0.102484949312148 
2261	 0.102556089893085 
2262	 0.102584147643663 
2263	 0.102577445554064 
2264	 0.102590545272849 
2265	 0.102576824640388 
2266	 0.102590769842978 
2267	 0.102644296319078 
2268	 0.102688661715867 
2269	 0.102745624771689 
2270	 0.102784131055059 
2271	 0.102824988511958 
2272	 0.102852771168391 
2273	 0.102852982709724 
2274	 0.102855328755022 
2275	 0.102872436573892 
2276	 0.102886153253792 
2277	 0.102906274971098 
2278	 0.102947718569094 
2279	 0.102965824377332 
2280	 0.102968511965515 
2281	 0.102986941115816 
2282	 0.103015561425679 
2283	 0.103027775060559 
2284	 0.103025551721093 
2285	 0.103039769889308 
2286	 0.103066522336941 
2287	 0.103067142196667 
2288	 0.103061463577598 
2289	 0.103070089237252 
2290	 0.103050653973577 
2291	 0.103048041907698 
2292	 0.103080917299341 
2293	 0.103097102949989 
2294	 0.103100896912088 
2295	 0.103112549870532 
2296	 0.103116355754879 
2297	 0.103142903415461 
2298	 0.103187530609806 
2299	 0.1032438185219 
2300	 0.103294475015066 
2301	 0.103349042711158 
2302	 0.10339012809653 
2303	 0.103372720572757 
2304	 0.103342992873793 
2305	 0.103313442369868 
2306	 0.103285895144826 
2307	 0.103233331145273 
2308	 0.103212219776549 
2309	 0.103221711602697 
2310	 0.103203928549131 
2311	 0.103165748780032 
2312	 0.103158378717513 
2313	 0.103149948004684 
2314	 0.103167765027179 
2315	 0.103236684460343 
2316	 0.103268376886471 
2317	 0.103302197359171 
2318	 0.103308387277231 
2319	 0.103264050991819 
2320	 0.103265323437832 
2321	 0.103287161659321 
2322	 0.103294036541169 
2323	 0.103316137378231 
2324	 0.103332922299037 
2325	 0.103312696346396 
2326	 0.103332928130412 
2327	 0.103378827099866 
2328	 0.103447583208018 
2329	 0.103490543271357 
2330	 0.103497000128798 
2331	 0.103486033461341 
2332	 0.10341741209634 
2333	 0.1033542247661 
2334	 0.103343244238892 
2335	 0.103353774779961 
2336	 0.103379894772128 
2337	 0.103454431488726 
2338	 0.10347289960105 
2339	 0.103405474047884 
2340	 0.10335839408699 
2341	 0.103281989707614 
2342	 0.103230401646303 
2343	 0.103265023292776 
2344	 0.103300838310508 
2345	 0.103336331994176 
2346	 0.103417638450604 
2347	 0.103421352731507 
2348	 0.103380679878224 
2349	 0.103364824526707 
2350	 0.103322406590731 
2351	 0.103273763896086 
2352	 0.103224274795343 
2353	 0.103191171481219 
2354	 0.103127788525868 
2355	 0.10312292751628 
2356	 0.103197650196781 
2357	 0.103195446750382 
2358	 0.103159641739534 
2359	 0.103148991342105 
2360	 0.103126312304101 
2361	 0.103120963335644 
2362	 0.103159837771851 
2363	 0.103148971428189 
2364	 0.103117425612391 
2365	 0.103039510813034 
2366	 0.10289160036104 
2367	 0.102829019304435 
2368	 0.102788452026268 
2369	 0.102721006177232 
2370	 0.102712356998575 
2371	 0.102625326453167 
2372	 0.102483366287024 
2373	 0.102426007278393 
2374	 0.102421109213439 
2375	 0.102429282352882 
2376	 0.10243183574047 
2377	 0.102419510818339 
2378	 0.102381562875617 
2379	 0.102350904847305 
2380	 0.102339375660189 
2381	 0.102308958263932 
2382	 0.102304573835396 
2383	 0.102238503872088 
2384	 0.102139925486888 
2385	 0.102100686669997 
2386	 0.102079015659667 
2387	 0.102074443742542 
2388	 0.102104883489855 
2389	 0.102114268450981 
2390	 0.101988830749275 
2391	 0.101930383201387 
2392	 0.101935858238694 
2393	 0.101861987973774 
2394	 0.101844890483125 
2395	 0.101850681217998 
2396	 0.10185577125693 
2397	 0.101843518170648 
2398	 0.101812338159961 
2399	 0.101818044654315 
2400	 0.101768133359777 
2401	 0.101711548120859 
2402	 0.101775035380292 
2403	 0.101770315347354 
2404	 0.101706240065506 
2405	 0.101741623702752 
2406	 0.101631529976406 
2407	 0.101420091532536 
2408	 0.101365679948484 
2409	 0.101293995458709 
2410	 0.101208088770858 
2411	 0.101179652955625 
2412	 0.101076468561838 
2413	 0.100917059464602 
2414	 0.100729620698605 
2415	 0.100638048247652 
2416	 0.100578296199457 
2417	 0.100552062569058 
2418	 0.100510728802602 
2419	 0.100523760257588 
2420	 0.100466738506397 
2421	 0.100364436833538 
2422	 0.100294034004679 
2423	 0.10021131245517 
2424	 0.1002008033539 
2425	 0.100242619701831 
2426	 0.100244548103866 
2427	 0.10029454258161 
2428	 0.100228537313558 
2429	 0.10007594486791 
2430	 9.99259987210067E-02 
2431	 9.97107206971312E-02 
2432	 0.099634285066028 
2433	 9.95923229702085E-02 
2434	 9.94994456507639E-02 
2435	 9.94840408029119E-02 
2436	 9.93681863880405E-02 
2437	 9.91772404038086E-02 
2438	 9.90694279141437E-02 
2439	 9.89390708013565E-02 
2440	 9.88709800237567E-02 
2441	 9.88409510404753E-02 
2442	 9.87727676502431E-02 
2443	 9.87606995486884E-02 
2444	 9.86862625525636E-02 
2445	 9.85740515302466E-02 
2446	 9.84966451987584E-02 
2447	 9.83753634375841E-02 
2448	 9.83434893740984E-02 
2449	 9.83396009517652E-02 
2450	 9.83127330623196E-02 
2451	 0.098414640652104 
2452	 9.83342062443927E-02 
2453	 9.81245846545154E-02 
2454	 9.80356789970916E-02 
2455	 9.78814313546838E-02 
2456	 9.78094301087769E-02 
2457	 9.78690856791835E-02 
2458	 9.78139649880863E-02 
2459	 9.77004064869231E-02 
2460	 9.75968134485749E-02 
2461	 0.097471458945445 
2462	 9.73839588879923E-02 
2463	 9.73135341720281E-02 
2464	 9.72544213621001E-02 
2465	 9.72081631023961E-02 
2466	 9.71583225063458E-02 
2467	 9.71407787259321E-02 
2468	 9.71493510470232E-02 
2469	 9.71097584198522E-02 
2470	 9.72444454036656E-02 
2471	 9.72214445667357E-02 
2472	 9.68076924645803E-02 
2473	 9.65774369508463E-02 
2474	 9.63070182681657E-02 
2475	 9.60576610891548E-02 
2476	 9.60911339611566E-02 
2477	 9.62722640782728E-02 
2478	 9.64260245591909E-02 
2479	 9.64736111009676E-02 
2480	 9.64289594637348E-02 
2481	 9.61383605071686E-02 
2482	 9.59162148888849E-02 
2483	 0.095890147949802 
2484	 9.57799412954105E-02 
2485	 9.58871107105675E-02 
2486	 9.60459594900264E-02 
2487	 9.58880714622195E-02 
2488	 9.57628310316792E-02 
2489	 9.56926506368296E-02 
2490	 9.54985079882338E-02 
2491	 0.095445992254713 
2492	 9.54592351653251E-02 
2493	 9.53870801724404E-02 
2494	 0.095342582360306 
2495	 9.51822323222674E-02 
2496	 9.51609925991421E-02 
2497	 9.52897015686821E-02 
2498	 9.51571662806402E-02 
2499	 9.52246052265517E-02 
2500	 9.53363468703758E-02 
