Wavelength	LMW_1100001.asd
350	 4.88633211098814E-02 
351	 5.18233676947639E-02 
352	 4.73546558827258E-02 
353	 3.96003935305997E-02 
354	 4.90581708540065E-02 
355	 4.72558847748422E-02 
356	 3.80670895051061E-02 
357	 3.27184965417859E-02 
358	 3.61585885275368E-02 
359	 3.60397496075391E-02 
360	 3.32732181619652E-02 
361	 3.66127966305212E-02 
362	 3.81849891418421E-02 
363	 3.89457781970159E-02 
364	 3.86698884924614E-02 
365	 3.31224523285968E-02 
366	 3.12394691133345E-02 
367	 3.32735191573985E-02 
368	 3.67631343421587E-02 
369	 4.03962882522255E-02 
370	 3.99110993605935E-02 
371	 3.70603140504326E-02 
372	 3.72925585044939E-02 
373	 3.75850034815647E-02 
374	 3.94771556823484E-02 
375	 4.28537081515679E-02 
376	 4.40811041088044E-02 
377	 4.15068355953396E-02 
378	 3.89025920724168E-02 
379	 4.00116613618383E-02 
380	 4.06118463808598E-02 
381	 4.20196344017969E-02 
382	 4.34255134143111E-02 
383	 4.25926076902577E-02 
384	 4.15815844064317E-02 
385	 4.08060330602167E-02 
386	 4.05994853932958E-02 
387	 4.16808477182846E-02 
388	 4.34982731008384E-02 
389	 4.39781597168815E-02 
390	 4.19086548443274E-02 
391	 0.042153379891391 
392	 4.24437266649171E-02 
393	 4.23458309184715E-02 
394	 0.043179981114912 
395	 4.43905837297227E-02 
396	 4.56770926752241E-02 
397	 4.64965001097343E-02 
398	 4.54734410621986E-02 
399	 4.53352535008795E-02 
400	 4.62786903868235E-02 
401	 4.74531377829319E-02 
402	 4.83827610703855E-02 
403	 4.85532880635668E-02 
404	 4.80488343517046E-02 
405	 4.75237952346702E-02 
406	 4.73151772788661E-02 
407	 4.83247645857112E-02 
408	 5.01673297122485E-02 
409	 4.90282947217623E-02 
410	 4.76179895583093E-02 
411	 4.71143756207409E-02 
412	 4.77086047261984E-02 
413	 4.84317407839726E-02 
414	 4.82623706889547E-02 
415	 4.75502772318175E-02 
416	 4.83291520889938E-02 
417	 4.81705365597014E-02 
418	 4.82738651925869E-02 
419	 4.95824514312927E-02 
420	 4.92316163168701E-02 
421	 4.82359877708725E-02 
422	 4.78747957766897E-02 
423	 4.91722469937267E-02 
424	 4.89599882625739E-02 
425	 4.87431875537537E-02 
426	 4.92840243765582E-02 
427	 4.88926917127206E-02 
428	 4.83246609924789E-02 
429	 4.79411105833062E-02 
430	 4.79288703013031E-02 
431	 4.82845591492451E-02 
432	 4.79588392821861E-02 
433	 4.72936617558542E-02 
434	 4.78851529253362E-02 
435	 4.79466118269451E-02 
436	 4.75883433559884E-02 
437	 4.72765015496392E-02 
438	 4.73951179087737E-02 
439	 4.75208987246861E-02 
440	 4.75985997869102E-02 
441	 4.77208539750872E-02 
442	 4.75219657454758E-02 
443	 4.75489779058353E-02 
444	 0.04788918500511 
445	 0.04781363239072 
446	 4.79798375000026E-02 
447	 0.048137699025144 
448	 4.79521457041176E-02 
449	 4.78084913438499E-02 
450	 4.79712660985015E-02 
451	 4.83589461446335E-02 
452	 0.048608150730133 
453	 4.86938804364819E-02 
454	 4.86268824259255E-02 
455	 4.84792639747252E-02 
456	 0.048404732639273 
457	 4.85419193065175E-02 
458	 4.86652965701136E-02 
459	 4.84935359986366E-02 
460	 4.87577024558843E-02 
461	 4.88053234230217E-02 
462	 4.85185741664039E-02 
463	 4.86943094108315E-02 
464	 4.86032221258186E-02 
465	 4.84285527924249E-02 
466	 4.85168197210793E-02 
467	 4.88584998480104E-02 
468	 4.89748941797279E-02 
469	 4.87883724313186E-02 
470	 4.85719816447541E-02 
471	 4.85744007145985E-02 
472	 4.85991439773459E-02 
473	 4.85158959752809E-02 
474	 4.85729844743098E-02 
475	 4.84340141734673E-02 
476	 4.82376790925272E-02 
477	 4.82712523361085E-02 
478	 4.82105580348405E-02 
479	 4.83674071866488E-02 
480	 4.86588445768849E-02 
481	 4.83853917379209E-02 
482	 4.83303504115512E-02 
483	 4.84627692284181E-02 
484	 4.85544837372643E-02 
485	 4.85831543245988E-02 
486	 4.85048365665706E-02 
487	 4.83698936170183E-02 
488	 4.82994946878097E-02 
489	 4.82316841558432E-02 
490	 4.82656208008302E-02 
491	 4.84245849157668E-02 
492	 0.048519000600077 
493	 4.83736830570132E-02 
494	 4.81608733508211E-02 
495	 0.048189855845357 
496	 4.83676077344188E-02 
497	 4.84623991154961E-02 
498	 4.84127958600654E-02 
499	 4.84226073654277E-02 
500	 4.84304317849593E-02 
501	 4.83962500145081E-02 
502	 4.83287979546842E-02 
503	 4.84519802667085E-02 
504	 4.84566355182844E-02 
505	 4.83274330860422E-02 
506	 4.83213547922041E-02 
507	 4.83013779854706E-02 
508	 4.83311269214164E-02 
509	 4.84269780405872E-02 
510	 4.83808143252814E-02 
511	 4.83562261081148E-02 
512	 0.048366562722333 
513	 4.83491456862253E-02 
514	 4.83266904467281E-02 
515	 4.83041636765767E-02 
516	 4.83037093443533E-02 
517	 4.83871902910932E-02 
518	 4.84210766868639E-02 
519	 4.84223706983483E-02 
520	 4.84543363978438E-02 
521	 4.85287998325742E-02 
522	 4.86283433214093E-02 
523	 4.86905871991336E-02 
524	 4.86138373818416E-02 
525	 4.85651913739174E-02 
526	 4.85825358147374E-02 
527	 4.86424981344274E-02 
528	 4.86378881296668E-02 
529	 4.86325312986802E-02 
530	 4.86528781919323E-02 
531	 0.048695610416628 
532	 4.87072439511913E-02 
533	 4.88020376378257E-02 
534	 4.89720328539332E-02 
535	 4.88940828208827E-02 
536	 4.88457286327204E-02 
537	 4.88664192088274E-02 
538	 0.04890745271672 
539	 4.89948808735522E-02 
540	 4.90413535061466E-02 
541	 4.90555559843762E-02 
542	 4.91823728917214E-02 
543	 4.92968265483985E-02 
544	 4.93656934511415E-02 
545	 4.93990782469787E-02 
546	 4.94682205615223E-02 
547	 4.95465554884484E-02 
548	 4.96329780853826E-02 
549	 4.97463648805264E-02 
550	 4.98020907836926E-02 
551	 4.98956066743031E-02 
552	 5.00775806083866E-02 
553	 5.02049482662367E-02 
554	 5.02741195962386E-02 
555	 5.03391797708755E-02 
556	 5.04722379492174E-02 
557	 5.05645466642459E-02 
558	 0.050684107216094 
559	 5.08769396973526E-02 
560	 5.11251413914123E-02 
561	 5.13227232505085E-02 
562	 5.15192436547928E-02 
563	 5.18017346727216E-02 
564	 5.21270875713221E-02 
565	 0.052436086526623 
566	 5.27266901115522E-02 
567	 5.30609567593909E-02 
568	 5.34896981457938E-02 
569	 5.38369716177308E-02 
570	 5.39875913804595E-02 
571	 5.41941011852054E-02 
572	 5.44877542786237E-02 
573	 5.48698190883228E-02 
574	 5.53082859449029E-02 
575	 5.56917283578176E-02 
576	 5.60679825650328E-02 
577	 5.64830851566948E-02 
578	 5.69099173366682E-02 
579	 5.74255676685202E-02 
580	 5.80120890951977E-02 
581	 5.86124224019545E-02 
582	 5.92333862333022E-02 
583	 5.98442368360531E-02 
584	 6.04183031725776E-02 
585	 6.09376356694195E-02 
586	 6.15195376299468E-02 
587	 6.21135561702314E-02 
588	 6.26595642755163E-02 
589	 6.32981245072147E-02 
590	 6.39513285339807E-02 
591	 6.45617362504795E-02 
592	 6.51042153437693E-02 
593	 6.56000281008625E-02 
594	 6.61141182903649E-02 
595	 6.66951574840913E-02 
596	 6.73312581792711E-02 
597	 0.068019963819986 
598	 6.87314393951135E-02 
599	 6.94280388921604E-02 
600	 7.01282358158054E-02 
601	 7.07962531899946E-02 
602	 0.071397879587131 
603	 7.19094003184596E-02 
604	 7.24298173783904E-02 
605	 7.29822883998384E-02 
606	 7.35473350805861E-02 
607	 7.40523537047057E-02 
608	 0.074516627298757 
609	 0.074964419053999 
610	 7.54190183303327E-02 
611	 7.58347433118362E-02 
612	 7.62633360451942E-02 
613	 7.67286405015392E-02 
614	 7.70909840592673E-02 
615	 7.73964409351305E-02 
616	 7.77167786234939E-02 
617	 7.81190108313905E-02 
618	 7.84087580520731E-02 
619	 7.86431589623133E-02 
620	 7.88913752856477E-02 
621	 7.91658199288049E-02 
622	 7.94199376523234E-02 
623	 7.96456952017447E-02 
624	 7.98524693627777E-02 
625	 8.00429756738322E-02 
626	 8.02318318344182E-02 
627	 0.080431461858798 
628	 8.06511842157268E-02 
629	 8.07875381942587E-02 
630	 8.09325716607558E-02 
631	 8.11781007187872E-02 
632	 8.13982729483746E-02 
633	 8.15715721434475E-02 
634	 8.17147278077703E-02 
635	 8.18750526404878E-02 
636	 0.082066834829753 
637	 8.22416916833055E-02 
638	 8.23753680714837E-02 
639	 8.25310639896675E-02 
640	 8.26819382074603E-02 
641	 8.28583228304676E-02 
642	 8.30934881734678E-02 
643	 8.32483168721453E-02 
644	 8.33966306120563E-02 
645	 8.35817281914612E-02 
646	 8.37726686063497E-02 
647	 8.39545471622849E-02 
648	 8.41190377439234E-02 
649	 0.084279305554449 
650	 0.084521767504497 
651	 0.084764918067254 
652	 8.49684711567656E-02 
653	 8.51390394826547E-02 
654	 0.085367669353143 
655	 8.55884449534253E-02 
656	 8.57633753083388E-02 
657	 8.60014076000626E-02 
658	 8.62258809209644E-02 
659	 8.64592037907143E-02 
660	 8.67510259536692E-02 
661	 0.086986304811144 
662	 8.72234358066176E-02 
663	 8.75026572475753E-02 
664	 0.087815017391182 
665	 8.80861827859146E-02 
666	 8.83552928521876E-02 
667	 8.86671848886984E-02 
668	 8.89313447661536E-02 
669	 8.92560589938071E-02 
670	 8.96255814711963E-02 
671	 8.99262505289715E-02 
672	 9.02848135257989E-02 
673	 9.06411839262196E-02 
674	 9.09605171935978E-02 
675	 9.13509864477503E-02 
676	 9.16970223019605E-02 
677	 9.20208933711305E-02 
678	 9.23971809429165E-02 
679	 9.28021156589691E-02 
680	 9.32169684642199E-02 
681	 9.36230712825921E-02 
682	 0.094002473437948 
683	 9.44068117556079E-02 
684	 9.48445583634807E-02 
685	 9.53049206136111E-02 
686	 9.57552109025957E-02 
687	 9.62322656814332E-02 
688	 9.67210326731173E-02 
689	 0.09717312096126 
690	 9.76249334421857E-02 
691	 9.80664014194782E-02 
692	 9.85117107571103E-02 
693	 9.90423678670273E-02 
694	 0.099557436357421 
695	 0.100055684307442 
696	 0.100570359023153 
697	 0.101104713632211 
698	 0.1016379238009 
699	 0.102173331151773 
700	 0.102740126744956 
701	 0.10329632983816 
702	 0.103826111719815 
703	 0.104343896775966 
704	 0.104929243173764 
705	 0.105526851751703 
706	 0.106101346359091 
707	 0.106637744290838 
708	 0.107200018117409 
709	 0.107780664849177 
710	 0.108363618732446 
711	 0.108936045618144 
712	 0.109494887907059 
713	 0.110026595982522 
714	 0.110532268880199 
715	 0.111058742825711 
716	 0.111663005019456 
717	 0.112288272834888 
718	 0.112807278185703 
719	 0.113318541272693 
720	 0.113834035443458 
721	 0.114346078376816 
722	 0.114832063841231 
723	 0.115335601639538 
724	 0.115830335302846 
725	 0.116279298000689 
726	 0.116720667617567 
727	 0.117152363168305 
728	 0.117574121785498 
729	 0.11798664194156 
730	 0.118354009687956 
731	 0.118724372033359 
732	 0.119111405811056 
733	 0.11940827011399 
734	 0.11968682946333 
735	 0.119954878286454 
736	 0.120197037074814 
737	 0.120422142379276 
738	 0.120627465895089 
739	 0.120812636997117 
740	 0.120980137940664 
741	 0.121110306806146 
742	 0.121207331177299 
743	 0.121277402966734 
744	 0.121314095934836 
745	 0.121339209837849 
746	 0.121357125081841 
747	 0.121357126725319 
748	 0.121296606297833 
749	 0.121197447883955 
750	 0.121102497839472 
751	 0.121068664593287 
752	 0.120967584128695 
753	 0.12084092552046 
754	 0.120720397149851 
755	 0.120475831642216 
756	 0.120261120714109 
757	 0.120071213418667 
758	 0.119831151863736 
759	 0.119625705883126 
760	 0.119344187016782 
761	 0.119000436321715 
762	 0.118778833737349 
763	 0.118490520517426 
764	 0.118164371608884 
765	 0.117855939027159 
766	 0.117544315661912 
767	 0.117200242145496 
768	 0.116850893905347 
769	 0.116536430126005 
770	 0.11616749159106 
771	 0.115802196602514 
772	 0.115456097902111 
773	 0.115079350779902 
774	 0.11471175050388 
775	 0.114340755864558 
776	 0.113957741179602 
777	 0.113604012735026 
778	 0.113200638058831 
779	 0.112792133133891 
780	 0.112454201530926 
781	 0.112066269710042 
782	 0.111693292951054 
783	 0.11133873866251 
784	 0.110931860586185 
785	 0.110546225439135 
786	 0.110163938695873 
787	 0.109772171244469 
788	 0.10941488128556 
789	 0.109049842930824 
790	 0.108681161358295 
791	 0.108321202522417 
792	 0.107925800857359 
793	 0.10757122317306 
794	 0.107260403224098 
795	 0.106929740941105 
796	 0.106564436342567 
797	 0.106220717763212 
798	 0.105917982367589 
799	 0.105587354224279 
800	 0.105255703319022 
801	 0.104925341839339 
802	 0.104594759373821 
803	 0.104270661143085 
804	 0.103970544261117 
805	 0.103671750059281 
806	 0.103338776534324 
807	 0.103054025343376 
808	 0.102785063526492 
809	 0.102507961237584 
810	 0.102226712741616 
811	 0.101975985629076 
812	 0.101712999541586 
813	 0.10142066686542 
814	 0.101202160518072 
815	 0.100968374643636 
816	 0.100724873706646 
817	 0.100505274487174 
818	 0.100266841329561 
819	 0.100030124440468 
820	 9.98012734010703E-02 
821	 9.95743981878813E-02 
822	 9.93871208889848E-02 
823	 0.099209674380773 
824	 9.90219245781676E-02 
825	 9.88374454459802E-02 
826	 9.86520343406111E-02 
827	 9.84529373547604E-02 
828	 9.82484510209569E-02 
829	 9.81259548704199E-02 
830	 9.79433903853162E-02 
831	 9.77539432420362E-02 
832	 0.097672704690162 
833	 9.75553741040826E-02 
834	 9.74185040150237E-02 
835	 9.72720789996116E-02 
836	 9.71151840570592E-02 
837	 9.70243485120517E-02 
838	 9.69496880455842E-02 
839	 9.68432278122719E-02 
840	 9.66973958858149E-02 
841	 9.65917532469373E-02 
842	 9.65027813397787E-02 
843	 9.64000877825956E-02 
844	 9.63308249432576E-02 
845	 9.62952306687572E-02 
846	 9.62266438583391E-02 
847	 9.60716668876272E-02 
848	 9.60279996732336E-02 
849	 9.59897370186327E-02 
850	 9.59320621678758E-02 
851	 9.59097337681322E-02 
852	 9.58784417905059E-02 
853	 9.58408807948249E-02 
854	 9.57961427315527E-02 
855	 9.57298593171598E-02 
856	 0.095743621496772 
857	 9.57695979309642E-02 
858	 9.57462494611718E-02 
859	 9.57365928985601E-02 
860	 9.57224912103928E-02 
861	 9.57227169074834E-02 
862	 0.095755603776414 
863	 9.57902327590132E-02 
864	 9.57953143728346E-02 
865	 0.095809586070485 
866	 0.095892614829372 
867	 9.59296696312472E-02 
868	 9.59391490782826E-02 
869	 9.59623779330495E-02 
870	 9.60431570052542E-02 
871	 9.61238173916545E-02 
872	 9.62043108831751E-02 
873	 9.62818342813504E-02 
874	 9.63342158165082E-02 
875	 9.63886917384845E-02 
876	 9.64186203180463E-02 
877	 9.64350460477767E-02 
878	 9.65832380541671E-02 
879	 9.67429548318481E-02 
880	 9.68544016284835E-02 
881	 9.69214956940061E-02 
882	 9.71038078370865E-02 
883	 9.72781249937223E-02 
884	 0.097392699590182 
885	 9.74659922851989E-02 
886	 9.76309273342569E-02 
887	 9.78151492475923E-02 
888	 9.79759993313245E-02 
889	 9.81185940367742E-02 
890	 9.83065199423891E-02 
891	 9.84785943888864E-02 
892	 9.86284039579188E-02 
893	 9.88320241863733E-02 
894	 0.099022312834652 
895	 9.92111585829046E-02 
896	 9.94139443133793E-02 
897	 9.96252373904591E-02 
898	 0.099819638949781 
899	 0.100034774778859 
900	 0.100288994241552 
901	 0.100501515154245 
902	 0.100738186190495 
903	 0.101010526332953 
904	 0.101293338843077 
905	 0.101503573079726 
906	 0.101732366899142 
907	 0.10200187445241 
908	 0.102301032089221 
909	 0.102656367302193 
910	 0.102981339256631 
911	 0.103281094655124 
912	 0.103613482445492 
913	 0.103911763189645 
914	 0.104241366339087 
915	 0.104578907439713 
916	 0.104840759022591 
917	 0.105233142940162 
918	 0.1056067506544 
919	 0.105913489436873 
920	 0.106271333295112 
921	 0.106693242520522 
922	 0.107121059009973 
923	 0.107524127296704 
924	 0.107934282261447 
925	 0.108305137271245 
926	 0.108722346418634 
927	 0.10920069868731 
928	 0.109579259150949 
929	 0.110038175787885 
930	 0.110504671708365 
931	 0.110909930879109 
932	 0.111339013923007 
933	 0.111914261018759 
934	 0.112481134887228 
935	 0.112915412753215 
936	 0.113432668190834 
937	 0.113962034820994 
938	 0.114483883017801 
939	 0.115016354427487 
940	 0.115659050818996 
941	 0.116246299985138 
942	 0.116852162736879 
943	 0.11755635336314 
944	 0.118057565117909 
945	 0.118578695496101 
946	 0.119174946546229 
947	 0.119805684275753 
948	 0.120418685278411 
949	 0.121050813292224 
950	 0.121696660873734 
951	 0.122344826261858 
952	 0.123077248692995 
953	 0.123764966169156 
954	 0.124406753337997 
955	 0.125085272759336 
956	 0.125863857364912 
957	 0.126709536432567 
958	 0.127463761690286 
959	 0.12800537539317 
960	 0.128793129049196 
961	 0.129625598906764 
962	 0.130420920867888 
963	 0.131208082817796 
964	 0.132005220703312 
965	 0.132816631724028 
966	 0.133681585619558 
967	 0.134628444905771 
968	 0.135494095213692 
969	 0.136295329078956 
970	 0.137100014665543 
971	 0.137986699079863 
972	 0.138952631274588 
973	 0.139964955455455 
974	 0.140926120551209 
975	 0.14175693180425 
976	 0.142676120270163 
977	 0.143637348008679 
978	 0.144560317240792 
979	 0.145402032801422 
980	 0.146381145543262 
981	 0.147348908095414 
982	 0.148284326566984 
983	 0.149271367054374 
984	 0.150385610185993 
985	 0.151565664582844 
986	 0.152587235995164 
987	 0.153323787890886 
988	 0.154485278390986 
989	 0.155618075720225 
990	 0.15665441533512 
991	 0.15775056866005 
992	 0.158950225148837 
993	 0.159978867497908 
994	 0.161017708668168 
995	 0.162279949356265 
996	 0.163198561103269 
997	 0.164249627730527 
998	 0.165418250497891 
999	 0.166548737967895 
1000	 0.167781598745759 
1001	 0.166592525730845 
1002	 0.167674299145214 
1003	 0.168741811914531 
1004	 0.169786596468706 
1005	 0.17078924607349 
1006	 0.171850406428012 
1007	 0.172945339880907 
1008	 0.173990190150053 
1009	 0.175005314574786 
1010	 0.176049418724561 
1011	 0.176992295830863 
1012	 0.177926554038427 
1013	 0.178965493948692 
1014	 0.17995428877951 
1015	 0.181001443052873 
1016	 0.182107572919212 
1017	 0.183099822203943 
1018	 0.184008988291044 
1019	 0.184961384733228 
1020	 0.185952912404562 
1021	 0.186885668485779 
1022	 0.187908554245678 
1023	 0.188872745279023 
1024	 0.189720847303049 
1025	 0.190614571412302 
1026	 0.19147713287513 
1027	 0.192383302550936 
1028	 0.193373643692361 
1029	 0.194321610839877 
1030	 0.195262955655206 
1031	 0.196174368207675 
1032	 0.197076552004042 
1033	 0.197949175992931 
1034	 0.198841851014665 
1035	 0.199692078961097 
1036	 0.200547380893603 
1037	 0.201430666744453 
1038	 0.202255222540234 
1039	 0.203116897303847 
1040	 0.204032870578068 
1041	 0.204861434087291 
1042	 0.205668291798546 
1043	 0.206526060351022 
1044	 0.207369571554855 
1045	 0.208193061957285 
1046	 0.209046358880385 
1047	 0.209944189889487 
1048	 0.210791139923573 
1049	 0.211585985872935 
1050	 0.212403208273525 
1051	 0.21323463816582 
1052	 0.214048024160409 
1053	 0.214900507924576 
1054	 0.215768557902227 
1055	 0.216570071692023 
1056	 0.217364492761714 
1057	 0.218170463300518 
1058	 0.218922912167833 
1059	 0.219751038314851 
1060	 0.220632670460034 
1061	 0.221514773451439 
1062	 0.222376581924115 
1063	 0.223275980057053 
1064	 0.2241083244789 
1065	 0.224899844672794 
1066	 0.22569708269341 
1067	 0.226527913178485 
1068	 0.227347549584218 
1069	 0.228166537229196 
1070	 0.229029596196718 
1071	 0.229920592365685 
1072	 0.23078216592352 
1073	 0.231689753808768 
1074	 0.232557573295407 
1075	 0.233368211190939 
1076	 0.234206814500288 
1077	 0.235092921709885 
1078	 0.235926990329519 
1079	 0.236820169669843 
1080	 0.237767452808015 
1081	 0.238657629591141 
1082	 0.239547611442757 
1083	 0.240415003045036 
1084	 0.241220734952426 
1085	 0.24208137758849 
1086	 0.2429705823177 
1087	 0.243828582307667 
1088	 0.244675064457647 
1089	 0.245552484055429 
1090	 0.246430697711885 
1091	 0.247293942115056 
1092	 0.248205764911668 
1093	 0.249132088045783 
1094	 0.250018858663333 
1095	 0.250925310744508 
1096	 0.251838669991494 
1097	 0.252722790244834 
1098	 0.253614721109189 
1099	 0.254498700198809 
1100	 0.255384954754776 
1101	 0.256274065570191 
1102	 0.257173384416653 
1103	 0.258079144743667 
1104	 0.258978796208572 
1105	 0.259886571676829 
1106	 0.260781675127148 
1107	 0.261684537698227 
1108	 0.262612204989931 
1109	 0.263563894858268 
1110	 0.264506092736551 
1111	 0.265417736822959 
1112	 0.266298944718615 
1113	 0.267208256975046 
1114	 0.26809601927644 
1115	 0.269017594111562 
1116	 0.269995563960184 
1117	 0.270929954677787 
1118	 0.271855609480518 
1119	 0.272761363140189 
1120	 0.273677003872999 
1121	 0.274600531769986 
1122	 0.275540042895913 
1123	 0.276510722563481 
1124	 0.277444575846334 
1125	 0.278356980755511 
1126	 0.279285670559247 
1127	 0.280195164727223 
1128	 0.281135875916447 
1129	 0.282109702782428 
1130	 0.283058051403384 
1131	 0.284012048438111 
1132	 0.2849575746305 
1133	 0.285884051778247 
1134	 0.286820068409062 
1135	 0.287763733417444 
1136	 0.288689506646776 
1137	 0.289648144844514 
1138	 0.290591312129444 
1139	 0.291506614513551 
1140	 0.292419556745829 
1141	 0.293317249546188 
1142	 0.294159005726593 
1143	 0.295054199131964 
1144	 0.295981496728687 
1145	 0.296884480958051 
1146	 0.297801876485843 
1147	 0.298695445222753 
1148	 0.299569639739014 
1149	 0.300439874838191 
1150	 0.301280158534243 
1151	 0.302159403280299 
1152	 0.303032513552894 
1153	 0.303882937853267 
1154	 0.304740475544092 
1155	 0.305597762671419 
1156	 0.306451844370693 
1157	 0.307311848424503 
1158	 0.308158131348194 
1159	 0.30900878235816 
1160	 0.309840646291902 
1161	 0.310651019042619 
1162	 0.31146003196419 
1163	 0.312247464910025 
1164	 0.313055057567338 
1165	 0.313869906798239 
1166	 0.314691798207226 
1167	 0.315505248641329 
1168	 0.3163423572786 
1169	 0.31713801602091 
1170	 0.317913593825834 
1171	 0.31868649598063 
1172	 0.319442921604865 
1173	 0.320195696577999 
1174	 0.320947508476607 
1175	 0.321689556340448 
1176	 0.322427952668648 
1177	 0.323149844888609 
1178	 0.323858238726015 
1179	 0.32456131088684 
1180	 0.325249431230697 
1181	 0.325936346646837 
1182	 0.326621409537314 
1183	 0.327311260630934 
1184	 0.327967955750381 
1185	 0.328608325702166 
1186	 0.329243455873119 
1187	 0.329852887182829 
1188	 0.330474831152308 
1189	 0.331113151119114 
1190	 0.331716116068759 
1191	 0.332305446553506 
1192	 0.332883960015024 
1193	 0.333433681833467 
1194	 0.333989601303049 
1195	 0.334560372692197 
1196	 0.335097842181338 
1197	 0.335615454211218 
1198	 0.336125393460266 
1199	 0.336620762650091 
1200	 0.337084590931637 
1201	 0.33757249001774 
1202	 0.338057094099574 
1203	 0.338558036533907 
1204	 0.339092563272018 
1205	 0.339570339534986 
1206	 0.340038245171236 
1207	 0.340490271376259 
1208	 0.340887182731367 
1209	 0.341317145979753 
1210	 0.341777882229679 
1211	 0.34220242365846 
1212	 0.342609240508099 
1213	 0.343018920078777 
1214	 0.3434174586026 
1215	 0.343804277009744 
1216	 0.344185423867431 
1217	 0.344578107655515 
1218	 0.344933946097937 
1219	 0.345254926636536 
1220	 0.345596595959314 
1221	 0.345932882297583 
1222	 0.346266080579033 
1223	 0.346613827962307 
1224	 0.346934823114871 
1225	 0.34723128506066 
1226	 0.347536947586255 
1227	 0.347829144909492 
1228	 0.34813110582769 
1229	 0.348456209007451 
1230	 0.348755380539149 
1231	 0.349036367185736 
1232	 0.34932515532169 
1233	 0.349610001570323 
1234	 0.349889088038588 
1235	 0.350145480539733 
1236	 0.350401787304223 
1237	 0.350643847289222 
1238	 0.350846850339627 
1239	 0.351078956458845 
1240	 0.351332474632303 
1241	 0.351562438264703 
1242	 0.351786915591971 
1243	 0.35200634653156 
1244	 0.352211935886385 
1245	 0.352417334804914 
1246	 0.352623481880126 
1247	 0.352825630225648 
1248	 0.353012611655433 
1249	 0.353216472608157 
1250	 0.353416567885528 
1251	 0.353598742742098 
1252	 0.353795205285328 
1253	 0.353995942992399 
1254	 0.354188428005165 
1255	 0.354387097105945 
1256	 0.354572215896942 
1257	 0.354752402912919 
1258	 0.354918734625394 
1259	 0.355067862765009 
1260	 0.355225116062428 
1261	 0.355368281063669 
1262	 0.355522819245447 
1263	 0.3556917859182 
1264	 0.355854273834405 
1265	 0.356033876865926 
1266	 0.356182681285324 
1267	 0.356319461236075 
1268	 0.356433008380577 
1269	 0.356555981490741 
1270	 0.356657440437783 
1271	 0.356777328045466 
1272	 0.356913746668036 
1273	 0.357036700517171 
1274	 0.357147573120941 
1275	 0.357269604653607 
1276	 0.357393296263462 
1277	 0.357519778581595 
1278	 0.357666321894722 
1279	 0.357785063241472 
1280	 0.357893259724303 
1281	 0.357996320289457 
1282	 0.358079839193327 
1283	 0.358162917081206 
1284	 0.358229518313155 
1285	 0.358319092082298 
1286	 0.358408625920459 
1287	 0.358502326054716 
1288	 0.358594654910456 
1289	 0.358695282360751 
1290	 0.358795207032835 
1291	 0.358888152808559 
1292	 0.358992914892951 
1293	 0.359130084692596 
1294	 0.359219481700819 
1295	 0.359273477706453 
1296	 0.359360086238627 
1297	 0.359426405736331 
1298	 0.359518250072635 
1299	 0.359656642803483 
1300	 0.359767855887568 
1301	 0.359866569951635 
1302	 0.359971997772579 
1303	 0.360081074851426 
1304	 0.360180923069696 
1305	 0.360269933716681 
1306	 0.360370919875616 
1307	 0.360473044855404 
1308	 0.360542729545908 
1309	 0.360614747878719 
1310	 0.36068998840414 
1311	 0.360744506748153 
1312	 0.36078332055777 
1313	 0.360813994537204 
1314	 0.360827594012488 
1315	 0.360843100802363 
1316	 0.360845109416995 
1317	 0.360855633795271 
1318	 0.360873467138802 
1319	 0.360883998853778 
1320	 0.360891431744202 
1321	 0.360894517783898 
1322	 0.360908679104515 
1323	 0.360882847307018 
1324	 0.360866387121988 
1325	 0.360887633684006 
1326	 0.360838164822998 
1327	 0.360794619531795 
1328	 0.360744551289565 
1329	 0.360665333996412 
1330	 0.360604545225793 
1331	 0.360553020117948 
1332	 0.360504133695948 
1333	 0.360463009926159 
1334	 0.360402091491853 
1335	 0.36035267877388 
1336	 0.36027890946839 
1337	 0.360160363580656 
1338	 0.360076634492258 
1339	 0.360020005365363 
1340	 0.359930643758107 
1341	 0.359847360370994 
1342	 0.359741246255364 
1343	 0.359607445332358 
1344	 0.359453406194775 
1345	 0.359329612168919 
1346	 0.359194681844864 
1347	 0.3590436224027 
1348	 0.358885759836832 
1349	 0.358679563658444 
1350	 0.35846442992125 
1351	 0.358249056909848 
1352	 0.358016535520241 
1353	 0.357786859301129 
1354	 0.35755845583658 
1355	 0.357323485197847 
1356	 0.357066724750617 
1357	 0.356846408046113 
1358	 0.356608681538369 
1359	 0.356435502361562 
1360	 0.356305559277481 
1361	 0.356189949778541 
1362	 0.356129532016633 
1363	 0.356059378407774 
1364	 0.355978717209008 
1365	 0.355940853794575 
1366	 0.355933290964404 
1367	 0.355925539649973 
1368	 0.355965974619325 
1369	 0.356000879777557 
1370	 0.355983418295255 
1371	 0.355933170799442 
1372	 0.355842108933678 
1373	 0.355698505399595 
1374	 0.355489235656984 
1375	 0.355242354091031 
1376	 0.354911504416247 
1377	 0.354497075975054 
1378	 0.354043657075957 
1379	 0.353477409398098 
1380	 0.352981608373427 
1381	 0.352448878929678 
1382	 0.351959746507719 
1383	 0.351562841266072 
1384	 0.351077643371546 
1385	 0.350610434953412 
1386	 0.35004662170804 
1387	 0.349414257616246 
1388	 0.348735579216198 
1389	 0.348013388532066 
1390	 0.347210411384455 
1391	 0.346343869864308 
1392	 0.345393981894981 
1393	 0.344324843939226 
1394	 0.343215527886938 
1395	 0.342069144797634 
1396	 0.340877710491987 
1397	 0.339687916953207 
1398	 0.338482738796726 
1399	 0.337257789492748 
1400	 0.336019811315347 
1401	 0.334752660409089 
1402	 0.333437080760707 
1403	 0.3321696857437 
1404	 0.330876882604082 
1405	 0.329642405859927 
1406	 0.328460723939051 
1407	 0.327268004510389 
1408	 0.326073926710801 
1409	 0.324926286824235 
1410	 0.323765026884969 
1411	 0.322701563586031 
1412	 0.321695147023611 
1413	 0.320749165997851 
1414	 0.319888332678112 
1415	 0.319055589377687 
1416	 0.318252872484438 
1417	 0.317501905069144 
1418	 0.316771591199762 
1419	 0.316092632684859 
1420	 0.315490049217884 
1421	 0.314915422809605 
1422	 0.314391668010291 
1423	 0.313895692764244 
1424	 0.313393765444486 
1425	 0.312885531669754 
1426	 0.312439590440863 
1427	 0.312004740736029 
1428	 0.311631951948186 
1429	 0.311321991220176 
1430	 0.311028046306315 
1431	 0.310782483703478 
1432	 0.310528576892189 
1433	 0.310284519040514 
1434	 0.310077142707567 
1435	 0.309877653174079 
1436	 0.309711549883857 
1437	 0.309609762849631 
1438	 0.309485215790271 
1439	 0.309359207443786 
1440	 0.309250929722771 
1441	 0.309145392305954 
1442	 0.309036301674371 
1443	 0.308950333475274 
1444	 0.308884537540525 
1445	 0.308861665741621 
1446	 0.308853435119344 
1447	 0.30885542460348 
1448	 0.308866054264473 
1449	 0.308829273150606 
1450	 0.308794083939792 
1451	 0.308769955940135 
1452	 0.308725298547778 
1453	 0.30873000939589 
1454	 0.308779003458126 
1455	 0.308793938343821 
1456	 0.308825289044497 
1457	 0.308837316847729 
1458	 0.308811554108631 
1459	 0.308821641011284 
1460	 0.308825865205763 
1461	 0.308875948765466 
1462	 0.308963824795556 
1463	 0.309047566895606 
1464	 0.309166404017165 
1465	 0.309276018937951 
1466	 0.309361847974849 
1467	 0.309487757447018 
1468	 0.309618344297148 
1469	 0.309789536480391 
1470	 0.309998830712595 
1471	 0.310234339470161 
1472	 0.310484578714358 
1473	 0.310749111857196 
1474	 0.310982738432644 
1475	 0.31121160091385 
1476	 0.311448086389106 
1477	 0.311700707536127 
1478	 0.312017537439871 
1479	 0.312360276016714 
1480	 0.312716347176279 
1481	 0.313079003778635 
1482	 0.313410475472755 
1483	 0.313721213605614 
1484	 0.314037893044408 
1485	 0.314325517146996 
1486	 0.314653933391157 
1487	 0.315004692187283 
1488	 0.315342836960943 
1489	 0.315716040373124 
1490	 0.316042929113261 
1491	 0.316336560537741 
1492	 0.316637586798441 
1493	 0.316909256143834 
1494	 0.317204409563294 
1495	 0.317506226665277 
1496	 0.317820976723359 
1497	 0.318164667996246 
1498	 0.318484493426179 
1499	 0.318811818269357 
1500	 0.319116561788854 
1501	 0.319391085953564 
1502	 0.319671328259043 
1503	 0.31994316875879 
1504	 0.320213164873913 
1505	 0.32049327911681 
1506	 0.320771405126053 
1507	 0.321054767868768 
1508	 0.321324022107619 
1509	 0.321572104771949 
1510	 0.321823035733562 
1511	 0.322070744663899 
1512	 0.322324973074514 
1513	 0.322580879939584 
1514	 0.32283887142885 
1515	 0.323112681705015 
1516	 0.32338357405954 
1517	 0.323632302952608 
1518	 0.323886737983474 
1519	 0.324113343211507 
1520	 0.324293772204016 
1521	 0.324510992761085 
1522	 0.324738221511471 
1523	 0.324955844730624 
1524	 0.32518218891846 
1525	 0.325398138731861 
1526	 0.32560135024307 
1527	 0.325811808086778 
1528	 0.326038696514175 
1529	 0.326228877029356 
1530	 0.326392754973875 
1531	 0.326571425272933 
1532	 0.326737517548168 
1533	 0.326903010384883 
1534	 0.327073714362787 
1535	 0.327250646037487 
1536	 0.327411777033219 
1537	 0.32758891325481 
1538	 0.327799709573769 
1539	 0.327984619067995 
1540	 0.328162522132764 
1541	 0.328332547127456 
1542	 0.328484825937409 
1543	 0.3286438069231 
1544	 0.328801451664124 
1545	 0.328957098944379 
1546	 0.329114769973491 
1547	 0.329266113911391 
1548	 0.329417855974268 
1549	 0.329571729772671 
1550	 0.329737766556906 
1551	 0.329891555028326 
1552	 0.330037576513869 
1553	 0.33017908181611 
1554	 0.330301778422206 
1555	 0.330419671709165 
1556	 0.330517226260949 
1557	 0.330625877791075 
1558	 0.330748400221432 
1559	 0.330850634741102 
1560	 0.330964870103998 
1561	 0.331097068027413 
1562	 0.331199981644201 
1563	 0.331277670098741 
1564	 0.331392628393693 
1565	 0.331516883058967 
1566	 0.331628754007571 
1567	 0.331760677368102 
1568	 0.331874040023429 
1569	 0.331967229887132 
1570	 0.3320603840034 
1571	 0.332165983013023 
1572	 0.332237914732642 
1573	 0.33228482795688 
1574	 0.332330187496453 
1575	 0.332339251724481 
1576	 0.332392890228573 
1577	 0.332458897403193 
1578	 0.332528336494273 
1579	 0.332623194211297 
1580	 0.33271448089449 
1581	 0.332814453976038 
1582	 0.332897381516348 
1583	 0.332977195319143 
1584	 0.333058704280172 
1585	 0.333124219612407 
1586	 0.333197204589605 
1587	 0.333283794705176 
1588	 0.333361097043488 
1589	 0.333445438398459 
1590	 0.333501224331544 
1591	 0.333528756115643 
1592	 0.333577617087487 
1593	 0.333622848231516 
1594	 0.33365694575691 
1595	 0.333707029865592 
1596	 0.333739826035449 
1597	 0.333743515117429 
1598	 0.333754362486025 
1599	 0.33376733826833 
1600	 0.333778681467096 
1601	 0.33377753515674 
1602	 0.333787927781918 
1603	 0.333800987251539 
1604	 0.333822700436282 
1605	 0.333854440363097 
1606	 0.33389082459757 
1607	 0.333939533441719 
1608	 0.33398504554386 
1609	 0.334027734645972 
1610	 0.334070833552339 
1611	 0.334093028793015 
1612	 0.334110381330532 
1613	 0.334148256200466 
1614	 0.334186561452315 
1615	 0.334217518008996 
1616	 0.334255527757261 
1617	 0.334276603879927 
1618	 0.334291181138258 
1619	 0.334313790795724 
1620	 0.334321410477675 
1621	 0.334328323407459 
1622	 0.334323845886024 
1623	 0.33432183921039 
1624	 0.334317500044609 
1625	 0.334323041963487 
1626	 0.334325861643482 
1627	 0.334338846522077 
1628	 0.334370699824494 
1629	 0.334375472738913 
1630	 0.334374578477078 
1631	 0.334365321942051 
1632	 0.334339199511356 
1633	 0.33431960316872 
1634	 0.334296775391319 
1635	 0.334279788787155 
1636	 0.334274616514213 
1637	 0.334232403136258 
1638	 0.334175719411543 
1639	 0.334122860902305 
1640	 0.334043497137926 
1641	 0.333981790580255 
1642	 0.333939693017828 
1643	 0.333877151399795 
1644	 0.333781147357633 
1645	 0.333743647790903 
1646	 0.333720670900666 
1647	 0.333719350594503 
1648	 0.333771229281844 
1649	 0.333791039257598 
1650	 0.333820193164166 
1651	 0.333817999478266 
1652	 0.33380037542961 
1653	 0.333774537944187 
1654	 0.33371903718983 
1655	 0.333680826495039 
1656	 0.333647567089306 
1657	 0.333605293460575 
1658	 0.333567623505927 
1659	 0.333511476396764 
1660	 0.333431640043141 
1661	 0.333374654240223 
1662	 0.333321400368627 
1663	 0.333260762862225 
1664	 0.333217356934095 
1665	 0.333148777929956 
1666	 0.333053234262832 
1667	 0.332972361686419 
1668	 0.332881443830676 
1669	 0.332811845672002 
1670	 0.332759057967415 
1671	 0.332697816783713 
1672	 0.332643706798008 
1673	 0.332589265628165 
1674	 0.332518952047688 
1675	 0.332479115801354 
1676	 0.332482731008643 
1677	 0.332431946556041 
1678	 0.332383466261993 
1679	 0.332298425413538 
1680	 0.332140009997742 
1681	 0.332040489424535 
1682	 0.331953158232911 
1683	 0.3318684706201 
1684	 0.331809320957466 
1685	 0.331739471385903 
1686	 0.331661895333331 
1687	 0.331591274903797 
1688	 0.331537356868885 
1689	 0.331459888403863 
1690	 0.331370334508743 
1691	 0.331279409941289 
1692	 0.331183825686542 
1693	 0.331072764843802 
1694	 0.330956881456824 
1695	 0.330830559909864 
1696	 0.330666314389324 
1697	 0.330542135403949 
1698	 0.330419304257907 
1699	 0.330330844658695 
1700	 0.330286648743452 
1701	 0.330220696062734 
1702	 0.330179928368686 
1703	 0.330102837910045 
1704	 0.329992203891036 
1705	 0.329904004653065 
1706	 0.329807481951096 
1707	 0.329723099892365 
1708	 0.329676065395552 
1709	 0.329575475104523 
1710	 0.329448490388922 
1711	 0.329324746093339 
1712	 0.329163392376981 
1713	 0.329031191188001 
1714	 0.328920845216527 
1715	 0.328795851544455 
1716	 0.328666102988747 
1717	 0.328541278866637 
1718	 0.328417063979569 
1719	 0.328286266947727 
1720	 0.328163246348444 
1721	 0.328026387724703 
1722	 0.327875068179941 
1723	 0.327727417795042 
1724	 0.327585426348293 
1725	 0.327411585120605 
1726	 0.327226004446519 
1727	 0.327033881325004 
1728	 0.326800111698794 
1729	 0.326611943716093 
1730	 0.326433301345566 
1731	 0.326278208613573 
1732	 0.32616616464917 
1733	 0.326007568441896 
1734	 0.325853437209501 
1735	 0.325674392847922 
1736	 0.325458896640737 
1737	 0.325258515463161 
1738	 0.325060150464254 
1739	 0.324848969086528 
1740	 0.324622751719475 
1741	 0.324411524550996 
1742	 0.324190364345351 
1743	 0.3239971752154 
1744	 0.323825691615593 
1745	 0.323651924667475 
1746	 0.323496672488667 
1747	 0.323299726448402 
1748	 0.323121192851227 
1749	 0.322911369721316 
1750	 0.322713908271969 
1751	 0.322525870544026 
1752	 0.32228369473789 
1753	 0.322040436231456 
1754	 0.321832015779701 
1755	 0.321624432093934 
1756	 0.321444158220988 
1757	 0.321290578710292 
1758	 0.321113275149444 
1759	 0.320935568581967 
1760	 0.320773760087622 
1761	 0.320622949463461 
1762	 0.320459534094436 
1763	 0.320280401522557 
1764	 0.320098747825693 
1765	 0.319913365149134 
1766	 0.319724927592323 
1767	 0.319542316616379 
1768	 0.319391313399552 
1769	 0.319217607706553 
1770	 0.31904528424444 
1771	 0.31893619039062 
1772	 0.318801379049346 
1773	 0.31866247082607 
1774	 0.3185469847871 
1775	 0.31837369593794 
1776	 0.318184422374287 
1777	 0.318014218313737 
1778	 0.317827788708755 
1779	 0.317645319130861 
1780	 0.317502456074166 
1781	 0.317369127059181 
1782	 0.317237637710044 
1783	 0.31715058758841 
1784	 0.317047441425277 
1785	 0.316947584336334 
1786	 0.316837038092773 
1787	 0.316710676153029 
1788	 0.316592067179632 
1789	 0.316459303545568 
1790	 0.316355127714867 
1791	 0.316284558050179 
1792	 0.316203157387958 
1793	 0.316130790891789 
1794	 0.316039255125056 
1795	 0.315923542011387 
1796	 0.315824992584338 
1797	 0.315737513658004 
1798	 0.315651075577536 
1799	 0.315568038053156 
1800	 0.315476792457168 
1801	 0.309976003567526 
1802	 0.310272596106444 
1803	 0.310634133751332 
1804	 0.311018445955753 
1805	 0.311400854287975 
1806	 0.31179448192567 
1807	 0.312170575055017 
1808	 0.312437426839862 
1809	 0.312624078346293 
1810	 0.312784298438161 
1811	 0.312872946562859 
1812	 0.312934194001947 
1813	 0.312987896613829 
1814	 0.313028452957898 
1815	 0.313040277260992 
1816	 0.313017017799702 
1817	 0.313006732342959 
1818	 0.312977005259449 
1819	 0.312956631902961 
1820	 0.312942282142191 
1821	 0.312928354351485 
1822	 0.312904426136261 
1823	 0.312888375578908 
1824	 0.312887491658924 
1825	 0.312865351323303 
1826	 0.312833727331383 
1827	 0.312764541419754 
1828	 0.312666532740791 
1829	 0.312540627056137 
1830	 0.312400305062368 
1831	 0.312213304752432 
1832	 0.312038482057165 
1833	 0.311889609145282 
1834	 0.311734958754622 
1835	 0.311627862448331 
1836	 0.311554136297129 
1837	 0.311466679627583 
1838	 0.311381673208146 
1839	 0.311322911576482 
1840	 0.311288380266116 
1841	 0.31123137775806 
1842	 0.311180685753336 
1843	 0.311143945780048 
1844	 0.311073186763451 
1845	 0.310999346097317 
1846	 0.310928046526995 
1847	 0.3108405458988 
1848	 0.310709051562757 
1849	 0.310573087966499 
1850	 0.310441656937372 
1851	 0.310318883599883 
1852	 0.310150568375112 
1853	 0.309969939414156 
1854	 0.309772313052379 
1855	 0.309506647866913 
1856	 0.30923185450453 
1857	 0.308946218743326 
1858	 0.308597070740587 
1859	 0.308216099718066 
1860	 0.30776621246516 
1861	 0.307267181533961 
1862	 0.306695920714518 
1863	 0.30603746526547 
1864	 0.305264533414501 
1865	 0.304437497482808 
1866	 0.303491319348466 
1867	 0.302521212181597 
1868	 0.301559393849747 
1869	 0.300555629467802 
1870	 0.299594453980408 
1871	 0.298607521106085 
1872	 0.297624888759229 
1873	 0.296630392471322 
1874	 0.295588619565418 
1875	 0.294513868380886 
1876	 0.293399619086711 
1877	 0.292175064702922 
1878	 0.290845294842786 
1879	 0.289362754905044 
1880	 0.28773700595821 
1881	 0.285939893067223 
1882	 0.284054077606344 
1883	 0.282051670630977 
1884	 0.279903264223637 
1885	 0.277643700508305 
1886	 0.275253293815396 
1887	 0.272736980084859 
1888	 0.27013943680089 
1889	 0.267429457008749 
1890	 0.26465430661909 
1891	 0.26185228659358 
1892	 0.258950058968213 
1893	 0.256057539300416 
1894	 0.253147590289836 
1895	 0.250200983289245 
1896	 0.24721309900116 
1897	 0.244226662645145 
1898	 0.241217984522739 
1899	 0.23828780519602 
1900	 0.235477422252772 
1901	 0.232734358618504 
1902	 0.230138281042627 
1903	 0.227717233152877 
1904	 0.225357257435453 
1905	 0.223070330333699 
1906	 0.220946279716864 
1907	 0.218940421932633 
1908	 0.21701463712252 
1909	 0.215238823961432 
1910	 0.213546719789249 
1911	 0.21196718142663 
1912	 0.210496650740698 
1913	 0.209106126863965 
1914	 0.207816285692659 
1915	 0.206622659510136 
1916	 0.205517968989697 
1917	 0.204485195449455 
1918	 0.203576242584708 
1919	 0.202751989259078 
1920	 0.202024319462231 
1921	 0.201379601613757 
1922	 0.200828227183449 
1923	 0.200356207876259 
1924	 0.199932384850574 
1925	 0.199599753767359 
1926	 0.1992862732527 
1927	 0.199007693286177 
1928	 0.198788386516539 
1929	 0.198614566595219 
1930	 0.198483300761725 
1931	 0.198441996684054 
1932	 0.198410921204416 
1933	 0.198422467063991 
1934	 0.198485026483343 
1935	 0.198550556205756 
1936	 0.198624225951163 
1937	 0.198749508031319 
1938	 0.198893646139941 
1939	 0.19908331519047 
1940	 0.199323903475512 
1941	 0.19959113018008 
1942	 0.199886581552966 
1943	 0.200195683341471 
1944	 0.200521931572812 
1945	 0.200876756885443 
1946	 0.2012393952818 
1947	 0.201626187800342 
1948	 0.202010137611003 
1949	 0.202386004900095 
1950	 0.202798818572417 
1951	 0.203234533426154 
1952	 0.203677104084438 
1953	 0.204130590937687 
1954	 0.204610012621279 
1955	 0.205073833497503 
1956	 0.205559060445842 
1957	 0.206082038811625 
1958	 0.206642716383374 
1959	 0.207212555532009 
1960	 0.207828420783692 
1961	 0.208420219450249 
1962	 0.20901772688113 
1963	 0.209615961093437 
1964	 0.210203684409838 
1965	 0.210799038647399 
1966	 0.211426347743644 
1967	 0.212054910629585 
1968	 0.212672142565136 
1969	 0.213290252561025 
1970	 0.213910697820957 
1971	 0.214522182280052 
1972	 0.215146918649374 
1973	 0.215787714070716 
1974	 0.21641884307659 
1975	 0.217055603147057 
1976	 0.217670207573744 
1977	 0.218289632222447 
1978	 0.218935847209436 
1979	 0.219590840180832 
1980	 0.220243455891619 
1981	 0.22089594595954 
1982	 0.221541773112454 
1983	 0.222210312889458 
1984	 0.222894807161524 
1985	 0.223568584097183 
1986	 0.224277531813347 
1987	 0.224944873132614 
1988	 0.225571668754114 
1989	 0.226210679952843 
1990	 0.226875044184761 
1991	 0.227500308678571 
1992	 0.228138226979359 
1993	 0.228791778515032 
1994	 0.229436229787604 
1995	 0.230067910872512 
1996	 0.230699131532057 
1997	 0.23133360619776 
1998	 0.231970181726301 
1999	 0.232599168616414 
2000	 0.233228663596668 
2001	 0.233863269444195 
2002	 0.234488703317297 
2003	 0.235158258881168 
2004	 0.235823894781171 
2005	 0.236477932140096 
2006	 0.237169185401482 
2007	 0.237812588539075 
2008	 0.238413919296771 
2009	 0.239020653223701 
2010	 0.239614590782494 
2011	 0.240210226080576 
2012	 0.240788568275108 
2013	 0.241376250990166 
2014	 0.241958025309001 
2015	 0.242568355702896 
2016	 0.24317341288342 
2017	 0.243760467558044 
2018	 0.24434007630138 
2019	 0.244907847546406 
2020	 0.24547652814979 
2021	 0.246040366267381 
2022	 0.246596575521698 
2023	 0.247146835643415 
2024	 0.247701162749252 
2025	 0.248240813041463 
2026	 0.248788864172853 
2027	 0.249333908149784 
2028	 0.249910711821772 
2029	 0.250464688929455 
2030	 0.251028046449469 
2031	 0.251547761381306 
2032	 0.252047062095891 
2033	 0.252538227194864 
2034	 0.252987353075121 
2035	 0.253463991068864 
2036	 0.253953801958024 
2037	 0.254428308215694 
2038	 0.254906437353175 
2039	 0.255368662912627 
2040	 0.255796999654929 
2041	 0.256259369348699 
2042	 0.256720746368826 
2043	 0.257166576552013 
2044	 0.257599501488863 
2045	 0.258031179020914 
2046	 0.258446669813525 
2047	 0.258823779301494 
2048	 0.259237527745549 
2049	 0.259670231856943 
2050	 0.2600891519888 
2051	 0.260519585828859 
2052	 0.260934238212213 
2053	 0.261338462318613 
2054	 0.261734198769742 
2055	 0.262119587543465 
2056	 0.262498204981768 
2057	 0.26288782095189 
2058	 0.263279680071722 
2059	 0.263654292886302 
2060	 0.264030483404891 
2061	 0.264402657349771 
2062	 0.264759454576713 
2063	 0.26511320394945 
2064	 0.265460631016963 
2065	 0.265818672457093 
2066	 0.266166592063956 
2067	 0.266524340432974 
2068	 0.266900069588437 
2069	 0.267283794623734 
2070	 0.26763626653278 
2071	 0.267975966318315 
2072	 0.268308315487895 
2073	 0.268618728539802 
2074	 0.268941341080961 
2075	 0.269260413375841 
2076	 0.269583466610971 
2077	 0.269907323783525 
2078	 0.27023311969077 
2079	 0.270564006645052 
2080	 0.270891450031207 
2081	 0.271230572468936 
2082	 0.271549510619137 
2083	 0.271861709930146 
2084	 0.27215714069511 
2085	 0.272454893678595 
2086	 0.272737627336974 
2087	 0.273028358984562 
2088	 0.273323695490045 
2089	 0.273612247034303 
2090	 0.273887800008067 
2091	 0.274181230095217 
2092	 0.274487033666573 
2093	 0.274780557732099 
2094	 0.275068202560149 
2095	 0.275371014766863 
2096	 0.275683129959398 
2097	 0.275981522811251 
2098	 0.276285437050887 
2099	 0.276592818083515 
2100	 0.276886134666708 
2101	 0.277153876222151 
2102	 0.277445621130431 
2103	 0.277750808875446 
2104	 0.278041578642892 
2105	 0.278329762054351 
2106	 0.278616050316406 
2107	 0.278891094873224 
2108	 0.279178828961623 
2109	 0.279469271273682 
2110	 0.279766339649867 
2111	 0.280056415014386 
2112	 0.280372754404122 
2113	 0.280712481418113 
2114	 0.281057876513242 
2115	 0.281384175450957 
2116	 0.281728756480005 
2117	 0.282038974157322 
2118	 0.282316217632544 
2119	 0.282606551749758 
2120	 0.282911009698308 
2121	 0.283171275010551 
2122	 0.283407307141891 
2123	 0.283636933286607 
2124	 0.283818027837619 
2125	 0.28403198973192 
2126	 0.284270868718122 
2127	 0.284487538814108 
2128	 0.284708358954539 
2129	 0.284914856009173 
2130	 0.285114711652883 
2131	 0.285289615957019 
2132	 0.285442680733453 
2133	 0.285573754562682 
2134	 0.285710578285927 
2135	 0.285818252235689 
2136	 0.28594081851852 
2137	 0.286087530702558 
2138	 0.286199429162943 
2139	 0.286303686010312 
2140	 0.286381697143035 
2141	 0.286431725949554 
2142	 0.286476126396788 
2143	 0.286501205577531 
2144	 0.286515797784937 
2145	 0.28652136043872 
2146	 0.286514404650558 
2147	 0.286483178912495 
2148	 0.286461460899911 
2149	 0.286414812798077 
2150	 0.286347931062115 
2151	 0.286295041356904 
2152	 0.286231642220316 
2153	 0.286171912411788 
2154	 0.286149975357401 
2155	 0.286056668989804 
2156	 0.285918897071953 
2157	 0.285789696416914 
2158	 0.285614291939859 
2159	 0.285460772686604 
2160	 0.285317599975332 
2161	 0.28517902033114 
2162	 0.285054498797235 
2163	 0.284908637802998 
2164	 0.284764046282454 
2165	 0.284609761425097 
2166	 0.284440604967935 
2167	 0.284251876552029 
2168	 0.284052150347144 
2169	 0.283834891038731 
2170	 0.283629603092151 
2171	 0.283403982043082 
2172	 0.283198477817374 
2173	 0.283004824708468 
2174	 0.282818917398068 
2175	 0.282633504408226 
2176	 0.282464877920662 
2177	 0.282342121518474 
2178	 0.282174576861903 
2179	 0.281977452196254 
2180	 0.281802171062965 
2181	 0.281621552826384 
2182	 0.281430754350784 
2183	 0.281265777335663 
2184	 0.281080656645315 
2185	 0.280870034200437 
2186	 0.280614488474576 
2187	 0.280393601098955 
2188	 0.280175452651311 
2189	 0.279953206228021 
2190	 0.279723680808732 
2191	 0.279522943898107 
2192	 0.279315433609828 
2193	 0.279138625324028 
2194	 0.279004520922759 
2195	 0.278862901276083 
2196	 0.278733256060452 
2197	 0.278604249049149 
2198	 0.278466385935627 
2199	 0.278359457708087 
2200	 0.278278636479761 
2201	 0.278191695134453 
2202	 0.278119038857728 
2203	 0.278051517849415 
2204	 0.277999077910781 
2205	 0.277941129544322 
2206	 0.277909752111358 
2207	 0.277909283883757 
2208	 0.277903469960498 
2209	 0.277915113236176 
2210	 0.277905514812536 
2211	 0.277894948323208 
2212	 0.277880657320443 
2213	 0.277843559907847 
2214	 0.277824089077956 
2215	 0.277811620355589 
2216	 0.277809378565592 
2217	 0.277818214233857 
2218	 0.277826216405305 
2219	 0.277851299933024 
2220	 0.277862568719394 
2221	 0.277881815536433 
2222	 0.277875880969851 
2223	 0.277846884127056 
2224	 0.27778451514977 
2225	 0.277727644492829 
2226	 0.277631615035968 
2227	 0.277579002172121 
2228	 0.27755480773624 
2229	 0.277504877644937 
2230	 0.277452892375544 
2231	 0.277398701680891 
2232	 0.277327540496096 
2233	 0.277270640538273 
2234	 0.277236062664777 
2235	 0.277175894206517 
2236	 0.277099329023708 
2237	 0.277030066093427 
2238	 0.276966694712149 
2239	 0.276876216825013 
2240	 0.276762859308661 
2241	 0.276671197909749 
2242	 0.276557613298726 
2243	 0.276463999675229 
2244	 0.276416493459823 
2245	 0.276346348381713 
2246	 0.276248358556986 
2247	 0.276144022539053 
2248	 0.276033343697804 
2249	 0.275898512893743 
2250	 0.275788765966999 
2251	 0.27567686861106 
2252	 0.27558825764073 
2253	 0.275519219949816 
2254	 0.275450591140897 
2255	 0.275404922030994 
2256	 0.275335946193692 
2257	 0.275270795072876 
2258	 0.275174588733447 
2259	 0.275045991251727 
2260	 0.274941954098595 
2261	 0.274819965404531 
2262	 0.274718670947587 
2263	 0.274617931418821 
2264	 0.274552606919234 
2265	 0.274538695295651 
2266	 0.274490758563648 
2267	 0.274468382249086 
2268	 0.274419767925022 
2269	 0.274340865007022 
2270	 0.274233530144996 
2271	 0.27412467471776 
2272	 0.274064846140592 
2273	 0.27401784337804 
2274	 0.27395981693855 
2275	 0.273908474346189 
2276	 0.273884975471598 
2277	 0.273818239392833 
2278	 0.273721473676007 
2279	 0.273649287437137 
2280	 0.273562948740754 
2281	 0.273495809798036 
2282	 0.273471563612802 
2283	 0.273391817389494 
2284	 0.273277175519428 
2285	 0.273191822005394 
2286	 0.273085825035242 
2287	 0.272994082003305 
2288	 0.272928604017444 
2289	 0.272866722066753 
2290	 0.272825734776115 
2291	 0.272743991956225 
2292	 0.272646936383707 
2293	 0.272550608315165 
2294	 0.27239201422477 
2295	 0.272289446221246 
2296	 0.272219113936472 
2297	 0.272189162224905 
2298	 0.272126592375223 
2299	 0.272062497278699 
2300	 0.271969473776451 
2301	 0.271836656085279 
2302	 0.271711981253562 
2303	 0.271592967920015 
2304	 0.271498790221453 
2305	 0.271361623101471 
2306	 0.271224912831104 
2307	 0.271090945868374 
2308	 0.270934436285614 
2309	 0.270754556205952 
2310	 0.270585361095886 
2311	 0.27040678591298 
2312	 0.270227889722704 
2313	 0.270037344766042 
2314	 0.26985437769964 
2315	 0.269690790949193 
2316	 0.269499019749307 
2317	 0.269298573325897 
2318	 0.269087523538711 
2319	 0.268845005529057 
2320	 0.268618083850116 
2321	 0.268372516166033 
2322	 0.268177592253273 
2323	 0.268023273090183 
2324	 0.267839668027595 
2325	 0.267674120954998 
2326	 0.267504929799838 
2327	 0.267307282062516 
2328	 0.267140723184574 
2329	 0.266962436599744 
2330	 0.266814306687475 
2331	 0.266687742242219 
2332	 0.266484263730291 
2333	 0.266322097221149 
2334	 0.266142403170082 
2335	 0.265910400492146 
2336	 0.265728244892979 
2337	 0.265541878688148 
2338	 0.265339273855908 
2339	 0.265131222595187 
2340	 0.264920283415159 
2341	 0.264682845324759 
2342	 0.264432858791313 
2343	 0.264231107740088 
2344	 0.264013082865904 
2345	 0.263734558077466 
2346	 0.263420397710826 
2347	 0.263141976712761 
2348	 0.262813169969195 
2349	 0.26250820636775 
2350	 0.262261758535308 
2351	 0.261967578624978 
2352	 0.261639316489834 
2353	 0.261283916793249 
2354	 0.260903927741058 
2355	 0.260550576734527 
2356	 0.260178649714052 
2357	 0.259826066932914 
2358	 0.259516450158756 
2359	 0.25915963074752 
2360	 0.2587294484737 
2361	 0.25837408255577 
2362	 0.258069486612455 
2363	 0.257749639461457 
2364	 0.257495331855222 
2365	 0.257162120812932 
2366	 0.256747448372222 
2367	 0.256372348668505 
2368	 0.256000381805897 
2369	 0.255596153147331 
2370	 0.255189772101884 
2371	 0.254779641294935 
2372	 0.254354260198169 
2373	 0.253874583317477 
2374	 0.253437263101088 
2375	 0.253010789879927 
2376	 0.252566508550578 
2377	 0.252198160480395 
2378	 0.251789332712256 
2379	 0.251362244948348 
2380	 0.25090018196676 
2381	 0.250393142784579 
2382	 0.249864684372542 
2383	 0.249403483505677 
2384	 0.249050550218891 
2385	 0.24864638540854 
2386	 0.24828432443524 
2387	 0.247891175425283 
2388	 0.247343036792291 
2389	 0.246892207338975 
2390	 0.246549120871303 
2391	 0.246146576928765 
2392	 0.245774289504547 
2393	 0.245358316284571 
2394	 0.244796957892427 
2395	 0.244232820857832 
2396	 0.243785811309991 
2397	 0.243334428588092 
2398	 0.242788893890864 
2399	 0.242336837997048 
2400	 0.241883622598207 
2401	 0.241410698159059 
2402	 0.241105557139868 
2403	 0.240831438379914 
2404	 0.240434203412007 
2405	 0.239962934540149 
2406	 0.239401480626606 
2407	 0.238771631063471 
2408	 0.238212394412096 
2409	 0.237684802089548 
2410	 0.237172329305563 
2411	 0.236676402303611 
2412	 0.236210349277082 
2413	 0.235759872261654 
2414	 0.235211374809065 
2415	 0.234648051609616 
2416	 0.234106965844311 
2417	 0.233430118827853 
2418	 0.23290851285034 
2419	 0.232590295630823 
2420	 0.232153578430207 
2421	 0.231741639725832 
2422	 0.231311511350249 
2423	 0.230756620271723 
2424	 0.230230575258414 
2425	 0.229743720142506 
2426	 0.229218161255118 
2427	 0.228685591204566 
2428	 0.228221343044157 
2429	 0.227771461474154 
2430	 0.227268437004321 
2431	 0.226786508561612 
2432	 0.226259814316353 
2433	 0.22567563746904 
2434	 0.225150355647349 
2435	 0.224640612354091 
2436	 0.224101965901698 
2437	 0.22358013293984 
2438	 0.223019656951644 
2439	 0.222351759603643 
2440	 0.221860670274108 
2441	 0.221486427933568 
2442	 0.221065921808478 
2443	 0.220766904423815 
2444	 0.220285270072022 
2445	 0.219597857666161 
2446	 0.219062969306641 
2447	 0.218580702583313 
2448	 0.218129589951459 
2449	 0.217838109661758 
2450	 0.217276468971505 
2451	 0.216438550029949 
2452	 0.215884892357879 
2453	 0.215351064006266 
2454	 0.214943122638644 
2455	 0.214852210147226 
2456	 0.214463880384727 
2457	 0.213973362088107 
2458	 0.213451852719984 
2459	 0.212733455009901 
2460	 0.212169501370706 
2461	 0.21167666041493 
2462	 0.211104703831414 
2463	 0.210555649644165 
2464	 0.210053548612178 
2465	 0.20948735124787 
2466	 0.209030178353761 
2467	 0.208717732952583 
2468	 0.208328242735471 
2469	 0.20793024742416 
2470	 0.207628129472988 
2471	 0.207145364793735 
2472	 0.206828307117029 
2473	 0.206559469018573 
2474	 0.206049046941713 
2475	 0.205575832812987 
2476	 0.205086834692917 
2477	 0.204504353617562 
2478	 0.203963286022414 
2479	 0.203474971712725 
2480	 0.202954776388155 
2481	 0.202598207450636 
2482	 0.202440490450196 
2483	 0.202189443445512 
2484	 0.201914920302212 
2485	 0.201399402415068 
2486	 0.200638884906534 
2487	 0.200181246490822 
2488	 0.199916046194185 
2489	 0.199703894159804 
2490	 0.199596976379992 
2491	 0.199261471973052 
2492	 0.198749815340316 
2493	 0.198375836151606 
2494	 0.198083755065312 
2495	 0.197853164301326 
2496	 0.197602531902847 
2497	 0.197210856119797 
2498	 0.196893866822735 
2499	 0.196649790593441 
2500	 0.196259484503591 
