Wavelength	LMW_1800006.asd
350	 5.62771272004817E-02 
351	 0.059048604233107 
352	 5.64380330375631E-02 
353	 5.33487940075854E-02 
354	 5.27881936063412E-02 
355	 5.16915680265119E-02 
356	 5.24348455152424E-02 
357	 0.056819138285833 
358	 6.06681657767806E-02 
359	 5.51449436862865E-02 
360	 4.74058090340276E-02 
361	 5.23778138167047E-02 
362	 5.03008042929028E-02 
363	 5.06588537298937E-02 
364	 5.62557380024488E-02 
365	 5.39586181153968E-02 
366	 5.25633388128999E-02 
367	 5.30027390934714E-02 
368	 5.31140719769479E-02 
369	 4.64749099338985E-02 
370	 4.73154744804281E-02 
371	 5.49854731442811E-02 
372	 5.84354475077735E-02 
373	 0.056177573333968 
374	 5.43613619103636E-02 
375	 0.055470808415519 
376	 5.38576253392051E-02 
377	 5.29143919241627E-02 
378	 5.37813372388033E-02 
379	 5.60779815831734E-02 
380	 5.64220566855586E-02 
381	 5.53303853470268E-02 
382	 5.48207366724101E-02 
383	 5.74520765489494E-02 
384	 5.98418163722364E-02 
385	 5.89942030072708E-02 
386	 5.53975445292658E-02 
387	 5.55595486386787E-02 
388	 5.85247207397017E-02 
389	 6.04083815273288E-02 
390	 5.81570841078352E-02 
391	 5.75209449822982E-02 
392	 5.86047052802005E-02 
393	 6.02101394362725E-02 
394	 6.03807609410961E-02 
395	 5.85593160631843E-02 
396	 5.74733367725283E-02 
397	 5.86919069890728E-02 
398	 6.04761066074116E-02 
399	 6.11259378355271E-02 
400	 0.061778917666798 
401	 6.38259488754042E-02 
402	 6.35402170730304E-02 
403	 0.062417355921145 
404	 6.16650714115246E-02 
405	 6.17884188559369E-02 
406	 6.28154790055701E-02 
407	 6.37636890223845E-02 
408	 6.37799003410743E-02 
409	 6.26164279563416E-02 
410	 0.061798544890815 
411	 6.20582896361748E-02 
412	 6.33242404767346E-02 
413	 6.31521761271742E-02 
414	 6.32403327214449E-02 
415	 6.40034388232207E-02 
416	 6.37483889758025E-02 
417	 6.38292408474309E-02 
418	 6.42265670354396E-02 
419	 6.45945457891651E-02 
420	 6.47507518920457E-02 
421	 6.42898155769721E-02 
422	 6.38541257210419E-02 
423	 6.45145911030941E-02 
424	 6.42047596313253E-02 
425	 6.40414956338911E-02 
426	 6.45949121871662E-02 
427	 6.47523833556369E-02 
428	 0.064702206802062 
429	 6.44828308068262E-02 
430	 6.41803304192769E-02 
431	 6.42055465519857E-02 
432	 6.40544882803254E-02 
433	 0.063793452546987 
434	 6.40476370956068E-02 
435	 6.47758850810177E-02 
436	 6.51986552881239E-02 
437	 6.49055469111338E-02 
438	 6.47404624909277E-02 
439	 6.47540920739284E-02 
440	 0.064921669068646 
441	 6.51430316871213E-02 
442	 0.065208112837935 
443	 6.54316457848755E-02 
444	 6.57596445805183E-02 
445	 6.54962346386672E-02 
446	 0.06547174440583 
447	 6.56530586655024E-02 
448	 6.58074436037002E-02 
449	 6.60268144288021E-02 
450	 6.61131337389008E-02 
451	 6.61562458524047E-02 
452	 6.64619561707062E-02 
453	 6.66065517895569E-02 
454	 6.65005299890299E-02 
455	 6.63215528106805E-02 
456	 6.67978581442625E-02 
457	 6.68862900225687E-02 
458	 6.67224958662625E-02 
459	 6.68910864634705E-02 
460	 6.68967807024477E-02 
461	 0.066986395555898 
462	 0.067167541794933 
463	 6.70182286745433E-02 
464	 0.067250379644756 
465	 6.76200150731141E-02 
466	 6.77594606646418E-02 
467	 6.79662768007517E-02 
468	 0.068109400839469 
469	 6.81316926198332E-02 
470	 6.80597773400947E-02 
471	 6.81497747596844E-02 
472	 6.82372330750205E-02 
473	 6.82351083642002E-02 
474	 6.84400461786514E-02 
475	 0.068479470993723 
476	 6.84569356457451E-02 
477	 6.86465108419729E-02 
478	 6.89504547624861E-02 
479	 6.89000388089387E-02 
480	 6.85825245420914E-02 
481	 6.88788559272029E-02 
482	 6.91623241292975E-02 
483	 6.93917043628924E-02 
484	 6.96213259931122E-02 
485	 6.96419490515309E-02 
486	 6.95995432849875E-02 
487	 6.95589983194463E-02 
488	 6.95261506298725E-02 
489	 6.98928311593455E-02 
490	 7.01144838088227E-02 
491	 6.99043181710759E-02 
492	 6.99932814007833E-02 
493	 7.00978317112173E-02 
494	 7.02001319374733E-02 
495	 7.03765471024784E-02 
496	 7.05377192612997E-02 
497	 7.06063426682761E-02 
498	 7.06396090119699E-02 
499	 7.09000671326275E-02 
500	 7.08805834285803E-02 
501	 7.08312402059162E-02 
502	 7.10670863390449E-02 
503	 7.11530231377481E-02 
504	 0.071158123657994 
505	 7.11266078162163E-02 
506	 7.10720618431373E-02 
507	 7.12288454167401E-02 
508	 7.14339319983414E-02 
509	 7.15009069111114E-02 
510	 7.13694872825918E-02 
511	 7.13747560962448E-02 
512	 7.15283075806039E-02 
513	 0.07165516708267 
514	 7.16552365005088E-02 
515	 7.16876434755061E-02 
516	 7.17913477233286E-02 
517	 7.17469875744079E-02 
518	 7.16946179632611E-02 
519	 7.17150210476918E-02 
520	 0.071837616709436 
521	 7.19258366505516E-02 
522	 7.20919600611427E-02 
523	 7.22688715814107E-02 
524	 7.21977991530609E-02 
525	 0.072147913544758 
526	 7.21457615437347E-02 
527	 7.21783624302071E-02 
528	 0.072304465050224 
529	 7.23981588282228E-02 
530	 0.072454381476575 
531	 7.25445430417469E-02 
532	 7.26186317429744E-02 
533	 7.26953831185888E-02 
534	 7.27620462469388E-02 
535	 7.27053520126949E-02 
536	 7.27029497326338E-02 
537	 7.27863078457317E-02 
538	 7.29092538883837E-02 
539	 7.29540856195744E-02 
540	 7.29652242333427E-02 
541	 7.30040181242559E-02 
542	 7.31364573125894E-02 
543	 7.32060194378359E-02 
544	 7.32695548202808E-02 
545	 7.33982251553796E-02 
546	 7.34750727058588E-02 
547	 7.34971384543193E-02 
548	 7.35137986476669E-02 
549	 7.36108807317606E-02 
550	 7.37567391872763E-02 
551	 7.38800140466275E-02 
552	 7.39495260656819E-02 
553	 7.40645478826727E-02 
554	 7.40828543660144E-02 
555	 0.074101964444436 
556	 7.43079755069654E-02 
557	 0.074467682927451 
558	 7.45042356154013E-02 
559	 7.44813904610865E-02 
560	 0.074682286139002 
561	 7.47824701581662E-02 
562	 7.48273792415888E-02 
563	 7.49633929041467E-02 
564	 0.075145085444597 
565	 7.52815036604153E-02 
566	 0.075401061605434 
567	 0.075663979700735 
568	 7.59131496686604E-02 
569	 7.60875477162958E-02 
570	 7.61872531900395E-02 
571	 7.63239271119322E-02 
572	 7.64592576426845E-02 
573	 7.66280127487816E-02 
574	 0.076894278219185 
575	 7.70026681314568E-02 
576	 7.70952837439099E-02 
577	 7.72676887898464E-02 
578	 7.73536335643328E-02 
579	 7.75712097590918E-02 
580	 7.79353212278727E-02 
581	 7.83532905807054E-02 
582	 7.86826588336872E-02 
583	 7.89718730154149E-02 
584	 7.92187098501771E-02 
585	 7.93202930884857E-02 
586	 7.94028330617003E-02 
587	 7.94951075094862E-02 
588	 7.95987779273919E-02 
589	 7.97321034206591E-02 
590	 0.079894983676941 
591	 0.080060272903648 
592	 8.01804581141476E-02 
593	 8.02586477697701E-02 
594	 8.03773004445114E-02 
595	 8.05997991748276E-02 
596	 0.080910585473379 
597	 8.12331570994264E-02 
598	 8.15321948641926E-02 
599	 8.18031214331542E-02 
600	 8.20727659049369E-02 
601	 8.22992385439649E-02 
602	 8.24615311772919E-02 
603	 8.25885583830659E-02 
604	 8.26942414221135E-02 
605	 8.28144571104259E-02 
606	 8.29813115809737E-02 
607	 8.31790163963932E-02 
608	 0.083331601663276 
609	 8.34512917702745E-02 
610	 8.36513680740898E-02 
611	 8.37987533768072E-02 
612	 0.083931999754155 
613	 8.40932121845435E-02 
614	 8.41916950370644E-02 
615	 8.42811648504437E-02 
616	 8.44005652203043E-02 
617	 8.45684200291665E-02 
618	 8.47153018176319E-02 
619	 8.47978994010023E-02 
620	 8.48304500257313E-02 
621	 8.49379866481007E-02 
622	 8.50547693983327E-02 
623	 8.51509601688425E-02 
624	 8.52084178903996E-02 
625	 8.51963367636201E-02 
626	 8.52539485051473E-02 
627	 8.53993646816147E-02 
628	 8.54769069806905E-02 
629	 8.55454602263725E-02 
630	 8.56086495500946E-02 
631	 8.56639034260907E-02 
632	 0.085730249671379 
633	 0.08580514221162 
634	 0.085867894122704 
635	 8.58923795525813E-02 
636	 8.60107506015686E-02 
637	 8.61089085322895E-02 
638	 0.086111619150456 
639	 8.61405599688208E-02 
640	 8.61869449915135E-02 
641	 8.62575029405214E-02 
642	 8.63513740011512E-02 
643	 8.63885434827951E-02 
644	 8.64607153454735E-02 
645	 0.086581403893887 
646	 8.66278438593988E-02 
647	 8.66610756129154E-02 
648	 8.67062727250699E-02 
649	 8.67794363794177E-02 
650	 8.69044197267515E-02 
651	 8.69820931961646E-02 
652	 8.70164810369752E-02 
653	 8.71013457278998E-02 
654	 8.72226296976005E-02 
655	 8.72943427490261E-02 
656	 0.087301024119468 
657	 8.74459644430807E-02 
658	 8.75306578661159E-02 
659	 8.75686419135034E-02 
660	 8.76569698132101E-02 
661	 8.76974230404446E-02 
662	 8.77505559272945E-02 
663	 8.78318984329987E-02 
664	 8.78686342934223E-02 
665	 8.79928203756142E-02 
666	 8.81264019651782E-02 
667	 8.81778341339335E-02 
668	 8.82608916884776E-02 
669	 0.088387614287442 
670	 0.088510188271588 
671	 8.85440542146157E-02 
672	 8.86174071962327E-02 
673	 8.87250154253485E-02 
674	 8.88385813207628E-02 
675	 8.89363627198873E-02 
676	 8.90166305410973E-02 
677	 8.90880412535437E-02 
678	 8.91678209839698E-02 
679	 8.92854025337972E-02 
680	 8.94064850614067E-02 
681	 8.95092109067127E-02 
682	 8.95954313613815E-02 
683	 8.97081283380167E-02 
684	 8.98230961040695E-02 
685	 8.99126994334891E-02 
686	 9.00066201947596E-02 
687	 9.00931596345435E-02 
688	 9.01904665568447E-02 
689	 9.03285242362911E-02 
690	 9.04134749063085E-02 
691	 9.04838540719873E-02 
692	 9.05860860751184E-02 
693	 9.07542215035644E-02 
694	 9.08234033625962E-02 
695	 9.08613231187448E-02 
696	 0.090990409708376 
697	 9.11099050453635E-02 
698	 9.12098156606116E-02 
699	 9.13045586822527E-02 
700	 9.14273682250286E-02 
701	 9.15522698923761E-02 
702	 9.16614371292651E-02 
703	 9.17473376539105E-02 
704	 9.18234431427125E-02 
705	 9.18938278862504E-02 
706	 9.19744791577773E-02 
707	 9.20815858483476E-02 
708	 9.21876080000888E-02 
709	 9.22881376122909E-02 
710	 9.23842727342601E-02 
711	 9.24813124660573E-02 
712	 9.25891661924784E-02 
713	 9.26832517602288E-02 
714	 9.27499432603855E-02 
715	 9.28573757871292E-02 
716	 9.29309770309327E-02 
717	 9.29893015283292E-02 
718	 0.09310923678873 
719	 0.093184457539758 
720	 0.093243768838852 
721	 9.33096890925231E-02 
722	 9.33499137548907E-02 
723	 9.34248696151612E-02 
724	 9.35202321561916E-02 
725	 9.35977506875573E-02 
726	 9.36463163730761E-02 
727	 9.36855181241435E-02 
728	 9.37397166551225E-02 
729	 9.38303205544203E-02 
730	 9.38811147080629E-02 
731	 9.38943969684613E-02 
732	 9.39048872668865E-02 
733	 9.39916702042496E-02 
734	 9.40551451206877E-02 
735	 9.40589617445472E-02 
736	 9.40160649963927E-02 
737	 9.40517490005885E-02 
738	 0.094086255691391 
739	 9.40969314065562E-02 
740	 9.41388567435992E-02 
741	 0.094171600764811 
742	 9.41941395785246E-02 
743	 9.42078685892694E-02 
744	 0.094193554882605 
745	 9.41965551853926E-02 
746	 9.42145847584896E-02 
747	 9.42186638200536E-02 
748	 9.41747055326975E-02 
749	 9.41431732648798E-02 
750	 9.41487083801608E-02 
751	 9.41617762019829E-02 
752	 9.41385082231674E-02 
753	 9.41258571136675E-02 
754	 9.41476432241943E-02 
755	 9.40888743996624E-02 
756	 9.40538109683669E-02 
757	 9.40422701252589E-02 
758	 9.40053957495482E-02 
759	 9.39714516075342E-02 
760	 9.39219906956695E-02 
761	 9.38699558674934E-02 
762	 0.093869996360534 
763	 9.38499381183812E-02 
764	 9.38115177646048E-02 
765	 9.37733536405931E-02 
766	 9.37511194738476E-02 
767	 9.36984083656363E-02 
768	 9.36386312923613E-02 
769	 9.36194134382152E-02 
770	 9.35815787575163E-02 
771	 9.35585365821169E-02 
772	 9.35357718644271E-02 
773	 9.34363216488335E-02 
774	 9.33678017543417E-02 
775	 9.33285780497074E-02 
776	 9.32950291258891E-02 
777	 9.32618972942125E-02 
778	 9.31852027335313E-02 
779	 9.31106236616248E-02 
780	 9.31029001311774E-02 
781	 9.30592945377959E-02 
782	 9.30147337203252E-02 
783	 9.29729753408218E-02 
784	 9.28970231110586E-02 
785	 9.28383437749055E-02 
786	 9.27711745736415E-02 
787	 9.26868191807623E-02 
788	 9.26554557018928E-02 
789	 9.26230980510245E-02 
790	 9.25770707377802E-02 
791	 9.25183630804724E-02 
792	 9.24300885294597E-02 
793	 9.23722960271992E-02 
794	 9.23543458720906E-02 
795	 9.23349128329242E-02 
796	 9.22589682269634E-02 
797	 9.21862828084954E-02 
798	 9.21487895899054E-02 
799	 9.20917859702819E-02 
800	 9.20482078157134E-02 
801	 9.20093470166895E-02 
802	 9.19617340690557E-02 
803	 9.19228052227721E-02 
804	 9.18851834648685E-02 
805	 9.18437432022775E-02 
806	 9.17971394337255E-02 
807	 9.17634072869025E-02 
808	 9.17003050271556E-02 
809	 9.16156764119949E-02 
810	 9.15869736538763E-02 
811	 9.15521389581413E-02 
812	 9.14922228697309E-02 
813	 9.14195590737312E-02 
814	 9.14038083686447E-02 
815	 9.13781363174128E-02 
816	 9.13404211209499E-02 
817	 9.13119605603989E-02 
818	 9.12826413490432E-02 
819	 9.12596472904426E-02 
820	 9.12174775302865E-02 
821	 9.11168967382117E-02 
822	 9.11005331116277E-02 
823	 0.091099178455785 
824	 9.10561911560944E-02 
825	 9.09901609156398E-02 
826	 9.09701910667626E-02 
827	 9.09490793856877E-02 
828	 9.08889169555643E-02 
829	 0.090897796713795 
830	 9.08622792260306E-02 
831	 9.08022278134902E-02 
832	 9.07904644069464E-02 
833	 9.07821643010267E-02 
834	 9.07646997695546E-02 
835	 9.07265551134991E-02 
836	 9.06632109097097E-02 
837	 9.06616670649293E-02 
838	 9.06818252901578E-02 
839	 9.06700044800346E-02 
840	 9.05872792350488E-02 
841	 9.05756225004178E-02 
842	 9.05825089698333E-02 
843	 9.05445902385033E-02 
844	 9.05516400476354E-02 
845	 9.05491345245222E-02 
846	 9.05125093038185E-02 
847	 9.04504667195985E-02 
848	 0.090466103860033 
849	 9.04470064833479E-02 
850	 9.03939573307216E-02 
851	 9.04050716913459E-02 
852	 9.04071953315509E-02 
853	 9.04189399993387E-02 
854	 9.04335185843321E-02 
855	 9.03930240211027E-02 
856	 0.090441836779987 
857	 9.04731969147573E-02 
858	 9.04102750675401E-02 
859	 9.04083384853726E-02 
860	 9.03946434305555E-02 
861	 9.03984935852396E-02 
862	 9.04464097576738E-02 
863	 0.090407013354377 
864	 9.03534773373763E-02 
865	 9.03441066549281E-02 
866	 9.03975492537891E-02 
867	 9.03685274551005E-02 
868	 9.03386465858082E-02 
869	 9.03581238130035E-02 
870	 9.04151063813877E-02 
871	 9.04189338665374E-02 
872	 9.04415326267736E-02 
873	 0.090497699315602 
874	 9.04689312458907E-02 
875	 9.04539865081696E-02 
876	 9.04573288185625E-02 
877	 9.04685614295871E-02 
878	 9.05037673807845E-02 
879	 9.05356751549067E-02 
880	 9.05524813060193E-02 
881	 9.05642972362427E-02 
882	 9.06452729054549E-02 
883	 9.06721995177756E-02 
884	 9.06579746434321E-02 
885	 9.06855040112238E-02 
886	 9.07369444313281E-02 
887	 9.07344813725503E-02 
888	 9.07188647443309E-02 
889	 9.08100158000393E-02 
890	 9.08415590952894E-02 
891	 9.08266099411498E-02 
892	 9.08237373504908E-02 
893	 9.09067778597287E-02 
894	 9.09659880488012E-02 
895	 9.09883084720172E-02 
896	 9.10053667099159E-02 
897	 9.10897581481228E-02 
898	 9.11335901579509E-02 
899	 9.11696083985099E-02 
900	 9.12294236411082E-02 
901	 9.12369506156872E-02 
902	 9.12523272043233E-02 
903	 9.12794394057053E-02 
904	 9.13058854931484E-02 
905	 9.13324831847617E-02 
906	 9.13957140747163E-02 
907	 9.14540241876511E-02 
908	 9.14613634239436E-02 
909	 9.15525839279084E-02 
910	 9.16134407050287E-02 
911	 9.16515207098992E-02 
912	 9.17477089741861E-02 
913	 9.18431598308335E-02 
914	 9.18776367680488E-02 
915	 9.18943198317837E-02 
916	 9.20011965265556E-02 
917	 9.20161310951684E-02 
918	 9.20534237905823E-02 
919	 9.21479108420618E-02 
920	 9.22040987459128E-02 
921	 9.22416490716793E-02 
922	 9.23006920289636E-02 
923	 9.24047276837788E-02 
924	 9.25417485911131E-02 
925	 9.25694165196711E-02 
926	 9.25810857374272E-02 
927	 9.26372631551452E-02 
928	 9.26393980828779E-02 
929	 9.27177405135563E-02 
930	 9.28378994881809E-02 
931	 9.29320330930406E-02 
932	 9.29581794116211E-02 
933	 9.30604698057003E-02 
934	 0.093160980416426 
935	 9.31880492068281E-02 
936	 9.32889355431935E-02 
937	 0.093380410053855 
938	 0.093448896404182 
939	 9.35159105869578E-02 
940	 9.36350792550535E-02 
941	 9.37869817578411E-02 
942	 0.093904452074674 
943	 9.39373358213675E-02 
944	 9.39644980115026E-02 
945	 9.40270462119335E-02 
946	 9.41068278103217E-02 
947	 9.41610919262603E-02 
948	 9.41819739370111E-02 
949	 9.42079365066116E-02 
950	 9.42575922747114E-02 
951	 9.43386316159181E-02 
952	 9.44807150561563E-02 
953	 9.45697645516757E-02 
954	 9.46150941368068E-02 
955	 9.46989201238525E-02 
956	 0.094850166737878 
957	 9.49953499379198E-02 
958	 9.50872029910766E-02 
959	 9.51218576794714E-02 
960	 0.09518940363076 
961	 9.52405810871326E-02 
962	 9.53238434481454E-02 
963	 9.55061912724547E-02 
964	 0.095564328317948 
965	 9.55976675270183E-02 
966	 0.095659799599823 
967	 9.57579805784571E-02 
968	 9.59327699358292E-02 
969	 9.60561510260389E-02 
970	 9.60901374944367E-02 
971	 9.60897432439529E-02 
972	 9.61806147732677E-02 
973	 0.096270106926226 
974	 9.63276842655966E-02 
975	 9.63934969826801E-02 
976	 9.65773746236983E-02 
977	 9.67210655442281E-02 
978	 9.67553965636212E-02 
979	 9.67293204207702E-02 
980	 9.68788076114782E-02 
981	 9.70068744795503E-02 
982	 9.70313711307318E-02 
983	 9.70056500575631E-02 
984	 9.71483116607145E-02 
985	 9.72418359446241E-02 
986	 0.09726894796832 
987	 9.73497297921737E-02 
988	 0.097575981874219 
989	 9.77374552351657E-02 
990	 9.77672768446166E-02 
991	 9.77271201414274E-02 
992	 0.097792723541192 
993	 9.78471085861989E-02 
994	 9.79135409011705E-02 
995	 9.80225472582847E-02 
996	 9.79321646814116E-02 
997	 0.098077265468807 
998	 9.83176009642484E-02 
999	 9.83680962762374E-02 
1000	 9.83315612420909E-02 
1001	 9.77656311237558E-02 
1002	 9.78293401479572E-02 
1003	 9.78557372941499E-02 
1004	 9.79201148970499E-02 
1005	 9.80266420046088E-02 
1006	 9.80873020312513E-02 
1007	 9.81342017834176E-02 
1008	 9.82149647037845E-02 
1009	 9.82935599791577E-02 
1010	 9.82675717693318E-02 
1011	 9.83016958408773E-02 
1012	 0.098353901856251 
1013	 9.83376662453809E-02 
1014	 9.83807193661089E-02 
1015	 0.098410326948006 
1016	 9.84126488072684E-02 
1017	 9.84619319695302E-02 
1018	 9.85427291407953E-02 
1019	 9.85718661663467E-02 
1020	 0.098623474165514 
1021	 9.86863264650127E-02 
1022	 9.86467067419895E-02 
1023	 9.86463060892327E-02 
1024	 9.86444150654766E-02 
1025	 9.86607320813307E-02 
1026	 9.86956806519995E-02 
1027	 0.098678420664865 
1028	 9.87173524089366E-02 
1029	 9.87039264844367E-02 
1030	 0.098654962112534 
1031	 9.86594391063689E-02 
1032	 9.87111937554897E-02 
1033	 9.86975526989009E-02 
1034	 9.87021582894955E-02 
1035	 0.098753912526063 
1036	 9.87588267037744E-02 
1037	 9.87922269633661E-02 
1038	 9.88036520053639E-02 
1039	 9.87834298325228E-02 
1040	 9.87754794300065E-02 
1041	 9.87368339124266E-02 
1042	 9.86933976900294E-02 
1043	 9.87004448158035E-02 
1044	 9.87087873152107E-02 
1045	 9.87235447289557E-02 
1046	 9.87198711773644E-02 
1047	 9.87562820977963E-02 
1048	 9.87768257283882E-02 
1049	 9.87667474380012E-02 
1050	 9.88110429756657E-02 
1051	 9.88584803584384E-02 
1052	 9.88603499906751E-02 
1053	 9.89216943771238E-02 
1054	 9.89842223296357E-02 
1055	 0.098991022519971 
1056	 0.099054226847133 
1057	 9.90976389218957E-02 
1058	 9.90893243359157E-02 
1059	 9.91190460961276E-02 
1060	 9.91766335500642E-02 
1061	 9.92367362880684E-02 
1062	 0.099284787874226 
1063	 9.93647442899853E-02 
1064	 9.94349194165143E-02 
1065	 9.95150738568384E-02 
1066	 9.95989397293746E-02 
1067	 9.96305289178088E-02 
1068	 9.96735672038791E-02 
1069	 9.97007117848249E-02 
1070	 0.099746980842759 
1071	 0.099803092709286 
1072	 9.98662009567259E-02 
1073	 9.99477383353557E-02 
1074	 0.100024658480401 
1075	 0.100104646397335 
1076	 0.100169642849612 
1077	 0.100210552345385 
1078	 0.100256067863497 
1079	 0.10032878311814 
1080	 0.100357601894725 
1081	 0.100440026394408 
1082	 0.100539562535824 
1083	 0.100597751510139 
1084	 0.100631349745736 
1085	 0.100678676037591 
1086	 0.100714657919849 
1087	 0.100749382111073 
1088	 0.100777860536575 
1089	 0.100806215143752 
1090	 0.100884184321767 
1091	 0.100913076694132 
1092	 0.100927473637837 
1093	 0.100987400680826 
1094	 0.101013884400263 
1095	 0.101045100091921 
1096	 0.101106642960677 
1097	 0.101148708593514 
1098	 0.101171508005684 
1099	 0.101160098716015 
1100	 0.101176507262505 
1101	 0.101196160846623 
1102	 0.101206382374761 
1103	 0.101215148920157 
1104	 0.101245756873832 
1105	 0.101255674795215 
1106	 0.101263568342245 
1107	 0.101275561244774 
1108	 0.101254693852194 
1109	 0.101241164197728 
1110	 0.101233865033468 
1111	 0.101235595598354 
1112	 0.101274348910558 
1113	 0.101271732723721 
1114	 0.101255247784586 
1115	 0.101230348947859 
1116	 0.101162544676444 
1117	 0.101127318495971 
1118	 0.101086599630022 
1119	 0.1010853851997 
1120	 0.101113162177368 
1121	 0.101137223123077 
1122	 0.101134473965183 
1123	 0.101129750483137 
1124	 0.101124512783379 
1125	 0.101084885099251 
1126	 0.101083114848806 
1127	 0.101119529706702 
1128	 0.101120827260093 
1129	 0.101121093652504 
1130	 0.101108639047566 
1131	 0.101066733869002 
1132	 0.101043826805132 
1133	 0.10101154192603 
1134	 0.101003104590549 
1135	 0.101024169446529 
1136	 0.101036613194172 
1137	 0.101036997614599 
1138	 0.101014437307259 
1139	 0.100999324556726 
1140	 0.100965588955602 
1141	 0.100944179068832 
1142	 0.100926779888768 
1143	 0.100920827398 
1144	 0.100919522702557 
1145	 0.10091155792968 
1146	 0.100917978343098 
1147	 0.100915555387729 
1148	 0.10089543110922 
1149	 0.10088380391098 
1150	 0.100890463354691 
1151	 0.100870630673175 
1152	 0.100837814830544 
1153	 0.100842060454846 
1154	 0.100836133918106 
1155	 0.100829662309818 
1156	 0.100828005646895 
1157	 0.100828051022966 
1158	 0.100832838070833 
1159	 0.100849504944436 
1160	 0.100850741499431 
1161	 0.100852096596536 
1162	 0.100854639182715 
1163	 0.100840992523953 
1164	 0.100835534754712 
1165	 0.100840703449216 
1166	 0.100838860732127 
1167	 0.10083920886645 
1168	 0.100858264205314 
1169	 0.1008603365319 
1170	 0.100859325623513 
1171	 0.10086432554561 
1172	 0.100860746304435 
1173	 0.100870564657186 
1174	 0.100899040375431 
1175	 0.100914519094539 
1176	 0.100931855426308 
1177	 0.100936944979018 
1178	 0.100922050540695 
1179	 0.100926819283377 
1180	 0.100930191432287 
1181	 0.100941870984425 
1182	 0.100969212173889 
1183	 0.101002685405791 
1184	 0.101023173512763 
1185	 0.10103597135133 
1186	 0.101059800064661 
1187	 0.101084090077501 
1188	 0.101108626146867 
1189	 0.101140611946828 
1190	 0.101168640828418 
1191	 0.101194168139776 
1192	 0.101216819275254 
1193	 0.101246438754951 
1194	 0.101263625580937 
1195	 0.101259485612946 
1196	 0.101272980843912 
1197	 0.101295354160412 
1198	 0.101308578509391 
1199	 0.101322098763259 
1200	 0.101336387310068 
1201	 0.101371385847255 
1202	 0.101412413336224 
1203	 0.101444860835316 
1204	 0.101501902322591 
1205	 0.101530822294474 
1206	 0.101529314513166 
1207	 0.101545154415576 
1208	 0.101561340554372 
1209	 0.101582703980227 
1210	 0.10160971065607 
1211	 0.101633134729472 
1212	 0.101653873772534 
1213	 0.101682822487738 
1214	 0.101722655901729 
1215	 0.101750052161653 
1216	 0.101774758950855 
1217	 0.101804646863102 
1218	 0.101824187287063 
1219	 0.101826241904928 
1220	 0.101842633399669 
1221	 0.101863344502481 
1222	 0.101884901589257 
1223	 0.101907576130075 
1224	 0.101933786868158 
1225	 0.101966626546478 
1226	 0.101993873536776 
1227	 0.102030928364718 
1228	 0.102049937934616 
1229	 0.10203919270647 
1230	 0.102056510070927 
1231	 0.102079682902526 
1232	 0.102103258148272 
1233	 0.102134799529643 
1234	 0.102197663698574 
1235	 0.102217820732568 
1236	 0.10221416752856 
1237	 0.102228403239707 
1238	 0.10223378785326 
1239	 0.102246214083298 
1240	 0.102270654232964 
1241	 0.102287553884084 
1242	 0.102298880262787 
1243	 0.102311508299163 
1244	 0.102327166289292 
1245	 0.102339805853809 
1246	 0.102339796915297 
1247	 0.102355365088264 
1248	 0.102383340867676 
1249	 0.102406669217509 
1250	 0.102421844122052 
1251	 0.102454040708964 
1252	 0.102477398686243 
1253	 0.102496108529575 
1254	 0.102508196208407 
1255	 0.10252293537562 
1256	 0.102528167898344 
1257	 0.102513911983412 
1258	 0.102515832549425 
1259	 0.102523228010331 
1260	 0.102531010348417 
1261	 0.102553906441654 
1262	 0.102555737653458 
1263	 0.102548423431009 
1264	 0.102538720261291 
1265	 0.102496223898737 
1266	 0.102483476035054 
1267	 0.102483001489155 
1268	 0.102496240069509 
1269	 0.10250477735021 
1270	 0.102530330181372 
1271	 0.102544535330219 
1272	 0.102546270145479 
1273	 0.102562369639606 
1274	 0.102587951180499 
1275	 0.102611856275892 
1276	 0.102637668767535 
1277	 0.102666527840336 
1278	 0.102693376832822 
1279	 0.102730773960484 
1280	 0.102777449807551 
1281	 0.102823471462705 
1282	 0.102880208466667 
1283	 0.102929772151075 
1284	 0.102967328433501 
1285	 0.103022503649659 
1286	 0.103080727580407 
1287	 0.103120974773981 
1288	 0.103183327418269 
1289	 0.103256319318422 
1290	 0.103328416918234 
1291	 0.103403454629927 
1292	 0.103494302846415 
1293	 0.103598363996688 
1294	 0.103693044460669 
1295	 0.103805402641021 
1296	 0.103897054334762 
1297	 0.103966569183581 
1298	 0.104047781414923 
1299	 0.104129024633174 
1300	 0.104208493055226 
1301	 0.104281378053278 
1302	 0.104369889631407 
1303	 0.104475744364834 
1304	 0.104566261253916 
1305	 0.104644833286282 
1306	 0.104711146329257 
1307	 0.104766944156743 
1308	 0.104822372038068 
1309	 0.10488234385682 
1310	 0.104960007869401 
1311	 0.10501848306034 
1312	 0.105066558358024 
1313	 0.105112051667333 
1314	 0.105157912288445 
1315	 0.105192535252913 
1316	 0.105213663058246 
1317	 0.105234716446442 
1318	 0.105243783782702 
1319	 0.105262570554144 
1320	 0.105292420600751 
1321	 0.105307007055539 
1322	 0.105315747239561 
1323	 0.105327781040585 
1324	 0.105316356542871 
1325	 0.105317997220981 
1326	 0.105339684305054 
1327	 0.105336395164605 
1328	 0.105327191634215 
1329	 0.10531735570239 
1330	 0.10530685957545 
1331	 0.105289636499228 
1332	 0.105267196150637 
1333	 0.105245512478204 
1334	 0.105221132027647 
1335	 0.105183839853596 
1336	 0.105151941673799 
1337	 0.105122107365459 
1338	 0.1050971691905 
1339	 0.105076988787559 
1340	 0.105050558278228 
1341	 0.105028315105431 
1342	 0.105001499420746 
1343	 0.104970413045452 
1344	 0.10492755573169 
1345	 0.104895694312467 
1346	 0.104869839916807 
1347	 0.104823164937172 
1348	 0.104761923329881 
1349	 0.104696184665973 
1350	 0.10462455947856 
1351	 0.104553144315094 
1352	 0.104482390635 
1353	 0.104410683001154 
1354	 0.104333646620924 
1355	 0.104257905736123 
1356	 0.104177414553176 
1357	 0.104109219975746 
1358	 0.104041123015757 
1359	 0.103982494650128 
1360	 0.103931595839888 
1361	 0.10389454342265 
1362	 0.103863593262756 
1363	 0.10384367080133 
1364	 0.103835368031343 
1365	 0.103837587261888 
1366	 0.103850603405739 
1367	 0.103872160324315 
1368	 0.103906235623205 
1369	 0.103938900297899 
1370	 0.103958146458161 
1371	 0.103965085626825 
1372	 0.103947652369894 
1373	 0.103920601751573 
1374	 0.103897413521488 
1375	 0.103873293877776 
1376	 0.103827534218295 
1377	 0.10378575871996 
1378	 0.103713945264049 
1379	 0.103590855421135 
1380	 0.103510973672912 
1381	 0.103416588918665 
1382	 0.103363489664304 
1383	 0.103352871478748 
1384	 0.103334079259272 
1385	 0.10334220659408 
1386	 0.103333775245952 
1387	 0.103322989747605 
1388	 0.103305819073317 
1389	 0.103281488719051 
1390	 0.103257960873205 
1391	 0.103225139482522 
1392	 0.103184854581697 
1393	 0.103137701746959 
1394	 0.10307866429706 
1395	 0.103025492249578 
1396	 0.102981059173962 
1397	 0.102942964416386 
1398	 0.102920981339664 
1399	 0.102886497435018 
1400	 0.102847035250917 
1401	 0.102812560678386 
1402	 0.102776651493862 
1403	 0.102741343246903 
1404	 0.10270609761434 
1405	 0.102683872129186 
1406	 0.102670032588826 
1407	 0.102647183607595 
1408	 0.102622901564215 
1409	 0.102607997602629 
1410	 0.102586049951009 
1411	 0.102578266582519 
1412	 0.102584689254535 
1413	 0.102602087996401 
1414	 0.102610989451454 
1415	 0.102627483946396 
1416	 0.102641499930114 
1417	 0.102659749005214 
1418	 0.102678451280261 
1419	 0.102682742253869 
1420	 0.102694004413616 
1421	 0.102698405536871 
1422	 0.102710690525794 
1423	 0.102735218287339 
1424	 0.102754225818697 
1425	 0.102779752395381 
1426	 0.102798656531219 
1427	 0.102807788385323 
1428	 0.102828943079944 
1429	 0.102852170403703 
1430	 0.102873554604194 
1431	 0.102907194310326 
1432	 0.102929335991036 
1433	 0.102936294018954 
1434	 0.102962435011656 
1435	 0.102989055306492 
1436	 0.103022278092619 
1437	 0.103077505203745 
1438	 0.103117171342013 
1439	 0.103149487090956 
1440	 0.103191177296926 
1441	 0.103221402110795 
1442	 0.10323619623523 
1443	 0.103246814474309 
1444	 0.103255198896345 
1445	 0.103270245808891 
1446	 0.103288868399837 
1447	 0.103319353123114 
1448	 0.103346423642882 
1449	 0.103346313739878 
1450	 0.103353500046728 
1451	 0.103378730269187 
1452	 0.103403895995281 
1453	 0.103440147015325 
1454	 0.103512973487184 
1455	 0.103546100756663 
1456	 0.10356042923266 
1457	 0.103581808469486 
1458	 0.103594389707229 
1459	 0.103606416245868 
1460	 0.103611083710873 
1461	 0.103630323673166 
1462	 0.103659301772139 
1463	 0.103672970086476 
1464	 0.103688871726627 
1465	 0.10370812949929 
1466	 0.103712289982486 
1467	 0.10372421529807 
1468	 0.103756768250377 
1469	 0.103772951095519 
1470	 0.103774012669048 
1471	 0.103780402553775 
1472	 0.103801023247518 
1473	 0.103821141964424 
1474	 0.103838217181416 
1475	 0.103855086254832 
1476	 0.103861276007155 
1477	 0.103869323406436 
1478	 0.103905885014798 
1479	 0.103950173581136 
1480	 0.103995782814834 
1481	 0.104045740516872 
1482	 0.104079881089027 
1483	 0.104099697961025 
1484	 0.104127459974188 
1485	 0.104149563730647 
1486	 0.10417735274226 
1487	 0.104211197851512 
1488	 0.104245133027508 
1489	 0.104282641682811 
1490	 0.104309256634047 
1491	 0.104335905508224 
1492	 0.104352232385935 
1493	 0.104349806343434 
1494	 0.104365990179668 
1495	 0.10438165501539 
1496	 0.104407286730425 
1497	 0.104455056503214 
1498	 0.104484132017244 
1499	 0.104508916660342 
1500	 0.104533406936724 
1501	 0.104546481378441 
1502	 0.104564499798334 
1503	 0.104588081657617 
1504	 0.104605644545588 
1505	 0.104622281037791 
1506	 0.104646314383363 
1507	 0.104661158854773 
1508	 0.104667873162194 
1509	 0.104682946771365 
1510	 0.1046971519246 
1511	 0.104708413417498 
1512	 0.104728625700217 
1513	 0.104751107001588 
1514	 0.104758889207006 
1515	 0.104770476313075 
1516	 0.104793077992071 
1517	 0.104807295486953 
1518	 0.104815334957013 
1519	 0.104825522018368 
1520	 0.10483437937099 
1521	 0.104850239978154 
1522	 0.104863232723605 
1523	 0.104886535476759 
1524	 0.104927005395275 
1525	 0.104948882282053 
1526	 0.104968339301029 
1527	 0.10498516123462 
1528	 0.104989110497104 
1529	 0.105000102538132 
1530	 0.10501664488514 
1531	 0.105029132083821 
1532	 0.105042075413574 
1533	 0.105050163207375 
1534	 0.105046650319897 
1535	 0.105056237466985 
1536	 0.105072610757023 
1537	 0.105082117064406 
1538	 0.105095913875221 
1539	 0.105110878871251 
1540	 0.105118304229316 
1541	 0.105134961176433 
1542	 0.105165698421147 
1543	 0.105184945625121 
1544	 0.105193452402744 
1545	 0.105210773608589 
1546	 0.105226652705341 
1547	 0.105251128791949 
1548	 0.105271800635318 
1549	 0.105298260893155 
1550	 0.105313993790044 
1551	 0.105318679328004 
1552	 0.105332474298567 
1553	 0.105337729126442 
1554	 0.10535068326911 
1555	 0.105371377477545 
1556	 0.105377113552132 
1557	 0.105391243700755 
1558	 0.105396195197573 
1559	 0.105389887965371 
1560	 0.105397770860938 
1561	 0.105410956638287 
1562	 0.105423187784547 
1563	 0.105439814387153 
1564	 0.105458646606609 
1565	 0.10548027583438 
1566	 0.10550150916183 
1567	 0.105532659016836 
1568	 0.105545268777264 
1569	 0.105547084258538 
1570	 0.105550686902845 
1571	 0.105546868603292 
1572	 0.1055414543734 
1573	 0.105533052585598 
1574	 0.105530742298995 
1575	 0.105522352254707 
1576	 0.105523558528759 
1577	 0.105537787642773 
1578	 0.10554251972227 
1579	 0.105546436519202 
1580	 0.105548808199591 
1581	 0.105545283871296 
1582	 0.105550550592575 
1583	 0.10555948203216 
1584	 0.105566188996651 
1585	 0.10557490025371 
1586	 0.105584936489384 
1587	 0.105605025948137 
1588	 0.105607378837692 
1589	 0.105598733782643 
1590	 0.105596083946542 
1591	 0.105579723118969 
1592	 0.105570841781778 
1593	 0.105572103840684 
1594	 0.105572256723825 
1595	 0.105569031416401 
1596	 0.105569349034591 
1597	 0.105581798588776 
1598	 0.105584116795486 
1599	 0.10558161726735 
1600	 0.105577536603175 
1601	 0.105557531768116 
1602	 0.10555329563836 
1603	 0.10555950542 
1604	 0.105563096638572 
1605	 0.105579571882337 
1606	 0.105588116490895 
1607	 0.105593820182172 
1608	 0.105588831559589 
1609	 0.105580643054949 
1610	 0.105587757025253 
1611	 0.105610191464939 
1612	 0.105635799779742 
1613	 0.1056483747529 
1614	 0.105639314739424 
1615	 0.105626548447785 
1616	 0.105612743381648 
1617	 0.10561241429191 
1618	 0.105637284592636 
1619	 0.105648200072495 
1620	 0.105642909887183 
1621	 0.105641625318003 
1622	 0.105636218843451 
1623	 0.105632570079187 
1624	 0.105628655203176 
1625	 0.105623063590699 
1626	 0.105619908380264 
1627	 0.105606378340111 
1628	 0.105585884892148 
1629	 0.105566433875911 
1630	 0.105536834760781 
1631	 0.105525106688333 
1632	 0.105516990701407 
1633	 0.105520064277274 
1634	 0.105542067335736 
1635	 0.105544788837457 
1636	 0.105549772004914 
1637	 0.105543212469046 
1638	 0.105519811519411 
1639	 0.105509564063625 
1640	 0.105495938744881 
1641	 0.105496405122983 
1642	 0.105511277535514 
1643	 0.105512812156267 
1644	 0.105516582861009 
1645	 0.105517165288575 
1646	 0.105507830404975 
1647	 0.105505146656307 
1648	 0.105507897296971 
1649	 0.105508935246531 
1650	 0.105511703852329 
1651	 0.10550653595322 
1652	 0.105501090263529 
1653	 0.105489587921079 
1654	 0.105458814867657 
1655	 0.105455204771175 
1656	 0.105464281165459 
1657	 0.105468263541321 
1658	 0.105492148154607 
1659	 0.105492039033438 
1660	 0.105469147331511 
1661	 0.10546647822811 
1662	 0.105471461025564 
1663	 0.10546231849445 
1664	 0.105456455932575 
1665	 0.105444802264978 
1666	 0.105410211685003 
1667	 0.105398206125579 
1668	 0.10540346563989 
1669	 0.105397500958158 
1670	 0.105392399315761 
1671	 0.105387566714277 
1672	 0.105373121367078 
1673	 0.105373797509176 
1674	 0.105391894273266 
1675	 0.105391814983279 
1676	 0.105398268129568 
1677	 0.105383817616521 
1678	 0.105342949203717 
1679	 0.105317093906523 
1680	 0.105282698257413 
1681	 0.105261729173023 
1682	 0.10525314332968 
1683	 0.105240779786 
1684	 0.105229239682482 
1685	 0.105225269461036 
1686	 0.105226292546799 
1687	 0.105225667441273 
1688	 0.105229415029517 
1689	 0.105233893900029 
1690	 0.105241725159071 
1691	 0.105240928430991 
1692	 0.105242602053159 
1693	 0.105235735833478 
1694	 0.105218752822131 
1695	 0.105198583805568 
1696	 0.105165991733226 
1697	 0.105151936448858 
1698	 0.105142823914035 
1699	 0.105130329289868 
1700	 0.105133260923825 
1701	 0.105121070675088 
1702	 0.105094612327015 
1703	 0.105073626547814 
1704	 0.105045923622473 
1705	 0.105035094851111 
1706	 0.105030318816425 
1707	 0.10502810828924 
1708	 0.105042463576231 
1709	 0.105041728423744 
1710	 0.10503500593966 
1711	 0.105030320627418 
1712	 0.105022592307697 
1713	 0.105016975344242 
1714	 0.105011402180268 
1715	 0.105004744810374 
1716	 0.105001432358936 
1717	 0.104986878348289 
1718	 0.104959052460033 
1719	 0.10494978222642 
1720	 0.104946285770874 
1721	 0.10493797908222 
1722	 0.104946312036792 
1723	 0.104933900910789 
1724	 0.104903729158652 
1725	 0.104870325750975 
1726	 0.104821560584162 
1727	 0.104800705137056 
1728	 0.104779615038193 
1729	 0.104776732435434 
1730	 0.104810298042503 
1731	 0.10480651346684 
1732	 0.10480043630541 
1733	 0.104771639163209 
1734	 0.104711511527042 
1735	 0.104676141675455 
1736	 0.104632371342206 
1737	 0.104603686949042 
1738	 0.104594599498078 
1739	 0.104577627947154 
1740	 0.104562573965842 
1741	 0.104545082123492 
1742	 0.104530372576089 
1743	 0.104503216847989 
1744	 0.10446652409725 
1745	 0.104439360753203 
1746	 0.104410239934128 
1747	 0.104396376720452 
1748	 0.104366416271026 
1749	 0.104323573477931 
1750	 0.104288231756198 
1751	 0.104267688611217 
1752	 0.104240563419306 
1753	 0.104221195356397 
1754	 0.104222293988643 
1755	 0.10419705537649 
1756	 0.104170586635981 
1757	 0.104149701256124 
1758	 0.10409981010218 
1759	 0.104055532511882 
1760	 0.104029003237796 
1761	 0.1040261739705 
1762	 0.104032895016657 
1763	 0.104027321350852 
1764	 0.104034348868047 
1765	 0.104037639132304 
1766	 0.104020796351552 
1767	 0.103994639087098 
1768	 0.103976423619493 
1769	 0.103962123974374 
1770	 0.103935260189307 
1771	 0.103947628061726 
1772	 0.103955265586202 
1773	 0.103908832544301 
1774	 0.103887120115786 
1775	 0.103855362298329 
1776	 0.103808819473161 
1777	 0.103793722245981 
1778	 0.10375937653885 
1779	 0.103732256930328 
1780	 0.103721304735632 
1781	 0.103685346057558 
1782	 0.103665393455414 
1783	 0.103638110135058 
1784	 0.10362063706358 
1785	 0.103630980137905 
1786	 0.103624968881016 
1787	 0.103611223159278 
1788	 0.103593109731357 
1789	 0.103569882959514 
1790	 0.103544724630792 
1791	 0.103513671782531 
1792	 0.103498949815181 
1793	 0.103471354392886 
1794	 0.103473461036797 
1795	 0.103517874516784 
1796	 0.10351814606049 
1797	 0.103519699616578 
1798	 0.10351765959143 
1799	 0.10348368916457 
1800	 0.103464008684226 
1801	 9.98719666204586E-02 
1802	 9.99735856485788E-02 
1803	 0.100106117898883 
1804	 0.10025966593239 
1805	 0.100394066863033 
1806	 0.100493314174074 
1807	 0.10059169398067 
1808	 0.100677703674304 
1809	 0.100728565209105 
1810	 0.100774734742707 
1811	 0.100818797866661 
1812	 0.100864216543969 
1813	 0.100902397505402 
1814	 0.100920921162668 
1815	 0.100961424336765 
1816	 0.101009043683846 
1817	 0.101024531273246 
1818	 0.100983576766327 
1819	 0.100999225572542 
1820	 0.101031456928332 
1821	 0.101068341321243 
1822	 0.101096363876053 
1823	 0.101106887227495 
1824	 0.101094089654323 
1825	 0.101055068291906 
1826	 0.101019227006504 
1827	 0.101023004723655 
1828	 0.101033692798939 
1829	 0.101072562939191 
1830	 0.101075614197452 
1831	 0.101076029665558 
1832	 0.101082936517697 
1833	 0.101050087808483 
1834	 0.10102501786497 
1835	 0.101010965807805 
1836	 0.100993835038169 
1837	 0.101013903158164 
1838	 0.101037902664165 
1839	 0.101060856432665 
1840	 0.101099234712764 
1841	 0.101134216021461 
1842	 0.101159332228793 
1843	 0.101184341229143 
1844	 0.101209691110058 
1845	 0.101243125065853 
1846	 0.10126735517963 
1847	 0.101304487523238 
1848	 0.101334709467907 
1849	 0.101367002088193 
1850	 0.101397893367435 
1851	 0.101434002412024 
1852	 0.10144243208979 
1853	 0.101455326395194 
1854	 0.101456698010086 
1855	 0.101451808824952 
1856	 0.101473709263139 
1857	 0.101516965303897 
1858	 0.101550800752974 
1859	 0.101580394317547 
1860	 0.10159620724725 
1861	 0.101599255140349 
1862	 0.101575757617713 
1863	 0.1015581223214 
1864	 0.101511800861468 
1865	 0.101447241479168 
1866	 0.101361306084741 
1867	 0.101262194853293 
1868	 0.101176139108093 
1869	 0.10109020445834 
1870	 0.101019708105275 
1871	 0.100975750979881 
1872	 0.100947246144859 
1873	 0.100951116950445 
1874	 0.100979973712109 
1875	 0.101026374107471 
1876	 0.101061177747143 
1877	 0.101081436733641 
1878	 0.10109374761141 
1879	 0.101080535567387 
1880	 0.101051061068965 
1881	 0.101018101649108 
1882	 0.100952980853509 
1883	 0.100867540363295 
1884	 0.100743878308856 
1885	 0.100602075332747 
1886	 0.100437043250837 
1887	 0.100244913065073 
1888	 0.100065813821837 
1889	 9.99074982423835E-02 
1890	 0.099735244468962 
1891	 9.95327471688866E-02 
1892	 9.93037017037976E-02 
1893	 9.90857187983034E-02 
1894	 9.88448166586869E-02 
1895	 9.86071538231222E-02 
1896	 9.83852978611119E-02 
1897	 9.81652035946577E-02 
1898	 9.79216680618904E-02 
1899	 9.76523944134898E-02 
1900	 9.74083868089982E-02 
1901	 9.71747346147766E-02 
1902	 9.69627870135173E-02 
1903	 9.67809973655673E-02 
1904	 9.66070961241414E-02 
1905	 9.64450104757395E-02 
1906	 9.63008751345709E-02 
1907	 9.61675182746912E-02 
1908	 9.60192768477329E-02 
1909	 9.58717869366608E-02 
1910	 9.57296606027993E-02 
1911	 9.55890799928385E-02 
1912	 9.54309494716061E-02 
1913	 9.52877897536332E-02 
1914	 9.51356285125213E-02 
1915	 9.50155169630723E-02 
1916	 9.49074866129577E-02 
1917	 9.48232018434791E-02 
1918	 9.47630086459572E-02 
1919	 9.47028902424786E-02 
1920	 9.46315267457774E-02 
1921	 9.45772647133371E-02 
1922	 9.44918870160549E-02 
1923	 9.44356579804187E-02 
1924	 9.44092187564129E-02 
1925	 9.44051592313387E-02 
1926	 9.44017684209462E-02 
1927	 9.44385232699317E-02 
1928	 9.44597401996166E-02 
1929	 9.44464987638852E-02 
1930	 9.44516793824382E-02 
1931	 9.44722610568651E-02 
1932	 9.44970737625969E-02 
1933	 9.45223705666299E-02 
1934	 9.45345420303595E-02 
1935	 9.45517137459914E-02 
1936	 9.45552671677948E-02 
1937	 9.45690034115739E-02 
1938	 0.094587759523511 
1939	 9.46187006016938E-02 
1940	 9.46576301715143E-02 
1941	 9.46825546825707E-02 
1942	 9.47400325117646E-02 
1943	 9.48017662469579E-02 
1944	 9.48527199344339E-02 
1945	 9.49059736233642E-02 
1946	 9.49525318532386E-02 
1947	 9.49898251511623E-02 
1948	 9.50353608039867E-02 
1949	 9.50741048430046E-02 
1950	 9.51212972505324E-02 
1951	 9.51842460998187E-02 
1952	 9.52320145781192E-02 
1953	 9.52581709279812E-02 
1954	 9.53123200314078E-02 
1955	 0.095373088108023 
1956	 9.54269278099825E-02 
1957	 9.54848762865599E-02 
1958	 9.55501376230461E-02 
1959	 9.56285520865374E-02 
1960	 9.57116764851784E-02 
1961	 9.57902626031947E-02 
1962	 9.58852025706769E-02 
1963	 9.59781755973344E-02 
1964	 9.60639795439397E-02 
1965	 9.61460419367342E-02 
1966	 0.096248147610543 
1967	 9.63424734818972E-02 
1968	 9.64253074133489E-02 
1969	 9.64941598141951E-02 
1970	 9.65737323186638E-02 
1971	 9.66512122130253E-02 
1972	 9.67249416326322E-02 
1973	 9.67925389202194E-02 
1974	 9.68732986447208E-02 
1975	 9.69586604517432E-02 
1976	 9.70479316462485E-02 
1977	 9.71162759616955E-02 
1978	 9.71851619075744E-02 
1979	 9.72608382874478E-02 
1980	 9.73271628286906E-02 
1981	 0.097398098369096 
1982	 9.74909714507433E-02 
1983	 9.75694854466593E-02 
1984	 9.76233063439017E-02 
1985	 0.097698936945397 
1986	 9.77953059247983E-02 
1987	 9.78801168801438E-02 
1988	 9.79637162730638E-02 
1989	 9.80498958105678E-02 
1990	 9.81283364711568E-02 
1991	 9.81977730816341E-02 
1992	 9.82769628250881E-02 
1993	 9.83603832844019E-02 
1994	 9.84366958211932E-02 
1995	 9.85215101357217E-02 
1996	 9.85911293921835E-02 
1997	 9.86357671899337E-02 
1998	 9.87045770059767E-02 
1999	 9.87776676174185E-02 
2000	 9.88492411323152E-02 
2001	 0.098929579292025 
2002	 9.90192982895833E-02 
2003	 0.099094053467014 
2004	 9.91806312654566E-02 
2005	 0.099259690722109 
2006	 9.93389983588179E-02 
2007	 9.94214949325114E-02 
2008	 9.95100151723555E-02 
2009	 0.099583705337546 
2010	 9.96489614391825E-02 
2011	 9.97209317002021E-02 
2012	 0.099775320158351 
2013	 9.98441618997757E-02 
2014	 9.99200531420566E-02 
2015	 0.100023379331898 
2016	 0.100103721979336 
2017	 0.10017459986368 
2018	 0.100249097441265 
2019	 0.10031575523557 
2020	 0.100384272595254 
2021	 0.100454937957152 
2022	 0.100527808531333 
2023	 0.1005981058552 
2024	 0.100671484872692 
2025	 0.100741937840048 
2026	 0.100825353358786 
2027	 0.100925241719761 
2028	 0.101010407510813 
2029	 0.101094741934896 
2030	 0.101193848044931 
2031	 0.101261153859406 
2032	 0.101301761284463 
2033	 0.101358543698036 
2034	 0.101408339837634 
2035	 0.101462027443149 
2036	 0.101521072974386 
2037	 0.101575603773142 
2038	 0.101623057316153 
2039	 0.101675993141876 
2040	 0.101722438928148 
2041	 0.101794143875362 
2042	 0.101847316877871 
2043	 0.101892741137324 
2044	 0.101943747554878 
2045	 0.101981153477577 
2046	 0.102040778006491 
2047	 0.102129364739622 
2048	 0.102184560479082 
2049	 0.102235782930904 
2050	 0.102281577427883 
2051	 0.102290792306495 
2052	 0.102329175245084 
2053	 0.102387775874799 
2054	 0.102439424133081 
2055	 0.102499792343168 
2056	 0.102558193558154 
2057	 0.102610665681916 
2058	 0.102659960718095 
2059	 0.102703289631115 
2060	 0.102740752360966 
2061	 0.10277924410149 
2062	 0.102806904384565 
2063	 0.102845584275954 
2064	 0.102888042941555 
2065	 0.102932979167779 
2066	 0.102987059978807 
2067	 0.103036081782453 
2068	 0.103077202392593 
2069	 0.103139361332526 
2070	 0.103176212230816 
2071	 0.103195920666147 
2072	 0.103237409398421 
2073	 0.10327772885084 
2074	 0.103321395542211 
2075	 0.10338269372325 
2076	 0.103434642286393 
2077	 0.103471635959105 
2078	 0.103523791395257 
2079	 0.103596027582526 
2080	 0.103649177546538 
2081	 0.103703946178873 
2082	 0.103748871009745 
2083	 0.103780801897378 
2084	 0.103800819685621 
2085	 0.103833550075204 
2086	 0.103867789392206 
2087	 0.10389970858428 
2088	 0.103933964953822 
2089	 0.103967528400595 
2090	 0.10399283404029 
2091	 0.104031883035986 
2092	 0.104076654049633 
2093	 0.104126737753564 
2094	 0.104193327900372 
2095	 0.104246583950814 
2096	 0.104308716254783 
2097	 0.104352540101928 
2098	 0.10437760971502 
2099	 0.104399841325308 
2100	 0.104432113893757 
2101	 0.104453556103001 
2102	 0.104493835077164 
2103	 0.10454603859438 
2104	 0.1046061311173 
2105	 0.104685948948844 
2106	 0.104745882660873 
2107	 0.104800838783208 
2108	 0.104865278038413 
2109	 0.104925675241532 
2110	 0.104983846116714 
2111	 0.105055126202589 
2112	 0.105120170512133 
2113	 0.105189677821451 
2114	 0.105224840605326 
2115	 0.105278278380272 
2116	 0.10534416274901 
2117	 0.105383019359992 
2118	 0.105405449040665 
2119	 0.105436875788363 
2120	 0.105468133019735 
2121	 0.105479158774234 
2122	 0.105469201286413 
2123	 0.105485504884461 
2124	 0.105481392166308 
2125	 0.105508703024782 
2126	 0.105600962620348 
2127	 0.105644637366259 
2128	 0.105665585909454 
2129	 0.10569503236607 
2130	 0.105708089237627 
2131	 0.105719715575368 
2132	 0.105737218838589 
2133	 0.105777538193501 
2134	 0.105781354111855 
2135	 0.105762040787498 
2136	 0.105754060242367 
2137	 0.105738917411785 
2138	 0.105719306358907 
2139	 0.10568633035539 
2140	 0.105678925285319 
2141	 0.105696045448314 
2142	 0.105678160388129 
2143	 0.105678613999155 
2144	 0.105646983904047 
2145	 0.105533050478483 
2146	 0.105472940069752 
2147	 0.105434390022185 
2148	 0.105400284226542 
2149	 0.105367739123147 
2150	 0.105374518445299 
2151	 0.105333599039237 
2152	 0.105256321219266 
2153	 0.105207311867328 
2154	 0.105160370623882 
2155	 0.105105705281317 
2156	 0.105069624501198 
2157	 0.105008170247365 
2158	 0.104915239285033 
2159	 0.104837541768805 
2160	 0.104760912438232 
2161	 0.10467975917342 
2162	 0.104600139078966 
2163	 0.104520541921701 
2164	 0.104452396838563 
2165	 0.104350666872655 
2166	 0.10425967989227 
2167	 0.104164189077478 
2168	 0.104082886177097 
2169	 0.103999141999505 
2170	 0.103923900394026 
2171	 0.103866525003346 
2172	 0.10379796133303 
2173	 0.103727407226023 
2174	 0.103653825563382 
2175	 0.103580819388342 
2176	 0.103503582904765 
2177	 0.103413716426987 
2178	 0.103335670377862 
2179	 0.103263479076944 
2180	 0.103189635840657 
2181	 0.103117970023916 
2182	 0.103049845640996 
2183	 0.102987898252227 
2184	 0.102920654354387 
2185	 0.102844241821231 
2186	 0.102767300482747 
2187	 0.102684497523086 
2188	 0.102578299258104 
2189	 0.10250200111827 
2190	 0.102441469121038 
2191	 0.102376703681371 
2192	 0.102322996480822 
2193	 0.102264773748185 
2194	 0.102204420271269 
2195	 0.102140808560959 
2196	 0.102069270374253 
2197	 0.102014159757114 
2198	 0.101952140830511 
2199	 0.101914291846645 
2200	 0.101914380969775 
2201	 0.101897414138403 
2202	 0.101885180765757 
2203	 0.101866855988507 
2204	 0.101856120164773 
2205	 0.101845171805196 
2206	 0.101819175800047 
2207	 0.101792708190192 
2208	 0.101769530877125 
2209	 0.10172797578134 
2210	 0.101702321219022 
2211	 0.101685000997717 
2212	 0.101680992290683 
2213	 0.101690854937153 
2214	 0.101688361734336 
2215	 0.101699260164284 
2216	 0.101700022071157 
2217	 0.101675656034362 
2218	 0.101669090580397 
2219	 0.10167376284319 
2220	 0.101681509332566 
2221	 0.101699098317116 
2222	 0.10170608429034 
2223	 0.101749753082766 
2224	 0.101766492023605 
2225	 0.101773328236072 
2226	 0.101781032989897 
2227	 0.101774016069648 
2228	 0.101720898057989 
2229	 0.101736775262856 
2230	 0.101791742784589 
2231	 0.101805723151194 
2232	 0.101821717420812 
2233	 0.101858867382282 
2234	 0.101888734350223 
2235	 0.101916665661947 
2236	 0.101990863130996 
2237	 0.10202108000304 
2238	 0.10201002771361 
2239	 0.101998290738625 
2240	 0.101959020067951 
2241	 0.10194739666879 
2242	 0.101919139882472 
2243	 0.101921776287467 
2244	 0.101958425948343 
2245	 0.102021512227175 
2246	 0.102041609160162 
2247	 0.102064835363878 
2248	 0.102072552078057 
2249	 0.10204924890904 
2250	 0.102048003191906 
2251	 0.102053945751921 
2252	 0.102055769881081 
2253	 0.102044638242236 
2254	 0.102067188300567 
2255	 0.102114028199641 
2256	 0.102142066811204 
2257	 0.102180414965844 
2258	 0.102218396217788 
2259	 0.102244019260668 
2260	 0.102277062454552 
2261	 0.102339900864432 
2262	 0.102365492021142 
2263	 0.102350883374804 
2264	 0.102361845582661 
2265	 0.10237529556917 
2266	 0.10238576787329 
2267	 0.102414696785295 
2268	 0.102432676396574 
2269	 0.102445343756726 
2270	 0.102431484008887 
2271	 0.102422732319745 
2272	 0.102443640681545 
2273	 0.102481927448714 
2274	 0.102510229095036 
2275	 0.102528688269636 
2276	 0.102553663439084 
2277	 0.102565129214928 
2278	 0.102551815990327 
2279	 0.102556197980967 
2280	 0.102566017719337 
2281	 0.102587833127644 
2282	 0.102606373493297 
2283	 0.102643658600721 
2284	 0.102714569348025 
2285	 0.102750224054946 
2286	 0.102779468397915 
2287	 0.102812783639963 
2288	 0.10284149227163 
2289	 0.10285281410615 
2290	 0.102860411149795 
2291	 0.10285894987077 
2292	 0.102802044007801 
2293	 0.102806487633463 
2294	 0.102852372663132 
2295	 0.102885863751404 
2296	 0.102940377949557 
2297	 0.103006749956021 
2298	 0.103070429134687 
2299	 0.103093708501983 
2300	 0.103095057605089 
2301	 0.103091058759299 
2302	 0.103032589443093 
2303	 0.102992120654647 
2304	 0.103032100814171 
2305	 0.103060585459599 
2306	 0.103064372480716 
2307	 0.103082392417732 
2308	 0.103092964733322 
2309	 0.103061241922851 
2310	 0.103053321773828 
2311	 0.103069885441322 
2312	 0.103079241963884 
2313	 0.103074286222065 
2314	 0.103091104121586 
2315	 0.10314665971789 
2316	 0.103149828311177 
2317	 0.103119081719843 
2318	 0.103118287124551 
2319	 0.103083378561783 
2320	 0.103101324250303 
2321	 0.103177859800946 
2322	 0.103224258744527 
2323	 0.103299554212541 
2324	 0.103348879544926 
2325	 0.103368190098034 
2326	 0.103396187169912 
2327	 0.10343595167779 
2328	 0.103421669622509 
2329	 0.103436916901037 
2330	 0.10345282788218 
2331	 0.103404764918177 
2332	 0.103419486505381 
2333	 0.103497434457825 
2334	 0.103522761022512 
2335	 0.103551997684878 
2336	 0.103570013303865 
2337	 0.103467681594221 
2338	 0.103411326221468 
2339	 0.103429230506321 
2340	 0.103453875847086 
2341	 0.103538633091869 
2342	 0.103594721464298 
2343	 0.10358910514746 
2344	 0.103575056465757 
2345	 0.103571861641833 
2346	 0.103520834617191 
2347	 0.103533171367176 
2348	 0.103609363140925 
2349	 0.103644164536713 
2350	 0.103690024203337 
2351	 0.103710727879556 
2352	 0.103721687776813 
2353	 0.103703169641456 
2354	 0.103637581809363 
2355	 0.103609158275868 
2356	 0.103590775414281 
2357	 0.103531445194836 
2358	 0.103467957467498 
2359	 0.103426169827484 
2360	 0.103339212336144 
2361	 0.103285483624342 
2362	 0.103255562851246 
2363	 0.103254407117881 
2364	 0.103305874056107 
2365	 0.103301447886397 
2366	 0.103320005255945 
2367	 0.103304023780146 
2368	 0.103201653563187 
2369	 0.103162876928245 
2370	 0.103151243314978 
2371	 0.103133575275435 
2372	 0.103166007267363 
2373	 0.103144302634493 
2374	 0.103172198492623 
2375	 0.103222050251938 
2376	 0.10319342403649 
2377	 0.103196720040421 
2378	 0.103140813625597 
2379	 0.10306164093193 
2380	 0.103093980766313 
2381	 0.103077401780394 
2382	 0.10301676902309 
2383	 0.103027262061241 
2384	 0.102990767874873 
2385	 0.102907480885237 
2386	 0.10287833383374 
2387	 0.102825013978076 
2388	 0.102730801029625 
2389	 0.10264852442085 
2390	 0.102632874288003 
2391	 0.10264514584967 
2392	 0.102680256928319 
2393	 0.102784280839131 
2394	 0.102816437728166 
2395	 0.102793487260562 
2396	 0.1027538133482 
2397	 0.102672088858467 
2398	 0.102639704782211 
2399	 0.102623808369262 
2400	 0.102554252492396 
2401	 0.102475084899524 
2402	 0.102396877023861 
2403	 0.10232412870351 
2404	 0.102314619686378 
2405	 0.102368579131635 
2406	 0.102438432692214 
2407	 0.102448570643833 
2408	 0.102359615063123 
2409	 0.102245361840133 
2410	 0.102188955360739 
2411	 0.10216716814965 
2412	 0.102025416359314 
2413	 0.101931004619358 
2414	 0.101930546757626 
2415	 0.101735764555502 
2416	 0.101665506331419 
2417	 0.101791388133302 
2418	 0.101811710971955 
2419	 0.10177115591802 
2420	 0.10179638009724 
2421	 0.101861216208122 
2422	 0.101828012631294 
2423	 0.101766139230362 
2424	 0.10170958310067 
2425	 0.101588196405684 
2426	 0.101552793988358 
2427	 0.101542127284953 
2428	 0.101503316668018 
2429	 0.101510817914504 
2430	 0.101497133537808 
2431	 0.101484199331982 
2432	 0.101430850920819 
2433	 0.1013648548958 
2434	 0.10126056639256 
2435	 0.101055047353337 
2436	 0.100971284730655 
2437	 0.100923053149095 
2438	 0.100875475183063 
2439	 0.100910587285014 
2440	 0.10086332909221 
2441	 0.100815019837072 
2442	 0.100779701080836 
2443	 0.100647039250154 
2444	 0.100597278507354 
2445	 0.100599184615839 
2446	 0.100492128389882 
2447	 0.100454581220664 
2448	 0.10041012766852 
2449	 0.100222484667938 
2450	 0.10015141087521 
2451	 0.100169183021111 
2452	 0.100104713072679 
2453	 0.100017296270083 
2454	 9.99889944643245E-02 
2455	 9.99846019467112E-02 
2456	 0.099943525193608 
2457	 9.99437184114945E-02 
2458	 9.99075692552158E-02 
2459	 9.97549904922987E-02 
2460	 9.96767710565557E-02 
2461	 9.96773159812218E-02 
2462	 9.96468928439135E-02 
2463	 9.96547326328325E-02 
2464	 9.96769322175669E-02 
2465	 9.96476802034958E-02 
2466	 9.95607031799856E-02 
2467	 9.95388932947708E-02 
2468	 9.94084614856362E-02 
2469	 9.90430686764163E-02 
2470	 0.099080033944197 
2471	 9.91589700933175E-02 
2472	 9.91630836429216E-02 
2473	 9.92176658158282E-02 
2474	 0.099207002298504 
2475	 0.098995636739656 
2476	 9.87669338225192E-02 
2477	 9.86604304994216E-02 
2478	 9.85784811479095E-02 
2479	 9.84789701500736E-02 
2480	 0.098518240395576 
2481	 9.85027212689595E-02 
2482	 0.098410244296463 
2483	 9.84534195104636E-02 
2484	 9.85345758887314E-02 
2485	 9.87147354316707E-02 
2486	 9.88276489709253E-02 
2487	 9.87229268104481E-02 
2488	 9.85710472079832E-02 
2489	 0.098520412401662 
2490	 9.85733675539656E-02 
2491	 9.86148988229696E-02 
2492	 9.85596972671789E-02 
2493	 0.098359294312531 
2494	 9.82241194336907E-02 
2495	 9.81307674980398E-02 
2496	 9.80579322754964E-02 
2497	 9.80886063048023E-02 
2498	 9.80701235022017E-02 
2499	 9.80543757394886E-02 
2500	 9.81797077245449E-02 
