Wavelength	LMW_2300002.asd
350	 7.79390766401033E-02 
351	 9.16376791452935E-02 
352	 8.92656007230105E-02 
353	 7.25856441158879E-02 
354	 7.80621153516318E-02 
355	 8.16911259076062E-02 
356	 8.19124778150877E-02 
357	 8.25216982914558E-02 
358	 8.52052283776389E-02 
359	 8.44771336525795E-02 
360	 8.32539008418101E-02 
361	 8.82296628688236E-02 
362	 8.42809159289573E-02 
363	 8.06556895828714E-02 
364	 8.25460634780171E-02 
365	 8.44295390188212E-02 
366	 8.43344452121808E-02 
367	 8.34227727368791E-02 
368	 8.36731960260333E-02 
369	 8.62374118827018E-02 
370	 8.56026267781646E-02 
371	 8.38591138566674E-02 
372	 8.72654838775492E-02 
373	 8.58420421756163E-02 
374	 8.37659421963308E-02 
375	 8.41510162346404E-02 
376	 8.51533355234493E-02 
377	 8.61982264376187E-02 
378	 8.69016961395088E-02 
379	 8.73198361293749E-02 
380	 8.89872682267277E-02 
381	 8.82061183003802E-02 
382	 8.65631120885586E-02 
383	 8.89962161979889E-02 
384	 8.79785643839198E-02 
385	 8.70554688660585E-02 
386	 8.87012384172788E-02 
387	 9.06110440660103E-02 
388	 8.98782364862591E-02 
389	 8.97753229170622E-02 
390	 9.32737562172804E-02 
391	 9.16668426088583E-02 
392	 9.00031419136093E-02 
393	 9.02132483762993E-02 
394	 9.09860847119108E-02 
395	 9.20447364489164E-02 
396	 9.28113481585381E-02 
397	 9.31707377350446E-02 
398	 9.40353115437703E-02 
399	 9.44756383564024E-02 
400	 9.47425395649463E-02 
401	 9.54381448674328E-02 
402	 9.66407316867318E-02 
403	 9.70938482149643E-02 
404	 9.66246336369479E-02 
405	 9.62025028015456E-02 
406	 9.63905027904937E-02 
407	 9.72049608179735E-02 
408	 9.79250534763986E-02 
409	 9.60723332361744E-02 
410	 9.56302721664487E-02 
411	 9.68432788787906E-02 
412	 9.80487592932273E-02 
413	 9.80787353483901E-02 
414	 9.82633820901225E-02 
415	 9.87582192359783E-02 
416	 9.79109361616075E-02 
417	 9.79918101632922E-02 
418	 9.87047332397023E-02 
419	 9.91611510443621E-02 
420	 9.88769324168067E-02 
421	 9.77559794898155E-02 
422	 9.71330552045649E-02 
423	 9.87368993900642E-02 
424	 9.83985898258616E-02 
425	 9.74039292395818E-02 
426	 9.70173037876874E-02 
427	 9.71706142349272E-02 
428	 9.71662469144199E-02 
429	 9.69452076019143E-02 
430	 9.67032365003506E-02 
431	 9.66907658892144E-02 
432	 9.65825384370915E-02 
433	 9.62424979176277E-02 
434	 0.095767048855456 
435	 9.62439185564103E-02 
436	 9.63619375264059E-02 
437	 9.54546839928409E-02 
438	 9.57297472966438E-02 
439	 0.096379671464484 
440	 9.67712833842121E-02 
441	 9.65293284823008E-02 
442	 9.67021741317365E-02 
443	 9.72390769595236E-02 
444	 9.76838386313368E-02 
445	 9.71311881401206E-02 
446	 9.69991269387665E-02 
447	 9.72575854328981E-02 
448	 9.74858082873768E-02 
449	 0.097580295338083 
450	 9.77241652869201E-02 
451	 9.79328142457339E-02 
452	 9.80668576847107E-02 
453	 9.79674520088577E-02 
454	 9.79073437038139E-02 
455	 9.80251973664472E-02 
456	 9.79177130692263E-02 
457	 9.80567662928608E-02 
458	 9.82641660802503E-02 
459	 9.81626802023809E-02 
460	 0.098307379648289 
461	 9.83093799140642E-02 
462	 9.80945931093936E-02 
463	 9.81304868061822E-02 
464	 9.84841535031279E-02 
465	 9.87159875379892E-02 
466	 9.84990754599084E-02 
467	 0.098565206426456 
468	 9.86675211689643E-02 
469	 9.86449081365631E-02 
470	 9.84531095602576E-02 
471	 9.84752733007856E-02 
472	 0.098535381070082 
473	 0.098500357029983 
474	 9.85781201877846E-02 
475	 9.86645712258367E-02 
476	 9.86514663345157E-02 
477	 9.84717059543415E-02 
478	 9.83445438247571E-02 
479	 0.098378598416784 
480	 9.85593845488041E-02 
481	 9.87346201098428E-02 
482	 9.86469264734289E-02 
483	 9.85973603433954E-02 
484	 9.88516281679989E-02 
485	 9.88894950236892E-02 
486	 9.86229769553671E-02 
487	 9.83126000533169E-02 
488	 9.84519997487649E-02 
489	 9.85951997239792E-02 
490	 9.85648940329402E-02 
491	 9.84077865479127E-02 
492	 9.86141180989238E-02 
493	 9.86412663874765E-02 
494	 9.85394423726791E-02 
495	 0.098600789631077 
496	 9.86683906919415E-02 
497	 0.098617902611993 
498	 9.84875431330929E-02 
499	 9.85477801980539E-02 
500	 9.86292788555957E-02 
501	 9.86171224369547E-02 
502	 9.84932305282611E-02 
503	 0.098595177428723 
504	 9.86321502955376E-02 
505	 9.85395209601007E-02 
506	 9.84797259462004E-02 
507	 9.85759468640015E-02 
508	 9.86395376029485E-02 
509	 9.85600548888253E-02 
510	 0.098615235448245 
511	 9.85966287745347E-02 
512	 9.85007224432859E-02 
513	 0.098430942359791 
514	 9.83780147767342E-02 
515	 9.84332488771588E-02 
516	 9.85627193603959E-02 
517	 9.85059553169791E-02 
518	 9.84248131765067E-02 
519	 9.84058417580189E-02 
520	 9.84780657195402E-02 
521	 9.85133417585788E-02 
522	 9.84538908737521E-02 
523	 9.83778571380761E-02 
524	 9.84901208364985E-02 
525	 9.83697617000913E-02 
526	 9.82722188736069E-02 
527	 9.84189526680833E-02 
528	 9.84430723523265E-02 
529	 9.83941118312056E-02 
530	 9.83767180960209E-02 
531	 9.85049344652976E-02 
532	 9.85295581562681E-02 
533	 9.85471799045757E-02 
534	 0.098618531383498 
535	 9.86223258952564E-02 
536	 9.86201111856169E-02 
537	 0.098636385608181 
538	 9.86739259974445E-02 
539	 9.86810174183446E-02 
540	 9.86872773817525E-02 
541	 9.87089088896559E-02 
542	 9.87352637991339E-02 
543	 9.87720416699311E-02 
544	 9.88412727763365E-02 
545	 9.89566404060775E-02 
546	 9.91030128602307E-02 
547	 9.91255238927008E-02 
548	 9.90966090410815E-02 
549	 9.92613377759082E-02 
550	 0.099280549726696 
551	 9.92924570942538E-02 
552	 9.94444871377662E-02 
553	 0.099702652361732 
554	 9.98312611402574E-02 
555	 9.98978764927964E-02 
556	 0.100109778819732 
557	 0.100315900751041 
558	 0.100472023529859 
559	 0.100620945211804 
560	 0.100949172137463 
561	 0.101153078786205 
562	 0.101326758991215 
563	 0.1016240384802 
564	 0.101717779803902 
565	 0.101754900878342 
566	 0.101835698975457 
567	 0.101975597330076 
568	 0.102295065115517 
569	 0.102725561673973 
570	 0.103170786262436 
571	 0.103621244183493 
572	 0.104081874273311 
573	 0.104539518361146 
574	 0.104974409907137 
575	 0.105455520262544 
576	 0.105948416399072 
577	 0.106385413793917 
578	 0.106639211172455 
579	 0.106987817563367 
580	 0.107357933008362 
581	 0.107573487993765 
582	 0.107890357470653 
583	 0.10829167268859 
584	 0.10874556338193 
585	 0.109239310321517 
586	 0.109724048805047 
587	 0.110201629552536 
588	 0.110691379481134 
589	 0.111211422927713 
590	 0.111741343851526 
591	 0.112275546784026 
592	 0.112827558044527 
593	 0.113460929450864 
594	 0.11415221484883 
595	 0.114833593141093 
596	 0.115384872791069 
597	 0.115802109730068 
598	 0.116123269849685 
599	 0.116411441930868 
600	 0.116656181717303 
601	 0.116936764870632 
602	 0.117290998443801 
603	 0.117682123541914 
604	 0.117991739048226 
605	 0.118249816206391 
606	 0.11853800028173 
607	 0.118868810085961 
608	 0.119213529765206 
609	 0.119550111382515 
610	 0.119867669851798 
611	 0.120126814913686 
612	 0.120375384157176 
613	 0.120642785295839 
614	 0.120823430413433 
615	 0.12096987508357 
616	 0.12111943970435 
617	 0.121291565140778 
618	 0.121436508613496 
619	 0.121594768011406 
620	 0.121774520415199 
621	 0.121882728423579 
622	 0.121978473293369 
623	 0.12207711241952 
624	 0.122182681782292 
625	 0.122340126472416 
626	 0.122451721387188 
627	 0.122496511557327 
628	 0.122566972431869 
629	 0.122677222211794 
630	 0.122790122253357 
631	 0.122865307862359 
632	 0.1229163338767 
633	 0.122978203909404 
634	 0.123056841946716 
635	 0.123134262214882 
636	 0.123224028262326 
637	 0.123308137194992 
638	 0.123373766495 
639	 0.123430461510793 
640	 0.123503737644444 
641	 0.1235703727096 
642	 0.123600485984118 
643	 0.123711430823478 
644	 0.1237831164179 
645	 0.12379396560721 
646	 0.123896091438445 
647	 0.124033004241467 
648	 0.124117493657444 
649	 0.124113521646855 
650	 0.124241790908664 
651	 0.124374574789489 
652	 0.124457789467316 
653	 0.1245145772829 
654	 0.124607303714758 
655	 0.124714046591794 
656	 0.124804812196694 
657	 0.124865788637711 
658	 0.124970634022787 
659	 0.125100656354636 
660	 0.125197442358304 
661	 0.12528028371086 
662	 0.125381270453755 
663	 0.125520301498893 
664	 0.125700762110226 
665	 0.125814474859588 
666	 0.125876225726688 
667	 0.125948001062447 
668	 0.126109592466422 
669	 0.126286473239777 
670	 0.126419040368062 
671	 0.126475742862143 
672	 0.12659553896311 
673	 0.126766845640453 
674	 0.126947352478735 
675	 0.127092746216656 
676	 0.127230138998444 
677	 0.127359529916765 
678	 0.127481016213248 
679	 0.127672337775512 
680	 0.12784343480707 
681	 0.127971813437692 
682	 0.128140242433426 
683	 0.128366649080895 
684	 0.128558337394894 
685	 0.12865798746716 
686	 0.128844803161794 
687	 0.12904204584016 
688	 0.129217227316342 
689	 0.129373438280692 
690	 0.129516084124444 
691	 0.12968926289704 
692	 0.12989435596363 
693	 0.130033016920326 
694	 0.13022823559911 
695	 0.130421998650524 
696	 0.130531042650082 
697	 0.130715126300393 
698	 0.130926586315681 
699	 0.131115230383605 
700	 0.131246943380304 
701	 0.131461914061666 
702	 0.131682743399113 
703	 0.131837647722237 
704	 0.13200805986367 
705	 0.132176489225345 
706	 0.132314098457487 
707	 0.132407042510379 
708	 0.132619920323795 
709	 0.132840548001198 
710	 0.133000816658383 
711	 0.133140085602048 
712	 0.133267310677202 
713	 0.133392607709407 
714	 0.133527620916695 
715	 0.133695737298417 
716	 0.133863206912866 
717	 0.133990475877981 
718	 0.134049654461807 
719	 0.134178991166961 
720	 0.134327326717957 
721	 0.134448755024917 
722	 0.134565777726225 
723	 0.134660253542246 
724	 0.134739791520671 
725	 0.134819073286893 
726	 0.134895514433976 
727	 0.134993171339067 
728	 0.135090618058334 
729	 0.135129079339283 
730	 0.135184489111674 
731	 0.135240379444382 
732	 0.13527942752236 
733	 0.135324145285578 
734	 0.135363819086835 
735	 0.135399454664239 
736	 0.135432169575958 
737	 0.135437383812831 
738	 0.135419698002124 
739	 0.135409591369501 
740	 0.13545835131139 
741	 0.13545757336332 
742	 0.135429359533577 
743	 0.1354031616889 
744	 0.135341190453945 
745	 0.135304617257445 
746	 0.135279750712142 
747	 0.135218738554466 
748	 0.135109851248892 
749	 0.13504034443407 
750	 0.135020514923717 
751	 0.134958856716592 
752	 0.134858956227067 
753	 0.134757326372943 
754	 0.134681851496626 
755	 0.134609747460664 
756	 0.13451987716152 
757	 0.134408367640415 
758	 0.134285777840622 
759	 0.134188192903938 
760	 0.134059957278268 
761	 0.13390489250602 
762	 0.133809150475757 
763	 0.133681241869865 
764	 0.133535223993129 
765	 0.133395354829221 
766	 0.133233678439565 
767	 0.133103867307051 
768	 0.133012300049332 
769	 0.132924431449016 
770	 0.13271852828387 
771	 0.132527581326796 
772	 0.132407134033179 
773	 0.132291688477102 
774	 0.13218135696317 
775	 0.132018580853249 
776	 0.131792808071164 
777	 0.131648264475763 
778	 0.13149305803786 
779	 0.131331546972223 
780	 0.131196335080125 
781	 0.131005926198325 
782	 0.130843217509973 
783	 0.130723119373554 
784	 0.130577500423119 
785	 0.130413720299313 
786	 0.130249482411766 
787	 0.130086405207163 
788	 0.129867654312916 
789	 0.129750837446841 
790	 0.12964146366419 
791	 0.129409786574367 
792	 0.129291751033565 
793	 0.129153267259115 
794	 0.128965248187668 
795	 0.128801394081609 
796	 0.12861421526964 
797	 0.128459406033404 
798	 0.128354607882969 
799	 0.128224257631024 
800	 0.128046410515426 
801	 0.127870555980256 
802	 0.127743954804639 
803	 0.127604562159587 
804	 0.127493429210947 
805	 0.127379532727213 
806	 0.127197263071573 
807	 0.126993366264456 
808	 0.126849356456691 
809	 0.126757290432047 
810	 0.126593942830151 
811	 0.126489890047934 
812	 0.126383524862137 
813	 0.126227055667573 
814	 0.126134822151429 
815	 0.125979687140022 
816	 0.125808524096295 
817	 0.12571607536777 
818	 0.125635058936943 
819	 0.125533565092305 
820	 0.12540162026077 
821	 0.125254773201012 
822	 0.125176262479242 
823	 0.125105234628461 
824	 0.125004555140819 
825	 0.124915276411246 
826	 0.12477653440408 
827	 0.124650270904431 
828	 0.124584595338887 
829	 0.124473506216765 
830	 0.124366739902891 
831	 0.124286751234241 
832	 0.124229048206712 
833	 0.12411894869112 
834	 0.124003227529249 
835	 0.123912616393815 
836	 0.123849850875344 
837	 0.123782258416178 
838	 0.123698488490726 
839	 0.1235961554074 
840	 0.123478374925975 
841	 0.123426051625381 
842	 0.123405734851294 
843	 0.123358231962984 
844	 0.123250030896861 
845	 0.123202905924087 
846	 0.123186373385251 
847	 0.123118468094802 
848	 0.123085431940711 
849	 0.12302388853563 
850	 0.122926555070942 
851	 0.122841628450136 
852	 0.122788001389628 
853	 0.1227521700896 
854	 0.122730780261092 
855	 0.122742744873699 
856	 0.122715862571004 
857	 0.122691047608706 
858	 0.122693001939529 
859	 0.122630333534873 
860	 0.122581135152818 
861	 0.12253908235096 
862	 0.122483896349282 
863	 0.122468500238168 
864	 0.122487165223535 
865	 0.122490452997521 
866	 0.122429735074385 
867	 0.122446669451601 
868	 0.122467201188596 
869	 0.122472051702473 
870	 0.122509603385119 
871	 0.122477777613625 
872	 0.12243625349087 
873	 0.122432318298608 
874	 0.122447714574368 
875	 0.122484633627485 
876	 0.122527571035724 
877	 0.122547760021366 
878	 0.122480559304828 
879	 0.122509476126281 
880	 0.122571444276788 
881	 0.122556928487182 
882	 0.122564895214659 
883	 0.122585904951862 
884	 0.122600225557011 
885	 0.122594064254412 
886	 0.122623705780149 
887	 0.122641413811801 
888	 0.122670433755709 
889	 0.122777013039076 
890	 0.122775919523452 
891	 0.122784445066079 
892	 0.122859488490234 
893	 0.122929521604113 
894	 0.122916262621362 
895	 0.122902934111561 
896	 0.122956308441361 
897	 0.123050552829087 
898	 0.123140431142211 
899	 0.123192526098766 
900	 0.123210409179952 
901	 0.123272795470537 
902	 0.123366176002822 
903	 0.123462522552688 
904	 0.123531062734337 
905	 0.123556803765613 
906	 0.123602844096821 
907	 0.123678873790854 
908	 0.123768951122951 
909	 0.123891626088664 
910	 0.12396590393763 
911	 0.124025168503648 
912	 0.124151841342238 
913	 0.124179051115416 
914	 0.124298643325281 
915	 0.124484396714043 
916	 0.124519350532624 
917	 0.124535316931419 
918	 0.12464859784595 
919	 0.124814059296624 
920	 0.124829719054801 
921	 0.124922894994086 
922	 0.125013590622452 
923	 0.125075046662328 
924	 0.125225426743923 
925	 0.125323840669775 
926	 0.125448615267947 
927	 0.125625692574962 
928	 0.12570398910937 
929	 0.125826496427663 
930	 0.125963799990691 
931	 0.12606693969892 
932	 0.126143447653216 
933	 0.126288446004312 
934	 0.126420925878039 
935	 0.126482457415606 
936	 0.126643148456745 
937	 0.126738712945435 
938	 0.126820365215917 
939	 0.126974828594526 
940	 0.127148407118267 
941	 0.12731885812809 
942	 0.127486016483114 
943	 0.127654907769053 
944	 0.12781264292113 
945	 0.127893009423173 
946	 0.127966240314808 
947	 0.128106781217567 
948	 0.128102365302257 
949	 0.128224039548627 
950	 0.12844407975802 
951	 0.128599706911073 
952	 0.128756563545214 
953	 0.128846511809073 
954	 0.128971135251188 
955	 0.129254533057301 
956	 0.129421737307661 
957	 0.129517507252222 
958	 0.129597374964269 
959	 0.129711772731107 
960	 0.129895108990848 
961	 0.130082768832777 
962	 0.130263894358811 
963	 0.130457899823545 
964	 0.130607181715634 
965	 0.130772357181984 
966	 0.130913569859264 
967	 0.130963133972563 
968	 0.131125684714278 
969	 0.131322613935084 
970	 0.131444734457866 
971	 0.131433832078801 
972	 0.131522744795357 
973	 0.131734344864466 
974	 0.131896782431368 
975	 0.131839773823695 
976	 0.132108911847178 
977	 0.132281860904621 
978	 0.132365187936938 
979	 0.132615367438827 
980	 0.132740542137404 
981	 0.132919624881414 
982	 0.133125350176015 
983	 0.133216624783109 
984	 0.133255151007414 
985	 0.133379130065272 
986	 0.13356555328021 
987	 0.133704630595887 
988	 0.133795931751733 
989	 0.133841165089267 
990	 0.133909791522549 
991	 0.13408091082857 
992	 0.134350599548801 
993	 0.134381660910852 
994	 0.134396597261342 
995	 0.134690892904057 
996	 0.134726808063177 
997	 0.134874199293627 
998	 0.134979955132939 
999	 0.13488204447105 
1000	 0.135153374627546 
1001	 0.131828133790139 
1002	 0.13191803285726 
1003	 0.132035960717929 
1004	 0.132120357995774 
1005	 0.132230104818147 
1006	 0.132301329566413 
1007	 0.132327075569575 
1008	 0.132315536302262 
1009	 0.132396478033812 
1010	 0.132501772847131 
1011	 0.13261582894051 
1012	 0.132760004277691 
1013	 0.132818114263162 
1014	 0.132826396504259 
1015	 0.13285219356606 
1016	 0.132895525429513 
1017	 0.132949598653046 
1018	 0.133039809418758 
1019	 0.133114682496606 
1020	 0.133167450313974 
1021	 0.133236527855652 
1022	 0.133304289509581 
1023	 0.133417896017712 
1024	 0.133527937285448 
1025	 0.133581920403496 
1026	 0.133627288915771 
1027	 0.133663005508619 
1028	 0.133705759077874 
1029	 0.133744460165742 
1030	 0.133821399284362 
1031	 0.133898018721891 
1032	 0.133987478266631 
1033	 0.13404569845086 
1034	 0.134125840632779 
1035	 0.134173896601728 
1036	 0.134170264524184 
1037	 0.134167809786021 
1038	 0.134165583785787 
1039	 0.134189568360495 
1040	 0.13422626714234 
1041	 0.13424894278953 
1042	 0.134309729172907 
1043	 0.134373013445045 
1044	 0.13442556718578 
1045	 0.134477850704491 
1046	 0.134563898024902 
1047	 0.134597724794952 
1048	 0.134593628329391 
1049	 0.134624606375877 
1050	 0.134653017713117 
1051	 0.134693223689136 
1052	 0.134732085121379 
1053	 0.134771091278899 
1054	 0.134819178944346 
1055	 0.134809249315428 
1056	 0.134805259993656 
1057	 0.134813273167921 
1058	 0.134782096201461 
1059	 0.134790432867661 
1060	 0.134832980301045 
1061	 0.134895988285691 
1062	 0.134919774356658 
1063	 0.134937169488815 
1064	 0.134981987807773 
1065	 0.134980392723316 
1066	 0.134987783790665 
1067	 0.135017792633478 
1068	 0.13498844556382 
1069	 0.135004462273892 
1070	 0.135024207595653 
1071	 0.135052137601199 
1072	 0.135062463792838 
1073	 0.135079736656542 
1074	 0.135097794480136 
1075	 0.135102312779482 
1076	 0.13512905694688 
1077	 0.135154563363151 
1078	 0.135149533980996 
1079	 0.135156573604847 
1080	 0.13520272706865 
1081	 0.135225336130095 
1082	 0.1352259511544 
1083	 0.135254680390973 
1084	 0.135292834827024 
1085	 0.135301619734423 
1086	 0.135330749086002 
1087	 0.135341203904312 
1088	 0.135342315018307 
1089	 0.135260895095157 
1090	 0.135229227722976 
1091	 0.135240235077875 
1092	 0.135284505176609 
1093	 0.135357516946739 
1094	 0.135399369980088 
1095	 0.135426438330232 
1096	 0.135420393769239 
1097	 0.13542193464721 
1098	 0.135426340305667 
1099	 0.135444762977794 
1100	 0.135464339813788 
1101	 0.135467471634249 
1102	 0.135485401329446 
1103	 0.135510415280178 
1104	 0.135566411707939 
1105	 0.135622701235561 
1106	 0.135686515642926 
1107	 0.135736213450135 
1108	 0.135780559548674 
1109	 0.135803169334354 
1110	 0.135821843985502 
1111	 0.135854411750181 
1112	 0.135902779378268 
1113	 0.135927953187115 
1114	 0.135949401142056 
1115	 0.13597159361201 
1116	 0.13596548148207 
1117	 0.135998170803724 
1118	 0.136055538847253 
1119	 0.136108479644561 
1120	 0.136161674794754 
1121	 0.136207863717596 
1122	 0.136234284179133 
1123	 0.136244236631082 
1124	 0.136284955896659 
1125	 0.136351255571962 
1126	 0.136385362863343 
1127	 0.13642108339851 
1128	 0.136455490016965 
1129	 0.136450475183259 
1130	 0.13648629315737 
1131	 0.136557541156552 
1132	 0.136603743375778 
1133	 0.136661010137769 
1134	 0.13670717989466 
1135	 0.136735562924851 
1136	 0.136772824681473 
1137	 0.136795720377416 
1138	 0.136805253518778 
1139	 0.136835612618797 
1140	 0.136861444585065 
1141	 0.13690021362405 
1142	 0.136970770046361 
1143	 0.137010858059923 
1144	 0.137043925872198 
1145	 0.137066950763044 
1146	 0.137064241867291 
1147	 0.137081641385969 
1148	 0.137090900815018 
1149	 0.13712181956526 
1150	 0.137187450607732 
1151	 0.137230074629486 
1152	 0.137259093892975 
1153	 0.137297943328988 
1154	 0.13732755200524 
1155	 0.137335264041527 
1156	 0.137362188905484 
1157	 0.137411495714115 
1158	 0.137431594631867 
1159	 0.137436375451928 
1160	 0.137450613199503 
1161	 0.137456689480571 
1162	 0.137462271200173 
1163	 0.137461570198745 
1164	 0.137479490353758 
1165	 0.137509257788671 
1166	 0.137530071432713 
1167	 0.137549443964181 
1168	 0.137579887632227 
1169	 0.137605302456704 
1170	 0.137620530939404 
1171	 0.137636270368686 
1172	 0.137662715130667 
1173	 0.137674212469915 
1174	 0.137655740253933 
1175	 0.137670429154536 
1176	 0.137708354066792 
1177	 0.137730458432145 
1178	 0.137747715890352 
1179	 0.137780800885052 
1180	 0.137816498880456 
1181	 0.137849584728081 
1182	 0.137901066385674 
1183	 0.137951961317339 
1184	 0.137977588541426 
1185	 0.137976242325666 
1186	 0.137998771854256 
1187	 0.138012405207128 
1188	 0.138046968712181 
1189	 0.138114067394928 
1190	 0.138143949934024 
1191	 0.138165369022654 
1192	 0.13818485074192 
1193	 0.138170208349901 
1194	 0.138187690266336 
1195	 0.138235329842711 
1196	 0.138261688217626 
1197	 0.138285598283724 
1198	 0.138313018451159 
1199	 0.138337585504684 
1200	 0.138352882208524 
1201	 0.138363973955254 
1202	 0.138375686028795 
1203	 0.138391067593865 
1204	 0.138391377131969 
1205	 0.138410201013653 
1206	 0.138450064148998 
1207	 0.138476925267691 
1208	 0.138508060535679 
1209	 0.13852619322849 
1210	 0.138523720760342 
1211	 0.138542971758035 
1212	 0.138566510081567 
1213	 0.138589500182701 
1214	 0.138636035454625 
1215	 0.138666559682462 
1216	 0.138689045943484 
1217	 0.13869927662161 
1218	 0.138711177081863 
1219	 0.138718538867955 
1220	 0.138723275983492 
1221	 0.138722257131888 
1222	 0.138724211664646 
1223	 0.138709824580926 
1224	 0.138726156353019 
1225	 0.138768286336773 
1226	 0.138792137376209 
1227	 0.138831820627965 
1228	 0.13885663465378 
1229	 0.138856158502199 
1230	 0.138866564290539 
1231	 0.138883184993212 
1232	 0.138895876457748 
1233	 0.138907569108566 
1234	 0.138917129152459 
1235	 0.138931547332847 
1236	 0.138943452555839 
1237	 0.138964485743309 
1238	 0.139001322761054 
1239	 0.139017277662199 
1240	 0.139021959067402 
1241	 0.139037613967253 
1242	 0.139048312934772 
1243	 0.1390607030286 
1244	 0.139088302152191 
1245	 0.13910409982434 
1246	 0.139099045516998 
1247	 0.139110393961748 
1248	 0.139126002574393 
1249	 0.139150934359278 
1250	 0.139174487845889 
1251	 0.139186538999 
1252	 0.139206225695901 
1253	 0.139224961578038 
1254	 0.139235285542536 
1255	 0.139245035204145 
1256	 0.139258564641321 
1257	 0.139256093465611 
1258	 0.139271897113169 
1259	 0.139318433075633 
1260	 0.139332779815244 
1261	 0.13933319499066 
1262	 0.13933877825924 
1263	 0.139328618129011 
1264	 0.13932449267139 
1265	 0.139320804912396 
1266	 0.13932707715302 
1267	 0.139343628153074 
1268	 0.139349640027359 
1269	 0.139359489597962 
1270	 0.139381086006723 
1271	 0.139392878707831 
1272	 0.139388366572591 
1273	 0.139405864364102 
1274	 0.139439003914613 
1275	 0.139460043338647 
1276	 0.139487406412578 
1277	 0.139506522216712 
1278	 0.139509031643745 
1279	 0.13952539082945 
1280	 0.13954458431307 
1281	 0.139569022088043 
1282	 0.139614943817863 
1283	 0.139639132102879 
1284	 0.13965346807343 
1285	 0.13966526807899 
1286	 0.139678918089568 
1287	 0.139685502786676 
1288	 0.139703317975763 
1289	 0.139735932061585 
1290	 0.139759398159405 
1291	 0.139780312752153 
1292	 0.1397995913082 
1293	 0.139827290570619 
1294	 0.139832356249509 
1295	 0.139820160729577 
1296	 0.139818757093328 
1297	 0.13981220131099 
1298	 0.139801149568646 
1299	 0.139790631677622 
1300	 0.139780166762947 
1301	 0.139753419960237 
1302	 0.139742159295721 
1303	 0.139738339798923 
1304	 0.139748623034132 
1305	 0.139765993984333 
1306	 0.139770287071021 
1307	 0.139755645845513 
1308	 0.139728531948671 
1309	 0.13971394337276 
1310	 0.139678411027601 
1311	 0.139676449170059 
1312	 0.1397086090214 
1313	 0.139719132490021 
1314	 0.139729233081433 
1315	 0.139738632637516 
1316	 0.139738589166762 
1317	 0.139747614356807 
1318	 0.139765943583835 
1319	 0.139778039343158 
1320	 0.13979021089702 
1321	 0.139801565798548 
1322	 0.139804589466355 
1323	 0.139820315204286 
1324	 0.139835598967324 
1325	 0.139840934238897 
1326	 0.13984626694693 
1327	 0.139847103581938 
1328	 0.139855015460665 
1329	 0.139889430101739 
1330	 0.139922305401537 
1331	 0.139971207435783 
1332	 0.140004960080177 
1333	 0.140044279829635 
1334	 0.140065724978421 
1335	 0.140065500737182 
1336	 0.140088601883443 
1337	 0.140117761685837 
1338	 0.140139802619126 
1339	 0.140163894502902 
1340	 0.140195306923464 
1341	 0.140229973067583 
1342	 0.140251063258836 
1343	 0.140264388316764 
1344	 0.140301340700921 
1345	 0.140312700402952 
1346	 0.140333898898628 
1347	 0.140384657997987 
1348	 0.140418194912277 
1349	 0.140447484149858 
1350	 0.14048326506395 
1351	 0.140515300157124 
1352	 0.140543400128633 
1353	 0.140573301870399 
1354	 0.140602482051999 
1355	 0.140632791620553 
1356	 0.140664539949532 
1357	 0.140691723033175 
1358	 0.140718016462445 
1359	 0.140747559457251 
1360	 0.140778935097455 
1361	 0.140802431620092 
1362	 0.140823511393451 
1363	 0.140847448811807 
1364	 0.140856049776136 
1365	 0.140878378724009 
1366	 0.140911075940932 
1367	 0.14094966596361 
1368	 0.140987252492454 
1369	 0.141033170044865 
1370	 0.141061342552089 
1371	 0.141071861665204 
1372	 0.141083022135764 
1373	 0.141087644791599 
1374	 0.141093779124378 
1375	 0.141103457033102 
1376	 0.141110618023885 
1377	 0.14111238893242 
1378	 0.141114725048857 
1379	 0.141118556470366 
1380	 0.141121176582073 
1381	 0.141122806392383 
1382	 0.141120799997574 
1383	 0.141126975929229 
1384	 0.141115413129064 
1385	 0.141077839225593 
1386	 0.141061359941075 
1387	 0.141055790388466 
1388	 0.141034880140123 
1389	 0.141013754751423 
1390	 0.141000241917878 
1391	 0.140970056244338 
1392	 0.140927667607613 
1393	 0.140886539572778 
1394	 0.140835543459959 
1395	 0.140767357554579 
1396	 0.140683471759223 
1397	 0.140602394832797 
1398	 0.14051981145092 
1399	 0.140423957188882 
1400	 0.140318143013502 
1401	 0.140215385292476 
1402	 0.140099690228427 
1403	 0.13999388685637 
1404	 0.139894750285159 
1405	 0.139793466351524 
1406	 0.139693572940153 
1407	 0.139591708686594 
1408	 0.139489952257736 
1409	 0.139386775010357 
1410	 0.1392734699023 
1411	 0.139173833354004 
1412	 0.139071239953208 
1413	 0.138991315272803 
1414	 0.138932408911631 
1415	 0.138867807643852 
1416	 0.138803989800123 
1417	 0.138753841549937 
1418	 0.138701305903659 
1419	 0.1386592886421 
1420	 0.138640785888918 
1421	 0.138607232875827 
1422	 0.13856147823951 
1423	 0.138519441790988 
1424	 0.138486807002542 
1425	 0.138455011483294 
1426	 0.138430265180224 
1427	 0.13841270412421 
1428	 0.138407411393901 
1429	 0.138412082416059 
1430	 0.138404555308054 
1431	 0.138405191906344 
1432	 0.138403246026116 
1433	 0.138390180136488 
1434	 0.138382516100567 
1435	 0.138380647092292 
1436	 0.138383107560287 
1437	 0.138377072248783 
1438	 0.138383863202257 
1439	 0.138403866184486 
1440	 0.138430700563655 
1441	 0.138447381131499 
1442	 0.138457257773397 
1443	 0.138470347320752 
1444	 0.138466979368339 
1445	 0.138462407435113 
1446	 0.13847834767881 
1447	 0.138493167038409 
1448	 0.138501627984906 
1449	 0.138517097202825 
1450	 0.138545871576319 
1451	 0.138566759923435 
1452	 0.13858671787494 
1453	 0.138609125876413 
1454	 0.138631559268927 
1455	 0.138648437934478 
1456	 0.138670746121807 
1457	 0.138684219446175 
1458	 0.138688018910452 
1459	 0.138696492175763 
1460	 0.138695044404673 
1461	 0.138702741266683 
1462	 0.13871333084841 
1463	 0.138732481005185 
1464	 0.138764767660736 
1465	 0.138794631800641 
1466	 0.138837971323529 
1467	 0.138862687277352 
1468	 0.138864908741759 
1469	 0.138885746431312 
1470	 0.138912656497527 
1471	 0.138927683366866 
1472	 0.138960819246639 
1473	 0.139005545413963 
1474	 0.139035389356121 
1475	 0.139076284861189 
1476	 0.139123489947901 
1477	 0.139165985757042 
1478	 0.13920617600619 
1479	 0.139245684656282 
1480	 0.139285601496712 
1481	 0.139328969333014 
1482	 0.139370169949447 
1483	 0.139415745223904 
1484	 0.139452399127398 
1485	 0.13948167626062 
1486	 0.139516024518148 
1487	 0.139546067959944 
1488	 0.139585966647402 
1489	 0.139634255263893 
1490	 0.139676414489515 
1491	 0.139728765668485 
1492	 0.139762539413322 
1493	 0.13978259002825 
1494	 0.139806138174335 
1495	 0.13980943290207 
1496	 0.139836887889961 
1497	 0.139884429662879 
1498	 0.139921301098618 
1499	 0.139966340196569 
1500	 0.140005900101923 
1501	 0.140034642658543 
1502	 0.140066678900811 
1503	 0.140100418118032 
1504	 0.140135283109875 
1505	 0.140172173617097 
1506	 0.140213089112695 
1507	 0.140239672070004 
1508	 0.140259101370181 
1509	 0.140277575978296 
1510	 0.140284033390731 
1511	 0.140305670603748 
1512	 0.14034902480287 
1513	 0.140381823487167 
1514	 0.140420655720974 
1515	 0.140465641033478 
1516	 0.140497890172663 
1517	 0.140526218712583 
1518	 0.140551230691053 
1519	 0.140577216697489 
1520	 0.14059559919789 
1521	 0.140615607718447 
1522	 0.140643610404449 
1523	 0.140658966984195 
1524	 0.140659279291041 
1525	 0.140673299763804 
1526	 0.140687479538079 
1527	 0.140706894592022 
1528	 0.140737979095453 
1529	 0.140756412570308 
1530	 0.140768699472982 
1531	 0.14078806489312 
1532	 0.140804315846888 
1533	 0.140827295684654 
1534	 0.140858668972317 
1535	 0.140888150469479 
1536	 0.140922037307291 
1537	 0.140945670356612 
1538	 0.14096519881154 
1539	 0.140984044512807 
1540	 0.14099489964495 
1541	 0.141006657613269 
1542	 0.141023253361537 
1543	 0.141039126626166 
1544	 0.141053481928567 
1545	 0.141063310231768 
1546	 0.14107715939414 
1547	 0.141074085222215 
1548	 0.141066749994015 
1549	 0.141075971293329 
1550	 0.141091419065443 
1551	 0.141094007467371 
1552	 0.141101728942833 
1553	 0.141109431045805 
1554	 0.141119183626064 
1555	 0.141140876962414 
1556	 0.141168163801762 
1557	 0.141191575732166 
1558	 0.141194367562992 
1559	 0.141196252065056 
1560	 0.141211358104545 
1561	 0.141219569100094 
1562	 0.141244937779213 
1563	 0.141303315109409 
1564	 0.14131779553552 
1565	 0.141312107690163 
1566	 0.141323107714593 
1567	 0.141325713287829 
1568	 0.14132017939474 
1569	 0.141325776639424 
1570	 0.141319728735446 
1571	 0.141275618547654 
1572	 0.141280869074094 
1573	 0.141311200144398 
1574	 0.141338160015427 
1575	 0.141396166815032 
1576	 0.141422232249043 
1577	 0.141437305963175 
1578	 0.141448757824108 
1579	 0.141440523494241 
1580	 0.14144537144412 
1581	 0.141455089335269 
1582	 0.14146111634305 
1583	 0.141468673678254 
1584	 0.14147400046584 
1585	 0.141470849131627 
1586	 0.141478952308145 
1587	 0.141500206731489 
1588	 0.141508107575873 
1589	 0.14150991600325 
1590	 0.14152040001392 
1591	 0.141520275269977 
1592	 0.141531969400557 
1593	 0.141570285341634 
1594	 0.141588305735535 
1595	 0.141588885269442 
1596	 0.141605771433277 
1597	 0.141626340867108 
1598	 0.141641960497944 
1599	 0.14167631043206 
1600	 0.141692364353279 
1601	 0.141696441916947 
1602	 0.141687431877961 
1603	 0.14165133654944 
1604	 0.141635598946516 
1605	 0.141615413935602 
1606	 0.141603580483846 
1607	 0.14161345382818 
1608	 0.141616561943162 
1609	 0.141606237179053 
1610	 0.141612598471401 
1611	 0.141629240392609 
1612	 0.141650165582273 
1613	 0.141689406068245 
1614	 0.141707749775664 
1615	 0.14170061439701 
1616	 0.141695728870215 
1617	 0.141669993920509 
1618	 0.141643045147063 
1619	 0.141635129948064 
1620	 0.141620363369257 
1621	 0.141626870073257 
1622	 0.141653853647183 
1623	 0.141658154533756 
1624	 0.141671653877923 
1625	 0.141660762312113 
1626	 0.141622153905662 
1627	 0.141604968637674 
1628	 0.141578741588114 
1629	 0.141582761365149 
1630	 0.141610769890666 
1631	 0.141620143705686 
1632	 0.141642052320541 
1633	 0.141649574552473 
1634	 0.141640525564022 
1635	 0.141637910946031 
1636	 0.141637292888761 
1637	 0.141636181460848 
1638	 0.14163029336887 
1639	 0.141628965710081 
1640	 0.141635221132347 
1641	 0.141630019631346 
1642	 0.141613658784165 
1643	 0.14161329373733 
1644	 0.141613220070779 
1645	 0.14162234573969 
1646	 0.141657855783045 
1647	 0.141655080206175 
1648	 0.141631896618902 
1649	 0.141624650048662 
1650	 0.141594756080638 
1651	 0.141598749787522 
1652	 0.141638143630615 
1653	 0.141650550013161 
1654	 0.141664336774469 
1655	 0.141670968550925 
1656	 0.141661086739659 
1657	 0.141665103176738 
1658	 0.141676809020055 
1659	 0.141680421057532 
1660	 0.141685504346721 
1661	 0.141685796738167 
1662	 0.141677600562616 
1663	 0.141675167847838 
1664	 0.141676437925145 
1665	 0.141671539004377 
1666	 0.141666796587751 
1667	 0.141656524290605 
1668	 0.141636822361645 
1669	 0.141624626931973 
1670	 0.141612134251426 
1671	 0.141602116501126 
1672	 0.141590790625818 
1673	 0.141591777469455 
1674	 0.141599236105576 
1675	 0.141609196020914 
1676	 0.141634521987501 
1677	 0.141647840081805 
1678	 0.141657379037832 
1679	 0.141663942638582 
1680	 0.141668469304544 
1681	 0.141668137825742 
1682	 0.141670405869689 
1683	 0.141654056440126 
1684	 0.141608020983577 
1685	 0.141598348247727 
1686	 0.141592325039927 
1687	 0.141593931446966 
1688	 0.141635836462538 
1689	 0.141639416187321 
1690	 0.141614639538419 
1691	 0.141609834513845 
1692	 0.141591833554903 
1693	 0.141602326575248 
1694	 0.141648181805517 
1695	 0.141661975105658 
1696	 0.141679364301544 
1697	 0.141682539430081 
1698	 0.141650830737795 
1699	 0.141650632600889 
1700	 0.141668014178738 
1701	 0.141669668288506 
1702	 0.141680818735505 
1703	 0.141677274855781 
1704	 0.141653544157747 
1705	 0.141640182949851 
1706	 0.141626657665452 
1707	 0.141613400369262 
1708	 0.1415985499515 
1709	 0.141591141110761 
1710	 0.141586331529945 
1711	 0.141586246157753 
1712	 0.141598373053684 
1713	 0.141595491634535 
1714	 0.141587093015145 
1715	 0.141582901690285 
1716	 0.141574039883283 
1717	 0.141563910593851 
1718	 0.141560545153485 
1719	 0.141543765002818 
1720	 0.141509960042724 
1721	 0.141495847898023 
1722	 0.141485853400661 
1723	 0.141478927212959 
1724	 0.141487357022176 
1725	 0.141478067097243 
1726	 0.141458279158338 
1727	 0.14144380739839 
1728	 0.141422908016991 
1729	 0.141410290247598 
1730	 0.14140798178366 
1731	 0.141395220320271 
1732	 0.141378782201307 
1733	 0.141366815511701 
1734	 0.141350792146057 
1735	 0.141341133021981 
1736	 0.141344178426381 
1737	 0.141321390850219 
1738	 0.141291006484043 
1739	 0.141252126530699 
1740	 0.141191401103773 
1741	 0.141154804242879 
1742	 0.141123913808373 
1743	 0.141092910213937 
1744	 0.141063147506299 
1745	 0.141044325510534 
1746	 0.141028227905232 
1747	 0.141021329955146 
1748	 0.141032360804437 
1749	 0.141000549078878 
1750	 0.140975518592653 
1751	 0.140943256666665 
1752	 0.140913008096615 
1753	 0.140902086521249 
1754	 0.140877405157427 
1755	 0.140885913214299 
1756	 0.140871284320205 
1757	 0.140825764983099 
1758	 0.14081388192827 
1759	 0.140792566434375 
1760	 0.140758967407978 
1761	 0.140754460733731 
1762	 0.140764383079519 
1763	 0.14073285309251 
1764	 0.140684598040352 
1765	 0.140667849090878 
1766	 0.140655449893876 
1767	 0.140657543252867 
1768	 0.140671028473957 
1769	 0.140638871391966 
1770	 0.140582719589247 
1771	 0.140552319603315 
1772	 0.140528930025181 
1773	 0.140521579114623 
1774	 0.140520695105201 
1775	 0.140484105395095 
1776	 0.140449584407243 
1777	 0.140426966695494 
1778	 0.140404430444571 
1779	 0.140404650372084 
1780	 0.140395193291557 
1781	 0.140370253828434 
1782	 0.14035257537454 
1783	 0.140296263505788 
1784	 0.140270047367991 
1785	 0.140268335523158 
1786	 0.140252938891927 
1787	 0.140241161998655 
1788	 0.140232131527565 
1789	 0.140215250208508 
1790	 0.140207429120156 
1791	 0.140213080035225 
1792	 0.140222690238974 
1793	 0.140242860359871 
1794	 0.140245923921601 
1795	 0.140236535634522 
1796	 0.140228985225887 
1797	 0.140215482559899 
1798	 0.140203437562208 
1799	 0.140205299367391 
1800	 0.140197905303463 
1801	 0.136347612605782 
1802	 0.136388840887727 
1803	 0.136416882334937 
1804	 0.136432355684307 
1805	 0.136472826839001 
1806	 0.136512250633246 
1807	 0.136542171633893 
1808	 0.136565973110494 
1809	 0.13657117392079 
1810	 0.136595235906007 
1811	 0.136620169640179 
1812	 0.136658704228921 
1813	 0.136689720311073 
1814	 0.136699663263443 
1815	 0.136682253211984 
1816	 0.136671928104691 
1817	 0.136672814023405 
1818	 0.136691048389955 
1819	 0.136683242295428 
1820	 0.136659430352263 
1821	 0.1366646456738 
1822	 0.136662481812989 
1823	 0.136659483189728 
1824	 0.136680192686266 
1825	 0.136686792187065 
1826	 0.13666990888296 
1827	 0.136661886529816 
1828	 0.136663776655134 
1829	 0.13668188705799 
1830	 0.136672495126215 
1831	 0.136646845354736 
1832	 0.136652956913855 
1833	 0.136638812175593 
1834	 0.136633190637134 
1835	 0.136652349356566 
1836	 0.136649185135439 
1837	 0.136620691858805 
1838	 0.136586793757809 
1839	 0.136578602329339 
1840	 0.136578792355543 
1841	 0.136583591505063 
1842	 0.136581385397623 
1843	 0.136595516237625 
1844	 0.136598423671543 
1845	 0.136579074546216 
1846	 0.136567564688409 
1847	 0.136543510835874 
1848	 0.136521241530521 
1849	 0.136513078490362 
1850	 0.136500730275129 
1851	 0.136499008013667 
1852	 0.136504184353263 
1853	 0.136490990187602 
1854	 0.136463996340193 
1855	 0.136427986573825 
1856	 0.136388254772723 
1857	 0.136359786091031 
1858	 0.136341728896206 
1859	 0.136309451055274 
1860	 0.136256098352895 
1861	 0.136192360582957 
1862	 0.136116054193093 
1863	 0.136037106116115 
1864	 0.135976275670787 
1865	 0.135929849988835 
1866	 0.135889466017272 
1867	 0.135841933762693 
1868	 0.135763680346434 
1869	 0.135686230655494 
1870	 0.135618148872191 
1871	 0.135520489974321 
1872	 0.135397448220527 
1873	 0.135270046361659 
1874	 0.135132102197021 
1875	 0.134966165075013 
1876	 0.134803003502031 
1877	 0.134619026514331 
1878	 0.13443444743976 
1879	 0.13425497798228 
1880	 0.134053807337239 
1881	 0.13384189296731 
1882	 0.133620653431466 
1883	 0.133394170041889 
1884	 0.133134446897199 
1885	 0.132847700572311 
1886	 0.132542310504667 
1887	 0.132224782592722 
1888	 0.131882205099236 
1889	 0.131531160442226 
1890	 0.131185925971609 
1891	 0.130824716595705 
1892	 0.130446768537979 
1893	 0.130054683444892 
1894	 0.129653914843006 
1895	 0.129240000451318 
1896	 0.128797345003799 
1897	 0.128365067357919 
1898	 0.127936896680062 
1899	 0.127489843158292 
1900	 0.127052846507299 
1901	 0.126611805883462 
1902	 0.126185968215575 
1903	 0.125772568154031 
1904	 0.125364097389259 
1905	 0.124953853699087 
1906	 0.124576770766115 
1907	 0.124218763101925 
1908	 0.123863667787648 
1909	 0.123542003779502 
1910	 0.123216025387966 
1911	 0.122892244118494 
1912	 0.122605405844942 
1913	 0.12234245352706 
1914	 0.122116882957259 
1915	 0.121894331885329 
1916	 0.121695183819944 
1917	 0.121495036405828 
1918	 0.121309139450081 
1919	 0.121147310293523 
1920	 0.121007086723399 
1921	 0.120877414232573 
1922	 0.120761402387836 
1923	 0.120645909857512 
1924	 0.120540626718317 
1925	 0.120449537587062 
1926	 0.120362837460436 
1927	 0.1202844775938 
1928	 0.120204469391317 
1929	 0.120135613758114 
1930	 0.120057965731911 
1931	 0.119996128327801 
1932	 0.119953216300083 
1933	 0.119928291865603 
1934	 0.119927660318985 
1935	 0.119930570834834 
1936	 0.119956549308156 
1937	 0.119976415997931 
1938	 0.119992162368152 
1939	 0.120023404862619 
1940	 0.120072600190358 
1941	 0.120102406511446 
1942	 0.120150469238539 
1943	 0.120202299134934 
1944	 0.120247781012008 
1945	 0.120332860753297 
1946	 0.120398636721724 
1947	 0.120469049279557 
1948	 0.120536544490446 
1949	 0.120594076188799 
1950	 0.120654586966931 
1951	 0.120713394065338 
1952	 0.120785754961756 
1953	 0.120858278708207 
1954	 0.120933129322437 
1955	 0.121017413575029 
1956	 0.121112826205178 
1957	 0.121222702257538 
1958	 0.121363880713288 
1959	 0.121475118582764 
1960	 0.121590067536026 
1961	 0.121693403040155 
1962	 0.121758120419705 
1963	 0.121850540752676 
1964	 0.121941152677583 
1965	 0.122062275515494 
1966	 0.122207117593993 
1967	 0.122357851692585 
1968	 0.12249381743524 
1969	 0.122641175346098 
1970	 0.122769726306316 
1971	 0.122878289851913 
1972	 0.122988706511077 
1973	 0.12308678136652 
1974	 0.123202743875618 
1975	 0.12331765394798 
1976	 0.123446850322737 
1977	 0.123569002117218 
1978	 0.123682554166853 
1979	 0.123810232539257 
1980	 0.123937417039321 
1981	 0.124073112547589 
1982	 0.124242797903261 
1983	 0.124381835289487 
1984	 0.124504494344464 
1985	 0.124631454947164 
1986	 0.12473272223496 
1987	 0.124863339315093 
1988	 0.125011113741509 
1989	 0.125163983788454 
1990	 0.125300220353323 
1991	 0.125458469936805 
1992	 0.12560863025381 
1993	 0.125745886696797 
1994	 0.125887009287799 
1995	 0.126050630869656 
1996	 0.126187755231846 
1997	 0.126294144770664 
1998	 0.126422314982683 
1999	 0.126551650098299 
2000	 0.126679842842328 
2001	 0.126807449441632 
2002	 0.126953717582742 
2003	 0.127099640919558 
2004	 0.127231987950573 
2005	 0.127375551467305 
2006	 0.12754115546346 
2007	 0.127675924267702 
2008	 0.1277963647176 
2009	 0.127920371907467 
2010	 0.128029975736117 
2011	 0.1281403768513 
2012	 0.128255236278652 
2013	 0.128364391561901 
2014	 0.128454272859398 
2015	 0.128561766199418 
2016	 0.128690068062414 
2017	 0.128802988112859 
2018	 0.128925149034011 
2019	 0.129060227219475 
2020	 0.129191765411682 
2021	 0.129329764641105 
2022	 0.129450957210357 
2023	 0.129565320546725 
2024	 0.129681048429866 
2025	 0.129781407187076 
2026	 0.12988714084184 
2027	 0.130004871794427 
2028	 0.130113730693968 
2029	 0.13022023134926 
2030	 0.130320229558204 
2031	 0.130423804597066 
2032	 0.130530557586204 
2033	 0.130630973540062 
2034	 0.130718038319042 
2035	 0.130821840573748 
2036	 0.130939282629832 
2037	 0.131040572288091 
2038	 0.131147001132508 
2039	 0.131248563913398 
2040	 0.131338031107731 
2041	 0.131419679416897 
2042	 0.131520433544608 
2043	 0.131603226830698 
2044	 0.131685552708692 
2045	 0.131756541078327 
2046	 0.131839531703768 
2047	 0.131924975338936 
2048	 0.132005590429342 
2049	 0.132091845836491 
2050	 0.132171708452027 
2051	 0.132238519545835 
2052	 0.132317107054852 
2053	 0.132410029631856 
2054	 0.132487545878404 
2055	 0.132567103101249 
2056	 0.132628449553424 
2057	 0.132698960303561 
2058	 0.132763088735176 
2059	 0.132825548508761 
2060	 0.132891537306598 
2061	 0.132954690680497 
2062	 0.13300320925797 
2063	 0.13306538031054 
2064	 0.133136800963998 
2065	 0.133207005589071 
2066	 0.133279557556319 
2067	 0.133355566603641 
2068	 0.133438016061652 
2069	 0.133516372036671 
2070	 0.1335913997968 
2071	 0.133665082274966 
2072	 0.133739491045747 
2073	 0.133813617331974 
2074	 0.133881344557547 
2075	 0.133957453142781 
2076	 0.134010575799531 
2077	 0.134032392408541 
2078	 0.134081194521582 
2079	 0.134134667576394 
2080	 0.13418473697853 
2081	 0.134233980102995 
2082	 0.13430121941149 
2083	 0.134380896998692 
2084	 0.134451041719035 
2085	 0.134517388388152 
2086	 0.134605443922479 
2087	 0.134665114251165 
2088	 0.134685963421969 
2089	 0.134744009653159 
2090	 0.134812844271825 
2091	 0.134884435310221 
2092	 0.134977649785202 
2093	 0.135051915141251 
2094	 0.135126149369318 
2095	 0.13518959671997 
2096	 0.135222520096081 
2097	 0.135283216371458 
2098	 0.135354849617508 
2099	 0.135424082276186 
2100	 0.135502859843523 
2101	 0.135608090101658 
2102	 0.135686187393029 
2103	 0.1357623244569 
2104	 0.135817114630163 
2105	 0.135839170501136 
2106	 0.135894742113393 
2107	 0.135948487017648 
2108	 0.136009146241073 
2109	 0.136086483163406 
2110	 0.136171983895477 
2111	 0.136264023871179 
2112	 0.136351018679143 
2113	 0.136438767058384 
2114	 0.136553080348581 
2115	 0.13664616929084 
2116	 0.136725353632761 
2117	 0.13681002743116 
2118	 0.13689946279158 
2119	 0.136979210963111 
2120	 0.137058066682097 
2121	 0.137121967646424 
2122	 0.137165421363522 
2123	 0.137229751729601 
2124	 0.137294675720214 
2125	 0.137355729087567 
2126	 0.137438402972135 
2127	 0.1375005615153 
2128	 0.137553108059502 
2129	 0.13758889098222 
2130	 0.137601062976449 
2131	 0.137616011441483 
2132	 0.137644284383385 
2133	 0.137665634531682 
2134	 0.137694688637431 
2135	 0.137762682843859 
2136	 0.137771228811117 
2137	 0.137739949775881 
2138	 0.13772737802138 
2139	 0.137684213178195 
2140	 0.13767052193592 
2141	 0.137700245851584 
2142	 0.137686608806319 
2143	 0.137660861562065 
2144	 0.137629049455238 
2145	 0.137567424843525 
2146	 0.137511958233106 
2147	 0.137457099326666 
2148	 0.137401611043122 
2149	 0.13734446133113 
2150	 0.137284351254255 
2151	 0.13721766933705 
2152	 0.137155923388926 
2153	 0.137076089425164 
2154	 0.136969105748845 
2155	 0.136888965764577 
2156	 0.136819470262572 
2157	 0.136734884476891 
2158	 0.136660152360094 
2159	 0.136575257299326 
2160	 0.136479874584166 
2161	 0.136371765506912 
2162	 0.136248316033794 
2163	 0.136135716592809 
2164	 0.136014122565762 
2165	 0.135893858433889 
2166	 0.135773082901339 
2167	 0.135657356546654 
2168	 0.135551297931538 
2169	 0.135440220018875 
2170	 0.135341429430681 
2171	 0.135271390579453 
2172	 0.135178715474601 
2173	 0.135066185303001 
2174	 0.134975502230522 
2175	 0.134892540028272 
2176	 0.134806675749655 
2177	 0.134738989668281 
2178	 0.134655506304388 
2179	 0.134559311376684 
2180	 0.134464741762983 
2181	 0.134352345396588 
2182	 0.134259702159646 
2183	 0.134169110661199 
2184	 0.134098481642221 
2185	 0.134025494800503 
2186	 0.13396719668891 
2187	 0.133905453737666 
2188	 0.133847217292064 
2189	 0.133779832225011 
2190	 0.13371563777939 
2191	 0.133647319970932 
2192	 0.133563976950453 
2193	 0.133492610008904 
2194	 0.133433958940297 
2195	 0.133361976122794 
2196	 0.133270597675502 
2197	 0.133207481785192 
2198	 0.133136262812459 
2199	 0.133097776940852 
2200	 0.133110068963836 
2201	 0.133104409200662 
2202	 0.133137599815326 
2203	 0.133118833167155 
2204	 0.133087503058871 
2205	 0.133019728365432 
2206	 0.132993867220891 
2207	 0.132962081596065 
2208	 0.132941361396696 
2209	 0.132963148711323 
2210	 0.132940711265417 
2211	 0.132874396248993 
2212	 0.1328535689126 
2213	 0.13284668233752 
2214	 0.132828263918935 
2215	 0.132833405489574 
2216	 0.132821937768526 
2217	 0.132779695716171 
2218	 0.132761701397665 
2219	 0.132761800386153 
2220	 0.132752255008855 
2221	 0.132722585949968 
2222	 0.132737021671455 
2223	 0.132757181800458 
2224	 0.13274965835548 
2225	 0.132765143188944 
2226	 0.132805599688127 
2227	 0.132812497864078 
2228	 0.132801154816202 
2229	 0.132813398892275 
2230	 0.132822653925537 
2231	 0.132839035895727 
2232	 0.132878836084879 
2233	 0.132895739262904 
2234	 0.132903710706082 
2235	 0.132905787478701 
2236	 0.132891768902256 
2237	 0.132893520869615 
2238	 0.132903309673973 
2239	 0.132896623747176 
2240	 0.132885515136665 
2241	 0.13288198299514 
2242	 0.132864809458604 
2243	 0.132858302463981 
2244	 0.13286182242908 
2245	 0.132872941891711 
2246	 0.132888406279307 
2247	 0.132917462424026 
2248	 0.132933735517679 
2249	 0.132962764811551 
2250	 0.13296352021743 
2251	 0.132931877029345 
2252	 0.132936328335996 
2253	 0.132958851323726 
2254	 0.132954166548954 
2255	 0.132955139575747 
2256	 0.132944845235873 
2257	 0.132894941558149 
2258	 0.132884842670003 
2259	 0.132888884341674 
2260	 0.132902166232503 
2261	 0.132943597423209 
2262	 0.132962915890143 
2263	 0.132966735877434 
2264	 0.13300168566262 
2265	 0.133067860779168 
2266	 0.133092401871507 
2267	 0.133113802043366 
2268	 0.133137799836848 
2269	 0.133129846676647 
2270	 0.133114402603347 
2271	 0.133144351638607 
2272	 0.133185921556805 
2273	 0.1332395023416 
2274	 0.133271375202744 
2275	 0.133273976989141 
2276	 0.13326070265051 
2277	 0.133246270521422 
2278	 0.133174418034182 
2279	 0.133180986217062 
2280	 0.133227645898389 
2281	 0.133266082528285 
2282	 0.133348087790949 
2283	 0.133391629578881 
2284	 0.133422204826429 
2285	 0.133448013850616 
2286	 0.133456605162837 
2287	 0.133470855089209 
2288	 0.133492742705763 
2289	 0.133492716318904 
2290	 0.133462223732521 
2291	 0.133462161872685 
2292	 0.133427715366046 
2293	 0.133452838166481 
2294	 0.133570931075096 
2295	 0.133637674722418 
2296	 0.133676843168006 
2297	 0.133787689075827 
2298	 0.133869747855853 
2299	 0.133890487231284 
2300	 0.133956667471945 
2301	 0.133977684371389 
2302	 0.133908316658523 
2303	 0.133823927313741 
2304	 0.133805517796029 
2305	 0.133786959606726 
2306	 0.133773792092612 
2307	 0.133825652226903 
2308	 0.133829925623716 
2309	 0.133781405469668 
2310	 0.13377737832062 
2311	 0.133799246479107 
2312	 0.133794000944158 
2313	 0.133781714441804 
2314	 0.133780874168327 
2315	 0.133783849055682 
2316	 0.133784638380916 
2317	 0.133807214576804 
2318	 0.133790236324329 
2319	 0.133735003810332 
2320	 0.133694067427628 
2321	 0.133616905357123 
2322	 0.133598827076327 
2323	 0.133632836417945 
2324	 0.133636272547265 
2325	 0.133632961009832 
2326	 0.133666736624212 
2327	 0.133712794320812 
2328	 0.133757995255244 
2329	 0.133821106640061 
2330	 0.13385559575941 
2331	 0.133804381043315 
2332	 0.133767337945963 
2333	 0.133757970914396 
2334	 0.133714520233985 
2335	 0.133688010176781 
2336	 0.133677125723102 
2337	 0.133707453145145 
2338	 0.133769954865637 
2339	 0.13380680137871 
2340	 0.133843176733195 
2341	 0.133853924803075 
2342	 0.133843648742377 
2343	 0.133869150232735 
2344	 0.133881839506696 
2345	 0.133862498285958 
2346	 0.133816890392675 
2347	 0.133765888581957 
2348	 0.133677874423165 
2349	 0.13363534290253 
2350	 0.133594838594449 
2351	 0.133547323446253 
2352	 0.133526360031505 
2353	 0.133466702452505 
2354	 0.133372023762924 
2355	 0.133350522228995 
2356	 0.133367768420942 
2357	 0.133340959975764 
2358	 0.133315199215332 
2359	 0.133287952825945 
2360	 0.133240002788428 
2361	 0.133193125285344 
2362	 0.13319474705465 
2363	 0.13313269143374 
2364	 0.13298129307652 
2365	 0.132876343244399 
2366	 0.132749858532226 
2367	 0.132691984975633 
2368	 0.132693234176573 
2369	 0.132666615054194 
2370	 0.132676481099124 
2371	 0.132677160876394 
2372	 0.132588095543106 
2373	 0.132549153002023 
2374	 0.132539757669735 
2375	 0.132481609993135 
2376	 0.132373784658337 
2377	 0.132333645491893 
2378	 0.132281571327205 
2379	 0.13213486135629 
2380	 0.132028931001277 
2381	 0.131941443828923 
2382	 0.13187735745442 
2383	 0.131842592445446 
2384	 0.131798027332902 
2385	 0.131750299667512 
2386	 0.131652996893588 
2387	 0.131556413224876 
2388	 0.13149438295784 
2389	 0.131464763889076 
2390	 0.131406482631798 
2391	 0.131303529897572 
2392	 0.131256639433298 
2393	 0.131152285820623 
2394	 0.131036448551368 
2395	 0.130964172704267 
2396	 0.130833907842548 
2397	 0.130707422111346 
2398	 0.1306317126095 
2399	 0.130577683560336 
2400	 0.130522991250356 
2401	 0.130520451557536 
2402	 0.130524873793747 
2403	 0.130507714986924 
2404	 0.130493325382667 
2405	 0.130433268034333 
2406	 0.130305242713405 
2407	 0.130158869314056 
2408	 0.130054340074719 
2409	 0.130009092891156 
2410	 0.130006981995158 
2411	 0.12995157001957 
2412	 0.129888480003684 
2413	 0.129845102260838 
2414	 0.129830846380867 
2415	 0.129814708300681 
2416	 0.129737692012077 
2417	 0.129610098193419 
2418	 0.129516900013142 
2419	 0.129364274336202 
2420	 0.129331443283582 
2421	 0.129418963727445 
2422	 0.129386106053533 
2423	 0.129333903798224 
2424	 0.129211543358115 
2425	 0.128983070260955 
2426	 0.128846342993931 
2427	 0.128767301368218 
2428	 0.128670329867998 
2429	 0.128571502304428 
2430	 0.128451700084544 
2431	 0.128285136566848 
2432	 0.128145670079991 
2433	 0.128049592750409 
2434	 0.12792002910973 
2435	 0.127748962425343 
2436	 0.127648026730253 
2437	 0.127572364740417 
2438	 0.127536040057217 
2439	 0.127540414330327 
2440	 0.127478174229084 
2441	 0.127521916701924 
2442	 0.127341822521248 
2443	 0.126975510553408 
2444	 0.126819168991558 
2445	 0.126509315948129 
2446	 0.126367143382665 
2447	 0.126510708663145 
2448	 0.126499720763571 
2449	 0.126485337684627 
2450	 0.126409961968875 
2451	 0.12633818922461 
2452	 0.126126144500642 
2453	 0.125741860821936 
2454	 0.125483425448869 
2455	 0.125084285436279 
2456	 0.124895775298566 
2457	 0.124952975625957 
2458	 0.124914337206861 
2459	 0.124966320587881 
2460	 0.124930389266282 
2461	 0.124806169488513 
2462	 0.124671053451325 
2463	 0.124521293150681 
2464	 0.124450371538657 
2465	 0.12428709363051 
2466	 0.124311179659796 
2467	 0.124590442439335 
2468	 0.1245067577574 
2469	 0.124352103663223 
2470	 0.124037885359373 
2471	 0.123730829407386 
2472	 0.123730288746776 
2473	 0.123825105031227 
2474	 0.123807136521831 
2475	 0.123780046501454 
2476	 0.123710790312007 
2477	 0.123512225847705 
2478	 0.123367407491377 
2479	 0.123321671625682 
2480	 0.123211779155363 
2481	 0.123061819016846 
2482	 0.122992631140772 
2483	 0.122871509329389 
2484	 0.122663449791012 
2485	 0.122547953665737 
2486	 0.122450485211035 
2487	 0.122343936340118 
2488	 0.122320462182854 
2489	 0.122528887884048 
2490	 0.122695297227366 
2491	 0.122406645030896 
2492	 0.122131558797579 
2493	 0.121884598689052 
2494	 0.121583105184414 
2495	 0.121688450784037 
2496	 0.121852513683813 
2497	 0.121875446468955 
2498	 0.121915697059303 
2499	 0.121932096370926 
2500	 0.121949117485541 
