Wavelength	LMW_1000000.asd
350	 4.60815225946999E-02 
351	 4.36523589398929E-02 
352	 4.05231261521556E-02 
353	 3.52845250316246E-02 
354	 4.49300946808068E-02 
355	 4.54957732617702E-02 
356	 4.07274253579661E-02 
357	 3.96518841447694E-02 
358	 4.21603020851997E-02 
359	 4.20546366919031E-02 
360	 3.96692874018681E-02 
361	 3.92752235725241E-02 
362	 3.73170092055084E-02 
363	 3.68759928270194E-02 
364	 3.83947030610578E-02 
365	 3.69466024660733E-02 
366	 0.037189687147982 
367	 0.039041775870093 
368	 4.07216010474655E-02 
369	 3.94409092859492E-02 
370	 3.73457373341999E-02 
371	 3.67151525242806E-02 
372	 3.93647471924674E-02 
373	 4.18958693764811E-02 
374	 0.040781774149051 
375	 3.75900781206804E-02 
376	 4.28891555733048E-02 
377	 4.18030126409171E-02 
378	 3.82193914941707E-02 
379	 0.039359048892272 
380	 4.10483514262093E-02 
381	 4.03654470958201E-02 
382	 3.96428297098671E-02 
383	 0.044109122809578 
384	 4.31692831227696E-02 
385	 4.10682897246412E-02 
386	 4.09959142080901E-02 
387	 3.97623543946987E-02 
388	 4.19622073510636E-02 
389	 4.34214276702822E-02 
390	 3.98696620489556E-02 
391	 4.03327881864481E-02 
392	 4.06293228168672E-02 
393	 4.06976779420245E-02 
394	 4.39439090610147E-02 
395	 4.34747603775177E-02 
396	 4.23352165889584E-02 
397	 4.31228108447988E-02 
398	 4.41791481647039E-02 
399	 4.26656500394762E-02 
400	 4.15349936583497E-02 
401	 4.43865720223332E-02 
402	 4.55369792182152E-02 
403	 4.54845314834261E-02 
404	 4.47378001244938E-02 
405	 4.34364665610963E-02 
406	 0.043862822846032 
407	 4.56063339307822E-02 
408	 4.71056665082636E-02 
409	 4.50648360297575E-02 
410	 0.04499567574127 
411	 4.62824886454528E-02 
412	 0.045908811966146 
413	 4.64807184852539E-02 
414	 0.046623856418465 
415	 4.59830264594272E-02 
416	 4.58958898535092E-02 
417	 4.59114509572326E-02 
418	 4.63410135542434E-02 
419	 4.71265596504086E-02 
420	 4.64520455971385E-02 
421	 4.55437443154964E-02 
422	 4.54216859825024E-02 
423	 4.66294478099671E-02 
424	 4.66519756311901E-02 
425	 4.63251821860212E-02 
426	 4.62806409812031E-02 
427	 4.59070096922413E-02 
428	 0.045809842599271 
429	 4.58693571356973E-02 
430	 0.045793375404553 
431	 4.57081821867414E-02 
432	 4.54860844804923E-02 
433	 0.045256215916325 
434	 0.045374202242416 
435	 4.53838776121486E-02 
436	 4.53377697037393E-02 
437	 4.53131027692872E-02 
438	 4.51429961257436E-02 
439	 4.52065229466834E-02 
440	 4.53155352061292E-02 
441	 4.50818457717082E-02 
442	 0.044990954674413 
443	 4.50269216025456E-02 
444	 4.50560955013965E-02 
445	 4.48438617208229E-02 
446	 4.47144190493174E-02 
447	 4.48431068194071E-02 
448	 4.52098428801501E-02 
449	 0.045247157282097 
450	 4.50685064134182E-02 
451	 4.50228216521848E-02 
452	 4.55470010068579E-02 
453	 4.53120590906757E-02 
454	 4.50293773185504E-02 
455	 4.52609355237037E-02 
456	 4.53249973721852E-02 
457	 4.52656625387568E-02 
458	 4.51385416299767E-02 
459	 4.50195584819771E-02 
460	 4.48948063902679E-02 
461	 4.49231469477747E-02 
462	 4.50677698331405E-02 
463	 4.50059209778581E-02 
464	 4.49759814059427E-02 
465	 4.50268702221915E-02 
466	 4.51258169820755E-02 
467	 4.51416374757575E-02 
468	 0.045130876860043 
469	 4.50509329229076E-02 
470	 4.48045528741793E-02 
471	 4.47854706894767E-02 
472	 0.04485256326199 
473	 4.48597197091516E-02 
474	 4.48894576580031E-02 
475	 4.48248761340551E-02 
476	 4.46987412441625E-02 
477	 4.46072821067029E-02 
478	 4.45528625337723E-02 
479	 4.45700565938651E-02 
480	 4.46409935974901E-02 
481	 0.044675682579867 
482	 4.47572568805417E-02 
483	 4.47956317679153E-02 
484	 0.044716550392897 
485	 4.47265696261947E-02 
486	 4.44608245277781E-02 
487	 4.41743968264188E-02 
488	 4.45660805027393E-02 
489	 4.47017419265931E-02 
490	 4.45703280724129E-02 
491	 4.43478601667419E-02 
492	 4.42137840776584E-02 
493	 4.42132772148474E-02 
494	 4.42431778699003E-02 
495	 4.41748326371489E-02 
496	 4.43553285134962E-02 
497	 4.44187686411939E-02 
498	 4.42762786579597E-02 
499	 4.43465658836844E-02 
500	 4.42931382588371E-02 
501	 4.42046944461634E-02 
502	 4.42436780540086E-02 
503	 0.04434988276609 
504	 4.43610158693276E-02 
505	 4.42594478561571E-02 
506	 4.41643517799809E-02 
507	 4.41872753097418E-02 
508	 4.42323931869752E-02 
509	 4.42109152054674E-02 
510	 4.41708747095783E-02 
511	 4.41266436662759E-02 
512	 4.40922402486323E-02 
513	 4.40773407918363E-02 
514	 4.40629609998209E-02 
515	 0.044079034542669 
516	 4.41487092988818E-02 
517	 4.42876307509849E-02 
518	 4.43318083758102E-02 
519	 4.42980692814249E-02 
520	 4.42723612458879E-02 
521	 4.43387053643266E-02 
522	 4.43418027941664E-02 
523	 4.42770174463298E-02 
524	 0.044306393508015 
525	 4.42791427355443E-02 
526	 4.42431207870197E-02 
527	 4.42487643070053E-02 
528	 4.42032868416943E-02 
529	 4.42205308128178E-02 
530	 4.43234017005533E-02 
531	 4.44567568918358E-02 
532	 4.44098635949284E-02 
533	 4.43687649488655E-02 
534	 4.44423363547552E-02 
535	 4.44638777203438E-02 
536	 4.44581680826345E-02 
537	 4.44469411728384E-02 
538	 4.44532583149626E-02 
539	 0.044471236429464 
540	 4.45240114444768E-02 
541	 4.46103985322564E-02 
542	 4.46972391928525E-02 
543	 4.47305355101229E-02 
544	 4.47290666578354E-02 
545	 4.47405861504011E-02 
546	 4.48448757676825E-02 
547	 4.48354541130248E-02 
548	 4.47935419686228E-02 
549	 0.045022921136634 
550	 0.045140202502788 
551	 4.51540996195735E-02 
552	 4.51693997694293E-02 
553	 4.53505630090722E-02 
554	 4.54874455547227E-02 
555	 4.55446567992007E-02 
556	 4.55903758640528E-02 
557	 0.045714531700525 
558	 4.58611387851868E-02 
559	 4.60015377460973E-02 
560	 4.61902785507079E-02 
561	 4.63527341882258E-02 
562	 0.046520891496938 
563	 4.67426196509934E-02 
564	 4.69305566090677E-02 
565	 4.71678266396276E-02 
566	 4.74445124768451E-02 
567	 4.76398759086502E-02 
568	 4.79313377164626E-02 
569	 4.82448149052021E-02 
570	 4.84964069765511E-02 
571	 4.87776204571672E-02 
572	 4.90832381008848E-02 
573	 4.94242438216795E-02 
574	 4.98142641433204E-02 
575	 5.01656776686818E-02 
576	 0.050536064305406 
577	 5.09526234754075E-02 
578	 5.13138537657058E-02 
579	 5.17489987312736E-02 
580	 5.22599782857132E-02 
581	 5.27960457652396E-02 
582	 5.33652919936096E-02 
583	 5.39360601884282E-02 
584	 5.44759563344516E-02 
585	 0.054955083144761 
586	 5.54878290555664E-02 
587	 5.60608338162058E-02 
588	 5.66347121835182E-02 
589	 5.72520363374043E-02 
590	 5.78677396746972E-02 
591	 5.84663818533809E-02 
592	 5.90638851781986E-02 
593	 5.96230253922603E-02 
594	 6.01794163606576E-02 
595	 6.07733547304731E-02 
596	 0.061421449161377 
597	 6.21023322725183E-02 
598	 6.27735734563766E-02 
599	 6.33912384819746E-02 
600	 6.39797120398274E-02 
601	 6.45871191881625E-02 
602	 6.52056931487649E-02 
603	 6.57286098918301E-02 
604	 6.62093763112866E-02 
605	 6.67109780680893E-02 
606	 6.72761560726321E-02 
607	 6.78115040229774E-02 
608	 6.82924768339815E-02 
609	 6.87354737783605E-02 
610	 6.91983299046663E-02 
611	 6.96449417116459E-02 
612	 7.01007519961451E-02 
613	 0.07056297091914 
614	 7.08932129564187E-02 
615	 7.11921893656344E-02 
616	 7.15105643872387E-02 
617	 7.18511555551902E-02 
618	 7.21231797261076E-02 
619	 7.23836284465201E-02 
620	 0.072663166226255 
621	 7.28816558634979E-02 
622	 7.31053288442833E-02 
623	 0.073336512044353 
624	 7.35561766314922E-02 
625	 7.37833280558069E-02 
626	 7.39909883712659E-02 
627	 0.074172533205194 
628	 7.43513466655596E-02 
629	 0.074529137221044 
630	 0.074720502094852 
631	 7.49211214627774E-02 
632	 7.50403718782653E-02 
633	 7.51747045372628E-02 
634	 7.53460827457487E-02 
635	 7.55134867577139E-02 
636	 7.57080435646427E-02 
637	 7.58728524339782E-02 
638	 7.59824455964878E-02 
639	 7.61185411513742E-02 
640	 0.076282386486847 
641	 7.64722605137727E-02 
642	 7.66767174635041E-02 
643	 7.68612577713573E-02 
644	 7.70249816098868E-02 
645	 7.71696229515467E-02 
646	 7.72921130370128E-02 
647	 7.74699946446877E-02 
648	 7.76810121835104E-02 
649	 0.077880327686559 
650	 7.80721134372947E-02 
651	 7.82647964118377E-02 
652	 7.84701701016344E-02 
653	 7.87009910350429E-02 
654	 7.89418729004434E-02 
655	 7.91529440625472E-02 
656	 7.93246648235341E-02 
657	 7.95242175930768E-02 
658	 0.079772348585975 
659	 8.00570644246609E-02 
660	 8.03393654209908E-02 
661	 8.05345453631058E-02 
662	 8.07779852377857E-02 
663	 8.11113569119642E-02 
664	 8.14127352335459E-02 
665	 8.16799868734443E-02 
666	 8.19414483418388E-02 
667	 8.22270850830656E-02 
668	 8.25124458614386E-02 
669	 8.28410679067755E-02 
670	 8.31887069374975E-02 
671	 8.34803412502741E-02 
672	 8.37968865500829E-02 
673	 8.41531075286823E-02 
674	 8.45262729181921E-02 
675	 8.48276822373611E-02 
676	 8.51734157288129E-02 
677	 8.55544547821713E-02 
678	 8.59197291133961E-02 
679	 8.63392038721239E-02 
680	 8.67546942234982E-02 
681	 0.087152636241896 
682	 8.75912845392931E-02 
683	 0.088014793335143 
684	 0.088444221736154 
685	 8.89048187574814E-02 
686	 8.93650068736331E-02 
687	 8.98134190579827E-02 
688	 9.02621490420589E-02 
689	 9.07356697821219E-02 
690	 9.11954461327704E-02 
691	 9.16655482207121E-02 
692	 9.21729199200359E-02 
693	 9.27419678046162E-02 
694	 9.32584925245189E-02 
695	 0.093744135286834 
696	 9.42646492878494E-02 
697	 9.48153499009615E-02 
698	 9.53412193540155E-02 
699	 9.58509051907511E-02 
700	 9.64206540158685E-02 
701	 9.70020378666238E-02 
702	 9.75701825661154E-02 
703	 9.81175002988029E-02 
704	 9.86686313964228E-02 
705	 9.92117468789337E-02 
706	 9.97657386941449E-02 
707	 0.100355513956505 
708	 0.100928262718608 
709	 0.10150309595585 
710	 0.102094185095867 
711	 0.102701295106517 
712	 0.103280044591132 
713	 0.103848166982221 
714	 0.104425476449574 
715	 0.104955624894965 
716	 0.105510804814513 
717	 0.106088362181231 
718	 0.106631005053799 
719	 0.107160307452507 
720	 0.107671341148259 
721	 0.108163994181958 
722	 0.108652257673175 
723	 0.109146142577858 
724	 0.10964762391974 
725	 0.110144877289856 
726	 0.110579091882774 
727	 0.111006623871943 
728	 0.111441264629908 
729	 0.11185087335943 
730	 0.112219574263897 
731	 0.112570627125343 
732	 0.112922065376997 
733	 0.113266350534575 
734	 0.113548426046219 
735	 0.113799710890425 
736	 0.114072489796474 
737	 0.114296597727388 
738	 0.114502689643382 
739	 0.114693470553671 
740	 0.114835159248074 
741	 0.114971879775198 
742	 0.115074983303714 
743	 0.115125859267221 
744	 0.11517462568396 
745	 0.115204229883716 
746	 0.115217449333509 
747	 0.115218340884227 
748	 0.11516096672134 
749	 0.115059575577902 
750	 0.114946102671579 
751	 0.114864381018516 
752	 0.114749924089402 
753	 0.114610985126409 
754	 0.11445792478741 
755	 0.114257948903794 
756	 0.113990285950575 
757	 0.113732313151176 
758	 0.113578175517675 
759	 0.113350525481818 
760	 0.11306882994287 
761	 0.11276671621081 
762	 0.112469460426251 
763	 0.11216940261231 
764	 0.111868951600185 
765	 0.111563325857285 
766	 0.111222217795171 
767	 0.110862468489073 
768	 0.110499417377775 
769	 0.110142760338351 
770	 0.109774081103513 
771	 0.109391919990009 
772	 0.108999209982437 
773	 0.108602572055132 
774	 0.108247931027392 
775	 0.107888420377985 
776	 0.107487763957302 
777	 0.107101029118211 
778	 0.106700770165408 
779	 0.106295922401895 
780	 0.105903589007153 
781	 0.105481848413123 
782	 0.10508090376159 
783	 0.104709976257813 
784	 0.104329338315488 
785	 0.103955591814179 
786	 0.103554073678895 
787	 0.103124069887346 
788	 0.102764866222365 
789	 0.102429339223061 
790	 0.102080301683261 
791	 0.101688905509412 
792	 0.101253106844699 
793	 0.100882154131041 
794	 0.100568789885026 
795	 0.100208725085087 
796	 9.98703788356011E-02 
797	 9.94985635538145E-02 
798	 9.90976282901916E-02 
799	 0.098814123548203 
800	 9.84996412093609E-02 
801	 9.81576954012821E-02 
802	 0.097833608418057 
803	 9.75436606853116E-02 
804	 9.72387946805893E-02 
805	 9.69076872690613E-02 
806	 9.65729040143116E-02 
807	 9.63051128736348E-02 
808	 9.60152622021484E-02 
809	 9.56928043813022E-02 
810	 9.54474678318258E-02 
811	 9.51976267841637E-02 
812	 9.49226141535646E-02 
813	 9.46364595526449E-02 
814	 9.44086889592057E-02 
815	 9.41754169383536E-02 
816	 0.093925266346843 
817	 9.36725651489933E-02 
818	 9.34371800605384E-02 
819	 9.32158705478632E-02 
820	 9.30037888325332E-02 
821	 9.27931013133991E-02 
822	 9.25315640468638E-02 
823	 9.23182124687028E-02 
824	 9.21888693618667E-02 
825	 9.20417510725739E-02 
826	 9.18589236756359E-02 
827	 9.16471802965151E-02 
828	 9.14367279913957E-02 
829	 9.12964487778263E-02 
830	 9.11266330040831E-02 
831	 9.09694444604838E-02 
832	 9.09034320824518E-02 
833	 9.07788369890435E-02 
834	 0.090609296520314 
835	 9.04306415969099E-02 
836	 0.090285836680408 
837	 9.01818188623437E-02 
838	 0.090079527916994 
839	 8.99608842552119E-02 
840	 8.98569081647417E-02 
841	 8.97658884379252E-02 
842	 8.96910553464145E-02 
843	 8.96238026217678E-02 
844	 8.95173725732432E-02 
845	 8.94236198695833E-02 
846	 8.93379273617065E-02 
847	 8.92422485676778E-02 
848	 8.92045975355632E-02 
849	 8.91675051579359E-02 
850	 8.91217544712784E-02 
851	 8.90990783448543E-02 
852	 0.089030119857266 
853	 8.89687090511798E-02 
854	 8.89485953733576E-02 
855	 8.89480115540627E-02 
856	 8.89602961675607E-02 
857	 8.89717062620851E-02 
858	 8.89631072840671E-02 
859	 8.88958956709974E-02 
860	 8.88783008280367E-02 
861	 0.088904042096692 
862	 8.89274419029321E-02 
863	 0.088940107229831 
864	 8.89675253692471E-02 
865	 8.90188985362714E-02 
866	 8.90805910152748E-02 
867	 8.90671671916492E-02 
868	 8.90728108617474E-02 
869	 8.91274462596077E-02 
870	 8.91813279818262E-02 
871	 8.92761323379697E-02 
872	 8.93757826669656E-02 
873	 8.94476406299733E-02 
874	 8.94855227815923E-02 
875	 8.95735900803195E-02 
876	 8.96631150443865E-02 
877	 8.97243187129927E-02 
878	 8.98720845698908E-02 
879	 9.00168357277362E-02 
880	 9.01246620138549E-02 
881	 9.02066550707237E-02 
882	 9.03624249915298E-02 
883	 9.05295956398311E-02 
884	 9.06710745128943E-02 
885	 0.09078021719767 
886	 9.09170983148653E-02 
887	 9.10698016971547E-02 
888	 9.12328217361527E-02 
889	 9.14096321194441E-02 
890	 9.15944938222668E-02 
891	 9.17594970326985E-02 
892	 9.19087597227771E-02 
893	 9.20865316105743E-02 
894	 9.22835260915335E-02 
895	 9.25118708191414E-02 
896	 9.27594301357104E-02 
897	 9.29683030425751E-02 
898	 9.31781047898061E-02 
899	 9.34101665546427E-02 
900	 9.36637904445496E-02 
901	 9.38916535578256E-02 
902	 9.41322915726128E-02 
903	 9.43865630092711E-02 
904	 9.46507934958089E-02 
905	 9.49608719231847E-02 
906	 0.095239988286875 
907	 9.54693824024241E-02 
908	 9.56879498819943E-02 
909	 9.60432524481475E-02 
910	 9.63800936362721E-02 
911	 9.66743846560627E-02 
912	 9.69893961126689E-02 
913	 9.72512983049283E-02 
914	 9.75797505682908E-02 
915	 9.79648535012533E-02 
916	 9.82848148031443E-02 
917	 9.86325226593955E-02 
918	 9.89882367846412E-02 
919	 9.93467089084148E-02 
920	 9.97318820883299E-02 
921	 0.100130419785911 
922	 0.100530490277958 
923	 0.100933455574531 
924	 0.10136022945767 
925	 0.101808115794639 
926	 0.102286822080639 
927	 0.102749739169869 
928	 0.103049210105128 
929	 0.10354464438027 
930	 0.104084819684741 
931	 0.104507912923761 
932	 0.10494412284524 
933	 0.105473296677892 
934	 0.106022178074825 
935	 0.106508701882619 
936	 0.106970576350236 
937	 0.107530484102584 
938	 0.108111249557739 
939	 0.108624721960848 
940	 0.109203447016197 
941	 0.109780783703241 
942	 0.110408953167877 
943	 0.111108283441962 
944	 0.111590676969862 
945	 0.112121926511986 
946	 0.112788528670248 
947	 0.113525466468009 
948	 0.114062829224314 
949	 0.114671596556284 
950	 0.115377744219253 
951	 0.11607728606302 
952	 0.116771203773502 
953	 0.117517035337154 
954	 0.118264980084175 
955	 0.118941570604614 
956	 0.11970124876956 
957	 0.120498276346668 
958	 0.121230246561071 
959	 0.121827495047788 
960	 0.122517787590909 
961	 0.123413964287981 
962	 0.124399300469703 
963	 0.125245943096229 
964	 0.125997298945287 
965	 0.126826073551102 
966	 0.127690576634663 
967	 0.128452560067082 
968	 0.12936514286532 
969	 0.130233655685787 
970	 0.131073560501253 
971	 0.132022797001798 
972	 0.132921258174207 
973	 0.133852830801923 
974	 0.134812056839405 
975	 0.135736435749428 
976	 0.136650099682968 
977	 0.137661498633141 
978	 0.138674761186961 
979	 0.139524048946297 
980	 0.140469411291482 
981	 0.141391735764587 
982	 0.142329755956717 
983	 0.143394274599847 
984	 0.144447486123032 
985	 0.145560086221707 
986	 0.146679994852238 
987	 0.147742408540846 
988	 0.149019187306126 
989	 0.150147471324714 
990	 0.151086300504961 
991	 0.15202692461006 
992	 0.15324105735455 
993	 0.154437355174274 
994	 0.155474797664807 
995	 0.156395503968379 
996	 0.157569839851835 
997	 0.158579275506626 
998	 0.159645910158702 
999	 0.160996929694334 
1000	 0.161920116200214 
1001	 0.160345408249662 
1002	 0.161343398443699 
1003	 0.162343419487416 
1004	 0.163397260704031 
1005	 0.164506419172112 
1006	 0.165565925913473 
1007	 0.166639446078841 
1008	 0.167731966422726 
1009	 0.168704433502137 
1010	 0.169699316160765 
1011	 0.170727851800511 
1012	 0.171690809858954 
1013	 0.172739212448833 
1014	 0.173797741347787 
1015	 0.174797571491122 
1016	 0.175839345676416 
1017	 0.176867673312795 
1018	 0.177882702630166 
1019	 0.178859711801638 
1020	 0.179857698998136 
1021	 0.180870199417777 
1022	 0.181827418146661 
1023	 0.182794336675343 
1024	 0.183792992835911 
1025	 0.184714305005012 
1026	 0.185616793712932 
1027	 0.186583028539232 
1028	 0.187535172233211 
1029	 0.188457933926989 
1030	 0.189436225288416 
1031	 0.19036413603757 
1032	 0.19125930503724 
1033	 0.192101020061464 
1034	 0.192981036625067 
1035	 0.193805750864396 
1036	 0.19464390431531 
1037	 0.195583501140964 
1038	 0.196510696587985 
1039	 0.197434135721996 
1040	 0.198390591789074 
1041	 0.19928671995709 
1042	 0.200161984072302 
1043	 0.20106769002031 
1044	 0.201930671318516 
1045	 0.202756883316169 
1046	 0.203572634282279 
1047	 0.204439477582838 
1048	 0.205297920530867 
1049	 0.206163865827874 
1050	 0.207068700472831 
1051	 0.207932950612836 
1052	 0.208758140458607 
1053	 0.209646856376984 
1054	 0.210547731050054 
1055	 0.211407829891505 
1056	 0.212298827580458 
1057	 0.213217579087282 
1058	 0.214187535376948 
1059	 0.215079876533007 
1060	 0.215977982611491 
1061	 0.216831220532553 
1062	 0.217604653763504 
1063	 0.218368025829052 
1064	 0.219212715865223 
1065	 0.220085048025397 
1066	 0.220996707389037 
1067	 0.221916477781027 
1068	 0.222802775776532 
1069	 0.223697487728962 
1070	 0.224584808737789 
1071	 0.225449942746691 
1072	 0.2263340428299 
1073	 0.227234947973733 
1074	 0.228105482448652 
1075	 0.22896052078221 
1076	 0.229817107276268 
1077	 0.230675762490075 
1078	 0.231522237097619 
1079	 0.232408319735033 
1080	 0.233333873781199 
1081	 0.234203401429247 
1082	 0.235050655797196 
1083	 0.235944928654145 
1084	 0.236846817948174 
1085	 0.237748291063368 
1086	 0.238697118449584 
1087	 0.239603899698943 
1088	 0.240478691460807 
1089	 0.241355081325083 
1090	 0.24225121058827 
1091	 0.243171748553101 
1092	 0.244139060628563 
1093	 0.24509165668675 
1094	 0.24604521245245 
1095	 0.246991814391864 
1096	 0.247880702102992 
1097	 0.248785770497752 
1098	 0.249727091141675 
1099	 0.250676892743918 
1100	 0.251624462471542 
1101	 0.252619963005039 
1102	 0.253595374787769 
1103	 0.254553590195702 
1104	 0.255501120910611 
1105	 0.256485603624147 
1106	 0.257469973093299 
1107	 0.258462663753348 
1108	 0.259488572986238 
1109	 0.260514605721597 
1110	 0.261519069650603 
1111	 0.262532892946499 
1112	 0.263534108287064 
1113	 0.26455357222729 
1114	 0.265588223907576 
1115	 0.26662068508368 
1116	 0.267653144403819 
1117	 0.268697832948037 
1118	 0.269737684483438 
1119	 0.270800113390088 
1120	 0.271902421339928 
1121	 0.272977694189822 
1122	 0.274076795649011 
1123	 0.275195047121392 
1124	 0.276288059139586 
1125	 0.277377087067282 
1126	 0.278459774735369 
1127	 0.279506885950987 
1128	 0.280600418268252 
1129	 0.281710828689003 
1130	 0.282816450694389 
1131	 0.283942599634584 
1132	 0.28507142148925 
1133	 0.286193333700886 
1134	 0.287323397755692 
1135	 0.288464827758353 
1136	 0.289612330600796 
1137	 0.290767835123151 
1138	 0.291912582946695 
1139	 0.293034874693911 
1140	 0.294155529304225 
1141	 0.295248927026784 
1142	 0.296295426135177 
1143	 0.297389736662415 
1144	 0.298501250750316 
1145	 0.299592077692819 
1146	 0.30070270790315 
1147	 0.301779732528281 
1148	 0.302807316434716 
1149	 0.303873195796551 
1150	 0.304942519016794 
1151	 0.306019951824258 
1152	 0.307137094796176 
1153	 0.308236836570795 
1154	 0.309316529802156 
1155	 0.310386197800374 
1156	 0.311462277458735 
1157	 0.312522755895897 
1158	 0.313588049199663 
1159	 0.314681741780625 
1160	 0.315737299819339 
1161	 0.316763640443803 
1162	 0.317797528153021 
1163	 0.318825318340677 
1164	 0.319841326045381 
1165	 0.320842317817374 
1166	 0.321862472893226 
1167	 0.322852118930096 
1168	 0.323885309777631 
1169	 0.32490907912783 
1170	 0.325949964338767 
1171	 0.326968604388036 
1172	 0.328004170610664 
1173	 0.32899132005109 
1174	 0.32995915506315 
1175	 0.330908414953772 
1176	 0.331814925857266 
1177	 0.332733354512202 
1178	 0.333635694195531 
1179	 0.334551800826836 
1180	 0.335496615768954 
1181	 0.336403330077372 
1182	 0.337304787453357 
1183	 0.338188934079354 
1184	 0.339049135322055 
1185	 0.339866027166613 
1186	 0.340713452227083 
1187	 0.341568974670743 
1188	 0.342400506604206 
1189	 0.343250297729139 
1190	 0.344044463465791 
1191	 0.344791148048418 
1192	 0.345547140472194 
1193	 0.346261562037055 
1194	 0.347007214205384 
1195	 0.347784354727741 
1196	 0.348529934691609 
1197	 0.349290161848843 
1198	 0.350014269449139 
1199	 0.350713230103296 
1200	 0.351371108804191 
1201	 0.352053075928153 
1202	 0.352728574390387 
1203	 0.353390468365075 
1204	 0.354062136227941 
1205	 0.354702823051851 
1206	 0.355320538118951 
1207	 0.355925144136724 
1208	 0.356505122369247 
1209	 0.357093019195244 
1210	 0.357677990837095 
1211	 0.358245216493398 
1212	 0.358803932032292 
1213	 0.359362252187853 
1214	 0.359914118923408 
1215	 0.360448188960183 
1216	 0.36097363836601 
1217	 0.361509542967643 
1218	 0.362003169970954 
1219	 0.362455100138815 
1220	 0.362930715546138 
1221	 0.363393221685267 
1222	 0.363866356213554 
1223	 0.36436088252917 
1224	 0.364827861069901 
1225	 0.365284109663281 
1226	 0.365736112159889 
1227	 0.366188412470869 
1228	 0.366614669757025 
1229	 0.367025646101488 
1230	 0.367429874337017 
1231	 0.367795620252324 
1232	 0.368179917309382 
1233	 0.368569604915871 
1234	 0.368975489158778 
1235	 0.369349463839385 
1236	 0.369725501403002 
1237	 0.370077429097275 
1238	 0.370395163210246 
1239	 0.370730076767569 
1240	 0.371074960311034 
1241	 0.371392785474842 
1242	 0.371684193383954 
1243	 0.371999854105065 
1244	 0.372311092717072 
1245	 0.372620228006143 
1246	 0.372963850406954 
1247	 0.373274557505302 
1248	 0.373556008319357 
1249	 0.37384369107262 
1250	 0.374095159823355 
1251	 0.374349744146389 
1252	 0.374611070920041 
1253	 0.374869430077533 
1254	 0.375117699360109 
1255	 0.375371250860362 
1256	 0.37561740576616 
1257	 0.375845627607089 
1258	 0.376081691598299 
1259	 0.376326886781872 
1260	 0.376563562507924 
1261	 0.376799731211495 
1262	 0.377023222537653 
1263	 0.377243680669002 
1264	 0.377454810617071 
1265	 0.377642702815981 
1266	 0.377839303844457 
1267	 0.378040412946401 
1268	 0.378231392487493 
1269	 0.378426758427539 
1270	 0.378630743335792 
1271	 0.378816694815102 
1272	 0.378993141533897 
1273	 0.379168705792099 
1274	 0.379336981664377 
1275	 0.379497815376972 
1276	 0.379642714037302 
1277	 0.379812081685078 
1278	 0.379982025400279 
1279	 0.380157275397522 
1280	 0.380362894750519 
1281	 0.380543697360544 
1282	 0.380712605948517 
1283	 0.380877776088795 
1284	 0.381030049810631 
1285	 0.381188897290032 
1286	 0.381328031171537 
1287	 0.381475974051588 
1288	 0.381627026501754 
1289	 0.381781429055988 
1290	 0.381918114668919 
1291	 0.382057099003663 
1292	 0.382184811877631 
1293	 0.382289874898421 
1294	 0.382409465165274 
1295	 0.382543201647163 
1296	 0.382653206389599 
1297	 0.382755389334853 
1298	 0.382848046037673 
1299	 0.382916183495942 
1300	 0.382997782537875 
1301	 0.383088076087177 
1302	 0.383164295567021 
1303	 0.383243513669508 
1304	 0.383307534550236 
1305	 0.38335320695953 
1306	 0.383396048130751 
1307	 0.383444506844063 
1308	 0.383458077227142 
1309	 0.38345862222518 
1310	 0.383434233303321 
1311	 0.3834231491716 
1312	 0.383392634212464 
1313	 0.383380745750231 
1314	 0.383395301386763 
1315	 0.383377283491827 
1316	 0.383342001307533 
1317	 0.383315759541872 
1318	 0.383283356160652 
1319	 0.383243796770197 
1320	 0.383209885407668 
1321	 0.383166351107689 
1322	 0.383105747935811 
1323	 0.383042348822542 
1324	 0.383006534452529 
1325	 0.382972268585222 
1326	 0.382955574441058 
1327	 0.382944390793504 
1328	 0.382892498534048 
1329	 0.382827823263195 
1330	 0.382772797125297 
1331	 0.382699734498006 
1332	 0.382639508036264 
1333	 0.38259926365796 
1334	 0.382540833648955 
1335	 0.382461184427166 
1336	 0.382403502141874 
1337	 0.382354669919967 
1338	 0.382304428916841 
1339	 0.382269117522812 
1340	 0.382222616411318 
1341	 0.382181816918824 
1342	 0.382118802700609 
1343	 0.382046988076538 
1344	 0.381956254305358 
1345	 0.381870563246164 
1346	 0.381762182443361 
1347	 0.381663516300891 
1348	 0.381559938378944 
1349	 0.381396315105192 
1350	 0.381214193762097 
1351	 0.381028259481742 
1352	 0.38080288864774 
1353	 0.380603676454118 
1354	 0.38042057661555 
1355	 0.380217955158041 
1356	 0.379992829932342 
1357	 0.379799422931339 
1358	 0.379581864412417 
1359	 0.379429570173619 
1360	 0.379320885555084 
1361	 0.37922887098315 
1362	 0.379181808492185 
1363	 0.379139470471468 
1364	 0.379106610499196 
1365	 0.379096442833472 
1366	 0.379108524353109 
1367	 0.379134124197444 
1368	 0.379197161375025 
1369	 0.37922987429671 
1370	 0.379204870655521 
1371	 0.379141103817124 
1372	 0.378995950029627 
1373	 0.378784271179712 
1374	 0.378519907748973 
1375	 0.37822444818725 
1376	 0.377814466455078 
1377	 0.377324982303481 
1378	 0.376759461988708 
1379	 0.376051461942409 
1380	 0.375396048850913 
1381	 0.374676117072143 
1382	 0.373997039614328 
1383	 0.373379811981891 
1384	 0.37268282896256 
1385	 0.372011388509414 
1386	 0.371230547780944 
1387	 0.370387959473827 
1388	 0.369472006129837 
1389	 0.368496878688883 
1390	 0.367425207133713 
1391	 0.366245212483119 
1392	 0.364985876474716 
1393	 0.363623650940335 
1394	 0.362218489080552 
1395	 0.360793354946447 
1396	 0.359339884803041 
1397	 0.35789323423892 
1398	 0.356426597338885 
1399	 0.354957663886826 
1400	 0.353493787163607 
1401	 0.352007462320225 
1402	 0.3504660552047 
1403	 0.349016815655752 
1404	 0.347553861979347 
1405	 0.346196447417508 
1406	 0.344951173379715 
1407	 0.343680316817651 
1408	 0.342423181909258 
1409	 0.341231307692562 
1410	 0.340032499704923 
1411	 0.338939640313836 
1412	 0.337922937517074 
1413	 0.336990057102058 
1414	 0.336123960404464 
1415	 0.335284332791923 
1416	 0.334476328149165 
1417	 0.33371285399723 
1418	 0.332979628536155 
1419	 0.332295529961968 
1420	 0.331694376032976 
1421	 0.331138125266628 
1422	 0.330626664029996 
1423	 0.330140191902609 
1424	 0.329651357916965 
1425	 0.329169677263322 
1426	 0.328721861858739 
1427	 0.328262526703898 
1428	 0.3278878269155 
1429	 0.327575091839845 
1430	 0.32727146994684 
1431	 0.327034042227722 
1432	 0.326775104388236 
1433	 0.326504602420166 
1434	 0.326274954987796 
1435	 0.32604333538105 
1436	 0.325865712804787 
1437	 0.325755410127289 
1438	 0.32563170882534 
1439	 0.325536555414285 
1440	 0.325446443878205 
1441	 0.32531689308916 
1442	 0.325192772311303 
1443	 0.325094833103689 
1444	 0.325017916441967 
1445	 0.324996581717573 
1446	 0.324993621591561 
1447	 0.324982071693195 
1448	 0.324966047432526 
1449	 0.324914509029952 
1450	 0.324867702633633 
1451	 0.324860722504202 
1452	 0.324856830280421 
1453	 0.32488965539377 
1454	 0.324985071783819 
1455	 0.325039675981565 
1456	 0.325100982605696 
1457	 0.325144076898023 
1458	 0.325153801247042 
1459	 0.325205695738866 
1460	 0.325240643175629 
1461	 0.325337631108132 
1462	 0.325487547631387 
1463	 0.325638109979583 
1464	 0.325838318565692 
1465	 0.326015031109954 
1466	 0.326173033901952 
1467	 0.326371343119483 
1468	 0.326536400262776 
1469	 0.32678941167608 
1470	 0.327127669876775 
1471	 0.327458535994645 
1472	 0.327814996562049 
1473	 0.328219656879254 
1474	 0.328547000926764 
1475	 0.328879774558263 
1476	 0.329244064887391 
1477	 0.329607151791614 
1478	 0.330038227180978 
1479	 0.330493546830202 
1480	 0.330950674127793 
1481	 0.331422518928667 
1482	 0.331870700092518 
1483	 0.33230536592639 
1484	 0.332753157242791 
1485	 0.333178341824687 
1486	 0.333645772022961 
1487	 0.334142526132538 
1488	 0.334627115725501 
1489	 0.3351557072663 
1490	 0.335627266644417 
1491	 0.336066437978815 
1492	 0.336506643439969 
1493	 0.336896416867177 
1494	 0.337335113844386 
1495	 0.337800125642071 
1496	 0.338254408662886 
1497	 0.338751605791056 
1498	 0.339197711209227 
1499	 0.339613401878391 
1500	 0.340026318520119 
1501	 0.340399415213692 
1502	 0.340793025237248 
1503	 0.341189806164907 
1504	 0.341586143419586 
1505	 0.34201061943419 
1506	 0.342415522404401 
1507	 0.342809123354036 
1508	 0.343211547643302 
1509	 0.343582542288706 
1510	 0.343956604126578 
1511	 0.344348906496977 
1512	 0.344716159158987 
1513	 0.345078534756621 
1514	 0.345462699997023 
1515	 0.345855612729868 
1516	 0.346239067430337 
1517	 0.34659952093702 
1518	 0.346963112421798 
1519	 0.347294734219128 
1520	 0.347584215852753 
1521	 0.347899547081943 
1522	 0.348208776009662 
1523	 0.348527103880247 
1524	 0.348847054409297 
1525	 0.349168250917495 
1526	 0.349500181909996 
1527	 0.349822522514866 
1528	 0.350152496268551 
1529	 0.35046059062029 
1530	 0.350750585891872 
1531	 0.351048338471235 
1532	 0.351334469971945 
1533	 0.351622377166174 
1534	 0.351927546231409 
1535	 0.352202427281747 
1536	 0.352451989015194 
1537	 0.35271193194091 
1538	 0.352953025049972 
1539	 0.353209351436841 
1540	 0.353489897184624 
1541	 0.353748617132689 
1542	 0.354000071697843 
1543	 0.354252077033756 
1544	 0.35449712444698 
1545	 0.35473084601505 
1546	 0.354967012919027 
1547	 0.355182202740814 
1548	 0.35538284351285 
1549	 0.355607654054886 
1550	 0.355825123915297 
1551	 0.356040447922209 
1552	 0.356272250792731 
1553	 0.356488615020403 
1554	 0.356702221066241 
1555	 0.356928403342371 
1556	 0.357139939272561 
1557	 0.357339771462666 
1558	 0.35754158110119 
1559	 0.357726027394364 
1560	 0.357904267420985 
1561	 0.35806509519749 
1562	 0.358237002020226 
1563	 0.35839772591124 
1564	 0.358589378621406 
1565	 0.358801845845157 
1566	 0.359003659662815 
1567	 0.359225562694411 
1568	 0.359410969095101 
1569	 0.359582956065814 
1570	 0.359738211903181 
1571	 0.35987211351168 
1572	 0.360009305445822 
1573	 0.360132063924263 
1574	 0.360255680159898 
1575	 0.360361040700678 
1576	 0.360496798093597 
1577	 0.360647133255385 
1578	 0.360790535870537 
1579	 0.360959917057636 
1580	 0.361107286825377 
1581	 0.361237293301785 
1582	 0.361368776100061 
1583	 0.361487645263104 
1584	 0.361619287268081 
1585	 0.361753671353151 
1586	 0.361888694626634 
1587	 0.362041744562434 
1588	 0.362175177993137 
1589	 0.362301779694966 
1590	 0.362416994626479 
1591	 0.362522571202834 
1592	 0.362620147292917 
1593	 0.362700340923185 
1594	 0.362783460169373 
1595	 0.362857532960573 
1596	 0.362934445581888 
1597	 0.363018015983479 
1598	 0.363092878207252 
1599	 0.363159691502403 
1600	 0.363231183226541 
1601	 0.363290921771935 
1602	 0.363367059062114 
1603	 0.363467102771398 
1604	 0.363548054352949 
1605	 0.363621044704353 
1606	 0.363702454574733 
1607	 0.363778900245205 
1608	 0.363850975679254 
1609	 0.363956015392592 
1610	 0.364037475159183 
1611	 0.364101987605044 
1612	 0.364170476896012 
1613	 0.364215885074985 
1614	 0.364271575726068 
1615	 0.364328989046956 
1616	 0.364373072633652 
1617	 0.364418079638268 
1618	 0.364465643540508 
1619	 0.364510521663981 
1620	 0.36455811660761 
1621	 0.364611452561658 
1622	 0.364672752947658 
1623	 0.364717724180603 
1624	 0.364759541712018 
1625	 0.364805873836425 
1626	 0.364834229803721 
1627	 0.36489855010262 
1628	 0.364994499041908 
1629	 0.365050965590808 
1630	 0.365105768994055 
1631	 0.365161154257712 
1632	 0.365201750455641 
1633	 0.365233880285868 
1634	 0.365273557856528 
1635	 0.365297247120205 
1636	 0.365292095795378 
1637	 0.365301825819705 
1638	 0.365321183394825 
1639	 0.365327955288066 
1640	 0.365305289709995 
1641	 0.365340936453197 
1642	 0.365413473134352 
1643	 0.365451104369656 
1644	 0.365519030608258 
1645	 0.365541328550024 
1646	 0.365508497262633 
1647	 0.365511033653921 
1648	 0.365513020891038 
1649	 0.365531400026073 
1650	 0.365570787829842 
1651	 0.36558756846706 
1652	 0.365613116841159 
1653	 0.365614376222814 
1654	 0.365579244401511 
1655	 0.365577138243085 
1656	 0.365587820031107 
1657	 0.365581915132899 
1658	 0.365582062288231 
1659	 0.365576256403367 
1660	 0.365546092424024 
1661	 0.365540771848508 
1662	 0.365558456025864 
1663	 0.365556329946255 
1664	 0.365553133651174 
1665	 0.365545102961468 
1666	 0.365535626421516 
1667	 0.365506113280552 
1668	 0.365470341345968 
1669	 0.365420866532022 
1670	 0.365339370102182 
1671	 0.365279418844373 
1672	 0.36521146450509 
1673	 0.365169571300069 
1674	 0.365134588899046 
1675	 0.365126949913232 
1676	 0.365176261340833 
1677	 0.365161305822818 
1678	 0.365133157494513 
1679	 0.365103183235453 
1680	 0.365018887410759 
1681	 0.364984705628164 
1682	 0.364997924990083 
1683	 0.364972039499975 
1684	 0.364933921628643 
1685	 0.364906509704413 
1686	 0.364865491302774 
1687	 0.364835769715417 
1688	 0.364830291846181 
1689	 0.36480221825818 
1690	 0.364765986054343 
1691	 0.364720001820244 
1692	 0.364662051921019 
1693	 0.364603918168395 
1694	 0.364546622038991 
1695	 0.364466327392475 
1696	 0.364360565405658 
1697	 0.364279517353667 
1698	 0.364182849536968 
1699	 0.364114814465664 
1700	 0.364088493514831 
1701	 0.364033185461929 
1702	 0.363975221699521 
1703	 0.363909619975878 
1704	 0.363831556328112 
1705	 0.363755397288875 
1706	 0.363676443884117 
1707	 0.363598162328091 
1708	 0.363519124519831 
1709	 0.363439980553302 
1710	 0.363353729635023 
1711	 0.363280890475457 
1712	 0.363208388947984 
1713	 0.363145493814454 
1714	 0.363111250947416 
1715	 0.363043413404349 
1716	 0.36295997130699 
1717	 0.362887292099958 
1718	 0.362817929246603 
1719	 0.362710759095791 
1720	 0.36259063243497 
1721	 0.362471751420832 
1722	 0.362318469641344 
1723	 0.36217931950082 
1724	 0.362068950998544 
1725	 0.361917236645029 
1726	 0.361728622176807 
1727	 0.361564739412819 
1728	 0.361398504056423 
1729	 0.361233060242361 
1730	 0.361070324075964 
1731	 0.360918900284001 
1732	 0.360767947358766 
1733	 0.360616920596795 
1734	 0.360492478712734 
1735	 0.360321043508885 
1736	 0.360117012368815 
1737	 0.359936515951678 
1738	 0.359757442473434 
1739	 0.359553124545517 
1740	 0.359339357067535 
1741	 0.359141462390878 
1742	 0.35891721154351 
1743	 0.358728171145586 
1744	 0.358576634318001 
1745	 0.358409555839622 
1746	 0.358245974992953 
1747	 0.358050252700059 
1748	 0.357873863495765 
1749	 0.3576718490463 
1750	 0.357458772767869 
1751	 0.357231508148828 
1752	 0.35700391927512 
1753	 0.356821199220759 
1754	 0.356630818186577 
1755	 0.356449756969458 
1756	 0.356257005183757 
1757	 0.355989902390476 
1758	 0.355742350083469 
1759	 0.355537164572919 
1760	 0.355350480082281 
1761	 0.355194263324046 
1762	 0.355030997569694 
1763	 0.354862545355118 
1764	 0.354680477042733 
1765	 0.354484657959874 
1766	 0.354282404465329 
1767	 0.354056082532456 
1768	 0.353863645012958 
1769	 0.353725781566046 
1770	 0.353563116686919 
1771	 0.353400540326443 
1772	 0.353265055173165 
1773	 0.353087101328681 
1774	 0.352928603280354 
1775	 0.352812187943534 
1776	 0.352637397396699 
1777	 0.35245385179792 
1778	 0.352318632211142 
1779	 0.352184771563697 
1780	 0.352035128681182 
1781	 0.351903351878211 
1782	 0.351773311915866 
1783	 0.351650792651589 
1784	 0.351544086278566 
1785	 0.351457942117195 
1786	 0.351373306903498 
1787	 0.351298852004621 
1788	 0.35120237651198 
1789	 0.351103032858507 
1790	 0.351007841934741 
1791	 0.350887731628059 
1792	 0.350809194836136 
1793	 0.350757707396278 
1794	 0.350696481475857 
1795	 0.350648508736645 
1796	 0.350591363956995 
1797	 0.350540266291237 
1798	 0.350498745681765 
1799	 0.350453761795971 
1800	 0.350412963478894 
1801	 0.341229905847911 
1802	 0.341586300672569 
1803	 0.341961570223545 
1804	 0.342396782371633 
1805	 0.342789993675316 
1806	 0.343132396891384 
1807	 0.343519109276471 
1808	 0.343832557822898 
1809	 0.344101221742556 
1810	 0.344303797126487 
1811	 0.344471489557886 
1812	 0.344594570113675 
1813	 0.34464129466717 
1814	 0.344671837653976 
1815	 0.344701861506743 
1816	 0.344718186915931 
1817	 0.344724296566757 
1818	 0.34470076969391 
1819	 0.344684295261907 
1820	 0.344672689276087 
1821	 0.344642689267144 
1822	 0.34459035382357 
1823	 0.344556967865998 
1824	 0.344529876767758 
1825	 0.34447348460161 
1826	 0.344409320321819 
1827	 0.344324069527562 
1828	 0.344215800971124 
1829	 0.3440836044353 
1830	 0.34393647359314 
1831	 0.343769396594038 
1832	 0.343582790757108 
1833	 0.343384503838177 
1834	 0.343168924036019 
1835	 0.342985992568626 
1836	 0.34283585337193 
1837	 0.342709343382253 
1838	 0.342609211825248 
1839	 0.342508068791108 
1840	 0.342428699973966 
1841	 0.342322269292937 
1842	 0.342218397664137 
1843	 0.342142093381368 
1844	 0.342059498035761 
1845	 0.341966428721143 
1846	 0.341879497044712 
1847	 0.341761809519028 
1848	 0.341577729744117 
1849	 0.34139005023911 
1850	 0.341173602362368 
1851	 0.340938840595243 
1852	 0.340633701312857 
1853	 0.340313710111589 
1854	 0.339963348343352 
1855	 0.339542139196926 
1856	 0.339085680516605 
1857	 0.338611471207469 
1858	 0.338085920336758 
1859	 0.337527545735838 
1860	 0.336877095957594 
1861	 0.336176891133711 
1862	 0.335373344328726 
1863	 0.334470593507908 
1864	 0.333433551498581 
1865	 0.332300970278153 
1866	 0.331044879760791 
1867	 0.329729701149845 
1868	 0.328353025330108 
1869	 0.326911282613867 
1870	 0.325492592084027 
1871	 0.324014630748189 
1872	 0.322494072385297 
1873	 0.32095109245295 
1874	 0.319376290073235 
1875	 0.31772315725973 
1876	 0.315985844189017 
1877	 0.314154753241779 
1878	 0.312194608984028 
1879	 0.310075067001251 
1880	 0.307794417541444 
1881	 0.305340674142958 
1882	 0.302763899694929 
1883	 0.300045743366135 
1884	 0.297131840806696 
1885	 0.294126382101928 
1886	 0.2910229665311 
1887	 0.287770931220458 
1888	 0.284480386278917 
1889	 0.281117541239274 
1890	 0.277715367169352 
1891	 0.274341737998542 
1892	 0.270926682618433 
1893	 0.267552668623232 
1894	 0.264187847474689 
1895	 0.260847282284479 
1896	 0.257517957974144 
1897	 0.254270473095968 
1898	 0.251091349466764 
1899	 0.248016854718833 
1900	 0.245104362816976 
1901	 0.242336266761984 
1902	 0.239744688208242 
1903	 0.237356778780366 
1904	 0.235096622369357 
1905	 0.232980985421221 
1906	 0.231042995961653 
1907	 0.229252130019163 
1908	 0.227583224231214 
1909	 0.226027827663339 
1910	 0.224556562479135 
1911	 0.223196579398144 
1912	 0.221919839703643 
1913	 0.220746777399165 
1914	 0.219695945698994 
1915	 0.218707339001841 
1916	 0.217800783724009 
1917	 0.216979893812843 
1918	 0.216241634616962 
1919	 0.215580085770452 
1920	 0.215015872685273 
1921	 0.214533933048465 
1922	 0.214089000921526 
1923	 0.213710976730982 
1924	 0.213390422514905 
1925	 0.213138452166963 
1926	 0.212914465643963 
1927	 0.21274116375304 
1928	 0.212615886531573 
1929	 0.212541872057081 
1930	 0.21247917139402 
1931	 0.212460235095276 
1932	 0.212500512747953 
1933	 0.212561059546839 
1934	 0.212652718140353 
1935	 0.212786463942262 
1936	 0.212962719955233 
1937	 0.213174312459394 
1938	 0.213419872738115 
1939	 0.213707703726635 
1940	 0.21403836088037 
1941	 0.21441331157617 
1942	 0.214817273116833 
1943	 0.215233873553555 
1944	 0.215666661312384 
1945	 0.216117239852112 
1946	 0.216567892265952 
1947	 0.217010953712381 
1948	 0.21749113373681 
1949	 0.217992387705933 
1950	 0.218502872845066 
1951	 0.21903530297311 
1952	 0.21958318504345 
1953	 0.220138615257242 
1954	 0.220703556976671 
1955	 0.221292061046349 
1956	 0.221917231039963 
1957	 0.222554511901813 
1958	 0.223223825112679 
1959	 0.223885383848836 
1960	 0.224568001836214 
1961	 0.22524160771495 
1962	 0.225893559899827 
1963	 0.226585581882285 
1964	 0.227302430490614 
1965	 0.228018249507753 
1966	 0.228754607252812 
1967	 0.229490216374288 
1968	 0.230231341419023 
1969	 0.230965714291586 
1970	 0.231711967984825 
1971	 0.232492183602461 
1972	 0.233241667042278 
1973	 0.233960411292908 
1974	 0.234708995789931 
1975	 0.235474915627656 
1976	 0.236211470896214 
1977	 0.236969012940424 
1978	 0.237739305808784 
1979	 0.238487809282494 
1980	 0.239246510298581 
1981	 0.24000795914104 
1982	 0.240780903146282 
1983	 0.241549346015586 
1984	 0.242309482714376 
1985	 0.243083703532824 
1986	 0.243874904315135 
1987	 0.244647107839578 
1988	 0.245414588753498 
1989	 0.246197721786048 
1990	 0.246946044182521 
1991	 0.247687409042631 
1992	 0.248445311961771 
1993	 0.249197230995049 
1994	 0.249972156841756 
1995	 0.250779860395309 
1996	 0.25156141383435 
1997	 0.252355789920976 
1998	 0.253130539074139 
1999	 0.253879530919501 
2000	 0.254626459555499 
2001	 0.255371483812438 
2002	 0.256107227877633 
2003	 0.256816365538177 
2004	 0.257544152367982 
2005	 0.258272002578723 
2006	 0.258999268958735 
2007	 0.259724415259905 
2008	 0.260454329752967 
2009	 0.261187305794913 
2010	 0.261918139219064 
2011	 0.262648526832562 
2012	 0.263396326017197 
2013	 0.264121965774566 
2014	 0.264827525751556 
2015	 0.265547843208084 
2016	 0.266247216085634 
2017	 0.266923679397635 
2018	 0.267607472831708 
2019	 0.268282943644624 
2020	 0.268956547092956 
2021	 0.269637195787644 
2022	 0.270300543247899 
2023	 0.270930974459525 
2024	 0.271596232775817 
2025	 0.272273433775497 
2026	 0.272945304187379 
2027	 0.273636890787428 
2028	 0.274332414832993 
2029	 0.274996462501115 
2030	 0.275643293674957 
2031	 0.276272662181409 
2032	 0.276890119998329 
2033	 0.277486909829207 
2034	 0.278043424387439 
2035	 0.278625736505703 
2036	 0.279206379026788 
2037	 0.27977984341538 
2038	 0.280371921301504 
2039	 0.2809405114122 
2040	 0.281472269702162 
2041	 0.282022746528936 
2042	 0.282591893138533 
2043	 0.283147671563106 
2044	 0.283717606607958 
2045	 0.28431708093453 
2046	 0.284881967955798 
2047	 0.285441214429917 
2048	 0.285981170993644 
2049	 0.286510805106468 
2050	 0.287019270268225 
2051	 0.287498649560996 
2052	 0.287981147010266 
2053	 0.288417901299867 
2054	 0.288900099223734 
2055	 0.289402878955742 
2056	 0.289918073904511 
2057	 0.290433104089927 
2058	 0.290998872625693 
2059	 0.291489509611844 
2060	 0.291938377456936 
2061	 0.292402680325251 
2062	 0.292830266807227 
2063	 0.293285223219557 
2064	 0.293765307829207 
2065	 0.294228907758139 
2066	 0.294678578363226 
2067	 0.295143640527254 
2068	 0.295623286315379 
2069	 0.296090886998015 
2070	 0.296537537000963 
2071	 0.296981361357495 
2072	 0.2974207554458 
2073	 0.297829401459575 
2074	 0.298257992167267 
2075	 0.298710064829415 
2076	 0.299139059136548 
2077	 0.299542260860378 
2078	 0.299970205409521 
2079	 0.300411763577323 
2080	 0.300838854051001 
2081	 0.301269579533518 
2082	 0.301699559054231 
2083	 0.302124637774794 
2084	 0.30253885015346 
2085	 0.302953671859461 
2086	 0.303375929754502 
2087	 0.30378737482212 
2088	 0.304187980927679 
2089	 0.30458513746139 
2090	 0.304985268512907 
2091	 0.305371222683457 
2092	 0.305736813997568 
2093	 0.306112129928755 
2094	 0.306482749524284 
2095	 0.306857046945777 
2096	 0.307224130765051 
2097	 0.307609831278844 
2098	 0.308012671249173 
2099	 0.308410089663943 
2100	 0.308805648104755 
2101	 0.309220088735362 
2102	 0.309606255784326 
2103	 0.30996603018708 
2104	 0.310345049019566 
2105	 0.310719436883525 
2106	 0.311102165192297 
2107	 0.311489797853897 
2108	 0.311887458531423 
2109	 0.312298942946886 
2110	 0.312701206689557 
2111	 0.313115922552295 
2112	 0.313519354700035 
2113	 0.313929256007667 
2114	 0.314306321772812 
2115	 0.314670012396874 
2116	 0.3150160230554 
2117	 0.315363651018198 
2118	 0.315690591011522 
2119	 0.316021939793871 
2120	 0.316351963524042 
2121	 0.316687999594617 
2122	 0.317026713200169 
2123	 0.317348737077657 
2124	 0.317678069648857 
2125	 0.317991386443875 
2126	 0.31828182312981 
2127	 0.318568110114208 
2128	 0.318849795397263 
2129	 0.319124317318727 
2130	 0.319387946381698 
2131	 0.319642275454708 
2132	 0.319893401515183 
2133	 0.320146035273717 
2134	 0.320375356067256 
2135	 0.32059458339967 
2136	 0.320797016477366 
2137	 0.320995872136154 
2138	 0.321155158127022 
2139	 0.321295642511321 
2140	 0.321402894811847 
2141	 0.32146649754137 
2142	 0.321518509165309 
2143	 0.321528032121924 
2144	 0.321552329346292 
2145	 0.321566651795659 
2146	 0.321577873179317 
2147	 0.321584475749352 
2148	 0.321610641015051 
2149	 0.32160365267734 
2150	 0.321576996470118 
2151	 0.321555692890837 
2152	 0.32152803977067 
2153	 0.321486931553927 
2154	 0.321458210411554 
2155	 0.321382247869784 
2156	 0.321263664540066 
2157	 0.321157172742431 
2158	 0.321028457022108 
2159	 0.320900043796773 
2160	 0.320782639159276 
2161	 0.320644436820781 
2162	 0.320486463809372 
2163	 0.320323612176863 
2164	 0.320145846729311 
2165	 0.319973967620025 
2166	 0.319783494583702 
2167	 0.319580970203572 
2168	 0.319376234005793 
2169	 0.319147282729936 
2170	 0.318949813138445 
2171	 0.318771138364998 
2172	 0.318572627918906 
2173	 0.318369548340446 
2174	 0.318185398521135 
2175	 0.317997705886722 
2176	 0.317812931156602 
2177	 0.317664377381937 
2178	 0.317483945704392 
2179	 0.317269075371421 
2180	 0.317073020140034 
2181	 0.316872305534514 
2182	 0.316681003202398 
2183	 0.316519448298527 
2184	 0.316333191305657 
2185	 0.316131843111493 
2186	 0.315918885396107 
2187	 0.315705597678293 
2188	 0.315465987054214 
2189	 0.315250341111106 
2190	 0.315034942595177 
2191	 0.314844595650013 
2192	 0.314688053988229 
2193	 0.314495657607259 
2194	 0.314288936202708 
2195	 0.314109312814172 
2196	 0.313887452267516 
2197	 0.313733845046748 
2198	 0.313650183981069 
2199	 0.313561305940529 
2200	 0.313503904929489 
2201	 0.313447803703696 
2202	 0.313423899259828 
2203	 0.313363594981736 
2204	 0.31330064321342 
2205	 0.313233860962123 
2206	 0.313169443807645 
2207	 0.313076011984559 
2208	 0.313025549743319 
2209	 0.313000219978421 
2210	 0.312974072648373 
2211	 0.312972892743853 
2212	 0.312952559161197 
2213	 0.312941923518805 
2214	 0.312905263731823 
2215	 0.312848270008913 
2216	 0.312790036954903 
2217	 0.312695624813118 
2218	 0.312637276651319 
2219	 0.312606173961295 
2220	 0.312556900766155 
2221	 0.312517537192493 
2222	 0.312480311931456 
2223	 0.312407271528271 
2224	 0.312327198422985 
2225	 0.312244393312852 
2226	 0.312155574258823 
2227	 0.312059711345315 
2228	 0.311943901107684 
2229	 0.311859255779967 
2230	 0.311779365102084 
2231	 0.311709432515106 
2232	 0.311673460442478 
2233	 0.31160539722568 
2234	 0.311541886186978 
2235	 0.311443133947303 
2236	 0.311328832543092 
2237	 0.311184875456617 
2238	 0.310990365232345 
2239	 0.310818947630998 
2240	 0.310606197057374 
2241	 0.310441121467909 
2242	 0.310296590397701 
2243	 0.310176614304033 
2244	 0.310082283558933 
2245	 0.310037621398199 
2246	 0.309971796351694 
2247	 0.309854637146539 
2248	 0.309759644248175 
2249	 0.309650556611006 
2250	 0.30953975788211 
2251	 0.309422767835739 
2252	 0.309342094460844 
2253	 0.309259224901639 
2254	 0.309181689370639 
2255	 0.309154042108487 
2256	 0.309084801994463 
2257	 0.308984574987765 
2258	 0.308899491763348 
2259	 0.308807353365352 
2260	 0.308727565872766 
2261	 0.308650311619257 
2262	 0.308578087676378 
2263	 0.308504982662755 
2264	 0.308457713250878 
2265	 0.308442835063589 
2266	 0.308403465879597 
2267	 0.308375531454594 
2268	 0.308341116631205 
2269	 0.308326790297414 
2270	 0.308228796786501 
2271	 0.308129284575001 
2272	 0.308025058281877 
2273	 0.307892526527787 
2274	 0.307818680181698 
2275	 0.307717764611363 
2276	 0.307643486859993 
2277	 0.30753694832002 
2278	 0.30738957967953 
2279	 0.307276692174327 
2280	 0.307171260858974 
2281	 0.307081223731902 
2282	 0.307024047939723 
2283	 0.306933993824665 
2284	 0.306837753302102 
2285	 0.306742497771299 
2286	 0.306624684605656 
2287	 0.306513916353264 
2288	 0.306395984494605 
2289	 0.306312437525658 
2290	 0.306279468442262 
2291	 0.306187107782233 
2292	 0.306082552057551 
2293	 0.305974302667452 
2294	 0.305801082269506 
2295	 0.305663526510771 
2296	 0.305552644680542 
2297	 0.305460761463354 
2298	 0.305356461725346 
2299	 0.305229303949717 
2300	 0.305058314017745 
2301	 0.304950690952894 
2302	 0.304824898476777 
2303	 0.304616543768802 
2304	 0.304464758349753 
2305	 0.304310052487318 
2306	 0.304138836492819 
2307	 0.303968821424921 
2308	 0.303800812576052 
2309	 0.30360346924889 
2310	 0.303438568865236 
2311	 0.303317584741587 
2312	 0.303145006415031 
2313	 0.302972794947509 
2314	 0.302755843876238 
2315	 0.302460862154565 
2316	 0.302224582940523 
2317	 0.301992130986974 
2318	 0.301772008161946 
2319	 0.301576292635403 
2320	 0.301401403144186 
2321	 0.301222468340143 
2322	 0.301070779482975 
2323	 0.301008308020383 
2324	 0.300851106925472 
2325	 0.300627423337401 
2326	 0.300451401970425 
2327	 0.300252826649598 
2328	 0.300051221941153 
2329	 0.299948137206896 
2330	 0.299850877682275 
2331	 0.29966726048511 
2332	 0.299443077038687 
2333	 0.299181416872396 
2334	 0.298910134219474 
2335	 0.298683026619026 
2336	 0.298481226476861 
2337	 0.298253652301505 
2338	 0.298032282461897 
2339	 0.297800804032074 
2340	 0.297558615915688 
2341	 0.297348535747022 
2342	 0.297122397162983 
2343	 0.29687402096712 
2344	 0.296638311520885 
2345	 0.296365460930741 
2346	 0.296055198011031 
2347	 0.295748145016873 
2348	 0.295424364482562 
2349	 0.295082691574529 
2350	 0.294735122703155 
2351	 0.294382285637636 
2352	 0.293982480605911 
2353	 0.293637437957943 
2354	 0.29335168459477 
2355	 0.292967659176339 
2356	 0.292569429133079 
2357	 0.292168504148216 
2358	 0.291668667614406 
2359	 0.291248408345572 
2360	 0.290897461497342 
2361	 0.290489968965461 
2362	 0.290084978363117 
2363	 0.289677537870319 
2364	 0.289205853399669 
2365	 0.288792477378968 
2366	 0.288438871476918 
2367	 0.288024033484419 
2368	 0.287604560146058 
2369	 0.287214652830068 
2370	 0.286807011755437 
2371	 0.286407846717389 
2372	 0.286012648304061 
2373	 0.28561683163622 
2374	 0.285255700413501 
2375	 0.284831610553478 
2376	 0.284392882719073 
2377	 0.283901834704199 
2378	 0.28334328560002 
2379	 0.282820966035686 
2380	 0.282324580577274 
2381	 0.281878066806335 
2382	 0.281404809942577 
2383	 0.280897973471956 
2384	 0.280398718599197 
2385	 0.279821688610153 
2386	 0.279309448861504 
2387	 0.278862265216307 
2388	 0.278417832199688 
2389	 0.278052665411493 
2390	 0.277634270130961 
2391	 0.277116984862623 
2392	 0.276642543280407 
2393	 0.276180304611059 
2394	 0.275709934731433 
2395	 0.275279365824016 
2396	 0.274710644126459 
2397	 0.274107924243885 
2398	 0.273601003584256 
2399	 0.273053198299721 
2400	 0.272592199033734 
2401	 0.27218950387331 
2402	 0.271696539182547 
2403	 0.27117350832369 
2404	 0.27062212303034 
2405	 0.270000398201596 
2406	 0.269376485760082 
2407	 0.268788257624562 
2408	 0.268230621441369 
2409	 0.26769755847929 
2410	 0.267221595986035 
2411	 0.266812564230993 
2412	 0.266339958684051 
2413	 0.265865120344232 
2414	 0.265393508339161 
2415	 0.264820491835302 
2416	 0.264271460799342 
2417	 0.263735636155945 
2418	 0.263180202625091 
2419	 0.26262388777076 
2420	 0.26201731066543 
2421	 0.261322638170087 
2422	 0.2607499521109 
2423	 0.260209888060231 
2424	 0.259661993291614 
2425	 0.259220052104437 
2426	 0.258706114828292 
2427	 0.258099917175417 
2428	 0.257532110031861 
2429	 0.256971214979715 
2430	 0.256454022097808 
2431	 0.255994778460563 
2432	 0.255456146332905 
2433	 0.254970067866893 
2434	 0.254411852269742 
2435	 0.25369222437784 
2436	 0.253033644316911 
2437	 0.252360752610211 
2438	 0.251718949958445 
2439	 0.251091024453004 
2440	 0.250519718990372 
2441	 0.2500221612653 
2442	 0.24951076359065 
2443	 0.249018124869162 
2444	 0.248576151022019 
2445	 0.248227376100451 
2446	 0.247745561954896 
2447	 0.247186017343159 
2448	 0.246636297190424 
2449	 0.246016488043317 
2450	 0.245370529593109 
2451	 0.244737965639817 
2452	 0.244177410518941 
2453	 0.243597416911515 
2454	 0.243041011579163 
2455	 0.242593619696063 
2456	 0.242024606789157 
2457	 0.241352329458391 
2458	 0.240742906792456 
2459	 0.240116130362739 
2460	 0.239483095662501 
2461	 0.238815498263298 
2462	 0.238309554188995 
2463	 0.237883343626422 
2464	 0.237477666787725 
2465	 0.237257925827632 
2466	 0.236886679386086 
2467	 0.236449252329914 
2468	 0.235960712160201 
2469	 0.235363164636914 
2470	 0.23479461469894 
2471	 0.23425737630865 
2472	 0.233747224955528 
2473	 0.233319806949846 
2474	 0.232879997598279 
2475	 0.232355540855686 
2476	 0.231757141178828 
2477	 0.231177832511188 
2478	 0.230616973793421 
2479	 0.23014386167295 
2480	 0.229644318997825 
2481	 0.229132223263516 
2482	 0.22859975034444 
2483	 0.22795717515484 
2484	 0.227682671177038 
2485	 0.227527131151377 
2486	 0.227305376656353 
2487	 0.227046442948553 
2488	 0.226557060631962 
2489	 0.225916582501472 
2490	 0.225160143663909 
2491	 0.224670498695975 
2492	 0.224187393775276 
2493	 0.223585763186214 
2494	 0.223183135623056 
2495	 0.222946026820181 
2496	 0.222707904292144 
2497	 0.222457899935383 
2498	 0.222291126271829 
2499	 0.221902663659167 
2500	 0.221439805446073 
