Wavelength	LMW_1600007.asd
350	 7.57371895832991E-02 
351	 8.53647294689611E-02 
352	 9.24366959116115E-02 
353	 8.75390091190464E-02 
354	 8.71449807408887E-02 
355	 8.44201266337585E-02 
356	 8.42201964623673E-02 
357	 9.03223761270286E-02 
358	 9.28756632779298E-02 
359	 9.04996528211257E-02 
360	 8.86172894330707E-02 
361	 9.48190966551643E-02 
362	 9.27169394780343E-02 
363	 9.01486901711974E-02 
364	 9.23681963962936E-02 
365	 9.63552359962616E-02 
366	 9.43451111257589E-02 
367	 9.26601627985294E-02 
368	 9.76098220701351E-02 
369	 9.94060869518463E-02 
370	 9.91912741170828E-02 
371	 9.90682425576513E-02 
372	 0.101277718700286 
373	 0.104131986976928 
374	 0.10644078159976 
375	 0.107775081045688 
376	 0.108963839944143 
377	 0.106745012125836 
378	 0.107046049020678 
379	 0.114352339362206 
380	 0.115968711591616 
381	 0.116305406408808 
382	 0.117216269417715 
383	 0.11811610853544 
384	 0.118034358463399 
385	 0.118604824373374 
386	 0.120718501557818 
387	 0.12314013865061 
388	 0.127439902167403 
389	 0.130175090064268 
390	 0.128549946471474 
391	 0.130142430277431 
392	 0.133057531395061 
393	 0.136339781864403 
394	 0.14011541952783 
395	 0.141966614610559 
396	 0.142862268719464 
397	 0.144331525339358 
398	 0.147981507507749 
399	 0.150984193834675 
400	 0.154018722723572 
401	 0.158132180281225 
402	 0.158873011611912 
403	 0.159779189599999 
404	 0.16209880175465 
405	 0.164321912735561 
406	 0.166152163918714 
407	 0.168629889947716 
408	 0.171755990693477 
409	 0.171933704116781 
410	 0.173207795669713 
411	 0.175204538953499 
412	 0.175982555922145 
413	 0.178818776667718 
414	 0.180366206153579 
415	 0.180064282897233 
416	 0.181518965197993 
417	 0.182977901812946 
418	 0.183996105984122 
419	 0.184472029685899 
420	 0.184286494147479 
421	 0.184471534237741 
422	 0.185444941838491 
423	 0.187007204039383 
424	 0.187122918439365 
425	 0.186926115072104 
426	 0.187072544583684 
427	 0.186523861673205 
428	 0.186263226405439 
429	 0.186558847091079 
430	 0.187169735456079 
431	 0.186614724820222 
432	 0.186357562323925 
433	 0.186785439955176 
434	 0.187132665276602 
435	 0.187324670030172 
436	 0.187893273425745 
437	 0.188994825771944 
438	 0.189420316279743 
439	 0.190368811092863 
440	 0.191764796659604 
441	 0.193001775974928 
442	 0.194816703923868 
443	 0.196604947771443 
444	 0.198101740011703 
445	 0.19972481159684 
446	 0.201458777728439 
447	 0.203120312857411 
448	 0.204636377326448 
449	 0.206682480265964 
450	 0.208554081536878 
451	 0.210092905364487 
452	 0.21164586518617 
453	 0.213255800398616 
454	 0.214725870472758 
455	 0.215988146259074 
456	 0.217396654982831 
457	 0.218918509251209 
458	 0.220359642664988 
459	 0.221527491887773 
460	 0.222925375628267 
461	 0.223923910168037 
462	 0.224529893154307 
463	 0.22576414154222 
464	 0.226738889246005 
465	 0.227648797600397 
466	 0.228766652222928 
467	 0.229413579608007 
468	 0.230306663756401 
469	 0.231421609267824 
470	 0.232143179458222 
471	 0.232806784935033 
472	 0.233500261079523 
473	 0.234226402267101 
474	 0.234845990500142 
475	 0.235765215202113 
476	 0.236704854592649 
477	 0.23722005608467 
478	 0.238065193510065 
479	 0.238968734354986 
480	 0.239783567380796 
481	 0.240658578591346 
482	 0.241654118893579 
483	 0.24248015142098 
484	 0.242953751929196 
485	 0.2437015521922 
486	 0.244531820337237 
487	 0.245345162805687 
488	 0.246149106659889 
489	 0.247142978497836 
490	 0.248023762425471 
491	 0.248657792310634 
492	 0.249535491205752 
493	 0.250395036535079 
494	 0.251233389770724 
495	 0.252154843689448 
496	 0.25318101896019 
497	 0.254013511769962 
498	 0.254680782789967 
499	 0.255739584070103 
500	 0.256641583491143 
501	 0.257470246363195 
502	 0.258398537095402 
503	 0.259123174318764 
504	 0.259966845153326 
505	 0.26091326667091 
506	 0.261645648871312 
507	 0.262600257934883 
508	 0.263528964633584 
509	 0.264217092058531 
510	 0.264859518511455 
511	 0.265720937543558 
512	 0.26672549493292 
513	 0.267615401949377 
514	 0.268365358692385 
515	 0.269199410746848 
516	 0.270153859720136 
517	 0.270903702258119 
518	 0.271592213347706 
519	 0.272295525898249 
520	 0.273070097858833 
521	 0.273961958243869 
522	 0.274857765542303 
523	 0.275683114837482 
524	 0.276416452053134 
525	 0.277089665393453 
526	 0.27785675131061 
527	 0.278787568900673 
528	 0.279623783819593 
529	 0.280435084690219 
530	 0.281246259347109 
531	 0.282052514316733 
532	 0.282847448258757 
533	 0.283667668406131 
534	 0.284540335871856 
535	 0.28547976392704 
536	 0.286326069268654 
537	 0.28711643206436 
538	 0.287949730510642 
539	 0.288728522032081 
540	 0.289484491075418 
541	 0.290298317695753 
542	 0.291303177421644 
543	 0.292203322498648 
544	 0.293027967858297 
545	 0.293886153052282 
546	 0.29480175802138 
547	 0.295776527751754 
548	 0.29675805420718 
549	 0.297659956103477 
550	 0.298610583867345 
551	 0.299568480760065 
552	 0.300501966774787 
553	 0.301497978989037 
554	 0.302424541386965 
555	 0.303310789512177 
556	 0.304250314976144 
557	 0.305089624241221 
558	 0.305857418129968 
559	 0.306617965494978 
560	 0.307456926784651 
561	 0.308356319646765 
562	 0.309317289347114 
563	 0.310325721794929 
564	 0.311270175152934 
565	 0.312257544309713 
566	 0.313409699674758 
567	 0.314841744254738 
568	 0.316119730620322 
569	 0.317073995453184 
570	 0.317692110630816 
571	 0.318144756960806 
572	 0.318809192728217 
573	 0.319751292615167 
574	 0.320779916136738 
575	 0.321626496052232 
576	 0.322264625927907 
577	 0.322782321253073 
578	 0.323368241370121 
579	 0.324225118626744 
580	 0.325351541703818 
581	 0.326624214183888 
582	 0.327930737602892 
583	 0.329096580953308 
584	 0.329956158131327 
585	 0.330349631066092 
586	 0.33072903435604 
587	 0.331104094085578 
588	 0.331404253678463 
589	 0.331850642165877 
590	 0.332279005112697 
591	 0.332621867487138 
592	 0.332917090679904 
593	 0.333177344549644 
594	 0.33356288965685 
595	 0.334217144840022 
596	 0.335190108079085 
597	 0.336368536883009 
598	 0.337628352688056 
599	 0.338838919280854 
600	 0.339870212831552 
601	 0.340661851849597 
602	 0.341245569921314 
603	 0.341789894200533 
604	 0.342285521692615 
605	 0.342767542458822 
606	 0.343293522058719 
607	 0.3439972244804 
608	 0.344648640730639 
609	 0.345181513905541 
610	 0.345741908348213 
611	 0.346401915193226 
612	 0.347191898486173 
613	 0.348059045286555 
614	 0.348763582419363 
615	 0.349369810842477 
616	 0.349945883170472 
617	 0.350550498561413 
618	 0.351125194835939 
619	 0.351647006539552 
620	 0.352144988650783 
621	 0.352751359781739 
622	 0.35335518484418 
623	 0.353952146556061 
624	 0.354556484877681 
625	 0.355006726898974 
626	 0.355487722637369 
627	 0.356061084844762 
628	 0.356590830512564 
629	 0.357061285356594 
630	 0.357519319706645 
631	 0.358018929471552 
632	 0.358549697205376 
633	 0.359101928109233 
634	 0.359622935717074 
635	 0.36004512446895 
636	 0.360620135403984 
637	 0.361207276752788 
638	 0.361662527300254 
639	 0.361993179325374 
640	 0.362376421247503 
641	 0.36285454418317 
642	 0.363384334448222 
643	 0.36386115272196 
644	 0.364324068362421 
645	 0.364778058443926 
646	 0.365153217516454 
647	 0.365564413565985 
648	 0.366017105836982 
649	 0.366489144978581 
650	 0.367004565160708 
651	 0.367477529241285 
652	 0.367876951101488 
653	 0.36823391948864 
654	 0.368732849047093 
655	 0.369263295549466 
656	 0.369710597055399 
657	 0.370083791476366 
658	 0.370483612859497 
659	 0.370938678083032 
660	 0.371423389971087 
661	 0.371834675260756 
662	 0.372165088630249 
663	 0.37248714175848 
664	 0.372969576602373 
665	 0.373536365898679 
666	 0.374007019817697 
667	 0.374282751376579 
668	 0.374714276147519 
669	 0.375182938918821 
670	 0.375632850726381 
671	 0.37606984738596 
672	 0.376476171144166 
673	 0.376922359447474 
674	 0.377413094950217 
675	 0.377762600721044 
676	 0.378071978112403 
677	 0.378414299114929 
678	 0.378841243934382 
679	 0.379327402328226 
680	 0.379752768991726 
681	 0.380103636627575 
682	 0.380512937961415 
683	 0.380871316159758 
684	 0.381270513488882 
685	 0.381768710948012 
686	 0.382119991990222 
687	 0.382461114289417 
688	 0.382830365601119 
689	 0.383193059852538 
690	 0.383570382859797 
691	 0.383979925969258 
692	 0.384404328409846 
693	 0.384759197728303 
694	 0.385082288582849 
695	 0.385418146122215 
696	 0.385798787545775 
697	 0.386161893860826 
698	 0.386523296086278 
699	 0.386899278193434 
700	 0.387297577694066 
701	 0.387546102741555 
702	 0.387791076877745 
703	 0.388148897776868 
704	 0.388448869228695 
705	 0.388795861587008 
706	 0.389129142617014 
707	 0.389345251416571 
708	 0.389748336746449 
709	 0.390088725270154 
710	 0.390296981994329 
711	 0.390648310080212 
712	 0.390957769305703 
713	 0.391196794220334 
714	 0.391394913846637 
715	 0.391616327209087 
716	 0.391912802762262 
717	 0.392241335128817 
718	 0.39249261762534 
719	 0.392648837261753 
720	 0.392822936383668 
721	 0.393054724024253 
722	 0.393193934092376 
723	 0.393474547073212 
724	 0.393846940052131 
725	 0.394157802177621 
726	 0.394294167916529 
727	 0.394367426296604 
728	 0.394475111752843 
729	 0.394677775262933 
730	 0.394841432002081 
731	 0.395002641002681 
732	 0.395206418999748 
733	 0.395451204704262 
734	 0.3956335263194 
735	 0.3957300650919 
736	 0.395779575488791 
737	 0.395932680180319 
738	 0.396122348407825 
739	 0.396278987634346 
740	 0.396355186672382 
741	 0.396468692981981 
742	 0.396599271010038 
743	 0.396697014335444 
744	 0.396699851353628 
745	 0.396830469618803 
746	 0.397033986845986 
747	 0.397132305546712 
748	 0.397149078193448 
749	 0.397128143756707 
750	 0.397139574130176 
751	 0.397274563542409 
752	 0.397362843377232 
753	 0.397469599112157 
754	 0.39762926213258 
755	 0.397614641549107 
756	 0.397593737698885 
757	 0.397623428193664 
758	 0.397691637576202 
759	 0.397759154824306 
760	 0.397713395763696 
761	 0.397602343151413 
762	 0.397671790617072 
763	 0.397691592107708 
764	 0.397656581972449 
765	 0.397629199558574 
766	 0.397714853591732 
767	 0.397758527907821 
768	 0.397747165839269 
769	 0.397737700498555 
770	 0.39770641584325 
771	 0.397666972834757 
772	 0.397619647499196 
773	 0.397546057934709 
774	 0.397446909325873 
775	 0.397404913717388 
776	 0.397452719573651 
777	 0.397452982577692 
778	 0.397356247106193 
779	 0.397264027341638 
780	 0.397303309406413 
781	 0.39726455892844 
782	 0.397183904464337 
783	 0.397078334958168 
784	 0.396931694599234 
785	 0.396912225665763 
786	 0.396897976552251 
787	 0.396808074870986 
788	 0.396807392529921 
789	 0.396770202202857 
790	 0.396676649739676 
791	 0.396542545218632 
792	 0.396326585985975 
793	 0.396239934315911 
794	 0.396287702488791 
795	 0.396287056141854 
796	 0.39621171940811 
797	 0.39608513291621 
798	 0.395945762696132 
799	 0.395835397927559 
800	 0.395714161234089 
801	 0.395573738496486 
802	 0.39544736989058 
803	 0.395501557109705 
804	 0.395439973864832 
805	 0.39527350885894 
806	 0.395205710575946 
807	 0.395217649536267 
808	 0.395140306190956 
809	 0.394941794395639 
810	 0.394789095633379 
811	 0.394808424295479 
812	 0.3947501278427 
813	 0.394478892017666 
814	 0.394406494288778 
815	 0.394332886350875 
816	 0.394243997896061 
817	 0.394185968128829 
818	 0.394120093430617 
819	 0.394059191498473 
820	 0.39396763595231 
821	 0.393783039402709 
822	 0.393644540549878 
823	 0.393531348891848 
824	 0.39342152373976 
825	 0.393334412180583 
826	 0.393232196715737 
827	 0.393113595275323 
828	 0.393004955197298 
829	 0.392998280636314 
830	 0.392848274305608 
831	 0.392692464748208 
832	 0.392773627720547 
833	 0.392736784147517 
834	 0.392590724345893 
835	 0.392389765316606 
836	 0.392217515183445 
837	 0.392290975553666 
838	 0.39236567498864 
839	 0.3922640413252 
840	 0.392057680223083 
841	 0.391928639509274 
842	 0.391805170949434 
843	 0.391623024748004 
844	 0.39160396484409 
845	 0.391502089999588 
846	 0.391376367040015 
847	 0.39137491949387 
848	 0.391266468159217 
849	 0.39114408994414 
850	 0.391084540249299 
851	 0.391112709290432 
852	 0.391068181925025 
853	 0.390973476686468 
854	 0.390846262071611 
855	 0.390658346733529 
856	 0.39074219956022 
857	 0.39085552032746 
858	 0.390747519518416 
859	 0.390485434857201 
860	 0.390432434456466 
861	 0.390513312616856 
862	 0.390512963601169 
863	 0.390429991031299 
864	 0.390344292309757 
865	 0.390347358370575 
866	 0.39047239033943 
867	 0.390366463523422 
868	 0.390181533631971 
869	 0.390092649459612 
870	 0.39021236299102 
871	 0.390237992220875 
872	 0.390254594157671 
873	 0.390306659053997 
874	 0.39026937025375 
875	 0.390112615477838 
876	 0.389963647922846 
877	 0.389939914594127 
878	 0.390030164667834 
879	 0.390122595427674 
880	 0.390143091306595 
881	 0.390089916514099 
882	 0.390158688651443 
883	 0.390214692517417 
884	 0.390237382331301 
885	 0.390275526532752 
886	 0.390351903878945 
887	 0.390369063012776 
888	 0.390368094488004 
889	 0.39048909810508 
890	 0.390569579631594 
891	 0.390635734574258 
892	 0.390661481686498 
893	 0.390543091151938 
894	 0.39050581894518 
895	 0.390617654022284 
896	 0.390832768266935 
897	 0.390977972581217 
898	 0.390953812342138 
899	 0.391010149734048 
900	 0.391260402404278 
901	 0.391193613864438 
902	 0.391200798422587 
903	 0.391322063837916 
904	 0.391466287652133 
905	 0.391547310490038 
906	 0.39156716320274 
907	 0.391609815857107 
908	 0.391761470730864 
909	 0.391921456239931 
910	 0.392030316444795 
911	 0.392127674440455 
912	 0.392293671205646 
913	 0.392410568161053 
914	 0.392505714807348 
915	 0.392595982087322 
916	 0.39269688420818 
917	 0.393038523385381 
918	 0.393193542232887 
919	 0.393079000032667 
920	 0.393096759448159 
921	 0.393354568248343 
922	 0.393603668380249 
923	 0.393754763072611 
924	 0.394040043062711 
925	 0.394167076883654 
926	 0.394195004445198 
927	 0.394290144846584 
928	 0.39465640698896 
929	 0.394728401336504 
930	 0.394798033881162 
931	 0.395117124491585 
932	 0.395317848410063 
933	 0.395568585130701 
934	 0.395742905929772 
935	 0.395760409272254 
936	 0.395888991179289 
937	 0.396113485739686 
938	 0.396386913813626 
939	 0.396660307819339 
940	 0.396957067810411 
941	 0.397189136005629 
942	 0.39745570516301 
943	 0.397804897355927 
944	 0.397782701525478 
945	 0.397810221835929 
946	 0.398037800226654 
947	 0.398376166053448 
948	 0.39839202705493 
949	 0.39841706119168 
950	 0.398620825757895 
951	 0.398988511268898 
952	 0.39919293133991 
953	 0.399420821448982 
954	 0.399659747785523 
955	 0.399804630515305 
956	 0.399958593731687 
957	 0.400211364937911 
958	 0.400480554256196 
959	 0.400631028488761 
960	 0.400850759574446 
961	 0.401189941455042 
962	 0.401547953280773 
963	 0.401755396152759 
964	 0.401801044757463 
965	 0.402030173607496 
966	 0.402386310190336 
967	 0.402594944589604 
968	 0.402943654724207 
969	 0.403288227235685 
970	 0.403592229890612 
971	 0.403925887798734 
972	 0.404415801163264 
973	 0.404724898174247 
974	 0.404869047706224 
975	 0.405115357739458 
976	 0.405517795119235 
977	 0.405916831771869 
978	 0.406196111503833 
979	 0.406334884171238 
980	 0.406544844564551 
981	 0.406722671916394 
982	 0.406893558443269 
983	 0.407193434780264 
984	 0.407844465121168 
985	 0.408301941232894 
986	 0.408503150511518 
987	 0.408696580063611 
988	 0.408938832114734 
989	 0.409303274981439 
990	 0.409657899562588 
991	 0.409869534501403 
992	 0.410302810566591 
993	 0.41055488210314 
994	 0.410714224029299 
995	 0.411015867963967 
996	 0.411238247740845 
997	 0.411505372989981 
998	 0.411919915728477 
999	 0.412487710173636 
1000	 0.412990260164349 
1001	 0.410574841429468 
1002	 0.410697337102308 
1003	 0.410866930401827 
1004	 0.411047960575865 
1005	 0.411266329471711 
1006	 0.411467568649221 
1007	 0.411673329625152 
1008	 0.411863405027831 
1009	 0.412080686809135 
1010	 0.412295845997837 
1011	 0.412509189295873 
1012	 0.412726030096548 
1013	 0.412899024149465 
1014	 0.413111320624068 
1015	 0.413351672166352 
1016	 0.413516119615307 
1017	 0.413698145373801 
1018	 0.413890970843938 
1019	 0.414075009587335 
1020	 0.414227183764104 
1021	 0.414458185587162 
1022	 0.41470188859323 
1023	 0.414864732815322 
1024	 0.415024540021535 
1025	 0.415257667126259 
1026	 0.415505797556904 
1027	 0.415752659523294 
1028	 0.415989065483707 
1029	 0.416181342125082 
1030	 0.416360801584308 
1031	 0.416545443053968 
1032	 0.416725796709082 
1033	 0.416955313861286 
1034	 0.417161703476301 
1035	 0.417339822227436 
1036	 0.417551174245255 
1037	 0.417713648031332 
1038	 0.417900827050978 
1039	 0.418132116168274 
1040	 0.418327886247325 
1041	 0.418567123578584 
1042	 0.418813099566271 
1043	 0.418969549349694 
1044	 0.419138693772989 
1045	 0.419289758021006 
1046	 0.419472694451756 
1047	 0.419661325461151 
1048	 0.419852106496264 
1049	 0.420040173915388 
1050	 0.420234742634556 
1051	 0.420388833100709 
1052	 0.420524290975347 
1053	 0.420711168984756 
1054	 0.420893491757833 
1055	 0.421057389981257 
1056	 0.421251964280433 
1057	 0.421468624670688 
1058	 0.42173235093309 
1059	 0.421939933191947 
1060	 0.422138553899749 
1061	 0.422349735255697 
1062	 0.422508345660112 
1063	 0.422652083782254 
1064	 0.42280012465892 
1065	 0.422959145421726 
1066	 0.423153705636738 
1067	 0.423375319006167 
1068	 0.423627456035962 
1069	 0.42385369209266 
1070	 0.424056189955305 
1071	 0.424231522111238 
1072	 0.424391357881668 
1073	 0.424522687721475 
1074	 0.424686273782371 
1075	 0.424837581332006 
1076	 0.425004335132125 
1077	 0.425237470025796 
1078	 0.425401038040678 
1079	 0.425576849164401 
1080	 0.425781966522366 
1081	 0.42590509246386 
1082	 0.426046637375668 
1083	 0.426179655952105 
1084	 0.426287027152775 
1085	 0.426406203252982 
1086	 0.426534863077773 
1087	 0.426638627844373 
1088	 0.426709837380948 
1089	 0.426842911227915 
1090	 0.426959500709472 
1091	 0.427091023087438 
1092	 0.427306612215076 
1093	 0.427433296244053 
1094	 0.427510725414401 
1095	 0.427646937961583 
1096	 0.427745869431809 
1097	 0.427836169778877 
1098	 0.427917889046917 
1099	 0.427989280902979 
1100	 0.428082060585607 
1101	 0.428165388801638 
1102	 0.428261812972741 
1103	 0.428388722371001 
1104	 0.428507957391 
1105	 0.428610981160634 
1106	 0.428706628015036 
1107	 0.428801681516033 
1108	 0.428874437078871 
1109	 0.428966764312392 
1110	 0.429067115793736 
1111	 0.429156651388789 
1112	 0.42926908499091 
1113	 0.429352588804303 
1114	 0.429384295905268 
1115	 0.429475834868617 
1116	 0.429569049277525 
1117	 0.429687568281047 
1118	 0.429863866911092 
1119	 0.430019082527854 
1120	 0.430113451087831 
1121	 0.430226812141068 
1122	 0.430359847944925 
1123	 0.430502612227471 
1124	 0.430632374933791 
1125	 0.430812723745534 
1126	 0.430922392606332 
1127	 0.430950011322909 
1128	 0.431050830067529 
1129	 0.431176657975924 
1130	 0.431281781168137 
1131	 0.43140728649414 
1132	 0.43152231721959 
1133	 0.431621517093732 
1134	 0.431710931180861 
1135	 0.431790577280287 
1136	 0.43188216499798 
1137	 0.431979164628285 
1138	 0.432100319700419 
1139	 0.43220097314326 
1140	 0.432342171512388 
1141	 0.432411855082184 
1142	 0.43241230818123 
1143	 0.432462940909216 
1144	 0.432500954484498 
1145	 0.432565175085922 
1146	 0.432674127565541 
1147	 0.432748253889803 
1148	 0.432818308314428 
1149	 0.432878100955386 
1150	 0.43290615730041 
1151	 0.432958093806796 
1152	 0.43302253385153 
1153	 0.433102317991906 
1154	 0.433170604606158 
1155	 0.433252404994221 
1156	 0.433323200875975 
1157	 0.433383410176556 
1158	 0.433441289145885 
1159	 0.433491651643447 
1160	 0.433555906506297 
1161	 0.43362734288173 
1162	 0.433688637547012 
1163	 0.433753591372953 
1164	 0.433821268263978 
1165	 0.433891016401525 
1166	 0.433932017972253 
1167	 0.433989777992784 
1168	 0.434088678970243 
1169	 0.434186446561957 
1170	 0.434299421804808 
1171	 0.434401189687056 
1172	 0.434517864440165 
1173	 0.434616644188739 
1174	 0.434705077253297 
1175	 0.434787588222519 
1176	 0.434857438399958 
1177	 0.434940407532417 
1178	 0.435019781994324 
1179	 0.435103861887078 
1180	 0.435194271636793 
1181	 0.435287772807456 
1182	 0.435395053795955 
1183	 0.435489112438591 
1184	 0.435561115551362 
1185	 0.435625807904844 
1186	 0.435693613911961 
1187	 0.435731538015602 
1188	 0.435797492126654 
1189	 0.435889697551758 
1190	 0.435962612900754 
1191	 0.436018057008099 
1192	 0.436096964539031 
1193	 0.436190887051387 
1194	 0.436273949998901 
1195	 0.436363234751162 
1196	 0.436454609648722 
1197	 0.436540963745617 
1198	 0.436623580452648 
1199	 0.436706859893194 
1200	 0.436799928732603 
1201	 0.436883385652216 
1202	 0.436957805419479 
1203	 0.437034331361961 
1204	 0.437112352804084 
1205	 0.43718857956628 
1206	 0.437261660499419 
1207	 0.437332389529729 
1208	 0.437414277044249 
1209	 0.437473929466563 
1210	 0.437497811293219 
1211	 0.437557313741169 
1212	 0.437617210281197 
1213	 0.437689575768527 
1214	 0.437801584755299 
1215	 0.437896563404501 
1216	 0.437987444746653 
1217	 0.438079941969117 
1218	 0.438150943971526 
1219	 0.43820750266921 
1220	 0.438268449365629 
1221	 0.438304982750985 
1222	 0.438371747289798 
1223	 0.438468304638291 
1224	 0.43853300962721 
1225	 0.43859101735823 
1226	 0.438653835596781 
1227	 0.438701870415508 
1228	 0.438752503222364 
1229	 0.438807195582794 
1230	 0.438868092788157 
1231	 0.438919575977617 
1232	 0.438981924476918 
1233	 0.439053186591425 
1234	 0.439149346044493 
1235	 0.439214162096138 
1236	 0.43926904326525 
1237	 0.439329300343587 
1238	 0.439377539581282 
1239	 0.439433912108534 
1240	 0.439511614665399 
1241	 0.43955856940921 
1242	 0.439569791731195 
1243	 0.439618733047092 
1244	 0.439668155181347 
1245	 0.439724733746932 
1246	 0.439820661880543 
1247	 0.439895717288475 
1248	 0.439958064423132 
1249	 0.44002342250032 
1250	 0.44007240926847 
1251	 0.44010435838774 
1252	 0.440161078001568 
1253	 0.44021430658701 
1254	 0.440277403017007 
1255	 0.440353812580914 
1256	 0.440440024296054 
1257	 0.440537572660928 
1258	 0.4406209589267 
1259	 0.440726763411303 
1260	 0.440804756042289 
1261	 0.440840247665418 
1262	 0.440905315584118 
1263	 0.440991033339428 
1264	 0.441055332730777 
1265	 0.441115586332375 
1266	 0.44117669204882 
1267	 0.441232846985711 
1268	 0.441267496897491 
1269	 0.441314617095144 
1270	 0.441380732181 
1271	 0.441416098920078 
1272	 0.441430611596303 
1273	 0.441453732828241 
1274	 0.44145675101811 
1275	 0.441485988955011 
1276	 0.441523852798655 
1277	 0.441573736192403 
1278	 0.441658000333287 
1279	 0.441707391310544 
1280	 0.441742552633375 
1281	 0.441786528849123 
1282	 0.441821095106925 
1283	 0.441849764169621 
1284	 0.441872264532845 
1285	 0.441917557423922 
1286	 0.441938394277705 
1287	 0.441970087241813 
1288	 0.442015119307119 
1289	 0.442073812032444 
1290	 0.442141172992793 
1291	 0.442218270777242 
1292	 0.442296254089137 
1293	 0.442403533801338 
1294	 0.442471939993523 
1295	 0.442518698091183 
1296	 0.442578662719278 
1297	 0.442609814915408 
1298	 0.442674212547795 
1299	 0.442788595464512 
1300	 0.442854710601901 
1301	 0.442909123721534 
1302	 0.442961939767395 
1303	 0.442991300228257 
1304	 0.443006974875651 
1305	 0.443052710568084 
1306	 0.443101870369218 
1307	 0.443142705100878 
1308	 0.443152549759795 
1309	 0.443144079347849 
1310	 0.443099581116299 
1311	 0.443082711519686 
1312	 0.443069223418536 
1313	 0.44303109071497 
1314	 0.442987530434881 
1315	 0.44295060727873 
1316	 0.442879346688929 
1317	 0.44284191976899 
1318	 0.442834778622284 
1319	 0.442821122576416 
1320	 0.442834873946447 
1321	 0.4428080579723 
1322	 0.442758232688719 
1323	 0.442726705083491 
1324	 0.442653576281223 
1325	 0.442562199580258 
1326	 0.442487609680991 
1327	 0.442410942780119 
1328	 0.44233858926896 
1329	 0.44227119350989 
1330	 0.442212621930523 
1331	 0.442159942676505 
1332	 0.442117580210924 
1333	 0.442097853295795 
1334	 0.442049785122999 
1335	 0.441993524254796 
1336	 0.441952443285319 
1337	 0.441896873951379 
1338	 0.441851488167523 
1339	 0.44183850876403 
1340	 0.441796835343074 
1341	 0.441744625659917 
1342	 0.44168316793966 
1343	 0.441617940641604 
1344	 0.44153134163809 
1345	 0.441442135989165 
1346	 0.441330054673268 
1347	 0.441193942153083 
1348	 0.441038732489262 
1349	 0.440853400001321 
1350	 0.440650379430737 
1351	 0.44043997876107 
1352	 0.440214880098227 
1353	 0.439984814093347 
1354	 0.439741773826952 
1355	 0.439494187503096 
1356	 0.439229623329936 
1357	 0.43898037898143 
1358	 0.438690088108515 
1359	 0.438488345952057 
1360	 0.438316701183337 
1361	 0.438188785413554 
1362	 0.438138983707853 
1363	 0.43808856011936 
1364	 0.43804397081636 
1365	 0.438043966340479 
1366	 0.43808282713848 
1367	 0.438135139361882 
1368	 0.438226886674765 
1369	 0.438325283834468 
1370	 0.438375493686519 
1371	 0.438387169999755 
1372	 0.438346832261269 
1373	 0.438232781284998 
1374	 0.438050573039517 
1375	 0.43782769183293 
1376	 0.437485260603996 
1377	 0.437045226815838 
1378	 0.436548178004683 
1379	 0.435899505827617 
1380	 0.435336588293442 
1381	 0.434709330867189 
1382	 0.434171673515355 
1383	 0.433744238800491 
1384	 0.433225295347657 
1385	 0.432778597384471 
1386	 0.432188982982633 
1387	 0.431541407291636 
1388	 0.430779422467425 
1389	 0.429953490987184 
1390	 0.428979739539418 
1391	 0.427843034858994 
1392	 0.426582262248942 
1393	 0.425145476941585 
1394	 0.423646220802477 
1395	 0.422104945792162 
1396	 0.420532318667643 
1397	 0.419026027942991 
1398	 0.417517281805355 
1399	 0.416058518260287 
1400	 0.414639944085461 
1401	 0.413254898971202 
1402	 0.411866610297073 
1403	 0.410596062181038 
1404	 0.409369093878488 
1405	 0.408249625111574 
1406	 0.407224884573662 
1407	 0.406270189123994 
1408	 0.405319294729531 
1409	 0.404600423500303 
1410	 0.403888915153259 
1411	 0.403549637664641 
1412	 0.403451256446102 
1413	 0.403604150396481 
1414	 0.404103263207051 
1415	 0.404826478913542 
1416	 0.405753273867061 
1417	 0.406844099054146 
1418	 0.407995653988328 
1419	 0.409174964679592 
1420	 0.410381427967724 
1421	 0.411518831021333 
1422	 0.412540683428983 
1423	 0.413493732007537 
1424	 0.414246772476502 
1425	 0.414812140852433 
1426	 0.415317937697376 
1427	 0.415633849201956 
1428	 0.415999743396991 
1429	 0.416327908592782 
1430	 0.416595102107984 
1431	 0.416860022994132 
1432	 0.417022447884603 
1433	 0.417054563682341 
1434	 0.417121273527079 
1435	 0.417127679281686 
1436	 0.417162918712814 
1437	 0.417235792202196 
1438	 0.417250802483434 
1439	 0.417243931591243 
1440	 0.417217438895197 
1441	 0.417143804373987 
1442	 0.417094008265221 
1443	 0.417062781226707 
1444	 0.417033171350704 
1445	 0.417058270182533 
1446	 0.417060645631388 
1447	 0.417010880695459 
1448	 0.41696324261448 
1449	 0.416857798531228 
1450	 0.416728323050065 
1451	 0.416633776836743 
1452	 0.416546225183328 
1453	 0.41647712056029 
1454	 0.416437735012531 
1455	 0.416369714274318 
1456	 0.416325527647394 
1457	 0.416220439300297 
1458	 0.416048595185432 
1459	 0.415937635636007 
1460	 0.415792126443774 
1461	 0.41572007990426 
1462	 0.415742116512365 
1463	 0.415704388773553 
1464	 0.415686837639938 
1465	 0.415637314159104 
1466	 0.415518826536285 
1467	 0.415460834969684 
1468	 0.415382027682997 
1469	 0.415375030517545 
1470	 0.41543603912941 
1471	 0.415510662345228 
1472	 0.415613853100222 
1473	 0.415719083915474 
1474	 0.415765156476026 
1475	 0.415828540251185 
1476	 0.415896022294245 
1477	 0.415994895108274 
1478	 0.416166180034766 
1479	 0.416338001722236 
1480	 0.416513577959927 
1481	 0.416695685842166 
1482	 0.416831958905877 
1483	 0.416927733514375 
1484	 0.417044453121601 
1485	 0.417130527597846 
1486	 0.417253296723553 
1487	 0.417406016740347 
1488	 0.417542302712251 
1489	 0.41770064976212 
1490	 0.41782093509112 
1491	 0.417921750485147 
1492	 0.418013988036397 
1493	 0.418068266378349 
1494	 0.41814831204598 
1495	 0.418228630289947 
1496	 0.418315181200025 
1497	 0.418433630366397 
1498	 0.418518637353689 
1499	 0.41859869687354 
1500	 0.418658702334562 
1501	 0.418678271391094 
1502	 0.418713716517857 
1503	 0.418743150860874 
1504	 0.418779018212383 
1505	 0.418813761660627 
1506	 0.418845301398161 
1507	 0.418860306123937 
1508	 0.418865193925903 
1509	 0.418873033862174 
1510	 0.418863160331479 
1511	 0.418866022982045 
1512	 0.418892543000012 
1513	 0.418931927139472 
1514	 0.418975172013502 
1515	 0.419015598341415 
1516	 0.419034490407112 
1517	 0.419035044229024 
1518	 0.419014202547437 
1519	 0.418996109896689 
1520	 0.418948053533111 
1521	 0.418937604786698 
1522	 0.418947138658679 
1523	 0.418936062127152 
1524	 0.418946838047588 
1525	 0.418921972405584 
1526	 0.41885968085001 
1527	 0.41881296628155 
1528	 0.418756064308535 
1529	 0.41871021887091 
1530	 0.418663607362038 
1531	 0.418630882168655 
1532	 0.418621495855398 
1533	 0.418589697475316 
1534	 0.418562062065676 
1535	 0.418522082643947 
1536	 0.418441726268769 
1537	 0.418398648322046 
1538	 0.418376484260052 
1539	 0.418344425885392 
1540	 0.418329627268072 
1541	 0.418309310898766 
1542	 0.418272422671725 
1543	 0.418251349450365 
1544	 0.418261941774537 
1545	 0.418235814724227 
1546	 0.418199679228027 
1547	 0.418147621068773 
1548	 0.418070347705009 
1549	 0.417994939422432 
1550	 0.417937532386161 
1551	 0.417903948366517 
1552	 0.417877787312111 
1553	 0.417849725920369 
1554	 0.417815033955716 
1555	 0.417767205055444 
1556	 0.417716805226103 
1557	 0.417665185395113 
1558	 0.417618403570117 
1559	 0.417565562071278 
1560	 0.417507202657049 
1561	 0.417441467237043 
1562	 0.417381917089177 
1563	 0.417318287666563 
1564	 0.417259408842873 
1565	 0.417202276438864 
1566	 0.417157150778421 
1567	 0.417125707925298 
1568	 0.417073039860741 
1569	 0.417023815861719 
1570	 0.416955630519121 
1571	 0.416861599251355 
1572	 0.416783274700353 
1573	 0.416706071367412 
1574	 0.416632954968117 
1575	 0.416551593357717 
1576	 0.41649006157392 
1577	 0.416439703065385 
1578	 0.416393721021458 
1579	 0.416368368840059 
1580	 0.416332729637398 
1581	 0.416307238317966 
1582	 0.416255620623611 
1583	 0.416191606642402 
1584	 0.416119160152252 
1585	 0.416020346160835 
1586	 0.415934649678169 
1587	 0.415854292757213 
1588	 0.415767984623893 
1589	 0.415681850780652 
1590	 0.415587902691694 
1591	 0.415477973240067 
1592	 0.415383271065232 
1593	 0.415292766535358 
1594	 0.415202107436382 
1595	 0.415126138156623 
1596	 0.415036443975063 
1597	 0.414947641162795 
1598	 0.414843862732522 
1599	 0.41472868315948 
1600	 0.414604792362836 
1601	 0.414441314475131 
1602	 0.414317556867867 
1603	 0.414205102620767 
1604	 0.414104271642542 
1605	 0.414038028402957 
1606	 0.413964495195816 
1607	 0.413894558532478 
1608	 0.413824730691173 
1609	 0.413748120146583 
1610	 0.41366326383744 
1611	 0.413570319262512 
1612	 0.413481493811982 
1613	 0.413391171548341 
1614	 0.41329597736486 
1615	 0.413169451095621 
1616	 0.413043474994379 
1617	 0.412950187629987 
1618	 0.412860770054637 
1619	 0.41277492136957 
1620	 0.412688829565553 
1621	 0.412588215128264 
1622	 0.412459291896717 
1623	 0.412351706332446 
1624	 0.412251370712233 
1625	 0.41215150934506 
1626	 0.412055273087836 
1627	 0.411954077508269 
1628	 0.411852281605852 
1629	 0.411757244642451 
1630	 0.411658147025455 
1631	 0.411566588989011 
1632	 0.411493836313401 
1633	 0.411396008390379 
1634	 0.411291335717403 
1635	 0.41117566221099 
1636	 0.411043116392196 
1637	 0.410914826571791 
1638	 0.410771169501906 
1639	 0.410656713512827 
1640	 0.410562503010232 
1641	 0.410442496359369 
1642	 0.410332762612423 
1643	 0.410203893133392 
1644	 0.410041077940535 
1645	 0.409903040165276 
1646	 0.409775089610332 
1647	 0.409641344153811 
1648	 0.40950464690069 
1649	 0.409378728431461 
1650	 0.409262229273028 
1651	 0.409132039830658 
1652	 0.408996775026201 
1653	 0.408876799538263 
1654	 0.408749284276095 
1655	 0.408637668458337 
1656	 0.408570175476127 
1657	 0.408441867641846 
1658	 0.408277379848268 
1659	 0.40813806612874 
1660	 0.407968449463694 
1661	 0.407835978985435 
1662	 0.407747771934522 
1663	 0.407627981296019 
1664	 0.407518319785927 
1665	 0.407369069836836 
1666	 0.407178825506596 
1667	 0.407020780354887 
1668	 0.406851305438792 
1669	 0.406691691647362 
1670	 0.406552006667738 
1671	 0.40641313901424 
1672	 0.406247503201081 
1673	 0.406140007519129 
1674	 0.406094009278335 
1675	 0.406001306531779 
1676	 0.405940316618878 
1677	 0.405816751131853 
1678	 0.40562860321746 
1679	 0.405470508695797 
1680	 0.405291999389769 
1681	 0.405131361976645 
1682	 0.40498812098619 
1683	 0.404836118356529 
1684	 0.404671596705013 
1685	 0.404534065214481 
1686	 0.404418430665307 
1687	 0.404281505878313 
1688	 0.404169645551876 
1689	 0.404011951941814 
1690	 0.403814625972821 
1691	 0.403626616720616 
1692	 0.403408354418614 
1693	 0.403220732626692 
1694	 0.403040370235175 
1695	 0.402873747621335 
1696	 0.402727022562544 
1697	 0.402579284439618 
1698	 0.402437017273406 
1699	 0.402304219060289 
1700	 0.402183497867768 
1701	 0.402056437118435 
1702	 0.401944193605578 
1703	 0.401809016398158 
1704	 0.401659730044225 
1705	 0.401511833530343 
1706	 0.401346440220143 
1707	 0.401197442447866 
1708	 0.401060140982073 
1709	 0.400908760003921 
1710	 0.400760869638836 
1711	 0.400605702326463 
1712	 0.400430706997953 
1713	 0.400275316103848 
1714	 0.400129087653162 
1715	 0.399981224341961 
1716	 0.399834079342483 
1717	 0.399692817432348 
1718	 0.399562765110641 
1719	 0.399414444070299 
1720	 0.399271872885511 
1721	 0.399116885761265 
1722	 0.398946747987812 
1723	 0.398764398685285 
1724	 0.398571660854056 
1725	 0.39837405476365 
1726	 0.398152099157542 
1727	 0.397953989001069 
1728	 0.39776013705429 
1729	 0.397579064454632 
1730	 0.397401994096684 
1731	 0.397257821263962 
1732	 0.397147212464265 
1733	 0.397006928278292 
1734	 0.396883036937783 
1735	 0.396734226323606 
1736	 0.396565355343634 
1737	 0.396381178103036 
1738	 0.396188768542426 
1739	 0.395978748941877 
1740	 0.395719342847514 
1741	 0.395530225494692 
1742	 0.395365671005945 
1743	 0.395208416153506 
1744	 0.395080637146008 
1745	 0.394958970026212 
1746	 0.394851887854962 
1747	 0.394731649764715 
1748	 0.394600448286255 
1749	 0.394422396915017 
1750	 0.394230081879439 
1751	 0.394030380566365 
1752	 0.393837445231022 
1753	 0.393647905325676 
1754	 0.393450149900662 
1755	 0.393281189576073 
1756	 0.393125603334712 
1757	 0.392943674805162 
1758	 0.392760835909662 
1759	 0.392598695882161 
1760	 0.392458172162961 
1761	 0.392332007148684 
1762	 0.392209895933056 
1763	 0.392092480507388 
1764	 0.391935481398483 
1765	 0.391785860966103 
1766	 0.391677620160293 
1767	 0.391537654035278 
1768	 0.391398337401108 
1769	 0.391241522893299 
1770	 0.391060129638664 
1771	 0.390907819891213 
1772	 0.390757942864369 
1773	 0.39065740168781 
1774	 0.39058109391494 
1775	 0.390469513137137 
1776	 0.390336062110163 
1777	 0.390148323844944 
1778	 0.389962620403898 
1779	 0.389800334666206 
1780	 0.389649634705708 
1781	 0.389549030937096 
1782	 0.389464386377484 
1783	 0.389397325893321 
1784	 0.389314085790614 
1785	 0.389244883197751 
1786	 0.389129877411054 
1787	 0.388986720977721 
1788	 0.388838318453275 
1789	 0.388639482274504 
1790	 0.388495794666825 
1791	 0.388370134391865 
1792	 0.388240077660696 
1793	 0.388117798124064 
1794	 0.388008272658682 
1795	 0.387936625775004 
1796	 0.387823049754792 
1797	 0.387704637928608 
1798	 0.387590172360421 
1799	 0.387417582992764 
1800	 0.387299408003562 
1801	 0.38038414925626 
1802	 0.380738356985521 
1803	 0.381147676894171 
1804	 0.381530821575375 
1805	 0.381906987695229 
1806	 0.382212601131537 
1807	 0.382482914938623 
1808	 0.382727175633329 
1809	 0.38295971478937 
1810	 0.383109843455682 
1811	 0.383207244542884 
1812	 0.383293254719114 
1813	 0.383295736175683 
1814	 0.383262064341384 
1815	 0.383252120901074 
1816	 0.383213662199652 
1817	 0.383161987012371 
1818	 0.383081900432234 
1819	 0.383019810307134 
1820	 0.382954261187777 
1821	 0.382874028809607 
1822	 0.382818032145155 
1823	 0.382789896005484 
1824	 0.382746617194585 
1825	 0.382676430528551 
1826	 0.382549709633708 
1827	 0.382391561764187 
1828	 0.382203815521061 
1829	 0.381946993203173 
1830	 0.381716738767124 
1831	 0.381477609164595 
1832	 0.381235098191567 
1833	 0.380974980605072 
1834	 0.380718835235585 
1835	 0.380507183067299 
1836	 0.380304611513563 
1837	 0.380140768521894 
1838	 0.380031893622181 
1839	 0.379928920777792 
1840	 0.379849122142567 
1841	 0.379766402466477 
1842	 0.379702203449662 
1843	 0.379666705556242 
1844	 0.379615643686958 
1845	 0.379566580811063 
1846	 0.379570083983271 
1847	 0.379583464794719 
1848	 0.379568686279628 
1849	 0.379569155919374 
1850	 0.379570393680304 
1851	 0.379571371183879 
1852	 0.379524369334804 
1853	 0.379501950147096 
1854	 0.379483333543627 
1855	 0.37944140152938 
1856	 0.379416795261248 
1857	 0.379376277089183 
1858	 0.379335280637018 
1859	 0.379287019277547 
1860	 0.379169373277793 
1861	 0.37900835026473 
1862	 0.378820796263814 
1863	 0.378544142212031 
1864	 0.378163742202046 
1865	 0.3777601417641 
1866	 0.377241633353264 
1867	 0.37672008484261 
1868	 0.376203188487485 
1869	 0.3756899378207 
1870	 0.37531134453534 
1871	 0.374959295301417 
1872	 0.374667682886731 
1873	 0.374428975303727 
1874	 0.374203465651887 
1875	 0.373991815664809 
1876	 0.373752190496348 
1877	 0.373462286324201 
1878	 0.373128970161936 
1879	 0.37264232152948 
1880	 0.372026840467042 
1881	 0.371295331231809 
1882	 0.370445354066872 
1883	 0.369466643191282 
1884	 0.368359643496752 
1885	 0.367160938587417 
1886	 0.36587315975457 
1887	 0.364477272603848 
1888	 0.363016635557383 
1889	 0.361495711300552 
1890	 0.359908739029878 
1891	 0.35827593423877 
1892	 0.356576486029383 
1893	 0.354845781578564 
1894	 0.353060913064514 
1895	 0.351237864869816 
1896	 0.3493860807075 
1897	 0.347480971000698 
1898	 0.345554526132188 
1899	 0.34371298354259 
1900	 0.341959048885267 
1901	 0.340289258853517 
1902	 0.338726824331829 
1903	 0.337313814440107 
1904	 0.335924241808971 
1905	 0.334586015219835 
1906	 0.333374292422784 
1907	 0.332211112007575 
1908	 0.331101971432179 
1909	 0.330074079295097 
1910	 0.329052589211836 
1911	 0.328093412205198 
1912	 0.327199227410102 
1913	 0.326342653510659 
1914	 0.325512352303534 
1915	 0.324772423290553 
1916	 0.324100007185726 
1917	 0.323464176590773 
1918	 0.322903553705436 
1919	 0.322426000977601 
1920	 0.322010396237765 
1921	 0.321654205306353 
1922	 0.321347066031982 
1923	 0.321097847905925 
1924	 0.320864927157125 
1925	 0.320665003473209 
1926	 0.320489040858581 
1927	 0.320353567402703 
1928	 0.320213938099705 
1929	 0.320110804946558 
1930	 0.320032275249973 
1931	 0.319965083343612 
1932	 0.319933195511087 
1933	 0.319926243539843 
1934	 0.319917977600547 
1935	 0.31992715382747 
1936	 0.319936883425344 
1937	 0.319999593183865 
1938	 0.320082024860575 
1939	 0.320199927804997 
1940	 0.320377023260331 
1941	 0.320551310496969 
1942	 0.320735289548551 
1943	 0.320944125382603 
1944	 0.321139141559033 
1945	 0.32136723552355 
1946	 0.321609547809596 
1947	 0.321870021235652 
1948	 0.322131734684235 
1949	 0.322434247673609 
1950	 0.322700292790814 
1951	 0.322940195883785 
1952	 0.323196223730341 
1953	 0.323483067220141 
1954	 0.32376134858881 
1955	 0.3240394385 
1956	 0.324338989908502 
1957	 0.324648641193618 
1958	 0.32493677087001 
1959	 0.325269353215823 
1960	 0.32567728175787 
1961	 0.326025644801642 
1962	 0.326360019884616 
1963	 0.326690329600184 
1964	 0.327003340004308 
1965	 0.327301618510873 
1966	 0.327606202763392 
1967	 0.327919237662391 
1968	 0.328238379079381 
1969	 0.328562050077165 
1970	 0.328879283196651 
1971	 0.329207542066836 
1972	 0.329527575355989 
1973	 0.329824547268549 
1974	 0.330143958141587 
1975	 0.330480303558828 
1976	 0.330806429505721 
1977	 0.331142628231596 
1978	 0.331478717438281 
1979	 0.331796711351088 
1980	 0.332122194390364 
1981	 0.33244413214105 
1982	 0.332762727058379 
1983	 0.333086352382446 
1984	 0.333413951712347 
1985	 0.333732206854558 
1986	 0.334054053581338 
1987	 0.334363187687178 
1988	 0.334653956631315 
1989	 0.334960466559698 
1990	 0.335259486820922 
1991	 0.335538022842383 
1992	 0.335835884288188 
1993	 0.336141027963003 
1994	 0.336441054388382 
1995	 0.336744513967445 
1996	 0.337052351603772 
1997	 0.337363861677124 
1998	 0.337664668101041 
1999	 0.337968492480751 
2000	 0.338267102556676 
2001	 0.338552168927882 
2002	 0.338837849811387 
2003	 0.339138647929132 
2004	 0.339420121305402 
2005	 0.339724726108318 
2006	 0.340037126425754 
2007	 0.340356258425107 
2008	 0.340685600254601 
2009	 0.341025676015448 
2010	 0.341396968503733 
2011	 0.341727990549719 
2012	 0.342046438665537 
2013	 0.342365765870689 
2014	 0.342656946277716 
2015	 0.342959322891452 
2016	 0.343273663194564 
2017	 0.343577619637576 
2018	 0.343861665351614 
2019	 0.344119823675746 
2020	 0.344389047003291 
2021	 0.344650048616456 
2022	 0.344913251040105 
2023	 0.345173569209987 
2024	 0.345441240771236 
2025	 0.34571089553271 
2026	 0.345978078338251 
2027	 0.346237011593487 
2028	 0.346525573318916 
2029	 0.346802811200344 
2030	 0.34708241587428 
2031	 0.347335037973592 
2032	 0.347587657417299 
2033	 0.347822801819136 
2034	 0.348022585852076 
2035	 0.348243690980309 
2036	 0.348483230311826 
2037	 0.348692958465066 
2038	 0.348891966208754 
2039	 0.349080002950179 
2040	 0.349240464132721 
2041	 0.349407027199913 
2042	 0.349570870333162 
2043	 0.34973475926476 
2044	 0.349905190787695 
2045	 0.350086015765477 
2046	 0.350246888000008 
2047	 0.350414227722452 
2048	 0.350558598492425 
2049	 0.350658926194589 
2050	 0.350801111875958 
2051	 0.350956443825151 
2052	 0.351102964191387 
2053	 0.351263594860116 
2054	 0.351428755413904 
2055	 0.351588635771359 
2056	 0.35175259671739 
2057	 0.351904590667209 
2058	 0.352079992768409 
2059	 0.352202992150259 
2060	 0.352283852555277 
2061	 0.352379219192072 
2062	 0.352452686895243 
2063	 0.35253775658195 
2064	 0.352626508970335 
2065	 0.352714899863405 
2066	 0.352794049981662 
2067	 0.352887645071377 
2068	 0.352981333880618 
2069	 0.353095322759801 
2070	 0.353209882325893 
2071	 0.353343837250033 
2072	 0.353455306166783 
2073	 0.353562864317471 
2074	 0.35366828035894 
2075	 0.353771494491558 
2076	 0.353856708313389 
2077	 0.353926514814864 
2078	 0.354009365188968 
2079	 0.354089759950129 
2080	 0.354159780333314 
2081	 0.354238039282165 
2082	 0.354306964353498 
2083	 0.354362410921248 
2084	 0.354400220422426 
2085	 0.3544532456074 
2086	 0.354519251115872 
2087	 0.35456594740625 
2088	 0.354613602380476 
2089	 0.354638043400313 
2090	 0.354632480375433 
2091	 0.354648800362005 
2092	 0.354651216759042 
2093	 0.354673227031108 
2094	 0.354717123128292 
2095	 0.354757210977227 
2096	 0.35480373253851 
2097	 0.354847695034057 
2098	 0.354899348753315 
2099	 0.354937073076085 
2100	 0.354988571729543 
2101	 0.355040350081329 
2102	 0.355098777845085 
2103	 0.355159225532942 
2104	 0.35523768317119 
2105	 0.35532195669817 
2106	 0.355418115382082 
2107	 0.355549730843969 
2108	 0.35565080157192 
2109	 0.355736039873953 
2110	 0.35583566040955 
2111	 0.355905205953437 
2112	 0.356019470865554 
2113	 0.356163272210398 
2114	 0.356325596647235 
2115	 0.356488959898042 
2116	 0.356686795894151 
2117	 0.356843653399698 
2118	 0.356989249383436 
2119	 0.357134965822388 
2120	 0.357275963225237 
2121	 0.35739733210543 
2122	 0.357502176034072 
2123	 0.357616035520187 
2124	 0.357713745866881 
2125	 0.357816055108795 
2126	 0.357948008180476 
2127	 0.358043264416815 
2128	 0.358118973687101 
2129	 0.35818256793111 
2130	 0.358217880244943 
2131	 0.358255260519699 
2132	 0.358282522928587 
2133	 0.358296124235723 
2134	 0.358308700130462 
2135	 0.358335223488178 
2136	 0.358307088824054 
2137	 0.358274940348212 
2138	 0.358185606842699 
2139	 0.358034892485684 
2140	 0.357878515842295 
2141	 0.357672029452674 
2142	 0.357477057190886 
2143	 0.357294369781852 
2144	 0.357066422737049 
2145	 0.3568181447264 
2146	 0.356550837833741 
2147	 0.356237169873069 
2148	 0.355922919922883 
2149	 0.355585908007104 
2150	 0.355236701031148 
2151	 0.354872750502887 
2152	 0.354493351229749 
2153	 0.354085207157033 
2154	 0.353666336059507 
2155	 0.353216525539817 
2156	 0.352731142577491 
2157	 0.352229228662138 
2158	 0.351691988343024 
2159	 0.35116271765568 
2160	 0.350612815285323 
2161	 0.35006547198585 
2162	 0.349562209988196 
2163	 0.348989451093936 
2164	 0.348376991951484 
2165	 0.34774420318216 
2166	 0.347085128303735 
2167	 0.346375159002074 
2168	 0.345662742532867 
2169	 0.344940313307218 
2170	 0.344194848096608 
2171	 0.343428956114548 
2172	 0.342630639690577 
2173	 0.341817481843627 
2174	 0.340968064229116 
2175	 0.340069317677557 
2176	 0.339163056003187 
2177	 0.338248774538888 
2178	 0.337289848530165 
2179	 0.336297574402543 
2180	 0.335281628958555 
2181	 0.334235751762517 
2182	 0.333155461361711 
2183	 0.332032942060689 
2184	 0.330891266537524 
2185	 0.329759238739771 
2186	 0.328585805273145 
2187	 0.327452058332375 
2188	 0.32632644784348 
2189	 0.325236665357409 
2190	 0.324128387043738 
2191	 0.323117877360176 
2192	 0.322159984499424 
2193	 0.32125895268843 
2194	 0.320385898055575 
2195	 0.319635902804737 
2196	 0.318954336757653 
2197	 0.318374802975177 
2198	 0.317927969060617 
2199	 0.317539028305216 
2200	 0.317216307273344 
2201	 0.316988439467121 
2202	 0.316844018863902 
2203	 0.316797464491422 
2204	 0.316831009598407 
2205	 0.316947072964742 
2206	 0.317178627753323 
2207	 0.317472879466072 
2208	 0.317957265082746 
2209	 0.31861974529506 
2210	 0.319326180698865 
2211	 0.320210820932983 
2212	 0.321067819500488 
2213	 0.322014548145007 
2214	 0.322901714546588 
2215	 0.323826723652598 
2216	 0.324698640973015 
2217	 0.325554222079364 
2218	 0.326345434403943 
2219	 0.327112578996829 
2220	 0.327816496488678 
2221	 0.328471055339042 
2222	 0.329033943791616 
2223	 0.329570337793187 
2224	 0.330053531168103 
2225	 0.330473193809989 
2226	 0.33082281232305 
2227	 0.331142258365373 
2228	 0.331389436153197 
2229	 0.331648884166204 
2230	 0.331885489491477 
2231	 0.332090520346717 
2232	 0.332295005027455 
2233	 0.332428211463675 
2234	 0.332503669809249 
2235	 0.332556294131722 
2236	 0.332550267703539 
2237	 0.332542833415236 
2238	 0.332508010989403 
2239	 0.332460723167598 
2240	 0.332392765808958 
2241	 0.332317042487673 
2242	 0.332211654857227 
2243	 0.332118665674676 
2244	 0.332043336368147 
2245	 0.331941692588016 
2246	 0.331805263263196 
2247	 0.331639521071294 
2248	 0.331464573543603 
2249	 0.331246012678083 
2250	 0.331041565720586 
2251	 0.330830083659901 
2252	 0.330631772070119 
2253	 0.330395740859007 
2254	 0.330230764617259 
2255	 0.330110295904554 
2256	 0.330001384092423 
2257	 0.329946472638087 
2258	 0.329866205936416 
2259	 0.329771094290564 
2260	 0.32971010642687 
2261	 0.329659781929127 
2262	 0.329622396562162 
2263	 0.329617951064173 
2264	 0.329615199650185 
2265	 0.329605814569163 
2266	 0.32962269367048 
2267	 0.329676022409736 
2268	 0.329719576269756 
2269	 0.329794610949577 
2270	 0.32983088874265 
2271	 0.329842356310636 
2272	 0.329869730604358 
2273	 0.32990682561083 
2274	 0.32997375103157 
2275	 0.33006952170922 
2276	 0.33022969519783 
2277	 0.330311033350377 
2278	 0.330388534420492 
2279	 0.330455310677765 
2280	 0.330459119001613 
2281	 0.330530579360109 
2282	 0.330651292736309 
2283	 0.330723471312357 
2284	 0.330811089024444 
2285	 0.330859028572723 
2286	 0.330851391051812 
2287	 0.330872615195123 
2288	 0.330905419388204 
2289	 0.330914578444661 
2290	 0.330918452128124 
2291	 0.33091073008013 
2292	 0.330872582930402 
2293	 0.330841394378412 
2294	 0.330789123501628 
2295	 0.330768307221312 
2296	 0.330760920438997 
2297	 0.330769384005063 
2298	 0.330776963723698 
2299	 0.330805396482618 
2300	 0.330748368913719 
2301	 0.330621046944867 
2302	 0.330477509407987 
2303	 0.330281172262085 
2304	 0.330069302146971 
2305	 0.329877259908826 
2306	 0.329670474540085 
2307	 0.329436088319548 
2308	 0.329237645640715 
2309	 0.329054169553779 
2310	 0.328854846433874 
2311	 0.328682464614481 
2312	 0.328458461196022 
2313	 0.328200399304015 
2314	 0.327948581731184 
2315	 0.32765513294153 
2316	 0.327387205641995 
2317	 0.327152541005982 
2318	 0.326891874868706 
2319	 0.326625155788951 
2320	 0.326345661528374 
2321	 0.326014884691105 
2322	 0.325731691998768 
2323	 0.32548315317024 
2324	 0.325230336793258 
2325	 0.324996963399588 
2326	 0.324761268416475 
2327	 0.32454937980483 
2328	 0.324270736716266 
2329	 0.323964894953178 
2330	 0.323690861359281 
2331	 0.323392294052919 
2332	 0.323005446648041 
2333	 0.322604730802242 
2334	 0.322223084879586 
2335	 0.321853317547708 
2336	 0.321462573020904 
2337	 0.321148315368677 
2338	 0.320857960892095 
2339	 0.320505506604353 
2340	 0.320183948052717 
2341	 0.319801565435795 
2342	 0.319450304526363 
2343	 0.319134285546047 
2344	 0.318848024901761 
2345	 0.318583414111948 
2346	 0.318405159870423 
2347	 0.318117931423137 
2348	 0.317766299570525 
2349	 0.317493758815964 
2350	 0.317191813801905 
2351	 0.316976821062649 
2352	 0.316869800496843 
2353	 0.316686252263214 
2354	 0.316490762833604 
2355	 0.316317387507374 
2356	 0.316159869068058 
2357	 0.315987268501067 
2358	 0.315831927857335 
2359	 0.315667305599922 
2360	 0.315481780453127 
2361	 0.315252482718603 
2362	 0.314978371021904 
2363	 0.314766927243356 
2364	 0.314573874462622 
2365	 0.314353151122709 
2366	 0.314190766252432 
2367	 0.313933141181253 
2368	 0.313584508195423 
2369	 0.313247656167433 
2370	 0.312834108283408 
2371	 0.312550942785817 
2372	 0.312245523666965 
2373	 0.311890563309647 
2374	 0.311613610436523 
2375	 0.311251807495489 
2376	 0.310861808324217 
2377	 0.310454598340343 
2378	 0.309975089589564 
2379	 0.309567004764678 
2380	 0.309172921360254 
2381	 0.30876966232579 
2382	 0.308437846265253 
2383	 0.308085878899669 
2384	 0.307674277101352 
2385	 0.307237401651992 
2386	 0.306813433458167 
2387	 0.306349560406074 
2388	 0.305897435596235 
2389	 0.30560616998159 
2390	 0.305296125672798 
2391	 0.304904246373102 
2392	 0.30459109616344 
2393	 0.304275331638262 
2394	 0.303898227939101 
2395	 0.303560246576038 
2396	 0.303183821748366 
2397	 0.302729753252521 
2398	 0.302266769992373 
2399	 0.301775433746889 
2400	 0.301366193239721 
2401	 0.300962308500873 
2402	 0.300600720141363 
2403	 0.300193090224441 
2404	 0.299532071400646 
2405	 0.298863912769998 
2406	 0.298128024060502 
2407	 0.297414969097774 
2408	 0.296875323358504 
2409	 0.296367590010874 
2410	 0.2958524692433 
2411	 0.295295403664125 
2412	 0.294778884437321 
2413	 0.294247067625055 
2414	 0.293676625976971 
2415	 0.293116715064551 
2416	 0.292471822318353 
2417	 0.291644919009974 
2418	 0.291038273440176 
2419	 0.29050987393798 
2420	 0.290007013747376 
2421	 0.289692164865335 
2422	 0.289236313668563 
2423	 0.288698020566905 
2424	 0.288111916143049 
2425	 0.287418765505576 
2426	 0.286855057315243 
2427	 0.286380957690801 
2428	 0.285757712030411 
2429	 0.28511209366922 
2430	 0.284588097221791 
2431	 0.283934476315974 
2432	 0.283392068555152 
2433	 0.283097285660787 
2434	 0.282596806594163 
2435	 0.281994901790501 
2436	 0.28144253559589 
2437	 0.280837838592924 
2438	 0.280377563961405 
2439	 0.279946753635525 
2440	 0.279539095693106 
2441	 0.279244793060573 
2442	 0.278874419897912 
2443	 0.278510409208692 
2444	 0.278196193772376 
2445	 0.277914986911404 
2446	 0.277597997822929 
2447	 0.277239751042147 
2448	 0.276894114116868 
2449	 0.276606671104996 
2450	 0.276175725453926 
2451	 0.275658108491923 
2452	 0.275215899133417 
2453	 0.274642348301761 
2454	 0.274235244831189 
2455	 0.273993721005286 
2456	 0.27370818325595 
2457	 0.273502293641464 
2458	 0.27318901659033 
2459	 0.272827670590622 
2460	 0.272463252267551 
2461	 0.272032895006179 
2462	 0.271636167723743 
2463	 0.271246525502363 
2464	 0.270846625105133 
2465	 0.270495315699618 
2466	 0.270087125574523 
2467	 0.269588270771939 
2468	 0.269301304279636 
2469	 0.269015483064516 
2470	 0.268817468566578 
2471	 0.268699863016977 
2472	 0.268569413271858 
2473	 0.26824163036372 
2474	 0.267861172720536 
2475	 0.267719050626174 
2476	 0.267437818826401 
2477	 0.267367577155247 
2478	 0.267444548830374 
2479	 0.267049935825662 
2480	 0.266433250882983 
2481	 0.265981571809131 
2482	 0.265641568208968 
2483	 0.265348770072755 
2484	 0.265289127536247 
2485	 0.264938510306628 
2486	 0.264155775609098 
2487	 0.263727461428147 
2488	 0.263394640464604 
2489	 0.263093627050931 
2490	 0.263135560368797 
2491	 0.26302026628181 
2492	 0.262794339064324 
2493	 0.262648974195487 
2494	 0.262244036469737 
2495	 0.26175007829925 
2496	 0.261373404622993 
2497	 0.260960521836125 
2498	 0.260652958263365 
2499	 0.260426912342715 
2500	 0.260204357232624 
