Wavelength	LMW_1800007.asd
350	 4.27016136115718E-02 
351	 5.09116707284786E-02 
352	 5.27151976816143E-02 
353	 0.046206668600878 
354	 5.09442302642772E-02 
355	 5.09250219786309E-02 
356	 4.90528477723917E-02 
357	 0.050604017364674 
358	 5.11559023721534E-02 
359	 4.85206214235108E-02 
360	 4.64922133024195E-02 
361	 5.11824105088465E-02 
362	 5.07686674465978E-02 
363	 4.96758242937702E-02 
364	 5.04256884542672E-02 
365	 4.91443198169674E-02 
366	 5.08520775491597E-02 
367	 5.29630304420611E-02 
368	 5.22568834640237E-02 
369	 5.13056564886212E-02 
370	 5.16811906882164E-02 
371	 5.32273728572908E-02 
372	 5.44996848426904E-02 
373	 5.37129629760332E-02 
374	 5.47311334531977E-02 
375	 5.78997960316669E-02 
376	 5.63640304145862E-02 
377	 5.33298644168301E-02 
378	 0.052119801497409 
379	 5.43645390452108E-02 
380	 5.44824300033706E-02 
381	 5.44373957502935E-02 
382	 0.055736866058414 
383	 0.058861039310181 
384	 5.86589054070751E-02 
385	 5.72087563923096E-02 
386	 5.64730617905578E-02 
387	 5.59350474849903E-02 
388	 5.78571093508659E-02 
389	 5.95552829979362E-02 
390	 5.80994510446572E-02 
391	 5.72189287953729E-02 
392	 5.72494126924313E-02 
393	 5.82224622654286E-02 
394	 5.99043485020029E-02 
395	 5.97159149471479E-02 
396	 5.95016454922777E-02 
397	 6.02489712092221E-02 
398	 5.93132364676758E-02 
399	 5.94695035524049E-02 
400	 6.05060258986111E-02 
401	 6.11244972642849E-02 
402	 6.05534714305865E-02 
403	 6.14974322346169E-02 
404	 6.34719382042496E-02 
405	 6.28353890562128E-02 
406	 6.36216621888897E-02 
407	 6.38692234402441E-02 
408	 6.23280669066884E-02 
409	 6.25213894162269E-02 
410	 6.24609911514259E-02 
411	 6.25001055886039E-02 
412	 6.37222688043759E-02 
413	 6.44485920134235E-02 
414	 6.39984317680955E-02 
415	 6.29908371472418E-02 
416	 6.34992549934203E-02 
417	 0.063808819347591 
418	 6.43003267506021E-02 
419	 0.065179800499487 
420	 6.42573396439608E-02 
421	 6.36644452539523E-02 
422	 6.39141225583841E-02 
423	 6.43663670093583E-02 
424	 6.45980540449791E-02 
425	 6.44834449432848E-02 
426	 6.42517282621209E-02 
427	 6.47220942082869E-02 
428	 6.45855767096639E-02 
429	 6.43095124325868E-02 
430	 6.46268248806441E-02 
431	 6.44994155453003E-02 
432	 6.45944757225982E-02 
433	 6.49626623465408E-02 
434	 6.50154652165399E-02 
435	 6.50491404126458E-02 
436	 0.065207316589978 
437	 6.53906021146653E-02 
438	 6.48165792660072E-02 
439	 0.065025557558423 
440	 6.56999716222123E-02 
441	 6.57100499918295E-02 
442	 0.065627515722848 
443	 0.065769225187034 
444	 6.60761298081164E-02 
445	 6.59681230277696E-02 
446	 6.59614414552498E-02 
447	 6.61178508042153E-02 
448	 6.63045963541758E-02 
449	 6.61108699469792E-02 
450	 6.63100311433884E-02 
451	 6.68075592707564E-02 
452	 6.67963085197433E-02 
453	 6.68766758276491E-02 
454	 6.68029519500852E-02 
455	 6.65372565644227E-02 
456	 6.69071873151561E-02 
457	 6.73757719841949E-02 
458	 6.75740715457184E-02 
459	 6.73272137574869E-02 
460	 6.72872247861357E-02 
461	 6.74161370426977E-02 
462	 6.75481902493316E-02 
463	 6.74318020252545E-02 
464	 6.76477895515333E-02 
465	 6.79271741059434E-02 
466	 6.79506637529652E-02 
467	 6.82370464809161E-02 
468	 6.83386916128247E-02 
469	 6.82967815671972E-02 
470	 6.85334466992087E-02 
471	 0.068739235322158 
472	 6.88235178033925E-02 
473	 6.87738111902888E-02 
474	 6.86117033482656E-02 
475	 6.88376038262239E-02 
476	 6.91381435826471E-02 
477	 6.89751497752618E-02 
478	 0.069099045709832 
479	 6.93089025955542E-02 
480	 6.94577231502904E-02 
481	 6.95935300563552E-02 
482	 6.96153181255952E-02 
483	 6.96485799760701E-02 
484	 6.98069901626782E-02 
485	 6.98981388846388E-02 
486	 6.99466628370393E-02 
487	 7.00425524467752E-02 
488	 7.02975043654877E-02 
489	 7.03000163056494E-02 
490	 7.02378331451525E-02 
491	 7.03140360122498E-02 
492	 7.05271415371625E-02 
493	 7.05848588490628E-02 
494	 7.05306003875412E-02 
495	 7.05673206800195E-02 
496	 7.07359559395907E-02 
497	 7.08382010995017E-02 
498	 7.08597531303879E-02 
499	 7.10957856830626E-02 
500	 7.12629932581699E-02 
501	 7.13104192005173E-02 
502	 7.12800929348398E-02 
503	 7.12768665513064E-02 
504	 7.13254987319219E-02 
505	 7.14255528765939E-02 
506	 7.15533389664718E-02 
507	 7.15982013267471E-02 
508	 7.16806099360714E-02 
509	 0.07184226511646 
510	 7.17808741147627E-02 
511	 7.17465030084309E-02 
512	 7.17793969468728E-02 
513	 7.18108171621856E-02 
514	 0.071873484727796 
515	 7.19490903853378E-02 
516	 7.20308239213901E-02 
517	 7.21419366646041E-02 
518	 7.22623630556061E-02 
519	 7.23077388823852E-02 
520	 7.22330392508598E-02 
521	 7.22834328153923E-02 
522	 7.23925862843005E-02 
523	 7.24986634850528E-02 
524	 7.25654886552256E-02 
525	 7.25558560262682E-02 
526	 7.25342025219223E-02 
527	 7.25735939571473E-02 
528	 0.072710755981599 
529	 7.27946273731365E-02 
530	 7.27924182586804E-02 
531	 7.27619648933909E-02 
532	 7.28035910975911E-02 
533	 7.29324513610795E-02 
534	 7.30927243554193E-02 
535	 7.31063064989068E-02 
536	 7.31396187185106E-02 
537	 7.32237463334605E-02 
538	 7.33199650567279E-02 
539	 0.073298056344732 
540	 7.33026769896908E-02 
541	 7.33996439103424E-02 
542	 7.35249605044324E-02 
543	 7.35943956984221E-02 
544	 0.073644089794181 
545	 7.37333257204487E-02 
546	 7.38677111763622E-02 
547	 7.39245049427409E-02 
548	 7.39453658923753E-02 
549	 7.40987201817555E-02 
550	 7.41479864756715E-02 
551	 7.41814875724505E-02 
552	 7.42859685039594E-02 
553	 7.43914300527546E-02 
554	 0.074459908010359 
555	 7.45277320790435E-02 
556	 7.46569904116028E-02 
557	 7.47365439057449E-02 
558	 0.074806191138506 
559	 7.49032765097493E-02 
560	 0.075036624024973 
561	 7.51041275532848E-02 
562	 7.51753511463266E-02 
563	 7.53431621594969E-02 
564	 7.54663428850513E-02 
565	 7.55996067505092E-02 
566	 0.07578061651624 
567	 0.076014155008787 
568	 7.62568497622142E-02 
569	 7.64607472900674E-02 
570	 7.65941075046084E-02 
571	 7.66570650978145E-02 
572	 0.076800960818506 
573	 7.70239809680039E-02 
574	 7.72103323136443E-02 
575	 7.73135889983394E-02 
576	 7.73986350375881E-02 
577	 7.75282884766185E-02 
578	 7.77137768183412E-02 
579	 0.077975261272807 
580	 7.83183211143565E-02 
581	 7.87219011698701E-02 
582	 7.90680812520701E-02 
583	 7.93371558369928E-02 
584	 7.95338448327448E-02 
585	 7.96833480577174E-02 
586	 7.97178576757405E-02 
587	 7.97516202129647E-02 
588	 7.99055900321083E-02 
589	 8.00981592565438E-02 
590	 8.02416267759766E-02 
591	 8.03437107266052E-02 
592	 8.04946042207086E-02 
593	 8.05852031379134E-02 
594	 8.07079968755133E-02 
595	 8.09368488278642E-02 
596	 8.11952681212021E-02 
597	 8.15090911756892E-02 
598	 8.18597333230798E-02 
599	 8.22024809213259E-02 
600	 8.24877591867365E-02 
601	 8.26906142099087E-02 
602	 8.28232954707589E-02 
603	 0.082953807091553 
604	 8.30823641753925E-02 
605	 0.083189673874077 
606	 8.32708222100105E-02 
607	 8.34481451230191E-02 
608	 8.36547749093866E-02 
609	 8.38366708018708E-02 
610	 0.083970137152311 
611	 8.40974000992438E-02 
612	 8.42733274589688E-02 
613	 8.45021298376184E-02 
614	 8.46233818038222E-02 
615	 8.46871500285066E-02 
616	 8.47430999159688E-02 
617	 8.48379212974503E-02 
618	 8.49944069531596E-02 
619	 8.51033380481068E-02 
620	 8.51314733840373E-02 
621	 8.52551673658388E-02 
622	 8.53392700835737E-02 
623	 8.53997716242422E-02 
624	 8.55005481622556E-02 
625	 8.56044513226735E-02 
626	 8.56871729398555E-02 
627	 8.57415996033316E-02 
628	 8.57804836105578E-02 
629	 0.08585806797474 
630	 8.59498351384641E-02 
631	 8.60139091537162E-02 
632	 8.60298041426263E-02 
633	 8.60984467368646E-02 
634	 8.62056791771553E-02 
635	 8.62493558477848E-02 
636	 8.63430836884506E-02 
637	 8.64243103892804E-02 
638	 0.086450565953767 
639	 8.64998877405538E-02 
640	 8.65639157404791E-02 
641	 8.66245056442457E-02 
642	 8.66618625016256E-02 
643	 8.66956245838617E-02 
644	 8.67838487128171E-02 
645	 8.69041877793413E-02 
646	 8.69124889554411E-02 
647	 8.69672056501697E-02 
648	 8.70635519455076E-02 
649	 8.71572914771434E-02 
650	 8.72633796066246E-02 
651	 8.73111703009674E-02 
652	 8.73281435386403E-02 
653	 8.74227141337075E-02 
654	 8.75525087562399E-02 
655	 8.76171068427486E-02 
656	 8.75958492213968E-02 
657	 0.087692064289644 
658	 8.77917923663421E-02 
659	 8.78740189281812E-02 
660	 8.79549281872915E-02 
661	 8.79983986131771E-02 
662	 8.80580816664508E-02 
663	 8.81492108580139E-02 
664	 8.82191032629881E-02 
665	 8.83213561054719E-02 
666	 8.84286931505107E-02 
667	 8.85057724261107E-02 
668	 8.85795036443527E-02 
669	 8.86813294436846E-02 
670	 8.88072100077603E-02 
671	 8.89207037974332E-02 
672	 0.088960842361108 
673	 0.089047933805389 
674	 8.92248664468415E-02 
675	 8.92745727458818E-02 
676	 8.93281464892239E-02 
677	 8.94077730580585E-02 
678	 0.089495192308225 
679	 8.96245894105043E-02 
680	 8.97260577747966E-02 
681	 8.98002002149685E-02 
682	 8.99495731902631E-02 
683	 9.00519468710766E-02 
684	 9.01304772395758E-02 
685	 9.02302873407834E-02 
686	 9.03337796822154E-02 
687	 9.03958947256787E-02 
688	 0.090469349462442 
689	 9.06535633995738E-02 
690	 9.07174172366826E-02 
691	 0.090791276361273 
692	 9.09487769042705E-02 
693	 9.10463670203283E-02 
694	 9.11075377145662E-02 
695	 9.11846969435178E-02 
696	 9.13233158292759E-02 
697	 9.14473992692788E-02 
698	 9.15591763074397E-02 
699	 0.091663334844384 
700	 0.091762470243018 
701	 9.18591474432208E-02 
702	 0.091951960447416 
703	 9.20359290310482E-02 
704	 9.20914233391833E-02 
705	 9.21965399342372E-02 
706	 9.23238795143563E-02 
707	 9.24043196088173E-02 
708	 9.25352654495827E-02 
709	 9.26583985005914E-02 
710	 0.09274536901031 
711	 9.28338433824193E-02 
712	 9.29402189760426E-02 
713	 9.30354511653087E-02 
714	 9.30955940680889E-02 
715	 0.093167609584052 
716	 9.32476625680022E-02 
717	 9.33351541797093E-02 
718	 9.34285739900671E-02 
719	 9.34839452033958E-02 
720	 9.35425270483045E-02 
721	 9.36231195984351E-02 
722	 9.36753042526208E-02 
723	 9.37438255218507E-02 
724	 9.38288905897079E-02 
725	 9.39124468299007E-02 
726	 9.39717653495813E-02 
727	 0.094005153160985 
728	 9.40413065734228E-02 
729	 9.41293293963983E-02 
730	 9.41897362683232E-02 
731	 9.42298389125714E-02 
732	 9.42664137613441E-02 
733	 0.094298317729406 
734	 9.43178898989564E-02 
735	 9.43368836663134E-02 
736	 0.09437052257763 
737	 9.44028358457785E-02 
738	 9.44222233161912E-02 
739	 9.44430237533172E-02 
740	 0.094504139345975 
741	 9.45200450830208E-02 
742	 9.45260487130834E-02 
743	 9.45478567943219E-02 
744	 9.45038868864694E-02 
745	 9.44970831111315E-02 
746	 9.45287471888101E-02 
747	 9.45457273106926E-02 
748	 9.44981010219674E-02 
749	 9.44552839002081E-02 
750	 9.44549392366438E-02 
751	 9.44812037590528E-02 
752	 0.094449920597268 
753	 9.44213120929645E-02 
754	 9.44399014596779E-02 
755	 9.43951533628339E-02 
756	 9.43687729917675E-02 
757	 9.43507614176009E-02 
758	 9.42962956837936E-02 
759	 9.42793237787696E-02 
760	 9.42426235467426E-02 
761	 9.41817742700858E-02 
762	 9.41713415779657E-02 
763	 9.41709106955963E-02 
764	 9.41322803918892E-02 
765	 9.40520259541578E-02 
766	 9.40651178702548E-02 
767	 9.40574695472292E-02 
768	 0.094008538196812 
769	 9.39478922100836E-02 
770	 9.38841370596606E-02 
771	 0.093839068989752 
772	 9.38041732008967E-02 
773	 9.37363290224481E-02 
774	 9.36878670971104E-02 
775	 9.36529391291113E-02 
776	 9.36148988848438E-02 
777	 9.35663325603629E-02 
778	 9.35066599724144E-02 
779	 9.34545059583717E-02 
780	 0.093428207090259 
781	 9.33892110308109E-02 
782	 9.33205397733134E-02 
783	 9.32432619770405E-02 
784	 9.32123830796074E-02 
785	 9.31747436876766E-02 
786	 9.31109643550815E-02 
787	 9.30335975915966E-02 
788	 9.30161223291212E-02 
789	 9.29888165479159E-02 
790	 9.29443114684827E-02 
791	 9.28910826111921E-02 
792	 9.27834657083925E-02 
793	 9.27206481791599E-02 
794	 9.27027347232539E-02 
795	 9.26433708281023E-02 
796	 9.25916111866486E-02 
797	 9.25176307797551E-02 
798	 0.092426616925704 
799	 9.24076579661728E-02 
800	 9.23956684135726E-02 
801	 9.23514482762752E-02 
802	 9.22710131024649E-02 
803	 9.22504816508637E-02 
804	 9.22242142443389E-02 
805	 0.092173678577446 
806	 9.21162003334899E-02 
807	 9.20820236648685E-02 
808	 9.20132972574307E-02 
809	 9.19182012436296E-02 
810	 9.18987271315027E-02 
811	 9.18920441699021E-02 
812	 9.18481460060317E-02 
813	 9.17622200563581E-02 
814	 9.17421659403115E-02 
815	 9.17068142183036E-02 
816	 9.16584236618718E-02 
817	 9.16268132378042E-02 
818	 0.091591582842854 
819	 9.15699082124174E-02 
820	 9.15335063392145E-02 
821	 9.14291631945479E-02 
822	 9.13966096648864E-02 
823	 9.13876150506977E-02 
824	 9.13624350059545E-02 
825	 9.13451850854889E-02 
826	 9.13099103701953E-02 
827	 9.12571080556503E-02 
828	 9.12047963866954E-02 
829	 0.091203443886125 
830	 9.11748320031615E-02 
831	 9.11262451536735E-02 
832	 9.11025246140832E-02 
833	 9.10897450005303E-02 
834	 9.10722883943917E-02 
835	 9.10301153304756E-02 
836	 9.09503346717827E-02 
837	 9.09523606157247E-02 
838	 9.10004819517922E-02 
839	 9.10239304865478E-02 
840	 9.09415498825038E-02 
841	 9.08907888125298E-02 
842	 9.08669908610877E-02 
843	 9.08430916516717E-02 
844	 9.08612152095687E-02 
845	 9.08659824776138E-02 
846	 9.08404394700889E-02 
847	 9.07976609540405E-02 
848	 9.07962447797596E-02 
849	 9.07781122142656E-02 
850	 9.07488512973273E-02 
851	 9.07630429697992E-02 
852	 9.07160897251463E-02 
853	 9.07093461183692E-02 
854	 9.07580663276342E-02 
855	 9.07165000808578E-02 
856	 9.07276182012027E-02 
857	 9.07539422560786E-02 
858	 0.090741137646559 
859	 9.06997377971106E-02 
860	 9.06673356035827E-02 
861	 9.06883531308816E-02 
862	 9.07627609763729E-02 
863	 9.07092645398187E-02 
864	 0.090681785981825 
865	 9.06898099802472E-02 
866	 9.06626540624424E-02 
867	 9.06984495021761E-02 
868	 9.06908138119689E-02 
869	 9.06408542843528E-02 
870	 9.06679534815895E-02 
871	 9.07173376832189E-02 
872	 9.07723568039587E-02 
873	 0.090807688140615 
874	 9.07787540787902E-02 
875	 9.07615356092411E-02 
876	 9.07590584524051E-02 
877	 9.07674502786149E-02 
878	 9.08210560237395E-02 
879	 9.08553127398289E-02 
880	 9.08816595025767E-02 
881	 9.09230323081608E-02 
882	 9.09233115676416E-02 
883	 9.09630975269385E-02 
884	 9.10057988841213E-02 
885	 9.09762142063169E-02 
886	 9.10057276194859E-02 
887	 9.10092924849321E-02 
888	 9.10012718245817E-02 
889	 9.10776818823352E-02 
890	 9.11491979777985E-02 
891	 0.091191901698699 
892	 9.12043582703282E-02 
893	 9.12050004140701E-02 
894	 9.12608211252935E-02 
895	 9.13153294298178E-02 
896	 9.13405122716285E-02 
897	 9.14054721188109E-02 
898	 9.14244412869523E-02 
899	 9.14544604684951E-02 
900	 9.15311230655953E-02 
901	 9.15275535035773E-02 
902	 9.15760121207284E-02 
903	 9.16367455305085E-02 
904	 9.16465960149045E-02 
905	 9.16881685179461E-02 
906	 9.17501979363315E-02 
907	 0.091794720217573 
908	 9.17989592296533E-02 
909	 9.18807230428823E-02 
910	 9.19409514233438E-02 
911	 9.19662361546455E-02 
912	 9.20115846302122E-02 
913	 9.21242864016906E-02 
914	 9.22200855532117E-02 
915	 9.22673436071826E-02 
916	 9.22983033139435E-02 
917	 0.092357752437113 
918	 9.24241622448762E-02 
919	 0.092455856114349 
920	 9.24175061077539E-02 
921	 9.25168403172345E-02 
922	 9.26658169941947E-02 
923	 0.092775854648473 
924	 9.28421616584621E-02 
925	 9.28657138617291E-02 
926	 9.28870517340426E-02 
927	 9.29289925513854E-02 
928	 9.29657230775081E-02 
929	 9.30280020050523E-02 
930	 9.31323973695418E-02 
931	 9.32577260311495E-02 
932	 9.33088681247219E-02 
933	 9.34272695615088E-02 
934	 9.35119804663769E-02 
935	 9.34835446871902E-02 
936	 9.35264867698574E-02 
937	 9.36221514986479E-02 
938	 9.37088485100222E-02 
939	 9.37589524483606E-02 
940	 9.39337255035954E-02 
941	 9.40044846295073E-02 
942	 9.40596926758459E-02 
943	 9.42276990468623E-02 
944	 9.42602284492142E-02 
945	 9.42636258966945E-02 
946	 9.43216202853531E-02 
947	 0.094449731276491 
948	 9.44423997333049E-02 
949	 9.44611745159218E-02 
950	 9.45626034032349E-02 
951	 9.47102826171513E-02 
952	 0.094764357264651 
953	 9.48280172207354E-02 
954	 0.094920151488846 
955	 9.50087107229449E-02 
956	 9.51126919674708E-02 
957	 9.51969389161573E-02 
958	 9.52769860699256E-02 
959	 9.53910248190383E-02 
960	 9.55108735609841E-02 
961	 9.56075962490966E-02 
962	 9.57292782064478E-02 
963	 9.59210917528686E-02 
964	 9.59183332604672E-02 
965	 9.59343368053103E-02 
966	 9.60199982503295E-02 
967	 9.61003173214536E-02 
968	 9.62128936334642E-02 
969	 9.63470626800374E-02 
970	 9.64380409277412E-02 
971	 9.64258378135017E-02 
972	 9.64664324697345E-02 
973	 9.65238813302614E-02 
974	 0.096635143660301 
975	 9.68397218188971E-02 
976	 0.096858558465122 
977	 9.69670494052271E-02 
978	 9.70891107700728E-02 
979	 9.69918624706693E-02 
980	 9.70591183809452E-02 
981	 9.71931031122105E-02 
982	 0.09729526860681 
983	 9.73237512702183E-02 
984	 9.74193535406727E-02 
985	 9.74868803870058E-02 
986	 9.75281668964406E-02 
987	 9.76204826513119E-02 
988	 9.78770168457904E-02 
989	 9.80759815847138E-02 
990	 9.80970753266462E-02 
991	 9.79713173338613E-02 
992	 9.80166702681725E-02 
993	 9.80907185114967E-02 
994	 9.81993300781362E-02 
995	 0.098349438607343 
996	 9.82382114646627E-02 
997	 9.83595100539828E-02 
998	 9.85743951534565E-02 
999	 9.86199445128043E-02 
1000	 9.88000856364627E-02 
1001	 9.80657507118425E-02 
1002	 0.098110553479961 
1003	 9.81885583772923E-02 
1004	 9.82617783008953E-02 
1005	 9.83286776701209E-02 
1006	 9.83691655176964E-02 
1007	 9.84037656264525E-02 
1008	 0.098449679289159 
1009	 0.098487974606006 
1010	 9.85063720901641E-02 
1011	 9.85460355817688E-02 
1012	 9.85440960966961E-02 
1013	 9.85235717174671E-02 
1014	 9.85654758773934E-02 
1015	 9.85852289674274E-02 
1016	 9.86232817431393E-02 
1017	 9.86601391535619E-02 
1018	 9.87031244450731E-02 
1019	 9.86910024876848E-02 
1020	 9.87485167140566E-02 
1021	 0.098822252411787 
1022	 0.098830300838301 
1023	 9.88487822074545E-02 
1024	 9.88707427615716E-02 
1025	 9.88780421920326E-02 
1026	 9.89609515839206E-02 
1027	 9.89930982881824E-02 
1028	 9.89387566000446E-02 
1029	 9.89301005304757E-02 
1030	 9.89074297580058E-02 
1031	 9.89015390642696E-02 
1032	 9.89187730151417E-02 
1033	 9.89711613886248E-02 
1034	 9.90186232853821E-02 
1035	 9.90446573504533E-02 
1036	 9.90370315995211E-02 
1037	 9.90812024382036E-02 
1038	 9.90751332155258E-02 
1039	 9.90384607118984E-02 
1040	 9.90590157007743E-02 
1041	 0.099065489962579 
1042	 9.90797831034596E-02 
1043	 9.91143624065473E-02 
1044	 0.099115120307919 
1045	 9.91036381014738E-02 
1046	 9.90636045587503E-02 
1047	 9.90491168222399E-02 
1048	 9.90551606422133E-02 
1049	 0.099100698204851 
1050	 9.91772103713511E-02 
1051	 9.91893143434584E-02 
1052	 9.91999993654256E-02 
1053	 9.92472191394563E-02 
1054	 9.92680317282065E-02 
1055	 9.93271474997621E-02 
1056	 9.93907015562151E-02 
1057	 9.94365345524356E-02 
1058	 9.94659468723857E-02 
1059	 9.95070465297775E-02 
1060	 9.95474224522744E-02 
1061	 9.95776247900977E-02 
1062	 9.96151458335801E-02 
1063	 9.96499454793735E-02 
1064	 9.97304493334345E-02 
1065	 9.97926083208881E-02 
1066	 0.099824296172291 
1067	 9.98854559739462E-02 
1068	 9.99627948073139E-02 
1069	 0.100057584476157 
1070	 0.100133801603145 
1071	 0.100235140198458 
1072	 0.100300268695321 
1073	 0.100337357270507 
1074	 0.100371037848634 
1075	 0.100378321727371 
1076	 0.100429812073882 
1077	 0.100503352050107 
1078	 0.100576148793862 
1079	 0.100671952818513 
1080	 0.100745841025132 
1081	 0.100822614230756 
1082	 0.100878570553353 
1083	 0.100925164648659 
1084	 0.100988750272704 
1085	 0.101036633873141 
1086	 0.10104449894305 
1087	 0.101059091117332 
1088	 0.101062528306149 
1089	 0.101102087182034 
1090	 0.101134686398049 
1091	 0.1011976073682 
1092	 0.101299305526311 
1093	 0.101350530757991 
1094	 0.101359007525636 
1095	 0.101393280967758 
1096	 0.101417914997626 
1097	 0.101415217782007 
1098	 0.101418955578759 
1099	 0.101425237043485 
1100	 0.10143161791107 
1101	 0.101428044945775 
1102	 0.101434059059582 
1103	 0.101449611634608 
1104	 0.101460850964838 
1105	 0.101484070186995 
1106	 0.101510416918867 
1107	 0.10153895156315 
1108	 0.101573915714906 
1109	 0.101593895693192 
1110	 0.101574059454515 
1111	 0.10155425100903 
1112	 0.101520434663372 
1113	 0.101484001957269 
1114	 0.101424473385844 
1115	 0.101396366803912 
1116	 0.101368635402186 
1117	 0.101363651716352 
1118	 0.101383655051419 
1119	 0.101404165627974 
1120	 0.10141826717366 
1121	 0.101408439086271 
1122	 0.101417358296159 
1123	 0.101414553392654 
1124	 0.101392473270681 
1125	 0.101368071112597 
1126	 0.101346434135918 
1127	 0.101282438162961 
1128	 0.101264231738388 
1129	 0.101294555859373 
1130	 0.101286273675722 
1131	 0.101264127872925 
1132	 0.101259069228316 
1133	 0.101243920555825 
1134	 0.101236064584863 
1135	 0.101247568906012 
1136	 0.101259890752121 
1137	 0.101247011663893 
1138	 0.101233244009641 
1139	 0.101227127076122 
1140	 0.101222916230735 
1141	 0.101213724883664 
1142	 0.101204342136918 
1143	 0.101198065339476 
1144	 0.101187244631626 
1145	 0.101178909335329 
1146	 0.10117658345653 
1147	 0.101175997925337 
1148	 0.101189429148456 
1149	 0.101174067849939 
1150	 0.101137095057822 
1151	 0.101117513442499 
1152	 0.101087138271673 
1153	 0.101050004271362 
1154	 0.101043609976059 
1155	 0.101071304083472 
1156	 0.101080028557372 
1157	 0.101099295896067 
1158	 0.10110215126508 
1159	 0.101097350720607 
1160	 0.101086596427458 
1161	 0.101050627731427 
1162	 0.101043415383673 
1163	 0.101051951892302 
1164	 0.101054719453508 
1165	 0.101066091686795 
1166	 0.101080350102735 
1167	 0.10109447813933 
1168	 0.101101254335548 
1169	 0.101113227778635 
1170	 0.101139377912748 
1171	 0.101144899603012 
1172	 0.101135706315424 
1173	 0.101139083355415 
1174	 0.101138029969897 
1175	 0.101141518597037 
1176	 0.1011523920537 
1177	 0.101159705480245 
1178	 0.101165250144313 
1179	 0.101173524423879 
1180	 0.10117829435007 
1181	 0.101194069991729 
1182	 0.10122227077626 
1183	 0.101243347214342 
1184	 0.101256847642457 
1185	 0.101268647336226 
1186	 0.101284890547558 
1187	 0.101286757327463 
1188	 0.101310186758258 
1189	 0.101358689592537 
1190	 0.101385920445635 
1191	 0.10141472672196 
1192	 0.101432848409769 
1193	 0.101428871379878 
1194	 0.101443844571646 
1195	 0.101463769366445 
1196	 0.101482170467217 
1197	 0.101505500769339 
1198	 0.10153333034896 
1199	 0.101563130719232 
1200	 0.10159412949482 
1201	 0.101619160193391 
1202	 0.101647981616117 
1203	 0.10167277992434 
1204	 0.10168643097335 
1205	 0.101709171327418 
1206	 0.101735014084133 
1207	 0.101765899754314 
1208	 0.101808884038666 
1209	 0.101835461434163 
1210	 0.101854795281925 
1211	 0.101880828170254 
1212	 0.101892759528526 
1213	 0.101917135251874 
1214	 0.101963613555153 
1215	 0.101998029426437 
1216	 0.102029276490212 
1217	 0.102060381134421 
1218	 0.102083443892345 
1219	 0.10209639454823 
1220	 0.102116095046983 
1221	 0.10213035753462 
1222	 0.102154124160187 
1223	 0.102194068493212 
1224	 0.102211893531552 
1225	 0.102212461695753 
1226	 0.102233175031427 
1227	 0.102249260901219 
1228	 0.102272298034323 
1229	 0.102329677864361 
1230	 0.102359264457097 
1231	 0.10236091912811 
1232	 0.102377435307066 
1233	 0.102395000653223 
1234	 0.102407114153643 
1235	 0.102423820887732 
1236	 0.102454340742539 
1237	 0.102469863782002 
1238	 0.102474714049485 
1239	 0.102483955465791 
1240	 0.102489198672755 
1241	 0.102501344865723 
1242	 0.102513336595886 
1243	 0.102530724512974 
1244	 0.102555890076721 
1245	 0.102577974090186 
1246	 0.102608465528 
1247	 0.102628657176292 
1248	 0.102638996392885 
1249	 0.102654604441297 
1250	 0.102671538730789 
1251	 0.102680150560857 
1252	 0.102700288968114 
1253	 0.102736049393649 
1254	 0.102750182402054 
1255	 0.102758545312348 
1256	 0.102764346930778 
1257	 0.102754430589688 
1258	 0.102755851901885 
1259	 0.102767863780322 
1260	 0.102766593098093 
1261	 0.102753490155915 
1262	 0.102753357240529 
1263	 0.102755770422228 
1264	 0.10275389718767 
1265	 0.102760507745461 
1266	 0.102762612481686 
1267	 0.102749462629998 
1268	 0.102746181351467 
1269	 0.10275161924146 
1270	 0.102765275631385 
1271	 0.102778096200659 
1272	 0.102800085133559 
1273	 0.102817165248249 
1274	 0.102831723177566 
1275	 0.102848513827627 
1276	 0.102864692718378 
1277	 0.102885377167658 
1278	 0.102898907166686 
1279	 0.102933389464001 
1280	 0.102988510694351 
1281	 0.103033105216557 
1282	 0.103085867469692 
1283	 0.103137643782794 
1284	 0.1031816187888 
1285	 0.103223860118456 
1286	 0.103297009331665 
1287	 0.10336989204007 
1288	 0.10344523905596 
1289	 0.103537833414301 
1290	 0.103612569298113 
1291	 0.10367090401262 
1292	 0.103752758341086 
1293	 0.10384510161659 
1294	 0.103927664691884 
1295	 0.104021691628735 
1296	 0.104104402205998 
1297	 0.104166462781458 
1298	 0.104246656963206 
1299	 0.104329849511697 
1300	 0.104421416116687 
1301	 0.104538786596745 
1302	 0.104629761154576 
1303	 0.104704792099968 
1304	 0.104795831802541 
1305	 0.10486531077399 
1306	 0.10492226215598 
1307	 0.105005687078064 
1308	 0.105089454476107 
1309	 0.105160019084964 
1310	 0.105234760598608 
1311	 0.105289255296976 
1312	 0.105323173910257 
1313	 0.105359653708526 
1314	 0.105382921361813 
1315	 0.105416859533513 
1316	 0.105464472127956 
1317	 0.105486931205845 
1318	 0.105491838188827 
1319	 0.105509305027855 
1320	 0.105514976889045 
1321	 0.105528163295824 
1322	 0.105554134406045 
1323	 0.105583604094382 
1324	 0.105601366402832 
1325	 0.105601807940057 
1326	 0.105599324648813 
1327	 0.105589095598127 
1328	 0.105565302502571 
1329	 0.105542421719558 
1330	 0.105523536172201 
1331	 0.105501205595409 
1332	 0.105486394719531 
1333	 0.105488136713227 
1334	 0.105468044977026 
1335	 0.105441700556268 
1336	 0.10541084606216 
1337	 0.105357291857608 
1338	 0.105322571161271 
1339	 0.105297708211802 
1340	 0.105269724325011 
1341	 0.105248519207004 
1342	 0.105223302110874 
1343	 0.105193000067383 
1344	 0.105169034026349 
1345	 0.105138026579377 
1346	 0.105099936254322 
1347	 0.105051246171509 
1348	 0.104991258975248 
1349	 0.104932504554184 
1350	 0.104868779358401 
1351	 0.104798198020625 
1352	 0.104720994711067 
1353	 0.104644316455455 
1354	 0.104556666014305 
1355	 0.104482811357883 
1356	 0.104412012424286 
1357	 0.104347033072633 
1358	 0.104283451086602 
1359	 0.104231089149892 
1360	 0.104185405333529 
1361	 0.104149561334558 
1362	 0.104122554432594 
1363	 0.104104557137658 
1364	 0.104093882926888 
1365	 0.10409230146076 
1366	 0.104100534922199 
1367	 0.10411958344171 
1368	 0.104144722300559 
1369	 0.104172643532092 
1370	 0.104184374439627 
1371	 0.104191536892763 
1372	 0.104194720044559 
1373	 0.104176145590745 
1374	 0.104152896517257 
1375	 0.104130381665818 
1376	 0.104081716645022 
1377	 0.104017831111584 
1378	 0.103937662870004 
1379	 0.103812063503795 
1380	 0.103733342014172 
1381	 0.103647042255253 
1382	 0.103592703442573 
1383	 0.103588981893883 
1384	 0.103565271608185 
1385	 0.10355173262964 
1386	 0.103528705426201 
1387	 0.103489546008074 
1388	 0.103464660120625 
1389	 0.10345013289479 
1390	 0.103425533154914 
1391	 0.103401669082559 
1392	 0.103392135585678 
1393	 0.10335173146678 
1394	 0.103311633440462 
1395	 0.103276281786166 
1396	 0.103213330344849 
1397	 0.103167833984727 
1398	 0.103127983823318 
1399	 0.10308218989148 
1400	 0.103032651308996 
1401	 0.102999925103908 
1402	 0.102967987532453 
1403	 0.102938743567664 
1404	 0.102926221968786 
1405	 0.102903870704971 
1406	 0.102876162876787 
1407	 0.102850613455086 
1408	 0.102825739442224 
1409	 0.102803545975142 
1410	 0.102763106033769 
1411	 0.102752928509449 
1412	 0.102762325901961 
1413	 0.102776284322748 
1414	 0.102794245328654 
1415	 0.102828690055612 
1416	 0.102837622921076 
1417	 0.102838583005732 
1418	 0.10285513718188 
1419	 0.102870059481493 
1420	 0.102888592476399 
1421	 0.102917572317381 
1422	 0.102943552420338 
1423	 0.102968418191251 
1424	 0.102983195424518 
1425	 0.10298999733856 
1426	 0.102999971483946 
1427	 0.102996900570886 
1428	 0.103012865079302 
1429	 0.103043087794528 
1430	 0.103070827074278 
1431	 0.103110741441162 
1432	 0.103133404348993 
1433	 0.103141133646007 
1434	 0.103164842065496 
1435	 0.103182496411959 
1436	 0.103211213544973 
1437	 0.103267747292253 
1438	 0.103303201204322 
1439	 0.103329324166586 
1440	 0.103361094203159 
1441	 0.103371049571878 
1442	 0.103375641265066 
1443	 0.103402206516126 
1444	 0.103429937838109 
1445	 0.103476328552489 
1446	 0.103518697497793 
1447	 0.103537346257106 
1448	 0.103567909780518 
1449	 0.10358034864581 
1450	 0.103582468010669 
1451	 0.103600421769317 
1452	 0.103619471790899 
1453	 0.103642435978552 
1454	 0.103680324408812 
1455	 0.103704253387904 
1456	 0.103727100446992 
1457	 0.103739123524599 
1458	 0.10373425192604 
1459	 0.103751690401032 
1460	 0.10376729653085 
1461	 0.103791720786099 
1462	 0.103841303018753 
1463	 0.103870464983589 
1464	 0.10389774064109 
1465	 0.103917487549481 
1466	 0.103921684967517 
1467	 0.103933618454227 
1468	 0.103938898627398 
1469	 0.103950763324274 
1470	 0.103967711330843 
1471	 0.103988471100194 
1472	 0.104020666097865 
1473	 0.104044743810919 
1474	 0.104056669901896 
1475	 0.10407495066062 
1476	 0.104069996210702 
1477	 0.104083335254382 
1478	 0.104132785928601 
1479	 0.104172100994683 
1480	 0.104206405610042 
1481	 0.104250238569778 
1482	 0.104282050186453 
1483	 0.104294106827738 
1484	 0.104314832104174 
1485	 0.104336738085834 
1486	 0.104362226653929 
1487	 0.104386624247357 
1488	 0.104417702491373 
1489	 0.104461417233441 
1490	 0.104494975947154 
1491	 0.104525278369912 
1492	 0.104552035281405 
1493	 0.104571876181248 
1494	 0.104599349939533 
1495	 0.104628662808036 
1496	 0.104652606641914 
1497	 0.104679005368374 
1498	 0.104702525530553 
1499	 0.104716123733693 
1500	 0.104738285587418 
1501	 0.104775024264212 
1502	 0.104798273424781 
1503	 0.104809751582306 
1504	 0.104830467237881 
1505	 0.104867565420747 
1506	 0.104885086506771 
1507	 0.104909000848311 
1508	 0.104933771717819 
1509	 0.104926539630226 
1510	 0.104917677667039 
1511	 0.104929989263951 
1512	 0.104940226189898 
1513	 0.10495032060619 
1514	 0.104970131753187 
1515	 0.104983850894243 
1516	 0.104992161254906 
1517	 0.105005900898532 
1518	 0.105027074434878 
1519	 0.105041465172799 
1520	 0.105048673447172 
1521	 0.105070248989392 
1522	 0.1050956404651 
1523	 0.105120611020085 
1524	 0.105163146423448 
1525	 0.105182386586672 
1526	 0.105189605345183 
1527	 0.10519995701983 
1528	 0.105190278282987 
1529	 0.10520188284268 
1530	 0.105235041325957 
1531	 0.105246502203565 
1532	 0.10525042579111 
1533	 0.105265838052707 
1534	 0.105275011716834 
1535	 0.105285724515826 
1536	 0.105312239865716 
1537	 0.105329540605338 
1538	 0.10533309589284 
1539	 0.105342134002064 
1540	 0.105348324319127 
1541	 0.105366778021148 
1542	 0.105397504147383 
1543	 0.105419398635474 
1544	 0.105450470357468 
1545	 0.105473724940398 
1546	 0.105484382684512 
1547	 0.105494073692627 
1548	 0.105517499196802 
1549	 0.105531371764464 
1550	 0.105535753243078 
1551	 0.105548198872325 
1552	 0.105571081854498 
1553	 0.105582504480717 
1554	 0.105597864310611 
1555	 0.105616953908619 
1556	 0.105619829197882 
1557	 0.105625339007706 
1558	 0.10562413706226 
1559	 0.105621921019064 
1560	 0.105630326737956 
1561	 0.105637993851335 
1562	 0.105646901758273 
1563	 0.105666920312222 
1564	 0.10568371990238 
1565	 0.105695172065692 
1566	 0.10571092366997 
1567	 0.105733697948144 
1568	 0.105752366984953 
1569	 0.105770861622952 
1570	 0.105780839201842 
1571	 0.105794307958388 
1572	 0.10579304007297 
1573	 0.105772203188133 
1574	 0.105764271254561 
1575	 0.10574681712928 
1576	 0.105748953596924 
1577	 0.10577031254223 
1578	 0.105776332596429 
1579	 0.105787752660142 
1580	 0.105795519034787 
1581	 0.105790191870588 
1582	 0.105795467941227 
1583	 0.105805536554282 
1584	 0.105814985766494 
1585	 0.105829842409692 
1586	 0.105839762651301 
1587	 0.105855719636962 
1588	 0.105858467046791 
1589	 0.105838962650045 
1590	 0.105842300823582 
1591	 0.105858333169641 
1592	 0.105861166641726 
1593	 0.105873794222749 
1594	 0.105877816772937 
1595	 0.105862969621039 
1596	 0.105850525136578 
1597	 0.105840490914748 
1598	 0.105830676033764 
1599	 0.105813104770786 
1600	 0.105801761741557 
1601	 0.105797625645939 
1602	 0.105792358138367 
1603	 0.105783488949806 
1604	 0.105782706516299 
1605	 0.105788897264779 
1606	 0.105792564612555 
1607	 0.105800415109378 
1608	 0.105806054022535 
1609	 0.105808899056166 
1610	 0.105825821315424 
1611	 0.105842328667167 
1612	 0.105851734936891 
1613	 0.105860141372671 
1614	 0.105863182597409 
1615	 0.105857324288556 
1616	 0.105856196481104 
1617	 0.105864399273512 
1618	 0.105869127112723 
1619	 0.10588596712157 
1620	 0.105911140984437 
1621	 0.105917124605707 
1622	 0.105918289718192 
1623	 0.105907833334032 
1624	 0.105875516585241 
1625	 0.10587170714677 
1626	 0.105874103390031 
1627	 0.105872871450384 
1628	 0.105891489545096 
1629	 0.105878711442985 
1630	 0.105839067303618 
1631	 0.105828145477057 
1632	 0.105816534195034 
1633	 0.105811514607967 
1634	 0.105826114336615 
1635	 0.105824903979391 
1636	 0.105819019925354 
1637	 0.105808064602771 
1638	 0.105787890801963 
1639	 0.105780915271419 
1640	 0.105774855595786 
1641	 0.105767201143876 
1642	 0.105770621206652 
1643	 0.105764446497022 
1644	 0.105741091642578 
1645	 0.105740766035699 
1646	 0.105751184710541 
1647	 0.105760422863167 
1648	 0.105783467291358 
1649	 0.105794308251534 
1650	 0.105803819784006 
1651	 0.105803818554961 
1652	 0.105793886829898 
1653	 0.105788483216045 
1654	 0.105778511895891 
1655	 0.105769176519002 
1656	 0.105761950558658 
1657	 0.10575410879037 
1658	 0.105741236787247 
1659	 0.10573337515559 
1660	 0.105732395425031 
1661	 0.105724155014772 
1662	 0.105707924178887 
1663	 0.105705119600552 
1664	 0.105710377926014 
1665	 0.105705722736601 
1666	 0.105707022077062 
1667	 0.1057006630143 
1668	 0.105680818732827 
1669	 0.105667258938728 
1670	 0.105655217449772 
1671	 0.105645801710758 
1672	 0.105632937095528 
1673	 0.105628126071615 
1674	 0.105636826546811 
1675	 0.105631510709735 
1676	 0.105627314366324 
1677	 0.105612429817892 
1678	 0.105580883436644 
1679	 0.105560481181542 
1680	 0.105537180334084 
1681	 0.105520988807081 
1682	 0.105510760997271 
1683	 0.105502469008457 
1684	 0.105496392602916 
1685	 0.105494065176784 
1686	 0.105500436827818 
1687	 0.105499687109389 
1688	 0.105500795230032 
1689	 0.105495317323299 
1690	 0.105484421463822 
1691	 0.105471484557396 
1692	 0.105452873437658 
1693	 0.105438907546895 
1694	 0.105420554384302 
1695	 0.105409039346034 
1696	 0.105395234769305 
1697	 0.105400377158344 
1698	 0.105436940274266 
1699	 0.105431086746539 
1700	 0.10541507748732 
1701	 0.105400040397458 
1702	 0.105349101215852 
1703	 0.105327082991057 
1704	 0.10532846217653 
1705	 0.105322021348747 
1706	 0.105314345314952 
1707	 0.105310178183181 
1708	 0.105319106014881 
1709	 0.105309737272124 
1710	 0.105282663912173 
1711	 0.105277784592518 
1712	 0.105278692103797 
1713	 0.105272188848554 
1714	 0.105279584208092 
1715	 0.105274556857526 
1716	 0.10524725739584 
1717	 0.105239219622705 
1718	 0.105246289240944 
1719	 0.10523534875661 
1720	 0.105226623025629 
1721	 0.105203888457215 
1722	 0.10515559524444 
1723	 0.105139841511738 
1724	 0.105139054233704 
1725	 0.105119629882421 
1726	 0.105102393182865 
1727	 0.105088330827782 
1728	 0.105062215562856 
1729	 0.10504020605533 
1730	 0.105036387294091 
1731	 0.10502213904421 
1732	 0.104985816977574 
1733	 0.104977703973291 
1734	 0.104998762502142 
1735	 0.104974193505646 
1736	 0.10493127663787 
1737	 0.104910002380173 
1738	 0.104874610112959 
1739	 0.104845331086965 
1740	 0.104843712621781 
1741	 0.104816616432482 
1742	 0.104758481950118 
1743	 0.104727433504567 
1744	 0.104710750978277 
1745	 0.104686174608442 
1746	 0.104666422124496 
1747	 0.104617964049091 
1748	 0.104584578258279 
1749	 0.10454045523048 
1750	 0.104504072255527 
1751	 0.104513274929205 
1752	 0.104496068406922 
1753	 0.104454068980901 
1754	 0.104441020675364 
1755	 0.104406679170481 
1756	 0.10438279382567 
1757	 0.104400016756679 
1758	 0.104391628193306 
1759	 0.10437685589293 
1760	 0.104359531891831 
1761	 0.104319530663638 
1762	 0.104297451041552 
1763	 0.104291839178337 
1764	 0.104282167479737 
1765	 0.10427738452736 
1766	 0.104277107604064 
1767	 0.104269627569013 
1768	 0.104257155284897 
1769	 0.104249922883279 
1770	 0.104234642715024 
1771	 0.104221111858305 
1772	 0.1042078744096 
1773	 0.104168888994587 
1774	 0.104139019592573 
1775	 0.104115092611125 
1776	 0.104077808804343 
1777	 0.104062011605008 
1778	 0.104060389521661 
1779	 0.104036450921795 
1780	 0.10401138652068 
1781	 0.104018893747394 
1782	 0.104013079183805 
1783	 0.103995939332456 
1784	 0.1039704010735 
1785	 0.103905950479007 
1786	 0.103870931521197 
1787	 0.103846938458171 
1788	 0.103822762165052 
1789	 0.103818261288853 
1790	 0.103801794663235 
1791	 0.103766828916251 
1792	 0.103767881181591 
1793	 0.103786198312021 
1794	 0.103786633857789 
1795	 0.103813732519115 
1796	 0.103820421242136 
1797	 0.103802742668092 
1798	 0.103787612984275 
1799	 0.103756974381165 
1800	 0.103734461494346 
1801	 0.100036545674183 
1802	 0.100117812488358 
1803	 0.100218273972287 
1804	 0.100361913838153 
1805	 0.10049657761031 
1806	 0.100645112069913 
1807	 0.100759885754408 
1808	 0.100838981295315 
1809	 0.100878398170429 
1810	 0.100923142199656 
1811	 0.100924161848434 
1812	 0.100955501103742 
1813	 0.101022881171452 
1814	 0.101079917320559 
1815	 0.101123905763588 
1816	 0.101150875735907 
1817	 0.101170658537503 
1818	 0.101155456681328 
1819	 0.101160755691015 
1820	 0.101174163072547 
1821	 0.101183296447131 
1822	 0.101181066289542 
1823	 0.101180561039689 
1824	 0.101180070928001 
1825	 0.101193287387336 
1826	 0.101208948968852 
1827	 0.101218045149018 
1828	 0.101231255039752 
1829	 0.101243753515953 
1830	 0.101248456947392 
1831	 0.101256167548331 
1832	 0.101272158371654 
1833	 0.101233135844532 
1834	 0.101197001358748 
1835	 0.101176853886775 
1836	 0.101145468650979 
1837	 0.101147783974584 
1838	 0.101169990136159 
1839	 0.101185787943526 
1840	 0.101206810808075 
1841	 0.101216823300526 
1842	 0.101237018290738 
1843	 0.101270296940747 
1844	 0.101281666196375 
1845	 0.101305366885523 
1846	 0.10135859283119 
1847	 0.101396083565052 
1848	 0.101435679864408 
1849	 0.101482105676297 
1850	 0.101510435721175 
1851	 0.101509886573522 
1852	 0.101512719134235 
1853	 0.101547958051816 
1854	 0.101589224321277 
1855	 0.101613974861944 
1856	 0.101643310417196 
1857	 0.101659776509839 
1858	 0.101656921017999 
1859	 0.101685311342614 
1860	 0.10168888234884 
1861	 0.101680921955633 
1862	 0.101667385689211 
1863	 0.101667937057914 
1864	 0.101628855843405 
1865	 0.101594204350623 
1866	 0.101518846750529 
1867	 0.10140215429761 
1868	 0.101278703723226 
1869	 0.101170911292111 
1870	 0.10111614059266 
1871	 0.101066679369401 
1872	 0.10104073359272 
1873	 0.101029930155781 
1874	 0.10103337133567 
1875	 0.10104333578547 
1876	 0.101070912625396 
1877	 0.101113143492916 
1878	 0.101124186945949 
1879	 0.101106559255943 
1880	 0.101075504961426 
1881	 0.101020036656444 
1882	 0.100951376277395 
1883	 0.100880622176296 
1884	 0.100761964835434 
1885	 0.100634882395229 
1886	 0.100489082242761 
1887	 0.100306288867486 
1888	 0.100137306200193 
1889	 9.99369049752219E-02 
1890	 9.97137873960999E-02 
1891	 9.95115070347964E-02 
1892	 9.93285990875895E-02 
1893	 9.91153189848039E-02 
1894	 9.89022491588939E-02 
1895	 9.86686330149416E-02 
1896	 9.84137329945283E-02 
1897	 9.81441661505923E-02 
1898	 9.78984202389628E-02 
1899	 9.76711514321383E-02 
1900	 9.74489588851621E-02 
1901	 0.097234979835846 
1902	 9.70286772278122E-02 
1903	 9.68270172755822E-02 
1904	 9.66458959987491E-02 
1905	 9.64789752270819E-02 
1906	 9.63207519625102E-02 
1907	 0.09618389994747 
1908	 9.60327905817278E-02 
1909	 9.58786873845811E-02 
1910	 9.57191770687607E-02 
1911	 9.55626130705891E-02 
1912	 9.54337752902784E-02 
1913	 9.53006184549894E-02 
1914	 9.51731729667718E-02 
1915	 9.50564267967019E-02 
1916	 9.49486017538215E-02 
1917	 9.48295253955331E-02 
1918	 9.47362415167266E-02 
1919	 9.46673219541912E-02 
1920	 0.094605284604034 
1921	 9.45520429692501E-02 
1922	 9.45060455760077E-02 
1923	 9.44926958455401E-02 
1924	 9.44728745314804E-02 
1925	 9.44582349894767E-02 
1926	 9.44479463410457E-02 
1927	 9.44520065173915E-02 
1928	 9.44408579067555E-02 
1929	 0.094412915533975 
1930	 9.44223539475292E-02 
1931	 0.094444630068755 
1932	 9.44526920312904E-02 
1933	 9.44847779082605E-02 
1934	 9.45305897205293E-02 
1935	 9.45537827438641E-02 
1936	 9.45515272584825E-02 
1937	 9.45705452545563E-02 
1938	 0.094586144822588 
1939	 9.46094022629008E-02 
1940	 9.46357825442455E-02 
1941	 9.46883867612776E-02 
1942	 9.47356946992089E-02 
1943	 9.47750363609616E-02 
1944	 9.48307072271727E-02 
1945	 9.48923920916452E-02 
1946	 9.49429508617672E-02 
1947	 9.49889367105925E-02 
1948	 9.50425764229975E-02 
1949	 9.50898141175575E-02 
1950	 9.51398158305183E-02 
1951	 9.52003165363946E-02 
1952	 9.52552012724708E-02 
1953	 9.52958177913125E-02 
1954	 9.53578276242915E-02 
1955	 0.095407921645647 
1956	 9.54481209531571E-02 
1957	 9.55134657775217E-02 
1958	 9.55924766738962E-02 
1959	 9.56682589661573E-02 
1960	 9.57608037903994E-02 
1961	 0.095848713925413 
1962	 9.59319021052029E-02 
1963	 9.60171909883216E-02 
1964	 9.61037510479616E-02 
1965	 9.61958246824024E-02 
1966	 9.62947952027127E-02 
1967	 9.63926337112679E-02 
1968	 0.096473916866429 
1969	 9.65418046680573E-02 
1970	 9.66263602866148E-02 
1971	 0.096701367062053 
1972	 9.67827290429984E-02 
1973	 9.68939308419847E-02 
1974	 9.69795276636044E-02 
1975	 9.70497249008785E-02 
1976	 9.71121369873871E-02 
1977	 9.71870314979116E-02 
1978	 9.72721621413705E-02 
1979	 9.73500735159884E-02 
1980	 9.74409863912843E-02 
1981	 9.75230202174171E-02 
1982	 0.097586970830633 
1983	 0.097667897902328 
1984	 9.77674866032015E-02 
1985	 9.78519393815433E-02 
1986	 9.79462934546713E-02 
1987	 9.80211912397652E-02 
1988	 9.80746918016175E-02 
1989	 9.81249993082002E-02 
1990	 9.81954109034889E-02 
1991	 9.82637229936165E-02 
1992	 9.83359439448105E-02 
1993	 9.84288730890636E-02 
1994	 9.85034019213628E-02 
1995	 9.85567172256879E-02 
1996	 9.86323709208547E-02 
1997	 9.87156958796549E-02 
1998	 9.88019457031227E-02 
1999	 9.89099895338612E-02 
2000	 9.89983763659566E-02 
2001	 0.099078433162767 
2002	 9.91592387751394E-02 
2003	 0.099226680874444 
2004	 9.92943434673036E-02 
2005	 9.93711987354287E-02 
2006	 9.94554293502628E-02 
2007	 9.95353487030117E-02 
2008	 9.96199331870217E-02 
2009	 9.97005492695619E-02 
2010	 9.97863175337918E-02 
2011	 9.98558727793499E-02 
2012	 0.099897373835809 
2013	 0.099969708714544 
2014	 0.100039747273287 
2015	 0.100133074034111 
2016	 0.1002340228983 
2017	 0.100342765954963 
2018	 0.100426345607916 
2019	 0.100492683739405 
2020	 0.100551337646633 
2021	 0.100587835275962 
2022	 0.100643491646409 
2023	 0.100693321437616 
2024	 0.100753609642044 
2025	 0.100818198886159 
2026	 0.100897928629691 
2027	 0.100987832053194 
2028	 0.101085839270528 
2029	 0.101177619691514 
2030	 0.101294017067749 
2031	 0.101371292357612 
2032	 0.101424596126617 
2033	 0.101479825874336 
2034	 0.101517314373168 
2035	 0.101564829596532 
2036	 0.101607986771962 
2037	 0.101659611098194 
2038	 0.101710643118402 
2039	 0.101770667729164 
2040	 0.101841226997624 
2041	 0.101917019962079 
2042	 0.101981738102967 
2043	 0.102035374350125 
2044	 0.102088807430374 
2045	 0.102125080486015 
2046	 0.102172879942636 
2047	 0.10223016204607 
2048	 0.102279075505592 
2049	 0.102319868257011 
2050	 0.102370188779396 
2051	 0.10242508233025 
2052	 0.102474473934573 
2053	 0.102526240011785 
2054	 0.102578736682959 
2055	 0.102631417355776 
2056	 0.102676674849845 
2057	 0.102719566563087 
2058	 0.102759928645289 
2059	 0.102806007779152 
2060	 0.102849839019037 
2061	 0.102890943590966 
2062	 0.102940378062192 
2063	 0.102979962260842 
2064	 0.103009930038578 
2065	 0.103040095922337 
2066	 0.103044444005731 
2067	 0.10308854165834 
2068	 0.10315982765623 
2069	 0.103220922863154 
2070	 0.103282292586319 
2071	 0.103373498743935 
2072	 0.103434356973397 
2073	 0.103467785195409 
2074	 0.103512835805982 
2075	 0.103566685673217 
2076	 0.10360802879589 
2077	 0.103633788272125 
2078	 0.103668788015186 
2079	 0.103706384497913 
2080	 0.10373802589714 
2081	 0.103757108555012 
2082	 0.10379706641931 
2083	 0.10384334683754 
2084	 0.103894568738119 
2085	 0.103947054705931 
2086	 0.104021679952619 
2087	 0.104067396762313 
2088	 0.10408932250857 
2089	 0.10413641962682 
2090	 0.104191639987056 
2091	 0.104237259090865 
2092	 0.104291291625328 
2093	 0.104338485634118 
2094	 0.104367255469744 
2095	 0.104408201866379 
2096	 0.104459550129649 
2097	 0.104508696982365 
2098	 0.104567149907047 
2099	 0.104612333658713 
2100	 0.104650006823119 
2101	 0.104681496232623 
2102	 0.104714762911042 
2103	 0.104732603177291 
2104	 0.104766306171605 
2105	 0.104809568364123 
2106	 0.104849186651423 
2107	 0.104878337183641 
2108	 0.104933852909551 
2109	 0.105015217382797 
2110	 0.105078920924786 
2111	 0.105164167645814 
2112	 0.10522580307683 
2113	 0.105277815641315 
2114	 0.105289993356701 
2115	 0.105330574561868 
2116	 0.105371339951063 
2117	 0.105410594608262 
2118	 0.105450599391159 
2119	 0.1054971149489 
2120	 0.105542642795723 
2121	 0.105590787821167 
2122	 0.105653650179626 
2123	 0.105702255111753 
2124	 0.105752224046608 
2125	 0.105784483300259 
2126	 0.105806463114882 
2127	 0.105820911583131 
2128	 0.10579638504244 
2129	 0.105804271006777 
2130	 0.105826170995141 
2131	 0.105855740942077 
2132	 0.10586835211731 
2133	 0.105895707023301 
2134	 0.105902856931367 
2135	 0.105880603549742 
2136	 0.105876595986306 
2137	 0.105882156678585 
2138	 0.105879791135007 
2139	 0.105877217795456 
2140	 0.105866993418477 
2141	 0.105861418277652 
2142	 0.105837317360417 
2143	 0.10578451926988 
2144	 0.105750777734704 
2145	 0.105716780790856 
2146	 0.105680925652234 
2147	 0.105659134094101 
2148	 0.105629000746807 
2149	 0.10559897423579 
2150	 0.105559001272337 
2151	 0.105527387576424 
2152	 0.105511299453114 
2153	 0.105468756225129 
2154	 0.10541399755454 
2155	 0.105358928714373 
2156	 0.105294295864696 
2157	 0.105222259485289 
2158	 0.105144760363316 
2159	 0.105065860187128 
2160	 0.104966358329758 
2161	 0.104882089738438 
2162	 0.104815849280332 
2163	 0.104736883392323 
2164	 0.104655008725574 
2165	 0.104577022425639 
2166	 0.104483307245517 
2167	 0.104365914432824 
2168	 0.104278973844378 
2169	 0.104200301533571 
2170	 0.104117281197691 
2171	 0.104057752529069 
2172	 0.103967951992745 
2173	 0.103836949925014 
2174	 0.103754921807637 
2175	 0.103695372510607 
2176	 0.103620046461941 
2177	 0.103575467933117 
2178	 0.103502039447523 
2179	 0.103388905350297 
2180	 0.103294384246744 
2181	 0.103196940089911 
2182	 0.103113407680182 
2183	 0.103043325616325 
2184	 0.102964957857593 
2185	 0.102907365008907 
2186	 0.102869979214375 
2187	 0.10281576997278 
2188	 0.102774297511543 
2189	 0.1027085729829 
2190	 0.102619877863449 
2191	 0.102545479225535 
2192	 0.102460236469364 
2193	 0.102389716825584 
2194	 0.102327592839275 
2195	 0.102271493294883 
2196	 0.102218325410587 
2197	 0.102176333422026 
2198	 0.102160613051119 
2199	 0.102125161030246 
2200	 0.102068030434473 
2201	 0.102040880454484 
2202	 0.102018334177863 
2203	 0.102006314865819 
2204	 0.101991830970735 
2205	 0.102007898370243 
2206	 0.101989223606049 
2207	 0.101939653301017 
2208	 0.101917257363684 
2209	 0.101901544564163 
2210	 0.101886753773145 
2211	 0.101879688674843 
2212	 0.101871708097758 
2213	 0.101865524636401 
2214	 0.101857970003328 
2215	 0.101850790011059 
2216	 0.101847254085695 
2217	 0.101836967571554 
2218	 0.101836782517767 
2219	 0.101862158423145 
2220	 0.101862519218954 
2221	 0.101844064827656 
2222	 0.101843531261044 
2223	 0.101831609776514 
2224	 0.101807617980261 
2225	 0.101806008592479 
2226	 0.101818828451459 
2227	 0.101839477176764 
2228	 0.101865989286644 
2229	 0.101901048214299 
2230	 0.101957306716184 
2231	 0.101997100550774 
2232	 0.102036745534614 
2233	 0.102074621419244 
2234	 0.102108503966342 
2235	 0.102138369031883 
2236	 0.102169902364013 
2237	 0.102192675712008 
2238	 0.102217829043652 
2239	 0.102221914844852 
2240	 0.102196261089632 
2241	 0.102189695418776 
2242	 0.102164889582132 
2243	 0.102164291345247 
2244	 0.10218534752781 
2245	 0.10222389510461 
2246	 0.102237669682153 
2247	 0.10226342930967 
2248	 0.1022777460654 
2249	 0.102281159812934 
2250	 0.102279901890826 
2251	 0.102278011271899 
2252	 0.102266512732544 
2253	 0.10222151790688 
2254	 0.102234443848397 
2255	 0.102283474916052 
2256	 0.102303788059009 
2257	 0.102351165254377 
2258	 0.10236938777017 
2259	 0.10233747708783 
2260	 0.102344867905115 
2261	 0.102366635334406 
2262	 0.102395319910968 
2263	 0.102460525874624 
2264	 0.102486405153819 
2265	 0.102487553892307 
2266	 0.102499061087027 
2267	 0.102490382001639 
2268	 0.102495045749602 
2269	 0.102505228671105 
2270	 0.102550275404355 
2271	 0.102562956889208 
2272	 0.102539136882677 
2273	 0.102551606472819 
2274	 0.102555239285171 
2275	 0.102578413170591 
2276	 0.102633467048965 
2277	 0.102661323276261 
2278	 0.102687075510919 
2279	 0.102702844951985 
2280	 0.102694671518893 
2281	 0.102709096640275 
2282	 0.102717590181253 
2283	 0.102751960274852 
2284	 0.102842106060935 
2285	 0.102870712593126 
2286	 0.102871302966414 
2287	 0.102882834257463 
2288	 0.102847544714246 
2289	 0.102850785660306 
2290	 0.102889883314316 
2291	 0.10293016788313 
2292	 0.102983437979842 
2293	 0.103028311904742 
2294	 0.103100730812182 
2295	 0.103134278763083 
2296	 0.103132031574852 
2297	 0.103144371807712 
2298	 0.103148789494006 
2299	 0.10312899024115 
2300	 0.103134263364901 
2301	 0.103121318537048 
2302	 0.10313234621521 
2303	 0.103158636756491 
2304	 0.103164027436862 
2305	 0.103204992057656 
2306	 0.103210723136224 
2307	 0.103178178786093 
2308	 0.103170957978934 
2309	 0.103170749955039 
2310	 0.103161839804237 
2311	 0.103155137374369 
2312	 0.103152073547517 
2313	 0.10312797122936 
2314	 0.103140027693595 
2315	 0.103179523525246 
2316	 0.10319572619502 
2317	 0.103231182082308 
2318	 0.103254138317913 
2319	 0.10324951383742 
2320	 0.103271933343856 
2321	 0.103320278181583 
2322	 0.103345745987192 
2323	 0.103364498294932 
2324	 0.103375029572679 
2325	 0.103358415715464 
2326	 0.103370593011546 
2327	 0.103378648183644 
2328	 0.103423629870264 
2329	 0.103533397011882 
2330	 0.103584185914224 
2331	 0.103613297326231 
2332	 0.103634525574538 
2333	 0.103632459891483 
2334	 0.103642576277809 
2335	 0.103631356857214 
2336	 0.103615091118706 
2337	 0.103603338498116 
2338	 0.103562454205913 
2339	 0.103565836561038 
2340	 0.103644019319067 
2341	 0.103653741996962 
2342	 0.1036238277626 
2343	 0.10362740413566 
2344	 0.103639230751486 
2345	 0.103664562105356 
2346	 0.103748327588821 
2347	 0.103756924513554 
2348	 0.10372412912656 
2349	 0.103703694049054 
2350	 0.1036390152837 
2351	 0.103630536992352 
2352	 0.103675425200341 
2353	 0.103678681942026 
2354	 0.10367602545102 
2355	 0.10366676999832 
2356	 0.103637838541551 
2357	 0.103618366003403 
2358	 0.103618440061095 
2359	 0.103589027490502 
2360	 0.103511076094305 
2361	 0.103475763187297 
2362	 0.103454427027283 
2363	 0.103439286000411 
2364	 0.10347918532396 
2365	 0.10347489158435 
2366	 0.103425245561595 
2367	 0.103385190618306 
2368	 0.10332049396849 
2369	 0.103295414338502 
2370	 0.103276482897201 
2371	 0.103303447526836 
2372	 0.103362168569436 
2373	 0.103381768746193 
2374	 0.103394567477388 
2375	 0.103400301749566 
2376	 0.10332520772701 
2377	 0.103252575963111 
2378	 0.103179495535595 
2379	 0.103056815187407 
2380	 0.103021951679265 
2381	 0.102979572802532 
2382	 0.102922450370285 
2383	 0.102939806575635 
2384	 0.102894607187003 
2385	 0.102859953304043 
2386	 0.102841208883692 
2387	 0.102768146177502 
2388	 0.102782293495411 
2389	 0.102778322377746 
2390	 0.102730456078653 
2391	 0.102764524602879 
2392	 0.10279644914285 
2393	 0.102803520842099 
2394	 0.102749386369508 
2395	 0.102678187717562 
2396	 0.102606884296935 
2397	 0.102486753023667 
2398	 0.102428645126621 
2399	 0.102406047102251 
2400	 0.102349362108059 
2401	 0.102254455253963 
2402	 0.102204846715596 
2403	 0.102228085372704 
2404	 0.102180776347823 
2405	 0.102174794818739 
2406	 0.102213936950843 
2407	 0.10215430585267 
2408	 0.102145813322663 
2409	 0.102116194861492 
2410	 0.102083632587002 
2411	 0.10210451538681 
2412	 0.102028022479926 
2413	 0.10199337094141 
2414	 0.101978664647752 
2415	 0.101988482168591 
2416	 0.101945964748391 
2417	 0.101907297656002 
2418	 0.101820354418233 
2419	 0.101628943420712 
2420	 0.101514548166018 
2421	 0.10142425284311 
2422	 0.101389116369341 
2423	 0.101418544164096 
2424	 0.101410525969528 
2425	 0.101428118431971 
2426	 0.101413712895114 
2427	 0.101363271756281 
2428	 0.101336938923748 
2429	 0.101338697370732 
2430	 0.101272964253257 
2431	 0.101151575921018 
2432	 0.101097324355747 
2433	 0.101051076715711 
2434	 0.101022599543984 
2435	 0.101037158646178 
2436	 0.101008142423409 
2437	 0.100909477436112 
2438	 0.100853007961794 
2439	 0.100880237534225 
2440	 0.1008533477733 
2441	 0.100846900041612 
2442	 0.100814772730194 
2443	 0.100696924394166 
2444	 0.100580794389847 
2445	 0.100376749939385 
2446	 0.100275169326164 
2447	 0.100290322288329 
2448	 0.100269190516777 
2449	 0.100303360493894 
2450	 0.100265979633137 
2451	 0.100125687524388 
2452	 0.100015155947271 
2453	 0.099939843786882 
2454	 9.99192785508128E-02 
2455	 9.98751585020337E-02 
2456	 9.98587596964861E-02 
2457	 9.99461761646536E-02 
2458	 9.98836104328534E-02 
2459	 9.97707135418154E-02 
2460	 9.96446227759169E-02 
2461	 9.93501665318389E-02 
2462	 9.93072456359973E-02 
2463	 9.94073446672256E-02 
2464	 9.94088518594389E-02 
2465	 9.95425200813105E-02 
2466	 9.94936835228735E-02 
2467	 9.92617122626109E-02 
2468	 9.91572444526542E-02 
2469	 9.90975319197705E-02 
2470	 9.90900707569968E-02 
2471	 9.89957686694036E-02 
2472	 9.90804790184624E-02 
2473	 9.89782491928607E-02 
2474	 9.88262234573025E-02 
2475	 9.88371531154354E-02 
2476	 9.86843045684669E-02 
2477	 9.86520227320987E-02 
2478	 0.098744972952661 
2479	 9.86773936430245E-02 
2480	 9.85714105677773E-02 
2481	 9.85061965166554E-02 
2482	 9.84778567976455E-02 
2483	 9.84803788957798E-02 
2484	 9.84016923242726E-02 
2485	 9.82266022983409E-02 
2486	 9.81991693155101E-02 
2487	 9.81250123762594E-02 
2488	 9.79528952566354E-02 
2489	 9.81139134725944E-02 
2490	 9.81008237444813E-02 
2491	 9.78055768578483E-02 
2492	 9.79473089106145E-02 
2493	 9.80284676306828E-02 
2494	 9.79166367275126E-02 
2495	 0.098087684465708 
2496	 9.81911339579195E-02 
2497	 9.82303362853479E-02 
2498	 9.82946183232952E-02 
2499	 9.81333571354248E-02 
2500	 9.78334191307314E-02 
