Wavelength	LMW_2000005.asd
350	 4.43479652156714E-02 
351	 4.83202037348494E-02 
352	 3.98017388992739E-02 
353	 2.67969310006665E-02 
354	 3.26361234183865E-02 
355	 4.19385587013993E-02 
356	 4.64784221954462E-02 
357	 4.41154735647917E-02 
358	 4.77852321584267E-02 
359	 4.44785306550935E-02 
360	 3.79448536229819E-02 
361	 4.13447946173699E-02 
362	 4.15000953910002E-02 
363	 4.28733751491757E-02 
364	 4.51458823338128E-02 
365	 3.64439660930993E-02 
366	 3.71799882194857E-02 
367	 4.29239598271168E-02 
368	 4.48898719554873E-02 
369	 4.71123770924554E-02 
370	 4.84154343647031E-02 
371	 4.94367918998006E-02 
372	 5.16264137794815E-02 
373	 4.97748679751242E-02 
374	 4.74112853940152E-02 
375	 4.70603290477151E-02 
376	 4.75923794252577E-02 
377	 4.90533821767129E-02 
378	 5.11448049534871E-02 
379	 5.32893867143695E-02 
380	 5.44078284416118E-02 
381	 5.38670821624619E-02 
382	 5.31885592113148E-02 
383	 0.055136757977036 
384	 5.74195807159961E-02 
385	 5.73627625070191E-02 
386	 0.055677302657264 
387	 5.98099712698555E-02 
388	 6.06569814758895E-02 
389	 5.97278169666461E-02 
390	 0.060816223988916 
391	 6.09687227904775E-02 
392	 6.25374676844578E-02 
393	 6.47190493595557E-02 
394	 6.43390508978013E-02 
395	 6.68731218598806E-02 
396	 6.88906215307699E-02 
397	 6.85701230914735E-02 
398	 7.07131117440463E-02 
399	 7.23062204891313E-02 
400	 7.31888331537563E-02 
401	 7.41261911432084E-02 
402	 7.48685313198907E-02 
403	 7.61957351079613E-02 
404	 7.72438139020052E-02 
405	 7.56797610082213E-02 
406	 7.70691059843755E-02 
407	 0.079525596828908 
408	 8.06254898660208E-02 
409	 8.04910501515198E-02 
410	 8.01280770243822E-02 
411	 8.04301956215076E-02 
412	 8.18246784863748E-02 
413	 0.08229709644976 
414	 0.082267323199801 
415	 8.23175184983018E-02 
416	 8.29123215806432E-02 
417	 8.34305701576833E-02 
418	 8.37445003932123E-02 
419	 8.39204957708934E-02 
420	 0.084321483072946 
421	 8.37485390187227E-02 
422	 8.31070383083703E-02 
423	 0.084269179128525 
424	 8.40233345228186E-02 
425	 8.31138792002956E-02 
426	 8.24725924120394E-02 
427	 8.24348335366364E-02 
428	 8.21749873746574E-02 
429	 8.15810379210304E-02 
430	 8.09462057039674E-02 
431	 8.13715772182702E-02 
432	 8.08782364398912E-02 
433	 7.97843722615408E-02 
434	 8.05655239958114E-02 
435	 8.05158888628601E-02 
436	 0.080401922729174 
437	 8.09135339450627E-02 
438	 8.06530192404696E-02 
439	 8.09506719901791E-02 
440	 8.18658584847441E-02 
441	 8.27684488355092E-02 
442	 8.30952052376089E-02 
443	 8.34574287450025E-02 
444	 8.41441335585481E-02 
445	 8.47852319319406E-02 
446	 8.54629159885169E-02 
447	 8.59944404614904E-02 
448	 8.62614793218442E-02 
449	 0.08665501200218 
450	 8.72583384182658E-02 
451	 8.79666514646678E-02 
452	 8.85354675905261E-02 
453	 8.89853488839804E-02 
454	 8.93233660082005E-02 
455	 8.96184947426723E-02 
456	 9.01011137925687E-02 
457	 9.04631877906844E-02 
458	 9.06359572817956E-02 
459	 9.07026412611987E-02 
460	 9.09585669865435E-02 
461	 9.11697736088968E-02 
462	 9.12933501516753E-02 
463	 9.16241563444959E-02 
464	 9.17969951830128E-02 
465	 0.091920590902071 
466	 9.21688939904732E-02 
467	 9.24366926449655E-02 
468	 9.26031915285979E-02 
469	 9.26823192609556E-02 
470	 9.27991631796484E-02 
471	 9.30382417619642E-02 
472	 9.30837580137471E-02 
473	 9.28983560442043E-02 
474	 9.32770353962459E-02 
475	 9.35762478526597E-02 
476	 9.36017168798992E-02 
477	 9.34069501872578E-02 
478	 9.32647945280995E-02 
479	 9.33464474252342E-02 
480	 9.35878807524454E-02 
481	 9.36245109382103E-02 
482	 9.39324171902486E-02 
483	 9.42443228300344E-02 
484	 0.094227156167707 
485	 9.41304214915123E-02 
486	 9.40768850546897E-02 
487	 9.40875148823726E-02 
488	 9.41037206471129E-02 
489	 0.09422347950703 
490	 0.094370686354807 
491	 9.44685444802167E-02 
492	 9.45251049656372E-02 
493	 9.44154481882996E-02 
494	 9.43210657929335E-02 
495	 9.44923918764064E-02 
496	 9.44784710057041E-02 
497	 0.094554577047857 
498	 9.47746071376948E-02 
499	 9.47687290989462E-02 
500	 0.094656196187431 
501	 9.45747293652123E-02 
502	 9.46246214570385E-02 
503	 9.46915009397697E-02 
504	 9.47875418944179E-02 
505	 9.48412019529219E-02 
506	 9.47186272163274E-02 
507	 0.094679001353519 
508	 9.47937349843757E-02 
509	 9.49874430849804E-02 
510	 9.48922125376341E-02 
511	 0.094925308144546 
512	 9.50419807496667E-02 
513	 9.49797354255525E-02 
514	 9.49032644061718E-02 
515	 9.49218749090277E-02 
516	 9.50511728630904E-02 
517	 9.51753363255335E-02 
518	 9.52081520785436E-02 
519	 9.51768101779527E-02 
520	 9.51509918557078E-02 
521	 9.51644384805727E-02 
522	 9.51803217138514E-02 
523	 9.51544445278657E-02 
524	 9.50435342247755E-02 
525	 9.50458170189389E-02 
526	 9.51009506346071E-02 
527	 9.51227612038709E-02 
528	 9.51518381682315E-02 
529	 0.095139452486394 
530	 9.51144708111439E-02 
531	 9.51503129890209E-02 
532	 9.52042477401942E-02 
533	 9.52392415234522E-02 
534	 9.52542980844261E-02 
535	 9.53201023478884E-02 
536	 0.095420212862971 
537	 9.54424236498781E-02 
538	 9.53034071416284E-02 
539	 0.095383624879699 
540	 9.54373803965652E-02 
541	 9.54125620569504E-02 
542	 9.55839607337086E-02 
543	 9.55610107718032E-02 
544	 0.095455127971054 
545	 9.54649391266526E-02 
546	 9.55573828123171E-02 
547	 9.55668300009892E-02 
548	 9.55087284034186E-02 
549	 9.55484137356893E-02 
550	 9.56108054506792E-02 
551	 9.56773142863156E-02 
552	 9.57438150976199E-02 
553	 9.58241912642726E-02 
554	 9.58717423038566E-02 
555	 9.59151583954526E-02 
556	 9.60149854817171E-02 
557	 9.61241915603938E-02 
558	 9.62300334877429E-02 
559	 9.63428343967752E-02 
560	 9.65120562883187E-02 
561	 9.66304343203526E-02 
562	 0.096696930335293 
563	 9.67606566558424E-02 
564	 9.69167570394035E-02 
565	 9.70251074196275E-02 
566	 9.70406174216304E-02 
567	 9.70404812359498E-02 
568	 9.71744834826078E-02 
569	 9.73769923303862E-02 
570	 9.75674632051251E-02 
571	 9.78269718319568E-02 
572	 9.80546205815431E-02 
573	 9.82478417859381E-02 
574	 9.84703802229801E-02 
575	 9.86527995663085E-02 
576	 9.88743575687923E-02 
577	 9.91411645748357E-02 
578	 9.92428222417487E-02 
579	 9.93371088141235E-02 
580	 9.94474214245419E-02 
581	 9.95497704047332E-02 
582	 9.96896194160826E-02 
583	 9.98635371232529E-02 
584	 0.100051551458539 
585	 0.100216365980794 
586	 0.100434570481055 
587	 0.100691535850924 
588	 0.100939256618106 
589	 0.10111533605973 
590	 0.101317410272978 
591	 0.101583400375833 
592	 0.101886986203372 
593	 0.102125264450325 
594	 0.102372784591135 
595	 0.102664516664766 
596	 0.102825666681471 
597	 0.102989070957631 
598	 0.10313444187246 
599	 0.103184358620275 
600	 0.103334928262483 
601	 0.103457734007257 
602	 0.103494277050996 
603	 0.103576939685914 
604	 0.103673078406703 
605	 0.103797775933228 
606	 0.103961947631798 
607	 0.104089198982881 
608	 0.104185278319677 
609	 0.104301908679772 
610	 0.104531999640086 
611	 0.104628280341944 
612	 0.104681733164848 
613	 0.104795830787219 
614	 0.104816873957611 
615	 0.104819956731395 
616	 0.104835723292295 
617	 0.104866687178569 
618	 0.104992434658527 
619	 0.105063162788067 
620	 0.105019105481607 
621	 0.105065026045601 
622	 0.105106495505048 
623	 0.105125219833315 
624	 0.10513607189159 
625	 0.105195690519259 
626	 0.105207131064251 
627	 0.105176286445317 
628	 0.105259800195985 
629	 0.105265518018438 
630	 0.105256248797075 
631	 0.105311427809323 
632	 0.105286451418566 
633	 0.105277634522225 
634	 0.105308111892157 
635	 0.105336908445667 
636	 0.105364482455746 
637	 0.105374352965945 
638	 0.105365498729065 
639	 0.105380199997172 
640	 0.105379373484213 
641	 0.105368495490763 
642	 0.105370163924097 
643	 0.105366198658678 
644	 0.105372113223563 
645	 0.105399414332842 
646	 0.105451305451986 
647	 0.105468450465719 
648	 0.105462899675682 
649	 0.105457820368228 
650	 0.105410242481386 
651	 0.105430792836881 
652	 0.105492828424264 
653	 0.105458170051519 
654	 0.105472735436052 
655	 0.105451493048394 
656	 0.105360280121464 
657	 0.105395380741413 
658	 0.105458522508081 
659	 0.105497405036171 
660	 0.105486162426317 
661	 0.105440640820014 
662	 0.10546881822076 
663	 0.105562497751936 
664	 0.105534459618807 
665	 0.105565405880521 
666	 0.105605065612139 
667	 0.105579520299259 
668	 0.105599364349243 
669	 0.10562222635535 
670	 0.105638238865872 
671	 0.105665752366529 
672	 0.105674149299039 
673	 0.105700590188645 
674	 0.105762932622423 
675	 0.105808945291703 
676	 0.105845403463675 
677	 0.105869913919892 
678	 0.10588003603723 
679	 0.105880020584212 
680	 0.10592398887816 
681	 0.106002712542709 
682	 0.106021362515639 
683	 0.10605294877282 
684	 0.106092615514285 
685	 0.106124748504163 
686	 0.106166331592595 
687	 0.106232326535777 
688	 0.106304906672133 
689	 0.106342412386742 
690	 0.106309450234531 
691	 0.106315598611909 
692	 0.106405429988026 
693	 0.106456504421489 
694	 0.106495164468984 
695	 0.106522313672408 
696	 0.10654105656678 
697	 0.106596929953602 
698	 0.106634456838262 
699	 0.106647419694449 
700	 0.106686171085786 
701	 0.106738329491444 
702	 0.106772234273743 
703	 0.106776423521068 
704	 0.106808469944319 
705	 0.106833441021496 
706	 0.106853805446781 
707	 0.106888763505983 
708	 0.106923224383806 
709	 0.106979594358061 
710	 0.107041984871862 
711	 0.10703347092202 
712	 0.107071944282334 
713	 0.107105180810836 
714	 0.10708073078385 
715	 0.10714114967646 
716	 0.107160207642842 
717	 0.107123463567483 
718	 0.107102694452162 
719	 0.107114521457204 
720	 0.107126585476375 
721	 0.107128403239918 
722	 0.107171256852107 
723	 0.107181297125224 
724	 0.107189307891893 
725	 0.107236038985166 
726	 0.107219535242707 
727	 0.107205687568187 
728	 0.107201876353339 
729	 0.107159264160548 
730	 0.107167797616754 
731	 0.107181168908942 
732	 0.107160017370097 
733	 0.10713948778288 
734	 0.107139190733574 
735	 0.107129225342141 
736	 0.107075962328907 
737	 0.107067514591151 
738	 0.107044688136396 
739	 0.107006240364516 
740	 0.107021736614548 
741	 0.106992257584909 
742	 0.106935445157121 
743	 0.106887158917627 
744	 0.106862125458622 
745	 0.106824643665652 
746	 0.106782697176195 
747	 0.106756680948436 
748	 0.106691588089885 
749	 0.106631050136035 
750	 0.1065933461137 
751	 0.1065555055553 
752	 0.106511287211346 
753	 0.106450488018648 
754	 0.106374580018437 
755	 0.106315158091777 
756	 0.106278356131597 
757	 0.106246502420571 
758	 0.106193285394383 
759	 0.106136478082335 
760	 0.106063849312756 
761	 0.105981324355154 
762	 0.105919438292954 
763	 0.105840580875781 
764	 0.105773857001046 
765	 0.105733809668799 
766	 0.105642799213805 
767	 0.105575670486921 
768	 0.10552508906474 
769	 0.105447001370231 
770	 0.105362151909351 
771	 0.105278448445744 
772	 0.105207576564768 
773	 0.105165233549788 
774	 0.105104576518049 
775	 0.105019904303276 
776	 0.104924677469926 
777	 0.104860042595759 
778	 0.104739916464383 
779	 0.104626105026968 
780	 0.104616361862766 
781	 0.104575866675902 
782	 0.104493735600433 
783	 0.104379065346911 
784	 0.104254173315056 
785	 0.104171609723995 
786	 0.10411375557603 
787	 0.104048148202463 
788	 0.103939199089967 
789	 0.103873565043677 
790	 0.103814076207037 
791	 0.10370525234941 
792	 0.103668882060311 
793	 0.103593605797049 
794	 0.103476211197657 
795	 0.103408858629125 
796	 0.103309589355266 
797	 0.103223282072398 
798	 0.103170556154209 
799	 0.103092469393541 
800	 0.103032116030454 
801	 0.102953866312284 
802	 0.102833771575648 
803	 0.102783869775399 
804	 0.102734157428311 
805	 0.102652699053044 
806	 0.102544171457522 
807	 0.102475094876559 
808	 0.102393808428721 
809	 0.102293810344443 
810	 0.102242164750187 
811	 0.102194742787979 
812	 0.102133820778142 
813	 0.10205320743913 
814	 0.101958214382361 
815	 0.101873621078916 
816	 0.101798005149507 
817	 0.101727940147071 
818	 0.101726651107155 
819	 0.10165608433601 
820	 0.101525174088432 
821	 0.101466630880674 
822	 0.101389863675245 
823	 0.101327936304261 
824	 0.101292398500506 
825	 0.10123229542452 
826	 0.101178406317213 
827	 0.101112208306258 
828	 0.101028063992749 
829	 0.10100828471187 
830	 0.1009279963983 
831	 0.100820421058277 
832	 0.100780435245167 
833	 0.100755577126196 
834	 0.100694935595441 
835	 0.100608233921237 
836	 0.100561100632074 
837	 0.100569959411979 
838	 0.100557922747284 
839	 0.100476650308198 
840	 0.100351841955239 
841	 0.100282508220614 
842	 0.100277459497792 
843	 0.100293971241887 
844	 0.100226059259863 
845	 0.100193240407183 
846	 0.100163569134877 
847	 0.100063352606609 
848	 0.100017216424871 
849	 9.99663927658586E-02 
850	 9.99022661098644E-02 
851	 9.98635846720363E-02 
852	 9.98143615578158E-02 
853	 9.97759908544787E-02 
854	 9.97585463661081E-02 
855	 9.97444515829045E-02 
856	 9.97076419589568E-02 
857	 9.97024378741404E-02 
858	 9.97393313531339E-02 
859	 9.96651690204623E-02 
860	 9.96079555239732E-02 
861	 9.95762253078614E-02 
862	 9.95343645273803E-02 
863	 9.94509651327889E-02 
864	 9.94049120321249E-02 
865	 9.93964858152614E-02 
866	 9.93757835612612E-02 
867	 0.099335691664754 
868	 9.93139637020092E-02 
869	 9.93069572524823E-02 
870	 9.92704535404579E-02 
871	 0.099267116848397 
872	 9.92567725074527E-02 
873	 9.92261847048095E-02 
874	 0.099231076070364 
875	 0.099221642579068 
876	 9.91837342300981E-02 
877	 9.91240859491918E-02 
878	 9.90709103065133E-02 
879	 9.90833273837699E-02 
880	 9.91038839674116E-02 
881	 0.099070989625955 
882	 9.91040434646251E-02 
883	 9.90578147329032E-02 
884	 9.90010367417452E-02 
885	 9.90751421019385E-02 
886	 9.90670711187584E-02 
887	 9.90393493588766E-02 
888	 9.90236393014084E-02 
889	 9.90130772007979E-02 
890	 9.90759080592565E-02 
891	 9.90469521710437E-02 
892	 9.89361332608933E-02 
893	 9.89869614318978E-02 
894	 9.89691776947261E-02 
895	 0.098938683457735 
896	 0.098946614803878 
897	 9.89357095742597E-02 
898	 9.89459066039052E-02 
899	 9.89741785441021E-02 
900	 0.099000631065712 
901	 9.89928512312262E-02 
902	 9.89654120813285E-02 
903	 0.098978832186832 
904	 9.90609172533982E-02 
905	 9.90680902710531E-02 
906	 9.90535078229755E-02 
907	 9.90274848472064E-02 
908	 9.89963181057031E-02 
909	 9.90563044065934E-02 
910	 9.90758092693333E-02 
911	 9.90882708293102E-02 
912	 9.91950906709197E-02 
913	 9.91104186511175E-02 
914	 9.91048926656198E-02 
915	 9.91942302625764E-02 
916	 9.91545652752028E-02 
917	 9.91554731886792E-02 
918	 9.91801383965281E-02 
919	 9.92039936986667E-02 
920	 9.92204781552366E-02 
921	 9.92268323796254E-02 
922	 9.92350866668241E-02 
923	 9.92516397987098E-02 
924	 9.92720523020275E-02 
925	 9.93660308083332E-02 
926	 9.94340575406782E-02 
927	 9.94021533916111E-02 
928	 9.93104017646006E-02 
929	 9.93620353390101E-02 
930	 9.94323831716591E-02 
931	 9.94138611670596E-02 
932	 0.099446365112185 
933	 9.95057324106142E-02 
934	 9.95496303668631E-02 
935	 9.95600401116373E-02 
936	 0.0996153968796 
937	 9.95992229844986E-02 
938	 9.95796534945455E-02 
939	 9.96510704801491E-02 
940	 9.97810241578817E-02 
941	 9.98078382945662E-02 
942	 9.98396253736512E-02 
943	 9.99849654123092E-02 
944	 0.09988862867554 
945	 9.98934125608457E-02 
946	 9.99356020533881E-02 
947	 0.099856297642201 
948	 9.99880652017081E-02 
949	 0.10011463033552 
950	 0.100148169923448 
951	 0.100109274754757 
952	 0.100112172391993 
953	 0.100128826649099 
954	 0.100146484443333 
955	 0.100172024068212 
956	 0.1002526619045 
957	 0.100299593240775 
958	 0.100330351813538 
959	 0.100413494198611 
960	 0.100484391046697 
961	 0.100525971346463 
962	 0.100543371907214 
963	 0.100553523436497 
964	 0.100554356999844 
965	 0.100526619715762 
966	 0.100547038595962 
967	 0.100712332011102 
968	 0.10087305896427 
969	 0.100923633598787 
970	 0.100819085277199 
971	 0.10062954817253 
972	 0.100790541196437 
973	 0.100860329912405 
974	 0.10082621829637 
975	 0.100947004417059 
976	 0.100972081036614 
977	 0.100992719781649 
978	 0.100997806642774 
979	 0.10093575365595 
980	 0.10098925494955 
981	 0.101069993250867 
982	 0.101139978680432 
983	 0.101202784971762 
984	 0.101227330650746 
985	 0.101352716793937 
986	 0.101429545819571 
987	 0.101260572592037 
988	 0.101254814840817 
989	 0.10134498134031 
990	 0.101468533083599 
991	 0.101562562233409 
992	 0.101529235553035 
993	 0.101438104018978 
994	 0.101481918098479 
995	 0.101728169710747 
996	 0.101584351981537 
997	 0.10158043569168 
998	 0.101676579154755 
999	 0.101696758281252 
1000	 0.101911026591469 
1001	 9.98763585770051E-02 
1002	 9.99141421309832E-02 
1003	 0.099958653837051 
1004	 0.099976183136955 
1005	 0.100050953213814 
1006	 0.100080599582225 
1007	 0.1000689052746 
1008	 9.99864431679258E-02 
1009	 0.100014861388301 
1010	 0.100053173981125 
1011	 0.100038346905751 
1012	 0.100053573094638 
1013	 0.100095320459257 
1014	 0.100086726453406 
1015	 0.100085983854148 
1016	 0.100133494512253 
1017	 0.100141534389309 
1018	 0.100105303947977 
1019	 0.100053632215195 
1020	 0.100043156676293 
1021	 0.100066843859556 
1022	 0.100096294181062 
1023	 0.10012682750258 
1024	 0.100164116760212 
1025	 0.100178459850825 
1026	 0.100216800745556 
1027	 0.100191097266223 
1028	 0.100133987285341 
1029	 0.100170371728258 
1030	 0.100127003415999 
1031	 0.100107685546349 
1032	 0.100116980041432 
1033	 0.100219325594027 
1034	 0.100167326893759 
1035	 0.100085310782672 
1036	 0.100057783819419 
1037	 9.99868438520789E-02 
1038	 9.99524662265099E-02 
1039	 9.99785332724705E-02 
1040	 9.99815851092424E-02 
1041	 9.99944996943049E-02 
1042	 9.99948317403597E-02 
1043	 9.99711762156213E-02 
1044	 9.99773262945333E-02 
1045	 0.100009064879867 
1046	 0.100006529098979 
1047	 9.99783433393216E-02 
1048	 9.99927724961517E-02 
1049	 9.99830224482027E-02 
1050	 9.99614835125005E-02 
1051	 9.99680495265348E-02 
1052	 0.099964750476587 
1053	 9.99671945923542E-02 
1054	 9.99731204826587E-02 
1055	 0.100025024088168 
1056	 0.100071875707509 
1057	 0.100082324147226 
1058	 0.10005960658156 
1059	 0.100075397891443 
1060	 0.100079592476389 
1061	 0.100082467455087 
1062	 0.100135873530599 
1063	 0.100161494008851 
1064	 0.100153165613301 
1065	 0.100156016199981 
1066	 0.100138750363688 
1067	 0.10013953877243 
1068	 0.100161413597438 
1069	 0.100176356446107 
1070	 0.100186568358546 
1071	 0.10021012802526 
1072	 0.100222707015248 
1073	 0.100224985800638 
1074	 0.100209931884979 
1075	 0.100181677171648 
1076	 0.100178362348283 
1077	 0.100147508003344 
1078	 0.100101682654218 
1079	 0.10009945668365 
1080	 0.10012194882898 
1081	 0.100136035171843 
1082	 0.100147398053503 
1083	 0.100157386507466 
1084	 0.100181243178028 
1085	 0.100158651841705 
1086	 0.100091922698698 
1087	 0.100080901973953 
1088	 0.10008163759363 
1089	 0.100062577390803 
1090	 0.100069528254294 
1091	 0.100074219855907 
1092	 0.100041352939366 
1093	 9.99944757144045E-02 
1094	 9.99480791083623E-02 
1095	 9.99363292368289E-02 
1096	 9.99304225241146E-02 
1097	 9.99439270725783E-02 
1098	 9.99451109236649E-02 
1099	 9.99617223608407E-02 
1100	 9.99458462049039E-02 
1101	 0.09990044680098 
1102	 9.98721633944177E-02 
1103	 9.98418048322057E-02 
1104	 9.98182864070973E-02 
1105	 0.09977290796436 
1106	 9.97540549860853E-02 
1107	 9.97340215932392E-02 
1108	 9.97198569123013E-02 
1109	 0.099730730850698 
1110	 9.97224992793202E-02 
1111	 9.97029642674307E-02 
1112	 9.96585826671803E-02 
1113	 9.96357896109338E-02 
1114	 9.96260215026663E-02 
1115	 9.95970942406716E-02 
1116	 9.95378301093191E-02 
1117	 9.95183584971933E-02 
1118	 9.95042202878642E-02 
1119	 9.95038113756634E-02 
1120	 0.099516106580196 
1121	 9.95710911795777E-02 
1122	 9.95929690518526E-02 
1123	 9.95735183531783E-02 
1124	 9.95782481791019E-02 
1125	 9.95958327805683E-02 
1126	 9.95796954110236E-02 
1127	 9.95501488012936E-02 
1128	 0.099530826996983 
1129	 9.94690172978538E-02 
1130	 9.94592664298002E-02 
1131	 9.94983990100156E-02 
1132	 0.099505932378078 
1133	 0.099534494981217 
1134	 9.95426725615487E-02 
1135	 9.95285447570465E-02 
1136	 9.95037244801942E-02 
1137	 9.95067821867548E-02 
1138	 9.94646133412395E-02 
1139	 9.94323198240445E-02 
1140	 9.93903293016958E-02 
1141	 9.93712436945362E-02 
1142	 0.099354250034544 
1143	 9.93371880786262E-02 
1144	 9.93436163451917E-02 
1145	 0.0993260472877 
1146	 9.92853841417794E-02 
1147	 9.92618099140731E-02 
1148	 0.099236224260159 
1149	 9.92164862423372E-02 
1150	 9.92112492494979E-02 
1151	 9.91984752491765E-02 
1152	 9.91701397945284E-02 
1153	 9.91584716327422E-02 
1154	 9.91298090464705E-02 
1155	 0.099085373487006 
1156	 9.90521887233014E-02 
1157	 9.90136521055537E-02 
1158	 9.89856267718281E-02 
1159	 9.89763466223189E-02 
1160	 9.89474412176987E-02 
1161	 9.89089605553729E-02 
1162	 9.88782224175161E-02 
1163	 9.88225869609528E-02 
1164	 9.87985726447801E-02 
1165	 9.87967448836306E-02 
1166	 9.88106052150177E-02 
1167	 9.88076342904566E-02 
1168	 9.87876560251224E-02 
1169	 9.87677876876066E-02 
1170	 9.87209269780485E-02 
1171	 9.87009577691948E-02 
1172	 9.86937350683374E-02 
1173	 9.86865439446243E-02 
1174	 9.87005764196649E-02 
1175	 9.86801682862089E-02 
1176	 9.86398292093065E-02 
1177	 9.86123154543987E-02 
1178	 9.85591460521924E-02 
1179	 9.85299425056781E-02 
1180	 9.85295422782122E-02 
1181	 0.098519001288436 
1182	 9.85158278712769E-02 
1183	 0.098499811879839 
1184	 9.84865702269967E-02 
1185	 9.84672820238936E-02 
1186	 9.84607395597289E-02 
1187	 9.84547738842007E-02 
1188	 9.84568970210732E-02 
1189	 9.84827101092262E-02 
1190	 9.84770335002647E-02 
1191	 0.098456769825586 
1192	 9.84440520398891E-02 
1193	 9.84173565081904E-02 
1194	 9.83965707586158E-02 
1195	 9.83846355483896E-02 
1196	 9.83704871374802E-02 
1197	 0.098345795651193 
1198	 9.83318798986787E-02 
1199	 9.83235504058254E-02 
1200	 9.83231424053312E-02 
1201	 9.83197353197204E-02 
1202	 9.83223036648156E-02 
1203	 9.83189769390661E-02 
1204	 9.83151263775771E-02 
1205	 9.83086956806248E-02 
1206	 9.82922405693195E-02 
1207	 9.82907977250241E-02 
1208	 9.83053433074957E-02 
1209	 0.098299353411054 
1210	 0.098288976440216 
1211	 9.82818790192166E-02 
1212	 9.82552132011686E-02 
1213	 0.098242474191084 
1214	 9.82486812560568E-02 
1215	 9.82474993322248E-02 
1216	 9.82451288426388E-02 
1217	 9.82471496376744E-02 
1218	 9.82314942395692E-02 
1219	 9.82012147217034E-02 
1220	 9.81867334536158E-02 
1221	 9.81672324725472E-02 
1222	 9.81521775490392E-02 
1223	 9.81541544569133E-02 
1224	 9.81412817353463E-02 
1225	 9.81118181684015E-02 
1226	 0.09809644592631 
1227	 9.80948651294353E-02 
1228	 9.80761431497757E-02 
1229	 0.098041202205973 
1230	 9.80257418241924E-02 
1231	 9.80096613193856E-02 
1232	 9.79956113632637E-02 
1233	 9.79890361924697E-02 
1234	 9.80116377459754E-02 
1235	 9.79977098163758E-02 
1236	 9.79648141010463E-02 
1237	 9.79414334481298E-02 
1238	 9.79043659481658E-02 
1239	 9.78824258590461E-02 
1240	 9.78676695714622E-02 
1241	 9.78559239706447E-02 
1242	 9.78597364764292E-02 
1243	 9.78459432896533E-02 
1244	 9.78268364941122E-02 
1245	 9.78070509693658E-02 
1246	 9.77717543570424E-02 
1247	 9.77455357008011E-02 
1248	 9.77135770735874E-02 
1249	 9.77068722922396E-02 
1250	 9.76929884759537E-02 
1251	 9.76748681233208E-02 
1252	 9.76649791440642E-02 
1253	 9.76685029367469E-02 
1254	 9.76469212422787E-02 
1255	 9.76173858098226E-02 
1256	 9.75908987624938E-02 
1257	 9.75437139216811E-02 
1258	 9.75153767383262E-02 
1259	 9.75088027643366E-02 
1260	 9.74837253286046E-02 
1261	 9.74499680548876E-02 
1262	 9.74222654380126E-02 
1263	 9.73927852680441E-02 
1264	 9.73574577431743E-02 
1265	 9.73278070998304E-02 
1266	 9.72915177805902E-02 
1267	 9.72323109486478E-02 
1268	 9.71881209579772E-02 
1269	 9.71631865119967E-02 
1270	 9.71508062954247E-02 
1271	 9.71295970134167E-02 
1272	 9.71271240987894E-02 
1273	 9.71088347403412E-02 
1274	 9.70713359978673E-02 
1275	 9.70521338077588E-02 
1276	 9.70433363818251E-02 
1277	 0.09702995763997 
1278	 9.70110989251216E-02 
1279	 9.70065325607323E-02 
1280	 9.70126652281456E-02 
1281	 9.70156985815777E-02 
1282	 9.70207883982427E-02 
1283	 9.70358561617021E-02 
1284	 9.70596736102988E-02 
1285	 9.70714683836721E-02 
1286	 9.71055603252203E-02 
1287	 9.71430423137888E-02 
1288	 0.097171850942228 
1289	 0.097201953294187 
1290	 9.72222946379467E-02 
1291	 9.72276175821016E-02 
1292	 9.72540568843876E-02 
1293	 9.72896563968934E-02 
1294	 9.73084211415391E-02 
1295	 9.73316895728849E-02 
1296	 0.097351959156349 
1297	 9.73607530755107E-02 
1298	 9.73687419620471E-02 
1299	 9.73897802734436E-02 
1300	 9.73885855717933E-02 
1301	 9.73532301253893E-02 
1302	 9.73401230492441E-02 
1303	 9.73214318465636E-02 
1304	 9.73238530326388E-02 
1305	 9.73419533121797E-02 
1306	 9.73393179238405E-02 
1307	 9.73210025676073E-02 
1308	 9.72920104560245E-02 
1309	 9.72628792641716E-02 
1310	 9.72252883719049E-02 
1311	 9.71844831721591E-02 
1312	 9.71352907283985E-02 
1313	 9.70948472691491E-02 
1314	 9.70466531430413E-02 
1315	 9.70067594902629E-02 
1316	 9.69817973439903E-02 
1317	 9.69494786692633E-02 
1318	 9.69115971102214E-02 
1319	 9.68813269809479E-02 
1320	 9.68600895097958E-02 
1321	 9.68281502524546E-02 
1322	 0.096798863796514 
1323	 9.67603877735842E-02 
1324	 9.67011233350867E-02 
1325	 0.096656248298396 
1326	 9.66255859009637E-02 
1327	 9.65726590557967E-02 
1328	 9.65427481869944E-02 
1329	 9.65236176319605E-02 
1330	 9.64865451489424E-02 
1331	 9.64450541185615E-02 
1332	 9.64067711855261E-02 
1333	 0.096353834251769 
1334	 9.63148459390593E-02 
1335	 9.62856351206769E-02 
1336	 9.62542829572491E-02 
1337	 9.62287709534501E-02 
1338	 9.61973903505681E-02 
1339	 9.61627398565885E-02 
1340	 9.61342924286789E-02 
1341	 9.61077322911846E-02 
1342	 9.60792490933294E-02 
1343	 9.60651025717873E-02 
1344	 9.60225984114878E-02 
1345	 9.59758027975745E-02 
1346	 9.59499668892654E-02 
1347	 9.59219605389279E-02 
1348	 0.095895096560381 
1349	 9.58904523928425E-02 
1350	 9.58761010348859E-02 
1351	 9.58573821537373E-02 
1352	 9.58405534257015E-02 
1353	 9.58213677553338E-02 
1354	 9.57907023980543E-02 
1355	 9.57680441734881E-02 
1356	 9.57451130503018E-02 
1357	 9.57336377801196E-02 
1358	 9.57367064872145E-02 
1359	 9.57226028898506E-02 
1360	 9.57131277903471E-02 
1361	 9.56968106371991E-02 
1362	 9.56685787749092E-02 
1363	 9.56339704802002E-02 
1364	 9.55856533166674E-02 
1365	 9.55496443734366E-02 
1366	 9.55058023461525E-02 
1367	 0.095479344271037 
1368	 9.54603856364595E-02 
1369	 9.54326922894584E-02 
1370	 9.53997320020664E-02 
1371	 9.53559780022326E-02 
1372	 9.52995510357344E-02 
1373	 9.52566816446579E-02 
1374	 9.52018991815018E-02 
1375	 9.51254379003537E-02 
1376	 9.50773262256004E-02 
1377	 9.50487040849854E-02 
1378	 9.49971816994473E-02 
1379	 0.094956609813094 
1380	 9.48957669598751E-02 
1381	 9.48041719430531E-02 
1382	 9.47255769137588E-02 
1383	 9.46485221317691E-02 
1384	 9.45692735837613E-02 
1385	 0.09448879778488 
1386	 9.44106342604694E-02 
1387	 9.43411184320376E-02 
1388	 9.42561405632835E-02 
1389	 0.094162206930927 
1390	 0.094071112220508 
1391	 9.39717839282584E-02 
1392	 9.38602330815562E-02 
1393	 9.37515688843902E-02 
1394	 0.093642913489367 
1395	 9.35215292112169E-02 
1396	 9.34004481568739E-02 
1397	 9.32711264699604E-02 
1398	 9.31329894547314E-02 
1399	 9.29960960078506E-02 
1400	 9.28515253310717E-02 
1401	 9.27142788089911E-02 
1402	 9.25851004184073E-02 
1403	 0.092445760978106 
1404	 0.092305776580604 
1405	 9.21593376800968E-02 
1406	 0.091994794478548 
1407	 9.18501873200444E-02 
1408	 9.17115490531207E-02 
1409	 9.15767412923202E-02 
1410	 9.14498362133374E-02 
1411	 9.13284088023988E-02 
1412	 9.12090945893904E-02 
1413	 9.10935903677386E-02 
1414	 9.09981606916506E-02 
1415	 9.09120716559422E-02 
1416	 0.090826576015691 
1417	 9.07507587123146E-02 
1418	 9.06748618955795E-02 
1419	 9.06096456446033E-02 
1420	 9.05451375398979E-02 
1421	 9.04777898440013E-02 
1422	 9.04215084998007E-02 
1423	 9.03597460256759E-02 
1424	 9.03012987443818E-02 
1425	 9.02458051507216E-02 
1426	 9.01982029262427E-02 
1427	 9.01553389077586E-02 
1428	 9.01078131754356E-02 
1429	 9.00624373163281E-02 
1430	 9.00239065561964E-02 
1431	 8.99849844569896E-02 
1432	 8.99448795403144E-02 
1433	 8.99115625671999E-02 
1434	 8.98810098844891E-02 
1435	 8.98475661910723E-02 
1436	 8.98172437415223E-02 
1437	 8.97906702749204E-02 
1438	 8.97682401603799E-02 
1439	 8.97498930772697E-02 
1440	 8.97245721783487E-02 
1441	 8.97056989420965E-02 
1442	 8.97017387392737E-02 
1443	 8.96868491756639E-02 
1444	 0.089670218794228 
1445	 8.96542872562947E-02 
1446	 8.96308460764672E-02 
1447	 8.96140547929102E-02 
1448	 0.089591832243185 
1449	 8.95742420966207E-02 
1450	 8.95669812799317E-02 
1451	 8.95511214035892E-02 
1452	 8.95315499387658E-02 
1453	 8.95175396535656E-02 
1454	 8.95045541203262E-02 
1455	 8.94880668959889E-02 
1456	 8.94698077604263E-02 
1457	 8.94594124061042E-02 
1458	 8.94410555426068E-02 
1459	 8.94417329678072E-02 
1460	 8.94705877130895E-02 
1461	 8.94713955922075E-02 
1462	 8.94687394417478E-02 
1463	 8.94662380417812E-02 
1464	 8.94390936183563E-02 
1465	 8.94343999861823E-02 
1466	 0.089448123943457 
1467	 8.94529173505211E-02 
1468	 8.94598721513946E-02 
1469	 8.94702903504742E-02 
1470	 8.94797686035895E-02 
1471	 8.94896572176566E-02 
1472	 8.95181037622842E-02 
1473	 8.95293167950245E-02 
1474	 8.95309720713338E-02 
1475	 8.95451661986168E-02 
1476	 8.95558832928318E-02 
1477	 8.95715496126252E-02 
1478	 8.95891830301718E-02 
1479	 8.95998890006766E-02 
1480	 8.96001451037049E-02 
1481	 8.96028966207122E-02 
1482	 8.96197916284065E-02 
1483	 8.96526022128066E-02 
1484	 8.96700498366859E-02 
1485	 8.96914083414176E-02 
1486	 8.97049343704666E-02 
1487	 8.97030832969775E-02 
1488	 8.97145656017039E-02 
1489	 8.97353236026491E-02 
1490	 8.97479447538012E-02 
1491	 8.97555924791315E-02 
1492	 8.97723383937231E-02 
1493	 8.97889729659217E-02 
1494	 8.98073937521291E-02 
1495	 8.98387625733957E-02 
1496	 0.089855317293392 
1497	 8.98617256423944E-02 
1498	 8.98772953670839E-02 
1499	 8.98909480711026E-02 
1500	 8.99063994070004E-02 
1501	 0.089928935542388 
1502	 8.99427369126729E-02 
1503	 8.99475324533862E-02 
1504	 8.99599877602757E-02 
1505	 8.99753360299173E-02 
1506	 8.99910689614002E-02 
1507	 9.00011794556878E-02 
1508	 9.00173416946728E-02 
1509	 9.00253191179774E-02 
1510	 9.00229549767243E-02 
1511	 9.00316321815427E-02 
1512	 9.00384996183784E-02 
1513	 9.00328196369452E-02 
1514	 9.00342264062196E-02 
1515	 9.00440056390176E-02 
1516	 9.00446221755959E-02 
1517	 9.00491226724106E-02 
1518	 9.00669340597447E-02 
1519	 9.00679942344594E-02 
1520	 9.00498554088012E-02 
1521	 9.00565506671788E-02 
1522	 9.00800221738899E-02 
1523	 9.00761423273828E-02 
1524	 9.00670170883558E-02 
1525	 0.090063624267032 
1526	 9.00400611333709E-02 
1527	 9.00361939379506E-02 
1528	 9.00596612433936E-02 
1529	 9.00618947833333E-02 
1530	 9.00508797159888E-02 
1531	 9.00451660083952E-02 
1532	 9.00319800752639E-02 
1533	 9.00317274631394E-02 
1534	 9.00407044195548E-02 
1535	 9.00471983079947E-02 
1536	 9.00699412676096E-02 
1537	 9.00741065844327E-02 
1538	 9.00611460691135E-02 
1539	 0.090058478221313 
1540	 9.00443826485931E-02 
1541	 9.00416036645482E-02 
1542	 9.00564110234289E-02 
1543	 9.00642795972863E-02 
1544	 9.00805622962547E-02 
1545	 0.09008256047436 
1546	 9.00719884634326E-02 
1547	 9.00631836413555E-02 
1548	 9.00573715926196E-02 
1549	 9.00435189828568E-02 
1550	 9.00252333063463E-02 
1551	 9.00090063392026E-02 
1552	 9.00001051943618E-02 
1553	 9.00075939814325E-02 
1554	 9.00331789735678E-02 
1555	 9.00513703534034E-02 
1556	 9.00479993408021E-02 
1557	 9.00373751445922E-02 
1558	 0.090014692086417 
1559	 8.99963379074762E-02 
1560	 8.99904852734833E-02 
1561	 8.99932852873699E-02 
1562	 0.089989227094392 
1563	 8.99934800641073E-02 
1564	 8.99913448398472E-02 
1565	 8.99810093549435E-02 
1566	 8.99764907497961E-02 
1567	 0.089977111458472 
1568	 8.99692901775321E-02 
1569	 8.99625073456151E-02 
1570	 8.99451127543738E-02 
1571	 8.99167501412705E-02 
1572	 8.98953810424212E-02 
1573	 8.98647673425552E-02 
1574	 8.98449612787135E-02 
1575	 8.98311499186601E-02 
1576	 8.98232918729036E-02 
1577	 8.98250906497484E-02 
1578	 8.98219288615643E-02 
1579	 8.98306431015514E-02 
1580	 8.98211747839105E-02 
1581	 8.97927936628139E-02 
1582	 8.97790266089889E-02 
1583	 8.97611315277901E-02 
1584	 8.97470209794878E-02 
1585	 8.97517353013178E-02 
1586	 8.97389804111796E-02 
1587	 8.97149048736082E-02 
1588	 8.96943351001284E-02 
1589	 8.96596885324177E-02 
1590	 0.089640990963135 
1591	 0.089630629975129 
1592	 8.96215852430641E-02 
1593	 8.96351369104558E-02 
1594	 8.96248767057621E-02 
1595	 8.95895352730761E-02 
1596	 8.95776460757532E-02 
1597	 8.95727201927929E-02 
1598	 8.95575844623986E-02 
1599	 8.95571104179004E-02 
1600	 8.95455363882928E-02 
1601	 8.95034825883531E-02 
1602	 8.94825004036646E-02 
1603	 8.94794844563521E-02 
1604	 8.94684815259925E-02 
1605	 8.94683127544454E-02 
1606	 8.94548230673058E-02 
1607	 8.94217164087305E-02 
1608	 8.94032778291377E-02 
1609	 8.93845927604991E-02 
1610	 8.93391069187991E-02 
1611	 8.93152665280543E-02 
1612	 8.92968447806325E-02 
1613	 8.92703042654212E-02 
1614	 8.92669605145053E-02 
1615	 8.92559916941635E-02 
1616	 8.92306752077709E-02 
1617	 8.92030219231543E-02 
1618	 8.91822794685111E-02 
1619	 8.91704323480988E-02 
1620	 8.91529353653357E-02 
1621	 8.91413964738166E-02 
1622	 8.91407276640188E-02 
1623	 8.91249424154707E-02 
1624	 8.90999350761896E-02 
1625	 8.90885816961588E-02 
1626	 8.90796729899407E-02 
1627	 8.90637924267434E-02 
1628	 8.90556003914368E-02 
1629	 8.90349610797172E-02 
1630	 0.088995917446498 
1631	 8.89788813462223E-02 
1632	 8.89717284756846E-02 
1633	 8.89549490066861E-02 
1634	 8.89421293056751E-02 
1635	 8.89263118349437E-02 
1636	 8.89044940874711E-02 
1637	 0.088882627823589 
1638	 8.88612801567337E-02 
1639	 8.88429413165544E-02 
1640	 8.88238902207422E-02 
1641	 8.88007131330687E-02 
1642	 8.87826257490678E-02 
1643	 8.87561608097103E-02 
1644	 0.088708279528665 
1645	 8.86933943790466E-02 
1646	 0.088704742605383 
1647	 0.088684207910465 
1648	 8.86629350475564E-02 
1649	 0.08864309935085 
1650	 8.85983996179059E-02 
1651	 0.088574034782125 
1652	 8.85745156560491E-02 
1653	 8.85565361930927E-02 
1654	 8.85276638875124E-02 
1655	 8.85044521413956E-02 
1656	 8.84830861016961E-02 
1657	 8.84585972708648E-02 
1658	 0.088433561753024 
1659	 8.84061720127618E-02 
1660	 8.83727035970355E-02 
1661	 8.83468748698882E-02 
1662	 8.83173270227042E-02 
1663	 8.83025781547927E-02 
1664	 8.83071859755797E-02 
1665	 8.82921561771207E-02 
1666	 8.82774064514457E-02 
1667	 8.82586691805097E-02 
1668	 8.82276612141426E-02 
1669	 8.81981835598551E-02 
1670	 8.81732039712954E-02 
1671	 8.81403614695538E-02 
1672	 8.80933574548002E-02 
1673	 8.80594273040631E-02 
1674	 8.80274711610924E-02 
1675	 8.80015255311575E-02 
1676	 8.79861695421049E-02 
1677	 8.79633454745379E-02 
1678	 8.79338815935643E-02 
1679	 8.79204494094916E-02 
1680	 8.79161670499099E-02 
1681	 8.79051186942077E-02 
1682	 8.79106370222779E-02 
1683	 8.78945546931636E-02 
1684	 8.78581948331034E-02 
1685	 8.78294860426029E-02 
1686	 8.77923180185184E-02 
1687	 0.087765010727137 
1688	 8.77446735276567E-02 
1689	 8.77208953814709E-02 
1690	 8.77011308200512E-02 
1691	 8.76783187196791E-02 
1692	 8.76514112025385E-02 
1693	 8.76272423886138E-02 
1694	 8.76062614023514E-02 
1695	 8.75790496039491E-02 
1696	 8.75510958750226E-02 
1697	 8.75188767941582E-02 
1698	 8.74709437168337E-02 
1699	 8.74472486292403E-02 
1700	 8.74436657123289E-02 
1701	 8.74175940393563E-02 
1702	 8.73921349844406E-02 
1703	 8.73667285888847E-02 
1704	 8.73187538821069E-02 
1705	 0.087290447333815 
1706	 8.72899206707805E-02 
1707	 8.72637463561384E-02 
1708	 8.72218667215976E-02 
1709	 8.71925405747014E-02 
1710	 8.71515517051788E-02 
1711	 0.087131057504507 
1712	 8.71404304641856E-02 
1713	 8.71205238432993E-02 
1714	 8.70883718434554E-02 
1715	 8.70684084521036E-02 
1716	 8.70472555589479E-02 
1717	 8.70162254341068E-02 
1718	 8.69894511033278E-02 
1719	 8.69588261945895E-02 
1720	 8.69022634946042E-02 
1721	 8.68735135630779E-02 
1722	 8.68781840518826E-02 
1723	 8.68484603773477E-02 
1724	 8.68093702409814E-02 
1725	 0.086769686360167 
1726	 8.67052743963803E-02 
1727	 8.66654835872222E-02 
1728	 8.66322189211067E-02 
1729	 8.66159646136503E-02 
1730	 8.66279173018484E-02 
1731	 8.66031250418742E-02 
1732	 8.65797514600417E-02 
1733	 8.65481219295101E-02 
1734	 8.64782543791072E-02 
1735	 8.64440677866366E-02 
1736	 8.64356912514066E-02 
1737	 8.64020394929451E-02 
1738	 0.086372379750854 
1739	 8.63261353487429E-02 
1740	 8.62584512714762E-02 
1741	 8.62035414343387E-02 
1742	 8.61423373450322E-02 
1743	 8.60953490069009E-02 
1744	 8.60615164047794E-02 
1745	 8.60187130044915E-02 
1746	 8.59702067118355E-02 
1747	 8.59262128306477E-02 
1748	 8.58988025149503E-02 
1749	 8.58578121416085E-02 
1750	 8.58469491473836E-02 
1751	 8.58380018906164E-02 
1752	 8.57914819783598E-02 
1753	 8.57445886828154E-02 
1754	 8.56999397762937E-02 
1755	 8.56458784247398E-02 
1756	 8.55930684178591E-02 
1757	 0.085553248036556 
1758	 8.55265769854052E-02 
1759	 8.54964294448814E-02 
1760	 8.54833642615106E-02 
1761	 8.54671426609795E-02 
1762	 8.54110533399704E-02 
1763	 8.53655566936752E-02 
1764	 8.53094273496851E-02 
1765	 8.52294860388231E-02 
1766	 8.51717935746961E-02 
1767	 8.51071628887914E-02 
1768	 8.50441660602548E-02 
1769	 8.50099958966759E-02 
1770	 8.50038264041671E-02 
1771	 8.50049025769934E-02 
1772	 8.49860087524669E-02 
1773	 8.49567795105508E-02 
1774	 8.49269129857132E-02 
1775	 8.48876464462292E-02 
1776	 0.084849503226075 
1777	 8.48166084624415E-02 
1778	 8.47711827604922E-02 
1779	 8.47381581241162E-02 
1780	 8.47208292707859E-02 
1781	 8.47211541725291E-02 
1782	 8.47186918932963E-02 
1783	 8.46887811950463E-02 
1784	 8.46684830930275E-02 
1785	 8.46340359327151E-02 
1786	 8.46009262545414E-02 
1787	 8.45770212850421E-02 
1788	 8.45558954574787E-02 
1789	 8.45287421190955E-02 
1790	 8.45107533942529E-02 
1791	 8.45202711568435E-02 
1792	 8.44854491128357E-02 
1793	 8.44153329749711E-02 
1794	 8.43822693033893E-02 
1795	 0.084334057471123 
1796	 8.43111523908371E-02 
1797	 8.43342078086573E-02 
1798	 8.43260623816839E-02 
1799	 8.43097258102035E-02 
1800	 8.43013042775676E-02 
1801	 8.08427946255523E-02 
1802	 8.08562097678258E-02 
1803	 8.08578897055051E-02 
1804	 8.08713374225413E-02 
1805	 8.08922046741325E-02 
1806	 8.09251732000544E-02 
1807	 8.09602874311544E-02 
1808	 8.09714423843091E-02 
1809	 0.080973457509112 
1810	 0.08097888081973 
1811	 8.09609562772745E-02 
1812	 8.09579682557928E-02 
1813	 8.09783122371859E-02 
1814	 8.09829167526253E-02 
1815	 8.09752741074759E-02 
1816	 8.09582097127384E-02 
1817	 8.09481807831034E-02 
1818	 8.09335880659411E-02 
1819	 8.09283593236354E-02 
1820	 8.09300474975638E-02 
1821	 8.09278065331615E-02 
1822	 8.09500098255827E-02 
1823	 8.09347335639727E-02 
1824	 8.08934660580834E-02 
1825	 8.08860061629212E-02 
1826	 8.08594461882966E-02 
1827	 0.080829183824485 
1828	 8.08114582961465E-02 
1829	 8.08181195570041E-02 
1830	 8.07978190986035E-02 
1831	 8.07574767723131E-02 
1832	 8.07444618893005E-02 
1833	 8.07300917623154E-02 
1834	 8.07209617287016E-02 
1835	 0.080707762830459 
1836	 8.06926937945089E-02 
1837	 0.080706981126491 
1838	 8.06911443103961E-02 
1839	 8.06712904523475E-02 
1840	 8.06528285516784E-02 
1841	 8.06468804714764E-02 
1842	 8.05988817632964E-02 
1843	 8.05718381997293E-02 
1844	 8.05530937383544E-02 
1845	 8.05028840476204E-02 
1846	 8.04614696488384E-02 
1847	 8.03997680734665E-02 
1848	 8.03535195726341E-02 
1849	 8.03429253983282E-02 
1850	 8.03150634294134E-02 
1851	 8.02789083854182E-02 
1852	 8.02653684184563E-02 
1853	 8.02580933802127E-02 
1854	 8.02147840036689E-02 
1855	 8.01835833049975E-02 
1856	 8.01681840827855E-02 
1857	 8.01241694542021E-02 
1858	 8.00850491743907E-02 
1859	 8.00782408093341E-02 
1860	 8.00386763927215E-02 
1861	 7.99810674620056E-02 
1862	 7.99138154885504E-02 
1863	 7.98516956335605E-02 
1864	 7.97634203119714E-02 
1865	 7.96869421140376E-02 
1866	 0.07963469191461 
1867	 7.95963231183323E-02 
1868	 7.95480993701678E-02 
1869	 7.94634332315304E-02 
1870	 7.93644787436121E-02 
1871	 7.92606998660123E-02 
1872	 7.91318624817174E-02 
1873	 7.89976431714916E-02 
1874	 7.88826228660986E-02 
1875	 7.87371567936403E-02 
1876	 7.85797289540243E-02 
1877	 7.84163136042604E-02 
1878	 7.82239176976911E-02 
1879	 7.80644696409694E-02 
1880	 7.78694605464997E-02 
1881	 7.76444427148096E-02 
1882	 7.74131841728715E-02 
1883	 7.71783676224044E-02 
1884	 7.69030168394719E-02 
1885	 0.076616180165312 
1886	 0.076332041934234 
1887	 7.60227681078465E-02 
1888	 7.57120631592544E-02 
1889	 7.53951376809359E-02 
1890	 7.50640037188101E-02 
1891	 7.47252134348065E-02 
1892	 0.074379604071306 
1893	 0.0740149009399 
1894	 7.36304027161958E-02 
1895	 7.32464133278542E-02 
1896	 0.072857194348356 
1897	 7.24594493788474E-02 
1898	 0.072060446022101 
1899	 7.16452883678331E-02 
1900	 7.12227935315474E-02 
1901	 7.08013286769894E-02 
1902	 7.04120062197649E-02 
1903	 7.00507371180834E-02 
1904	 6.96990250582997E-02 
1905	 6.93692831203504E-02 
1906	 6.90548778858988E-02 
1907	 6.87333394437249E-02 
1908	 6.84004172957618E-02 
1909	 0.068116366351016 
1910	 6.78305110256876E-02 
1911	 6.75574187315877E-02 
1912	 6.73218700379324E-02 
1913	 6.70890991821013E-02 
1914	 6.68603896696095E-02 
1915	 6.66484572715911E-02 
1916	 6.64510161919249E-02 
1917	 6.62711485676724E-02 
1918	 6.61009761732272E-02 
1919	 6.59436861080109E-02 
1920	 6.58110421866452E-02 
1921	 0.065680201498545 
1922	 6.55552776085988E-02 
1923	 6.54353921633581E-02 
1924	 6.53281879453522E-02 
1925	 6.52319040096175E-02 
1926	 0.06514643400235 
1927	 6.50692952929779E-02 
1928	 6.50041232504752E-02 
1929	 6.49608504178138E-02 
1930	 6.49089532418714E-02 
1931	 6.48573977023192E-02 
1932	 6.48254026451195E-02 
1933	 6.48038041991338E-02 
1934	 6.47821871616604E-02 
1935	 6.47605951799986E-02 
1936	 6.47428214305677E-02 
1937	 6.47343233579785E-02 
1938	 6.47214129285564E-02 
1939	 6.47226565553213E-02 
1940	 6.47356182508357E-02 
1941	 6.47702460840599E-02 
1942	 6.48009742765497E-02 
1943	 6.48254086323047E-02 
1944	 6.48429587251332E-02 
1945	 6.48663634498037E-02 
1946	 6.48859468753853E-02 
1947	 6.48876059277967E-02 
1948	 6.49117672220558E-02 
1949	 6.49497982830658E-02 
1950	 6.49839105480653E-02 
1951	 6.50206691253476E-02 
1952	 6.50753309439149E-02 
1953	 6.51117356856654E-02 
1954	 6.51438279308829E-02 
1955	 6.52009335226021E-02 
1956	 6.52601659645987E-02 
1957	 6.53212575545982E-02 
1958	 6.54024459186183E-02 
1959	 6.54701584669419E-02 
1960	 6.55154450773533E-02 
1961	 6.55883390579229E-02 
1962	 6.56768987139645E-02 
1963	 6.57594343865768E-02 
1964	 6.58529868519369E-02 
1965	 6.59536993970921E-02 
1966	 6.60236489756058E-02 
1967	 6.61040868607886E-02 
1968	 6.61987728087559E-02 
1969	 6.62976491797166E-02 
1970	 6.64021596972555E-02 
1971	 6.65307524489597E-02 
1972	 6.66405357657826E-02 
1973	 6.67446653420724E-02 
1974	 0.066846647186836 
1975	 6.69450034094292E-02 
1976	 6.70422485529863E-02 
1977	 6.71244437826016E-02 
1978	 6.72097609046972E-02 
1979	 6.73070848743402E-02 
1980	 6.73986961336593E-02 
1981	 6.74949277366094E-02 
1982	 6.76033508648362E-02 
1983	 6.77065442836645E-02 
1984	 0.067807017165107 
1985	 6.79040783311549E-02 
1986	 6.80101696267677E-02 
1987	 6.80991504662251E-02 
1988	 6.81637437117762E-02 
1989	 6.82468966746444E-02 
1990	 6.83317155444107E-02 
1991	 6.84160488581818E-02 
1992	 6.85123517360185E-02 
1993	 6.86342338307857E-02 
1994	 6.87264867480172E-02 
1995	 6.88068447395139E-02 
1996	 6.88949173903178E-02 
1997	 6.89751018528217E-02 
1998	 6.90571942173374E-02 
1999	 6.91366958985456E-02 
2000	 6.92280793393693E-02 
2001	 0.069321569241259 
2002	 6.94165240703916E-02 
2003	 6.95237465673594E-02 
2004	 6.96494228327525E-02 
2005	 0.069757538298281 
2006	 6.98702007637795E-02 
2007	 6.99583329191689E-02 
2008	 7.00261801968106E-02 
2009	 7.01021643292003E-02 
2010	 7.01498823689139E-02 
2011	 7.02302584183478E-02 
2012	 0.070338134207441 
2013	 7.04339235811337E-02 
2014	 7.05345031993123E-02 
2015	 7.06445939356663E-02 
2016	 7.07407231798509E-02 
2017	 7.08199719682832E-02 
2018	 7.09073259753562E-02 
2019	 0.070992966039978 
2020	 7.10806941249386E-02 
2021	 7.11738473487595E-02 
2022	 7.12570135565275E-02 
2023	 7.13370228164903E-02 
2024	 7.14140962402821E-02 
2025	 7.14787618521748E-02 
2026	 7.15496065080417E-02 
2027	 7.16240884422442E-02 
2028	 7.16969091827693E-02 
2029	 7.17705100756977E-02 
2030	 7.18446546854572E-02 
2031	 0.071922083857779 
2032	 7.20069236418728E-02 
2033	 7.20778684602119E-02 
2034	 7.21433432355412E-02 
2035	 7.22086346600383E-02 
2036	 7.22642865031579E-02 
2037	 7.23240168371273E-02 
2038	 7.23831728532648E-02 
2039	 7.24474112392331E-02 
2040	 7.25145196442647E-02 
2041	 7.25810028802943E-02 
2042	 7.26517481575479E-02 
2043	 7.27181655275807E-02 
2044	 7.27664914525238E-02 
2045	 7.27984627676742E-02 
2046	 7.28355445182978E-02 
2047	 0.07284936804051 
2048	 7.28936713479129E-02 
2049	 7.29558442780846E-02 
2050	 7.30106652639009E-02 
2051	 7.30842351141501E-02 
2052	 7.31409102960871E-02 
2053	 7.31887415513847E-02 
2054	 7.32316129534828E-02 
2055	 7.32626653509697E-02 
2056	 7.32968916985489E-02 
2057	 7.33323845207059E-02 
2058	 7.33672045546887E-02 
2059	 7.33988481166079E-02 
2060	 7.34331884735141E-02 
2061	 7.34626570743924E-02 
2062	 7.34755224330334E-02 
2063	 7.35088803193918E-02 
2064	 7.35559401208842E-02 
2065	 7.35947650857868E-02 
2066	 7.36318491752574E-02 
2067	 0.073682260123023 
2068	 7.37455792270033E-02 
2069	 7.37943816632362E-02 
2070	 0.073839646635627 
2071	 7.38958360206699E-02 
2072	 7.39387769704836E-02 
2073	 7.39587457755811E-02 
2074	 0.073994594708216 
2075	 7.40386052788198E-02 
2076	 7.40783260124685E-02 
2077	 7.41179891080612E-02 
2078	 7.41548890558818E-02 
2079	 0.074188107651416 
2080	 7.42279279817711E-02 
2081	 7.42769005635854E-02 
2082	 7.43113009674868E-02 
2083	 7.43381266678753E-02 
2084	 7.43712575829978E-02 
2085	 0.074401797054 
2086	 7.44147134307556E-02 
2087	 0.074449341997893 
2088	 7.45047937167209E-02 
2089	 7.45430640467939E-02 
2090	 7.45843584758153E-02 
2091	 7.46150969515992E-02 
2092	 7.46267499744947E-02 
2093	 7.46535825522758E-02 
2094	 7.46849680515636E-02 
2095	 7.47125080964681E-02 
2096	 7.47384695003448E-02 
2097	 7.47767984041113E-02 
2098	 7.48233239425861E-02 
2099	 7.48551003767199E-02 
2100	 7.49102031914834E-02 
2101	 7.49943270093624E-02 
2102	 7.50402589013439E-02 
2103	 7.50784230842265E-02 
2104	 7.51161654527815E-02 
2105	 7.51291948853222E-02 
2106	 7.51626880027993E-02 
2107	 7.51984514875481E-02 
2108	 7.52486452986301E-02 
2109	 0.075335576415917 
2110	 7.53793491688738E-02 
2111	 7.53993681802724E-02 
2112	 7.54380902772017E-02 
2113	 7.54594104931618E-02 
2114	 7.54768521890392E-02 
2115	 0.075520958053971 
2116	 7.56116361460245E-02 
2117	 7.56476725668332E-02 
2118	 7.56556709466931E-02 
2119	 7.56917922101272E-02 
2120	 7.57217435536725E-02 
2121	 7.57555096886896E-02 
2122	 7.58176281168841E-02 
2123	 7.58520783059308E-02 
2124	 7.58628930693982E-02 
2125	 7.58823880283596E-02 
2126	 7.59031998060335E-02 
2127	 7.59167256520756E-02 
2128	 7.59216822677961E-02 
2129	 7.59299259099572E-02 
2130	 0.075924896635225 
2131	 7.59370984793614E-02 
2132	 7.59505606114258E-02 
2133	 7.59756659918085E-02 
2134	 7.59883384254621E-02 
2135	 7.59979093296168E-02 
2136	 0.076012952067415 
2137	 7.60428938669901E-02 
2138	 7.60354183263888E-02 
2139	 7.60198744141134E-02 
2140	 7.59905326947753E-02 
2141	 7.59161342058534E-02 
2142	 7.58637831984703E-02 
2143	 7.58193821200993E-02 
2144	 7.57717001165377E-02 
2145	 7.57226217403776E-02 
2146	 7.56746778123889E-02 
2147	 7.56201648779602E-02 
2148	 7.55770585632502E-02 
2149	 7.55378095419023E-02 
2150	 7.55023417009357E-02 
2151	 7.54719226781736E-02 
2152	 0.075466689129853 
2153	 7.54189613639287E-02 
2154	 7.53450560198087E-02 
2155	 7.52921442389827E-02 
2156	 7.52249255763547E-02 
2157	 7.51641817352975E-02 
2158	 7.51314105482582E-02 
2159	 0.075075405868327 
2160	 7.49990192882515E-02 
2161	 7.49241695566247E-02 
2162	 0.074838970150253 
2163	 7.47628763477951E-02 
2164	 7.46855277126384E-02 
2165	 7.46131876236076E-02 
2166	 7.45392412580403E-02 
2167	 7.44650359584429E-02 
2168	 7.44084958605961E-02 
2169	 7.43568363863125E-02 
2170	 7.43072184446036E-02 
2171	 7.42843444068529E-02 
2172	 7.42333130514003E-02 
2173	 7.41663873116419E-02 
2174	 7.41032335281323E-02 
2175	 7.40441930413304E-02 
2176	 7.39648807572877E-02 
2177	 7.38660800388359E-02 
2178	 0.073777308468231 
2179	 0.073651802747381 
2180	 7.35705572108308E-02 
2181	 7.35522570617689E-02 
2182	 0.073489255168003 
2183	 0.073416582923156 
2184	 7.33527102343495E-02 
2185	 7.32790136552676E-02 
2186	 7.31655425199159E-02 
2187	 7.30895452080581E-02 
2188	 7.30456907434781E-02 
2189	 7.29771772306633E-02 
2190	 7.28947422220019E-02 
2191	 7.28301532155147E-02 
2192	 7.27562085690087E-02 
2193	 7.27102462539958E-02 
2194	 7.27030926736507E-02 
2195	 7.26663938142184E-02 
2196	 7.26328461084731E-02 
2197	 7.25957698052337E-02 
2198	 7.25252404367636E-02 
2199	 7.24837373498075E-02 
2200	 7.24713922522107E-02 
2201	 7.24447710654338E-02 
2202	 7.24272773957847E-02 
2203	 7.24035086763769E-02 
2204	 7.23676548894025E-02 
2205	 7.23139046888634E-02 
2206	 7.22740044997262E-02 
2207	 7.22283564528472E-02 
2208	 7.21995947311319E-02 
2209	 7.21765666792651E-02 
2210	 7.21679633813823E-02 
2211	 7.21742158979637E-02 
2212	 7.21765584449316E-02 
2213	 7.22013798783272E-02 
2214	 7.22001187722228E-02 
2215	 7.21823231593109E-02 
2216	 7.21760310357151E-02 
2217	 7.21595633265375E-02 
2218	 7.21488607816736E-02 
2219	 7.21510304272685E-02 
2220	 7.21451614472204E-02 
2221	 7.21382532057551E-02 
2222	 7.21215996133714E-02 
2223	 7.21028022444401E-02 
2224	 7.21086449427392E-02 
2225	 7.21071263976617E-02 
2226	 7.21118008717912E-02 
2227	 7.21106066265657E-02 
2228	 7.21071385424023E-02 
2229	 7.21030239963303E-02 
2230	 7.20932574913576E-02 
2231	 7.20967089189933E-02 
2232	 7.21151653761629E-02 
2233	 7.21165580966193E-02 
2234	 7.21067012834059E-02 
2235	 7.21120015407681E-02 
2236	 7.21198112221294E-02 
2237	 7.21196448915959E-02 
2238	 7.21444448378229E-02 
2239	 7.21390354047732E-02 
2240	 7.20915254344197E-02 
2241	 7.20688158245742E-02 
2242	 7.20534463304465E-02 
2243	 7.20272840867258E-02 
2244	 7.20026793056846E-02 
2245	 7.19817605197574E-02 
2246	 7.19478435093276E-02 
2247	 7.19214116187111E-02 
2248	 7.18847018023705E-02 
2249	 7.18396740544389E-02 
2250	 7.18261197360933E-02 
2251	 7.18221044715474E-02 
2252	 7.18052685056327E-02 
2253	 7.18197983764989E-02 
2254	 7.17943228071599E-02 
2255	 7.17213569437381E-02 
2256	 7.16861596797368E-02 
2257	 7.16543741515309E-02 
2258	 7.16383817050726E-02 
2259	 7.16462288189687E-02 
2260	 7.16397401160273E-02 
2261	 0.071624027078646 
2262	 7.16255206402112E-02 
2263	 7.16457640779812E-02 
2264	 7.16482219221259E-02 
2265	 7.16600971361945E-02 
2266	 7.16631173330643E-02 
2267	 7.16330003798776E-02 
2268	 7.16233297639435E-02 
2269	 7.16239138277165E-02 
2270	 7.16304704611874E-02 
2271	 7.16347256904585E-02 
2272	 7.16427904506431E-02 
2273	 7.16814785785355E-02 
2274	 7.17155479692265E-02 
2275	 7.17304419925729E-02 
2276	 7.17491983114468E-02 
2277	 7.17621504989602E-02 
2278	 7.17464081970363E-02 
2279	 7.17571877533123E-02 
2280	 7.17976524427064E-02 
2281	 7.17971526410798E-02 
2282	 7.17733109819051E-02 
2283	 7.17723150390335E-02 
2284	 7.17427393810597E-02 
2285	 7.17602245490102E-02 
2286	 7.18307795992996E-02 
2287	 7.18648090053946E-02 
2288	 7.19284286353366E-02 
2289	 7.19439494350948E-02 
2290	 7.19115183678893E-02 
2291	 7.18866788274011E-02 
2292	 7.18239517100422E-02 
2293	 7.17951886930267E-02 
2294	 7.17662914870656E-02 
2295	 7.17669505664434E-02 
2296	 7.18137689054128E-02 
2297	 7.18376802986539E-02 
2298	 7.18431749467298E-02 
2299	 0.071866876934129 
2300	 7.18538091153981E-02 
2301	 0.071826304833699 
2302	 7.18403463105271E-02 
2303	 7.18474492753461E-02 
2304	 7.18460280812861E-02 
2305	 7.18226050432582E-02 
2306	 7.17873652286775E-02 
2307	 7.17232653774016E-02 
2308	 7.16793920723974E-02 
2309	 7.16217874394764E-02 
2310	 7.15972218068402E-02 
2311	 7.16003472869672E-02 
2312	 7.15795240829394E-02 
2313	 7.15552468299588E-02 
2314	 0.071554792947905 
2315	 7.15546117151574E-02 
2316	 7.15620692835537E-02 
2317	 0.071619210047692 
2318	 7.16147959450253E-02 
2319	 7.15605605992374E-02 
2320	 7.15244754921593E-02 
2321	 7.14660603297331E-02 
2322	 7.14367732826205E-02 
2323	 7.14385241469504E-02 
2324	 0.07142853168601 
2325	 7.14217793240038E-02 
2326	 7.14023361773126E-02 
2327	 7.13782417824889E-02 
2328	 7.13415552907294E-02 
2329	 7.13024081015122E-02 
2330	 7.12657675519877E-02 
2331	 7.12298387791295E-02 
2332	 7.11962833013159E-02 
2333	 7.12074203238075E-02 
2334	 7.12432757652261E-02 
2335	 7.12327781016089E-02 
2336	 7.12307887542807E-02 
2337	 7.12162529217645E-02 
2338	 7.11857003788008E-02 
2339	 7.12102894291419E-02 
2340	 7.12423335055068E-02 
2341	 7.12634930712272E-02 
2342	 7.12678763924117E-02 
2343	 7.12526455139717E-02 
2344	 0.071301400694838 
2345	 0.071304621552443 
2346	 7.12987096156867E-02 
2347	 7.12659290909453E-02 
2348	 7.11975418167042E-02 
2349	 7.11367104263228E-02 
2350	 7.10453736525587E-02 
2351	 7.10112030143287E-02 
2352	 7.10209546319973E-02 
2353	 7.09851030822449E-02 
2354	 7.09501736630155E-02 
2355	 7.09230829793205E-02 
2356	 7.08897595003027E-02 
2357	 7.08412149998306E-02 
2358	 7.08140850824347E-02 
2359	 7.07576592040129E-02 
2360	 7.06176833054548E-02 
2361	 7.05382001567518E-02 
2362	 7.04948327515531E-02 
2363	 7.04477291044853E-02 
2364	 7.04709475584018E-02 
2365	 7.04054517451253E-02 
2366	 7.02527377436759E-02 
2367	 7.01649901987657E-02 
2368	 7.00246663388325E-02 
2369	 6.99446888078513E-02 
2370	 6.99601039342256E-02 
2371	 6.99590293432898E-02 
2372	 6.98530438037638E-02 
2373	 6.98259673694079E-02 
2374	 0.069813563338422 
2375	 6.97846651952987E-02 
2376	 6.97898675561158E-02 
2377	 6.97737793380476E-02 
2378	 6.96306848761716E-02 
2379	 6.94788673028717E-02 
2380	 6.94001913692973E-02 
2381	 6.93153727687115E-02 
2382	 6.93076392332742E-02 
2383	 6.92832369296424E-02 
2384	 6.91357952867742E-02 
2385	 6.90656574317843E-02 
2386	 6.91012463851438E-02 
2387	 0.06909780271738 
2388	 6.91242006132199E-02 
2389	 6.90501709665704E-02 
2390	 6.88200533774796E-02 
2391	 0.068659721824359 
2392	 6.85907864737283E-02 
2393	 6.86062944205621E-02 
2394	 0.06862898059871 
2395	 6.86290051240605E-02 
2396	 6.85566751224233E-02 
2397	 6.84431545055326E-02 
2398	 6.83819613560308E-02 
2399	 6.82988328469213E-02 
2400	 6.81874741657882E-02 
2401	 6.80150613164435E-02 
2402	 6.78517922301873E-02 
2403	 6.77259762667181E-02 
2404	 6.76956199757259E-02 
2405	 6.78212020168946E-02 
2406	 6.78958044169713E-02 
2407	 6.78649075035259E-02 
2408	 6.77041753219473E-02 
2409	 6.74350160226317E-02 
2410	 6.72961829197949E-02 
2411	 6.72423467863206E-02 
2412	 0.067218811081525 
2413	 6.72465470443415E-02 
2414	 6.71167160691308E-02 
2415	 6.69353996989649E-02 
2416	 6.68482063225255E-02 
2417	 6.68005138480592E-02 
2418	 6.67164080142397E-02 
2419	 6.67218194393388E-02 
2420	 6.66331276964116E-02 
2421	 6.63772175952167E-02 
2422	 6.63216857915181E-02 
2423	 6.63726919064968E-02 
2424	 6.63574754527745E-02 
2425	 6.64598596549362E-02 
2426	 6.64574142484285E-02 
2427	 6.63714971480712E-02 
2428	 6.62159638289826E-02 
2429	 6.59277337137863E-02 
2430	 6.57735048114293E-02 
2431	 6.56120203640889E-02 
2432	 6.55390281318394E-02 
2433	 6.56676093549673E-02 
2434	 6.55964569302039E-02 
2435	 6.54154666547102E-02 
2436	 6.52690918843756E-02 
2437	 6.50218712217083E-02 
2438	 6.49088339787101E-02 
2439	 6.48978952400305E-02 
2440	 6.48771353817899E-02 
2441	 6.48886505424152E-02 
2442	 6.48610671803696E-02 
2443	 0.064879808623041 
2444	 0.064830645036622 
2445	 6.47239785048709E-02 
2446	 6.46436274330663E-02 
2447	 0.064512899999611 
2448	 6.44315369508578E-02 
2449	 6.43674570272867E-02 
2450	 6.43156495249933E-02 
2451	 6.43505835587764E-02 
2452	 6.42465151768609E-02 
2453	 6.40561318333894E-02 
2454	 6.39074667364557E-02 
2455	 6.37058069064164E-02 
2456	 6.35828791482779E-02 
2457	 6.34843238366909E-02 
2458	 6.34307363377611E-02 
2459	 6.35296232009211E-02 
2460	 6.33849205298065E-02 
2461	 6.30868463926637E-02 
2462	 6.29283822239885E-02 
2463	 6.26331895321957E-02 
2464	 6.24885944598713E-02 
2465	 6.25640570225269E-02 
2466	 6.25154492721342E-02 
2467	 6.24530053041304E-02 
2468	 6.23937640352156E-02 
2469	 6.23006030699093E-02 
2470	 6.22417345332304E-02 
2471	 6.22469515208526E-02 
2472	 6.22148955462172E-02 
2473	 6.21976043695611E-02 
2474	 0.062160312432481 
2475	 6.20083674918932E-02 
2476	 6.19314553856671E-02 
2477	 6.20865862053565E-02 
2478	 6.22847059824311E-02 
2479	 0.062303589902572 
2480	 6.21923172459043E-02 
2481	 6.19463518051029E-02 
2482	 6.14603405227444E-02 
2483	 6.10567034987387E-02 
2484	 6.09368108953508E-02 
2485	 6.07181672724958E-02 
2486	 6.05785628056527E-02 
2487	 6.05830163346132E-02 
2488	 6.04676204907849E-02 
2489	 0.060412537210879 
2490	 6.04581065441672E-02 
2491	 6.06573403645027E-02 
2492	 6.07556975703189E-02 
2493	 6.07133935146769E-02 
2494	 6.06769759907186E-02 
2495	 6.03086806046618E-02 
2496	 0.060058310281489 
2497	 6.00732808353555E-02 
2498	 6.00254155066222E-02 
2499	 6.00941863960862E-02 
2500	 6.00113051041423E-02 
