Wavelength	LMW_1100003.asd
350	 4.62201039446501E-02 
351	 4.79893729510411E-02 
352	 0.038372982377542 
353	 2.27782582453875E-02 
354	 3.49032413123598E-02 
355	 3.92690018905911E-02 
356	 3.62088330631038E-02 
357	 3.50683391951621E-02 
358	 4.24101198875281E-02 
359	 3.88408520501576E-02 
360	 3.17806312686835E-02 
361	 4.25711809142316E-02 
362	 4.17073486579756E-02 
363	 3.72574496392067E-02 
364	 0.036075363484108 
365	 3.55962158123994E-02 
366	 3.41446303345496E-02 
367	 3.23639303674429E-02 
368	 3.16920558894552E-02 
369	 3.37438603417345E-02 
370	 3.58814588915186E-02 
371	 3.71962501474042E-02 
372	 3.81303865076958E-02 
373	 4.06663697965855E-02 
374	 4.21891191653766E-02 
375	 0.041337748364434 
376	 3.98276508796755E-02 
377	 0.037691322914725 
378	 3.68963754110598E-02 
379	 0.038653247636967 
380	 3.92798601994492E-02 
381	 3.80006726494545E-02 
382	 0.037432407552223 
383	 4.17011413908128E-02 
384	 4.13594202325231E-02 
385	 0.040145786046864 
386	 4.10198775352297E-02 
387	 4.18152188488304E-02 
388	 4.25979876966485E-02 
389	 4.38107694375451E-02 
390	 4.52589204764764E-02 
391	 4.28194764290307E-02 
392	 4.15891881176212E-02 
393	 0.043263212868669 
394	 4.60376345451295E-02 
395	 4.49917208190757E-02 
396	 4.37972241559986E-02 
397	 4.53004163396433E-02 
398	 4.78105559151716E-02 
399	 4.79744737442241E-02 
400	 4.71279180739707E-02 
401	 4.76302269754144E-02 
402	 4.60822245058899E-02 
403	 4.59017884273337E-02 
404	 4.72742951111293E-02 
405	 4.69104274573386E-02 
406	 4.73226815180951E-02 
407	 4.81301742405611E-02 
408	 4.83777073623914E-02 
409	 4.68256241990548E-02 
410	 4.65487835154942E-02 
411	 4.74105797648715E-02 
412	 4.78425472562782E-02 
413	 4.82275673016743E-02 
414	 0.048254440612204 
415	 4.81413185829939E-02 
416	 4.88387036398363E-02 
417	 4.86631764261283E-02 
418	 4.84447022692195E-02 
419	 4.90056511075472E-02 
420	 0.049066436967636 
421	 4.86318860985304E-02 
422	 4.81971034846896E-02 
423	 0.048446690931184 
424	 4.87165899499785E-02 
425	 4.85977321542274E-02 
426	 4.81334258988483E-02 
427	 4.80735138865789E-02 
428	 4.80305570329598E-02 
429	 0.047989195290237 
430	 4.80011257386123E-02 
431	 4.79112657192104E-02 
432	 4.76994814116826E-02 
433	 4.74564563873511E-02 
434	 4.73635865865984E-02 
435	 4.75090845071489E-02 
436	 4.75942640354481E-02 
437	 4.74303707048465E-02 
438	 4.72337922875207E-02 
439	 0.047583789281547 
440	 4.80994526046164E-02 
441	 4.80369816989232E-02 
442	 0.048036630983776 
443	 4.81118951237059E-02 
444	 4.82185575646915E-02 
445	 4.83438736668489E-02 
446	 4.80426277288225E-02 
447	 4.78533363318253E-02 
448	 4.82806065562017E-02 
449	 4.84248312011772E-02 
450	 4.86101364962759E-02 
451	 4.87855184037785E-02 
452	 4.85947232231463E-02 
453	 4.86191893464726E-02 
454	 4.85370502883821E-02 
455	 4.82714331183244E-02 
456	 4.88144827862139E-02 
457	 4.89199840172137E-02 
458	 4.86747134908146E-02 
459	 4.87036710073841E-02 
460	 4.86465598247006E-02 
461	 4.85907683387629E-02 
462	 0.048659400700392 
463	 4.89875963167431E-02 
464	 4.89103016460707E-02 
465	 4.87274767635598E-02 
466	 4.88432122569446E-02 
467	 4.89059338010673E-02 
468	 4.89021577592338E-02 
469	 4.88032367426936E-02 
470	 4.85930113230475E-02 
471	 4.87259743462867E-02 
472	 4.88175529269332E-02 
473	 4.86114937069627E-02 
474	 4.84644339760414E-02 
475	 4.84872743850166E-02 
476	 4.85873020428108E-02 
477	 4.85819257104642E-02 
478	 4.84556680013575E-02 
479	 4.84939698989664E-02 
480	 4.86824909266514E-02 
481	 4.85642174891609E-02 
482	 4.84409509905387E-02 
483	 0.048480023501474 
484	 4.87095701833008E-02 
485	 4.88079132281807E-02 
486	 4.86087788513397E-02 
487	 4.83176457174337E-02 
488	 4.84070438014589E-02 
489	 4.85438467619946E-02 
490	 4.85851762561238E-02 
491	 4.85241496239557E-02 
492	 4.86348972647677E-02 
493	 4.84023347532996E-02 
494	 4.81156441479276E-02 
495	 4.83480596118121E-02 
496	 4.87048648892324E-02 
497	 4.88012116504348E-02 
498	 4.86037241513457E-02 
499	 0.048574095994809 
500	 4.86386900887232E-02 
501	 0.04862443779067 
502	 4.84282326232549E-02 
503	 4.84145002002167E-02 
504	 4.84913484955368E-02 
505	 4.85670872153838E-02 
506	 4.85733474022785E-02 
507	 4.86089656696489E-02 
508	 4.86524181228719E-02 
509	 4.86438342452062E-02 
510	 4.84517508065817E-02 
511	 4.84465594092374E-02 
512	 0.048558314454862 
513	 4.85113535240347E-02 
514	 4.85156858867519E-02 
515	 4.85944403556321E-02 
516	 4.87087180750082E-02 
517	 4.87573601983078E-02 
518	 4.87260822993391E-02 
519	 4.86833324057726E-02 
520	 4.87131137359262E-02 
521	 0.048822308878547 
522	 0.048826773273681 
523	 4.87376608874305E-02 
524	 4.87744449248871E-02 
525	 4.88245475722425E-02 
526	 4.88286641943413E-02 
527	 4.87832617487268E-02 
528	 4.88268387277112E-02 
529	 4.88402397560101E-02 
530	 4.88462206570598E-02 
531	 4.89493094826023E-02 
532	 4.90448456831631E-02 
533	 4.91202564038608E-02 
534	 0.049152177917462 
535	 4.90460346816119E-02 
536	 4.89856868914359E-02 
537	 4.90255270339689E-02 
538	 4.91413730528621E-02 
539	 4.91937578897347E-02 
540	 4.92142806508506E-02 
541	 4.92430108308419E-02 
542	 4.93096487376871E-02 
543	 4.93915142959015E-02 
544	 4.94839728745777E-02 
545	 4.95833478147226E-02 
546	 4.96749952035046E-02 
547	 4.97430072540274E-02 
548	 4.98193992277539E-02 
549	 4.99661777566809E-02 
550	 4.99979636063047E-02 
551	 5.00407045958838E-02 
552	 5.01922011296607E-02 
553	 5.03272574841695E-02 
554	 5.04822545285805E-02 
555	 5.06297239340285E-02 
556	 5.07215591077629E-02 
557	 5.08226082144248E-02 
558	 5.09435766365135E-02 
559	 5.10967406076306E-02 
560	 5.13147260434384E-02 
561	 5.15079748919399E-02 
562	 0.051725100400792 
563	 5.20346868530559E-02 
564	 5.23320904084391E-02 
565	 5.26301774308325E-02 
566	 5.29610779988902E-02 
567	 5.33683033215255E-02 
568	 5.37524551083722E-02 
569	 0.054049136400548 
570	 5.42480514732456E-02 
571	 5.44610547772758E-02 
572	 5.47337418344551E-02 
573	 5.50761979445831E-02 
574	 5.54671791152535E-02 
575	 5.58756375481882E-02 
576	 5.62696380381253E-02 
577	 5.66572208886323E-02 
578	 5.71284759424901E-02 
579	 5.76457869701604E-02 
580	 5.82074404692874E-02 
581	 5.88185502324699E-02 
582	 5.94503920439328E-02 
583	 6.00323675295203E-02 
584	 0.060559647061368 
585	 6.11239444256792E-02 
586	 6.17374200467576E-02 
587	 6.23495125789343E-02 
588	 6.29214850645003E-02 
589	 0.063575617162025 
590	 6.41944378896171E-02 
591	 6.47587451714695E-02 
592	 6.53436709090198E-02 
593	 6.58354628039101E-02 
594	 6.63312244043446E-02 
595	 6.69219959544004E-02 
596	 6.75756974417991E-02 
597	 6.82859277131175E-02 
598	 6.90268598378813E-02 
599	 0.069761030667707 
600	 7.04260114283058E-02 
601	 7.10460000560098E-02 
602	 7.16344977329066E-02 
603	 7.21683653970215E-02 
604	 7.26679904938513E-02 
605	 7.31954173110926E-02 
606	 7.37954459247254E-02 
607	 7.43496984855751E-02 
608	 7.48050966248736E-02 
609	 7.52144499222676E-02 
610	 7.57412293838822E-02 
611	 7.61580914978705E-02 
612	 7.65555092279387E-02 
613	 7.70259030313002E-02 
614	 7.74059825381326E-02 
615	 7.77613426961342E-02 
616	 7.81032316930462E-02 
617	 7.84051928986269E-02 
618	 7.87008007246437E-02 
619	 0.078947464788941 
620	 7.91482536477713E-02 
621	 7.94312946834751E-02 
622	 7.97040077884752E-02 
623	 7.99368670730971E-02 
624	 8.01334817423573E-02 
625	 8.03442413945504E-02 
626	 8.05577250646689E-02 
627	 8.07767903692224E-02 
628	 8.10302417302025E-02 
629	 8.12520408628638E-02 
630	 8.14343885279341E-02 
631	 8.15875657332548E-02 
632	 8.17080021697559E-02 
633	 8.18702819327357E-02 
634	 8.20765902909697E-02 
635	 8.22700119312963E-02 
636	 8.24757292729598E-02 
637	 0.082657541698308 
638	 8.27897027631435E-02 
639	 8.28849406867086E-02 
640	 8.30288295840679E-02 
641	 8.32280188530533E-02 
642	 8.34456825564643E-02 
643	 8.36658008642398E-02 
644	 8.38248512242336E-02 
645	 8.39472245391685E-02 
646	 8.41895233778553E-02 
647	 8.43710582903579E-02 
648	 8.45393256450477E-02 
649	 8.47723993315603E-02 
650	 8.49878907960967E-02 
651	 0.085148229588794 
652	 8.53135859395517E-02 
653	 8.56119239356979E-02 
654	 8.58295069354908E-02 
655	 0.086015729707086 
656	 8.62334746446415E-02 
657	 0.086448999056992 
658	 8.66926530541068E-02 
659	 8.69721534116751E-02 
660	 8.72705653224371E-02 
661	 8.74846571532299E-02 
662	 8.77008703660317E-02 
663	 8.79632245071121E-02 
664	 8.82264794917879E-02 
665	 8.85240274734714E-02 
666	 8.88019777022504E-02 
667	 8.90311402680793E-02 
668	 8.93847739453148E-02 
669	 8.97432572064393E-02 
670	 9.00641594349998E-02 
671	 9.03777942651116E-02 
672	 0.090707931025839 
673	 9.10648345903414E-02 
674	 9.14425168582807E-02 
675	 9.18090949081961E-02 
676	 9.21580846859178E-02 
677	 9.25114970184968E-02 
678	 9.28976198191795E-02 
679	 9.32759388386719E-02 
680	 9.36778081008435E-02 
681	 9.41050700987946E-02 
682	 9.45150330488246E-02 
683	 9.48760921103331E-02 
684	 9.52776373875175E-02 
685	 9.57846790693811E-02 
686	 9.62636505067543E-02 
687	 9.66969355024594E-02 
688	 9.71408385196783E-02 
689	 9.76842731007854E-02 
690	 9.81488074104263E-02 
691	 9.85737998275399E-02 
692	 9.90257554718053E-02 
693	 9.95637471774647E-02 
694	 0.100096380931857 
695	 0.100601920547564 
696	 0.101096139655419 
697	 0.101640622156043 
698	 0.102186363163344 
699	 0.102723369131189 
700	 0.103289153306025 
701	 0.10386078209145 
702	 0.104407749070731 
703	 0.104925748154578 
704	 0.105483297965621 
705	 0.106060695807299 
706	 0.1066306908805 
707	 0.10717021644565 
708	 0.107742231481203 
709	 0.10830750414388 
710	 0.108868119563858 
711	 0.109506807735823 
712	 0.110051210128124 
713	 0.110562117001887 
714	 0.11113244118231 
715	 0.111702589859282 
716	 0.11226414327003 
717	 0.112820282909077 
718	 0.113379996828439 
719	 0.113928661442744 
720	 0.114450092886846 
721	 0.114946484969724 
722	 0.115454112498608 
723	 0.115964433385304 
724	 0.116470747913723 
725	 0.116959779739108 
726	 0.117392191161155 
727	 0.117781044651216 
728	 0.11816899835077 
729	 0.118613969435181 
730	 0.119007297246672 
731	 0.119350340037363 
732	 0.119669236109348 
733	 0.119999377743334 
734	 0.120283198664586 
735	 0.120531568436314 
736	 0.120779926146483 
737	 0.12102394589581 
738	 0.121228590182406 
739	 0.121400866019671 
740	 0.121593517129949 
741	 0.121756264881834 
742	 0.121858145112172 
743	 0.121899850491421 
744	 0.121954452146632 
745	 0.121961215181309 
746	 0.121954026565349 
747	 0.121989587373724 
748	 0.121957475925395 
749	 0.121845946040494 
750	 0.121713480979987 
751	 0.121685930717074 
752	 0.121597482913274 
753	 0.121467030131294 
754	 0.121329069734166 
755	 0.121124408900545 
756	 0.120935864965995 
757	 0.1207480666711 
758	 0.12050328941897 
759	 0.120242280091758 
760	 0.119968442406651 
761	 0.119685903677325 
762	 0.119403021188443 
763	 0.119135600960554 
764	 0.118848221658725 
765	 0.118516320131171 
766	 0.118178664726643 
767	 0.117861278957215 
768	 0.117536872032198 
769	 0.1171626299506 
770	 0.116808043830176 
771	 0.11644635258504 
772	 0.11606979474519 
773	 0.115702551883953 
774	 0.115301781101929 
775	 0.114917948238901 
776	 0.114578956800272 
777	 0.114197735662833 
778	 0.113799686207872 
779	 0.11342341236924 
780	 0.113091873982547 
781	 0.112684889997919 
782	 0.11228559860581 
783	 0.1119174079173 
784	 0.111526515089167 
785	 0.111152894748761 
786	 0.110771688746857 
787	 0.110373422736043 
788	 0.110016038102361 
789	 0.109643182285138 
790	 0.109262466354162 
791	 0.108890798440041 
792	 0.108451720657368 
793	 0.108095630536241 
794	 0.107821531722263 
795	 0.10749355257398 
796	 0.107124052034388 
797	 0.106764801468827 
798	 0.106441354452652 
799	 0.106117599543536 
800	 0.105787604005608 
801	 0.105448462804727 
802	 0.105107698580725 
803	 0.104801530658321 
804	 0.104504461886203 
805	 0.10419941072814 
806	 0.103882847412788 
807	 0.103604686574561 
808	 0.103323568283549 
809	 0.103028133446728 
810	 0.102757487891804 
811	 0.102524479675521 
812	 0.102262934853876 
813	 0.101949328384199 
814	 0.101727088027832 
815	 0.101468735836514 
816	 0.101203459079872 
817	 0.101004369687166 
818	 0.100809703355662 
819	 0.100593370175071 
820	 0.100351131070753 
821	 0.100101753216111 
822	 9.99067836535075E-02 
823	 9.97179244286101E-02 
824	 9.95083728465314E-02 
825	 9.93155033302739E-02 
826	 9.91422292343006E-02 
827	 9.89619513744827E-02 
828	 9.87661508464387E-02 
829	 9.86379748713701E-02 
830	 9.84480956571655E-02 
831	 9.82520313029153E-02 
832	 9.81615033227193E-02 
833	 9.80278653775122E-02 
834	 9.78921315273223E-02 
835	 9.77598315206191E-02 
836	 9.76017678119863E-02 
837	 9.75608845397617E-02 
838	 9.74961757341161E-02 
839	 9.73360807035137E-02 
840	 9.72058341085017E-02 
841	 9.70829938269623E-02 
842	 9.69818185650419E-02 
843	 9.69139179418832E-02 
844	 9.68690304180231E-02 
845	 9.67828521339231E-02 
846	 9.66774908039663E-02 
847	 0.096605986539327 
848	 9.65304170158243E-02 
849	 9.64570367537273E-02 
850	 9.64040175265781E-02 
851	 0.096389882404456 
852	 9.63528581821177E-02 
853	 9.63156934205681E-02 
854	 9.62871376766966E-02 
855	 9.62386347901853E-02 
856	 9.62470921497657E-02 
857	 9.62575664463774E-02 
858	 9.62215194658687E-02 
859	 9.61837026831123E-02 
860	 9.61934969478339E-02 
861	 9.62287275847421E-02 
862	 9.62461848344785E-02 
863	 0.096245783168724 
864	 9.62767728389877E-02 
865	 9.63365032275984E-02 
866	 0.09638520997495 
867	 9.63813929981553E-02 
868	 0.096403007487217 
869	 9.64534856430722E-02 
870	 9.64600909439455E-02 
871	 9.65428351657144E-02 
872	 9.66555835475185E-02 
873	 9.67543479459715E-02 
874	 9.68456949433521E-02 
875	 9.68954885018425E-02 
876	 0.096924065196326 
877	 9.69734090320647E-02 
878	 9.71043673719636E-02 
879	 9.72413251790291E-02 
880	 9.73539020639555E-02 
881	 9.74496572872273E-02 
882	 9.76112317705388E-02 
883	 9.77715675766368E-02 
884	 9.79022780900967E-02 
885	 9.80135914702787E-02 
886	 9.81879022345865E-02 
887	 9.83211550750492E-02 
888	 9.84345331549141E-02 
889	 0.098648763815928 
890	 9.88568899772835E-02 
891	 9.90418286658694E-02 
892	 9.92049667200898E-02 
893	 9.93549513428008E-02 
894	 9.94491268016125E-02 
895	 9.96079405090059E-02 
896	 9.98817772599048E-02 
897	 0.100144385375589 
898	 0.100342996422916 
899	 0.100546796476495 
900	 0.100806287932818 
901	 0.101021272386997 
902	 0.10124360811517 
903	 0.10151074768631 
904	 0.10181675611923 
905	 0.102016501094435 
906	 0.102253095316704 
907	 0.102546097925428 
908	 0.102857316105716 
909	 0.10321897029942 
910	 0.10350201794139 
911	 0.10376000385336 
912	 0.104130895975437 
913	 0.104405344804181 
914	 0.104731093893155 
915	 0.105110368026581 
916	 0.105412688966439 
917	 0.105781798850402 
918	 0.106177782450706 
919	 0.10653885675693 
920	 0.106823166346462 
921	 0.107228601061827 
922	 0.107634896353907 
923	 0.107990401513381 
924	 0.108422304408901 
925	 0.108883015457678 
926	 0.109320595591994 
927	 0.109717930467779 
928	 0.110121831975312 
929	 0.110574256243016 
930	 0.111036965605896 
931	 0.111479147840784 
932	 0.11193670706696 
933	 0.112487588907717 
934	 0.113053935286559 
935	 0.11354902942511 
936	 0.114004188089605 
937	 0.114499718434135 
938	 0.115028791651706 
939	 0.115578088675266 
940	 0.116237720229931 
941	 0.116875102216468 
942	 0.117456520021035 
943	 0.118004340011716 
944	 0.118552340717127 
945	 0.119205780584053 
946	 0.119877855428285 
947	 0.120447661940758 
948	 0.121079642840599 
949	 0.121639498823543 
950	 0.122198068816794 
951	 0.122907898139952 
952	 0.123764393528629 
953	 0.124455479677875 
954	 0.125024465869426 
955	 0.125706650470894 
956	 0.126510928633214 
957	 0.127278296246848 
958	 0.127993743218636 
959	 0.128730535403972 
960	 0.129457632397374 
961	 0.130209527775988 
962	 0.131038340896418 
963	 0.131950510764375 
964	 0.132666069369492 
965	 0.133491586105548 
966	 0.134407890181944 
967	 0.135200387933659 
968	 0.136059322792397 
969	 0.136944571507386 
970	 0.137823383700601 
971	 0.138692512496443 
972	 0.139641148305873 
973	 0.140577099954701 
974	 0.141454485268642 
975	 0.142308626176229 
976	 0.14335655322521 
977	 0.144377710941438 
978	 0.145246377559467 
979	 0.146002813650649 
980	 0.147063354351377 
981	 0.14803215319006 
982	 0.148932165161217 
983	 0.150028840433546 
984	 0.151199640265909 
985	 0.152267211916757 
986	 0.153218205905675 
987	 0.154164503091283 
988	 0.155263886203136 
989	 0.15632777188008 
990	 0.157395783837425 
991	 0.158574482744632 
992	 0.159673193566069 
993	 0.160669279625967 
994	 0.161701311722056 
995	 0.162864941362811 
996	 0.163785452764595 
997	 0.164918463745096 
998	 0.166134980378323 
999	 0.167194295128269 
1000	 0.168361574781368 
1001	 0.167508738772644 
1002	 0.168515590086524 
1003	 0.169576222097395 
1004	 0.170622443381598 
1005	 0.171611120075495 
1006	 0.172633074511415 
1007	 0.173685502226999 
1008	 0.174771991851622 
1009	 0.175755005157846 
1010	 0.1767617189151 
1011	 0.177780778615058 
1012	 0.17873792318999 
1013	 0.17976328443179 
1014	 0.180853875948841 
1015	 0.181907907337116 
1016	 0.182921392029314 
1017	 0.183933698146795 
1018	 0.184931307822186 
1019	 0.185887098849972 
1020	 0.186828142891544 
1021	 0.187804496696589 
1022	 0.188736250678917 
1023	 0.189642034588275 
1024	 0.190571306758394 
1025	 0.191495620521688 
1026	 0.192375639206 
1027	 0.193301430581485 
1028	 0.194271656469985 
1029	 0.195190312082883 
1030	 0.196096660277696 
1031	 0.196969822879074 
1032	 0.1978023857002 
1033	 0.198634206928293 
1034	 0.199518763475404 
1035	 0.200404218440348 
1036	 0.201323062613316 
1037	 0.20223072890669 
1038	 0.203107867904332 
1039	 0.203993324905542 
1040	 0.20487889032772 
1041	 0.205747345576637 
1042	 0.206568451492167 
1043	 0.20733877207467 
1044	 0.208158300145127 
1045	 0.208987589677492 
1046	 0.209833594798092 
1047	 0.210702386500997 
1048	 0.211599084258116 
1049	 0.212407119593235 
1050	 0.21324650826949 
1051	 0.214098386299821 
1052	 0.214879312544049 
1053	 0.215727210502159 
1054	 0.216586707819948 
1055	 0.217379794157996 
1056	 0.218179994089116 
1057	 0.219024850822927 
1058	 0.219899699491328 
1059	 0.22074429234732 
1060	 0.221590253712646 
1061	 0.222489657193093 
1062	 0.223329970692215 
1063	 0.224158636327553 
1064	 0.225035760991284 
1065	 0.225897727062734 
1066	 0.226751322229287 
1067	 0.227590017301182 
1068	 0.228436736519627 
1069	 0.229292031668386 
1070	 0.230127899994945 
1071	 0.230949997207235 
1072	 0.231789268803317 
1073	 0.232586863157809 
1074	 0.233450719695716 
1075	 0.234348488096987 
1076	 0.235276022191119 
1077	 0.236208576631431 
1078	 0.237075583659462 
1079	 0.237930893155745 
1080	 0.238797111434399 
1081	 0.239671648090998 
1082	 0.240584627660818 
1083	 0.241455295973379 
1084	 0.242300140270445 
1085	 0.243164426941349 
1086	 0.244001761914357 
1087	 0.244861250685912 
1088	 0.245732905750463 
1089	 0.246622257374202 
1090	 0.247527997151137 
1091	 0.248445891594645 
1092	 0.249352185602013 
1093	 0.250275974617378 
1094	 0.251194672461874 
1095	 0.252048639330809 
1096	 0.252916031727542 
1097	 0.253826418443734 
1098	 0.254719741540617 
1099	 0.255601625740698 
1100	 0.256504919255836 
1101	 0.257429990048814 
1102	 0.258332056522632 
1103	 0.259230610397486 
1104	 0.260122926192974 
1105	 0.261029752829443 
1106	 0.261932680089149 
1107	 0.262867509999449 
1108	 0.263829928273342 
1109	 0.26476161043508 
1110	 0.265681331127539 
1111	 0.266606144941952 
1112	 0.267520929574912 
1113	 0.268427668467367 
1114	 0.269338148965612 
1115	 0.270250326270747 
1116	 0.271145969232443 
1117	 0.272056754354523 
1118	 0.272988771361061 
1119	 0.273890496817619 
1120	 0.274819582900527 
1121	 0.275744133186117 
1122	 0.276675189103178 
1123	 0.277652403486574 
1124	 0.278617493790896 
1125	 0.279607145091887 
1126	 0.280559647395775 
1127	 0.281483977334881 
1128	 0.282434008632493 
1129	 0.283371749974218 
1130	 0.284320969564975 
1131	 0.285310428935033 
1132	 0.286269146897018 
1133	 0.287213310501326 
1134	 0.28815130628212 
1135	 0.289070123803841 
1136	 0.289992476272372 
1137	 0.290927281566489 
1138	 0.291855878765117 
1139	 0.292783915686175 
1140	 0.293717987014663 
1141	 0.29464507510182 
1142	 0.295570328371043 
1143	 0.296484262272927 
1144	 0.297401765404575 
1145	 0.298302001742991 
1146	 0.299183591056992 
1147	 0.300061068542656 
1148	 0.300923584832662 
1149	 0.301792359509756 
1150	 0.302649343858555 
1151	 0.303528178322751 
1152	 0.304400758316595 
1153	 0.305258626092971 
1154	 0.306121188304142 
1155	 0.30697461806087 
1156	 0.307839402243809 
1157	 0.308720645728084 
1158	 0.309581609688007 
1159	 0.310449083555234 
1160	 0.311292933228256 
1161	 0.312107188212775 
1162	 0.312934748536759 
1163	 0.313769708465855 
1164	 0.314585333909123 
1165	 0.315396371841569 
1166	 0.316206231983193 
1167	 0.316983155967196 
1168	 0.3177668745035 
1169	 0.318558012863237 
1170	 0.319348531501285 
1171	 0.320147736161712 
1172	 0.320982731207985 
1173	 0.321754474014558 
1174	 0.322507167121527 
1175	 0.323253313478767 
1176	 0.323960427845239 
1177	 0.324672213571392 
1178	 0.325390831357992 
1179	 0.326094661071771 
1180	 0.326766908562403 
1181	 0.327459678228451 
1182	 0.328165969771591 
1183	 0.328870026225879 
1184	 0.329550201700723 
1185	 0.330229721533677 
1186	 0.330893788846543 
1187	 0.331532649928952 
1188	 0.332176673348467 
1189	 0.332846790322052 
1190	 0.333453832678985 
1191	 0.334016764314676 
1192	 0.334590799201049 
1193	 0.335126879882481 
1194	 0.335678741231106 
1195	 0.336267779256065 
1196	 0.336810187640817 
1197	 0.337322669079571 
1198	 0.337832033751951 
1199	 0.338327329280453 
1200	 0.338785113665919 
1201	 0.339285101056904 
1202	 0.339801839669491 
1203	 0.340303139640767 
1204	 0.340824771689719 
1205	 0.341310962138873 
1206	 0.341769684964123 
1207	 0.342236635896146 
1208	 0.342702339651007 
1209	 0.343149821520562 
1210	 0.343601059724532 
1211	 0.344025288276798 
1212	 0.344411978223828 
1213	 0.344808985041892 
1214	 0.34518745202945 
1215	 0.345578374419868 
1216	 0.345974788718358 
1217	 0.346390416937601 
1218	 0.346768108584832 
1219	 0.347139415973485 
1220	 0.347500123161006 
1221	 0.347834186180418 
1222	 0.348175756422509 
1223	 0.348530546652707 
1224	 0.348855685738359 
1225	 0.349154802768115 
1226	 0.349463432515361 
1227	 0.349759650577285 
1228	 0.350058577521484 
1229	 0.350366610865979 
1230	 0.350666449254924 
1231	 0.350964084964822 
1232	 0.351251790870297 
1233	 0.351532746119848 
1234	 0.351812061119251 
1235	 0.352072665206323 
1236	 0.352316232731345 
1237	 0.352565795050534 
1238	 0.352808001805689 
1239	 0.353047802971565 
1240	 0.353295146439908 
1241	 0.353521328408378 
1242	 0.353727571024859 
1243	 0.353942095658326 
1244	 0.354153485035471 
1245	 0.354356540216358 
1246	 0.354554897865983 
1247	 0.354756798378403 
1248	 0.35494694126342 
1249	 0.355145469570722 
1250	 0.355354853960303 
1251	 0.355557935660536 
1252	 0.355762272251463 
1253	 0.355965751706895 
1254	 0.356164827743253 
1255	 0.356370749145846 
1256	 0.356557646676632 
1257	 0.356730695987016 
1258	 0.356908488503508 
1259	 0.357087153542417 
1260	 0.357245149887352 
1261	 0.357381395518549 
1262	 0.357538857396083 
1263	 0.357688471133934 
1264	 0.357844321201589 
1265	 0.358037401534757 
1266	 0.358198605536387 
1267	 0.358338851783983 
1268	 0.358474682886947 
1269	 0.358604501744756 
1270	 0.358721806272008 
1271	 0.358836265628354 
1272	 0.358943526360945 
1273	 0.359054093305499 
1274	 0.359150591513388 
1275	 0.359265142258257 
1276	 0.359396691858882 
1277	 0.359512750361788 
1278	 0.359618919310391 
1279	 0.359743427227704 
1280	 0.359890800771387 
1281	 0.360003619799537 
1282	 0.360111931028515 
1283	 0.360213396800029 
1284	 0.36028880200492 
1285	 0.360349815065321 
1286	 0.360434563899727 
1287	 0.36054136169433 
1288	 0.360631744495704 
1289	 0.360717547561505 
1290	 0.360808676376761 
1291	 0.360888465261065 
1292	 0.361002253140683 
1293	 0.361146220372013 
1294	 0.361258591292163 
1295	 0.361380989307393 
1296	 0.361490920620223 
1297	 0.361569442838165 
1298	 0.361669252694202 
1299	 0.361785246760789 
1300	 0.36188664571876 
1301	 0.361984161339121 
1302	 0.362080555776198 
1303	 0.362174175729252 
1304	 0.362263165662187 
1305	 0.362351359545138 
1306	 0.362427494319592 
1307	 0.362510671144269 
1308	 0.362593947210128 
1309	 0.362666409065818 
1310	 0.362739595915821 
1311	 0.362801746861411 
1312	 0.362858446220793 
1313	 0.362893595398091 
1314	 0.362913589009021 
1315	 0.362935955200314 
1316	 0.362926293570647 
1317	 0.362946952208339 
1318	 0.362993245115951 
1319	 0.363018196969919 
1320	 0.363065152058782 
1321	 0.36307208682675 
1322	 0.363048254669212 
1323	 0.363020998461729 
1324	 0.362976528301447 
1325	 0.362929936435771 
1326	 0.362902034822957 
1327	 0.362859048195058 
1328	 0.362803794891946 
1329	 0.362746309527336 
1330	 0.362689397494396 
1331	 0.362615254847714 
1332	 0.362569604420934 
1333	 0.362559094675525 
1334	 0.362499812404741 
1335	 0.362431905851056 
1336	 0.362356748658252 
1337	 0.362234285562128 
1338	 0.36214762489954 
1339	 0.36210175437344 
1340	 0.362011626471485 
1341	 0.361912747281109 
1342	 0.361807382244664 
1343	 0.361678632515757 
1344	 0.361542657565358 
1345	 0.36142093189029 
1346	 0.361266769535136 
1347	 0.361098099510005 
1348	 0.360920028657064 
1349	 0.360699953903717 
1350	 0.360482893389443 
1351	 0.360271445313423 
1352	 0.360042676073639 
1353	 0.35982515661012 
1354	 0.359633636943707 
1355	 0.359408891272931 
1356	 0.359147962157044 
1357	 0.358931129476673 
1358	 0.358695174100191 
1359	 0.358517768635938 
1360	 0.358392348209376 
1361	 0.358265819099594 
1362	 0.358160432532856 
1363	 0.358074725941458 
1364	 0.35799433960074 
1365	 0.357948752222297 
1366	 0.357935906326941 
1367	 0.357938497520789 
1368	 0.358000708340054 
1369	 0.358022002880539 
1370	 0.358000667687719 
1371	 0.357979418644887 
1372	 0.357859272638904 
1373	 0.357692579995124 
1374	 0.357502375476674 
1375	 0.357301864787635 
1376	 0.356989349632363 
1377	 0.356630491124136 
1378	 0.356187849641867 
1379	 0.355587889351725 
1380	 0.355078398896621 
1381	 0.354527221532532 
1382	 0.354018776843936 
1383	 0.353597240111322 
1384	 0.353089313168977 
1385	 0.352594519106452 
1386	 0.352021139682083 
1387	 0.351395313800742 
1388	 0.350715812755321 
1389	 0.350004280655541 
1390	 0.349198561065512 
1391	 0.34832068318814 
1392	 0.347343463502454 
1393	 0.346261448747099 
1394	 0.345149624891197 
1395	 0.34398810295355 
1396	 0.342806893039244 
1397	 0.341631551693211 
1398	 0.340455089949661 
1399	 0.339229362626605 
1400	 0.33798987606739 
1401	 0.336717689082641 
1402	 0.335369951835402 
1403	 0.334093054471936 
1404	 0.332804315545295 
1405	 0.331572225367966 
1406	 0.330402580967149 
1407	 0.329204658950656 
1408	 0.328003657965903 
1409	 0.326849628336174 
1410	 0.325654585222207 
1411	 0.324584809725472 
1412	 0.323593028715516 
1413	 0.322655330822206 
1414	 0.321810749643318 
1415	 0.320989140777262 
1416	 0.32017080845883 
1417	 0.319410007776975 
1418	 0.31867125755998 
1419	 0.317972243169244 
1420	 0.317350209780953 
1421	 0.316776014494855 
1422	 0.316241140107038 
1423	 0.315738081628349 
1424	 0.31524050225386 
1425	 0.314750176443156 
1426	 0.314301390251006 
1427	 0.313859494334479 
1428	 0.31348687645323 
1429	 0.313170133344644 
1430	 0.312879639648343 
1431	 0.312658216436056 
1432	 0.31241143566188 
1433	 0.312166098051435 
1434	 0.311949712705767 
1435	 0.311713030765327 
1436	 0.311545246229194 
1437	 0.31145630603578 
1438	 0.311346585403503 
1439	 0.311262727968031 
1440	 0.311192975702822 
1441	 0.31107936326488 
1442	 0.310960617080111 
1443	 0.310869170228915 
1444	 0.310809941400501 
1445	 0.310805103810936 
1446	 0.310819431876934 
1447	 0.310826717657798 
1448	 0.310819155674301 
1449	 0.310792221957004 
1450	 0.310760309312429 
1451	 0.3107445794953 
1452	 0.31072791928205 
1453	 0.31073765531203 
1454	 0.310775397712625 
1455	 0.310794626942812 
1456	 0.310825659727407 
1457	 0.310841703446681 
1458	 0.310825679680414 
1459	 0.310849599906773 
1460	 0.310883521857161 
1461	 0.310937200276445 
1462	 0.311008293310923 
1463	 0.311100434075503 
1464	 0.311230000766428 
1465	 0.311338657255182 
1466	 0.311444362071743 
1467	 0.311573490962795 
1468	 0.311666469941035 
1469	 0.311829334156808 
1470	 0.312047695789027 
1471	 0.312291778949915 
1472	 0.312550276814215 
1473	 0.31281844750158 
1474	 0.313052735513718 
1475	 0.313294386049964 
1476	 0.313549724897597 
1477	 0.31381865032203 
1478	 0.314157850353478 
1479	 0.314504152657093 
1480	 0.314852806375896 
1481	 0.315226604443382 
1482	 0.315560144845557 
1483	 0.315859320890274 
1484	 0.316180902432357 
1485	 0.316489047880793 
1486	 0.316817057503205 
1487	 0.317163241719084 
1488	 0.317498814344154 
1489	 0.317852041585976 
1490	 0.318173619001793 
1491	 0.318478121971149 
1492	 0.31878189371859 
1493	 0.319048524419838 
1494	 0.319358030180844 
1495	 0.319687658584548 
1496	 0.320013126133024 
1497	 0.320373397320952 
1498	 0.320701565465825 
1499	 0.32101554660131 
1500	 0.321323037082849 
1501	 0.321620052680123 
1502	 0.321904842560806 
1503	 0.32217815935804 
1504	 0.322440401438446 
1505	 0.322698558876715 
1506	 0.322966364099227 
1507	 0.323257237557235 
1508	 0.323536551645487 
1509	 0.323804710312121 
1510	 0.324064918074358 
1511	 0.324309944582489 
1512	 0.324553619736985 
1513	 0.324791081007549 
1514	 0.325025377956264 
1515	 0.325275319647015 
1516	 0.32551271921576 
1517	 0.325748899476092 
1518	 0.325994724999562 
1519	 0.326229629644859 
1520	 0.326448452515337 
1521	 0.32667688994521 
1522	 0.326911951087416 
1523	 0.327132646108468 
1524	 0.32735305597762 
1525	 0.327557224917049 
1526	 0.32774432405652 
1527	 0.327933329368932 
1528	 0.328102630200929 
1529	 0.328296445004239 
1530	 0.328512231814177 
1531	 0.328708153024133 
1532	 0.328916020957484 
1533	 0.329094673900411 
1534	 0.329236640139995 
1535	 0.32939741015638 
1536	 0.32954203317923 
1537	 0.329712770463787 
1538	 0.329901231345058 
1539	 0.330091431136577 
1540	 0.330310951193132 
1541	 0.330504876150745 
1542	 0.330693655661366 
1543	 0.330874738431939 
1544	 0.33103213541839 
1545	 0.331197272758809 
1546	 0.331367535203057 
1547	 0.331525932779498 
1548	 0.331686680549162 
1549	 0.331847346524299 
1550	 0.331995916621811 
1551	 0.332142884323579 
1552	 0.332294442009989 
1553	 0.332431026190136 
1554	 0.332541646738626 
1555	 0.332646918892134 
1556	 0.332739013811328 
1557	 0.332840865726658 
1558	 0.332969859459631 
1559	 0.333103975341689 
1560	 0.33322048719541 
1561	 0.333331727669726 
1562	 0.333441929991791 
1563	 0.33353487941287 
1564	 0.333647568985549 
1565	 0.333775574131481 
1566	 0.333895405467085 
1567	 0.33402269724333 
1568	 0.334132607737601 
1569	 0.334243400765352 
1570	 0.334323401406065 
1571	 0.33438252929415 
1572	 0.334437934021416 
1573	 0.334463977734517 
1574	 0.334508312308739 
1575	 0.334542815643728 
1576	 0.334603462951374 
1577	 0.334685314528362 
1578	 0.334760714201445 
1579	 0.334851000622721 
1580	 0.334935008395673 
1581	 0.335021892249357 
1582	 0.335090194614753 
1583	 0.335134781967514 
1584	 0.335211758928017 
1585	 0.335297962640539 
1586	 0.335372500969673 
1587	 0.335479627387897 
1588	 0.335554118087279 
1589	 0.335583269049107 
1590	 0.335638433223107 
1591	 0.33570636894333 
1592	 0.335759060343921 
1593	 0.335809161832781 
1594	 0.335859094999252 
1595	 0.335899494253832 
1596	 0.335938615784499 
1597	 0.335989495130587 
1598	 0.336022900273162 
1599	 0.336039301702412 
1600	 0.33605628644426 
1601	 0.336059156471072 
1602	 0.336070935135826 
1603	 0.336090191596557 
1604	 0.336102330655105 
1605	 0.336097564635373 
1606	 0.336120376558292 
1607	 0.336159924096887 
1608	 0.336190701614618 
1609	 0.336247395476527 
1610	 0.336298016403745 
1611	 0.336323335825365 
1612	 0.336354148777603 
1613	 0.33638816829579 
1614	 0.336426177753831 
1615	 0.336461609770782 
1616	 0.336481147435563 
1617	 0.336496564820927 
1618	 0.33650965735572 
1619	 0.336520927152444 
1620	 0.336540699855467 
1621	 0.336561615109227 
1622	 0.336590763926582 
1623	 0.336599542589639 
1624	 0.336603482590778 
1625	 0.336607585812945 
1626	 0.336594742167738 
1627	 0.336595057379303 
1628	 0.33661614779464 
1629	 0.336596239575973 
1630	 0.336553094588284 
1631	 0.336529965270687 
1632	 0.336491750091104 
1633	 0.336467364006186 
1634	 0.336464356640075 
1635	 0.336445472939036 
1636	 0.336420756557427 
1637	 0.336385548613701 
1638	 0.336342796242462 
1639	 0.336307951232831 
1640	 0.33626409929259 
1641	 0.336227201669919 
1642	 0.336204734316524 
1643	 0.336169769882169 
1644	 0.336113644571816 
1645	 0.336092207397707 
1646	 0.336090214994507 
1647	 0.336074086350368 
1648	 0.336059451554442 
1649	 0.336069894101414 
1650	 0.33610042748889 
1651	 0.336091317644535 
1652	 0.33610277391333 
1653	 0.336069831514726 
1654	 0.335963933700148 
1655	 0.335911513748108 
1656	 0.33587704236932 
1657	 0.335831030595424 
1658	 0.335786131357217 
1659	 0.335751767793268 
1660	 0.335722099925773 
1661	 0.335682476879859 
1662	 0.335660492940027 
1663	 0.33560904871353 
1664	 0.335535147443615 
1665	 0.335455963335063 
1666	 0.335360177869332 
1667	 0.335270232339781 
1668	 0.335157827934989 
1669	 0.335080698140811 
1670	 0.335031652575311 
1671	 0.334961015723131 
1672	 0.334894716408583 
1673	 0.334833252374213 
1674	 0.33476104183407 
1675	 0.334695922696998 
1676	 0.334645753047115 
1677	 0.334591860022782 
1678	 0.334539998795668 
1679	 0.334471313633952 
1680	 0.334397189638177 
1681	 0.334327555343546 
1682	 0.334245103453482 
1683	 0.334164200495017 
1684	 0.33408973161708 
1685	 0.3340173814937 
1686	 0.33393712507247 
1687	 0.333860675461075 
1688	 0.333796226805962 
1689	 0.33372662494169 
1690	 0.333664454641172 
1691	 0.33356946671022 
1692	 0.333454399133928 
1693	 0.333352877685629 
1694	 0.333231200227887 
1695	 0.333117933385187 
1696	 0.333014471680137 
1697	 0.332922093795076 
1698	 0.332838305733301 
1699	 0.332734649737703 
1700	 0.33262566628469 
1701	 0.332538620474911 
1702	 0.332444089190935 
1703	 0.332352620451945 
1704	 0.332298187576072 
1705	 0.332216492150869 
1706	 0.332098602160053 
1707	 0.332007326985806 
1708	 0.331942080891737 
1709	 0.331843607561451 
1710	 0.331734260428792 
1711	 0.331623302986692 
1712	 0.331494721431702 
1713	 0.331368782952901 
1714	 0.331243955989939 
1715	 0.331117415540618 
1716	 0.330972299199501 
1717	 0.330851633538207 
1718	 0.330760834603204 
1719	 0.330635804885652 
1720	 0.330505941794333 
1721	 0.330372535851811 
1722	 0.330214532278496 
1723	 0.330067493182255 
1724	 0.32994719434947 
1725	 0.329774961638947 
1726	 0.329568575997962 
1727	 0.329375523939225 
1728	 0.329152510207562 
1729	 0.328953741470214 
1730	 0.328763645032595 
1731	 0.328599922466112 
1732	 0.328447981297188 
1733	 0.328301410830621 
1734	 0.328196333037075 
1735	 0.328048394539507 
1736	 0.327895342345564 
1737	 0.327706627953449 
1738	 0.327485384616966 
1739	 0.327266757986888 
1740	 0.327014877278149 
1741	 0.326788101246799 
1742	 0.326562808174246 
1743	 0.32636475517855 
1744	 0.326182626198225 
1745	 0.326004804987915 
1746	 0.325855710707563 
1747	 0.325659786645658 
1748	 0.325468398678236 
1749	 0.325263272560509 
1750	 0.325073778087809 
1751	 0.324891152991658 
1752	 0.324660297187967 
1753	 0.324404722711037 
1754	 0.324180316399115 
1755	 0.32397407144508 
1756	 0.32379338901448 
1757	 0.323665034932471 
1758	 0.32350211607387 
1759	 0.323298013300587 
1760	 0.323128789677617 
1761	 0.322955324689543 
1762	 0.322777129852919 
1763	 0.322620872523495 
1764	 0.322438973910635 
1765	 0.322217555716999 
1766	 0.321994431714207 
1767	 0.321808102943134 
1768	 0.321645227158963 
1769	 0.321482639974731 
1770	 0.321349451660559 
1771	 0.321227667712368 
1772	 0.321066398935642 
1773	 0.320891907054916 
1774	 0.320731398766033 
1775	 0.320552737734451 
1776	 0.32035093573184 
1777	 0.320185323839836 
1778	 0.320038134145949 
1779	 0.319870248727146 
1780	 0.319734100716163 
1781	 0.319607307677477 
1782	 0.319485347855817 
1783	 0.319372148001608 
1784	 0.31925709188947 
1785	 0.31916357159293 
1786	 0.319054102034091 
1787	 0.318936430781728 
1788	 0.318827035975095 
1789	 0.318706936138567 
1790	 0.318605859618256 
1791	 0.318513120545023 
1792	 0.318423517141433 
1793	 0.318343775572822 
1794	 0.318262569740605 
1795	 0.318185057079075 
1796	 0.318105296726441 
1797	 0.318048635908102 
1798	 0.317970078836088 
1799	 0.317863790573936 
1800	 0.317759737673269 
1801	 0.312031973087022 
1802	 0.312331655943235 
1803	 0.312689759687678 
1804	 0.313076099864529 
1805	 0.313444484292203 
1806	 0.313792078203338 
1807	 0.314164499756659 
1808	 0.314450828000422 
1809	 0.314682536976859 
1810	 0.314871120680742 
1811	 0.315039634095104 
1812	 0.315107137739858 
1813	 0.315126835393235 
1814	 0.31516675413985 
1815	 0.3151776929483 
1816	 0.315185014349312 
1817	 0.31519002048155 
1818	 0.315186715135776 
1819	 0.315168200090208 
1820	 0.31514217415465 
1821	 0.315111644206642 
1822	 0.31505327901033 
1823	 0.315036570967456 
1824	 0.315046814047388 
1825	 0.315008725672674 
1826	 0.31494897897784 
1827	 0.314867926172269 
1828	 0.314761826292025 
1829	 0.314587893864338 
1830	 0.314472645363429 
1831	 0.314378770691474 
1832	 0.314257522687169 
1833	 0.314150911297234 
1834	 0.314012064362378 
1835	 0.31385704631401 
1836	 0.31372620445648 
1837	 0.313613744419536 
1838	 0.313525564393717 
1839	 0.313451749277321 
1840	 0.313407758101588 
1841	 0.313344272094219 
1842	 0.313306845393143 
1843	 0.313289765429913 
1844	 0.31323325956362 
1845	 0.313168479873032 
1846	 0.313088997221119 
1847	 0.312997186158544 
1848	 0.3128924126496 
1849	 0.312796121156414 
1850	 0.312677673385791 
1851	 0.312564768589813 
1852	 0.312372763402693 
1853	 0.312159985008885 
1854	 0.311945226320538 
1855	 0.311679006034115 
1856	 0.311404490404823 
1857	 0.311111746937543 
1858	 0.310753689906139 
1859	 0.310372977898754 
1860	 0.309917522887694 
1861	 0.30941530482842 
1862	 0.308829949957261 
1863	 0.308154018216328 
1864	 0.307377311938027 
1865	 0.306533593631634 
1866	 0.30560214851909 
1867	 0.304681171457402 
1868	 0.303722580065297 
1869	 0.302721244793229 
1870	 0.301746876424748 
1871	 0.300728861698781 
1872	 0.29967310575203 
1873	 0.298624720074429 
1874	 0.297560952251469 
1875	 0.296470324911956 
1876	 0.295330923302591 
1877	 0.294108061177246 
1878	 0.292766048859093 
1879	 0.291260963186137 
1880	 0.289622101748603 
1881	 0.28782518822925 
1882	 0.285926628563997 
1883	 0.283911129248419 
1884	 0.281735593268336 
1885	 0.2794476959696 
1886	 0.277065292859161 
1887	 0.274521959372644 
1888	 0.271888289916267 
1889	 0.26917276313783 
1890	 0.266371491069119 
1891	 0.263533096573788 
1892	 0.260590959285804 
1893	 0.257660500394068 
1894	 0.254701345869498 
1895	 0.251698150889708 
1896	 0.248654699503299 
1897	 0.245653459214185 
1898	 0.242630811641631 
1899	 0.239677909562123 
1900	 0.236852683532284 
1901	 0.234097721918795 
1902	 0.231483867135199 
1903	 0.229029104666531 
1904	 0.22664718365865 
1905	 0.224351805049778 
1906	 0.222198015762326 
1907	 0.220164617308969 
1908	 0.218238318745407 
1909	 0.216439735324267 
1910	 0.214762506755283 
1911	 0.213199133999557 
1912	 0.211718115200483 
1913	 0.21031969914906 
1914	 0.209005969272035 
1915	 0.2077988144539 
1916	 0.206680826650067 
1917	 0.205645022009535 
1918	 0.204719516115283 
1919	 0.203907543540811 
1920	 0.203184184737854 
1921	 0.202537057571587 
1922	 0.20197252219208 
1923	 0.201489263998912 
1924	 0.201064170060689 
1925	 0.200712209904149 
1926	 0.200407840055796 
1927	 0.200175832072117 
1928	 0.199983341586819 
1929	 0.199816390818691 
1930	 0.199696083880213 
1931	 0.199638320164065 
1932	 0.199629174707652 
1933	 0.199647687803413 
1934	 0.199695204201944 
1935	 0.199765217215586 
1936	 0.199837745055857 
1937	 0.19996240298394 
1938	 0.200120435940167 
1939	 0.200325822756214 
1940	 0.200583070827459 
1941	 0.200858249563073 
1942	 0.201172198347013 
1943	 0.201510834699526 
1944	 0.201843384711513 
1945	 0.202197215325529 
1946	 0.202562897210641 
1947	 0.202934815678569 
1948	 0.203329289970554 
1949	 0.203744055676971 
1950	 0.204170945378702 
1951	 0.204621654132371 
1952	 0.205073433320248 
1953	 0.205523320417196 
1954	 0.205988867343563 
1955	 0.206473185586211 
1956	 0.206991086713636 
1957	 0.207518300727632 
1958	 0.208080562835393 
1959	 0.208644509241766 
1960	 0.209212923782796 
1961	 0.209792832646124 
1962	 0.210386056311253 
1963	 0.210997123815822 
1964	 0.211619063723829 
1965	 0.21226758594458 
1966	 0.212921322579095 
1967	 0.21355678923512 
1968	 0.214180692412614 
1969	 0.214776984313714 
1970	 0.215398362253981 
1971	 0.216019312137583 
1972	 0.216652039145369 
1973	 0.21730145426717 
1974	 0.217943461263028 
1975	 0.218593805531322 
1976	 0.219232208299581 
1977	 0.21985175681752 
1978	 0.220492674379861 
1979	 0.221148900493628 
1980	 0.221811997356004 
1981	 0.222479137811306 
1982	 0.223173178284651 
1983	 0.223851504238123 
1984	 0.224514866834374 
1985	 0.225192249765566 
1986	 0.225887092904309 
1987	 0.226568705265535 
1988	 0.227240119488865 
1989	 0.227928069479655 
1990	 0.228616960029621 
1991	 0.229276664426255 
1992	 0.229940116737126 
1993	 0.230601404695467 
1994	 0.231263087627142 
1995	 0.231920161858634 
1996	 0.232567473133842 
1997	 0.233221417069678 
1998	 0.233858951906693 
1999	 0.234463059350646 
2000	 0.235090859597129 
2001	 0.235727461095804 
2002	 0.236348981850782 
2003	 0.237003948885533 
2004	 0.237687401601452 
2005	 0.238341361202956 
2006	 0.239015469354398 
2007	 0.239647924202679 
2008	 0.240233248312128 
2009	 0.240844865409235 
2010	 0.241451585014324 
2011	 0.242055933698097 
2012	 0.242667837593323 
2013	 0.243277464690285 
2014	 0.24387731721986 
2015	 0.24448153325265 
2016	 0.245093765677399 
2017	 0.245698505700913 
2018	 0.246293277183659 
2019	 0.24688693724576 
2020	 0.247458703536318 
2021	 0.248007903361476 
2022	 0.2485658414634 
2023	 0.249117699168056 
2024	 0.2496627722293 
2025	 0.250198679963255 
2026	 0.250743891056129 
2027	 0.251278505937722 
2028	 0.251825166356335 
2029	 0.252375032339069 
2030	 0.252952005309592 
2031	 0.253482750529816 
2032	 0.254003816033445 
2033	 0.254502847862598 
2034	 0.254955463012869 
2035	 0.255438822170524 
2036	 0.25592679273301 
2037	 0.256404533687676 
2038	 0.256903551568174 
2039	 0.257373889174851 
2040	 0.257816886001549 
2041	 0.25825744724873 
2042	 0.258707183810754 
2043	 0.259132040535329 
2044	 0.259563991161772 
2045	 0.259993691726808 
2046	 0.260430151549904 
2047	 0.260873089862949 
2048	 0.26129718204449 
2049	 0.261727280892396 
2050	 0.262141701552726 
2051	 0.262519230641254 
2052	 0.262918022034488 
2053	 0.263324044014996 
2054	 0.263727430561802 
2055	 0.264138560671826 
2056	 0.264554136235426 
2057	 0.26493965462586 
2058	 0.265310714696024 
2059	 0.265679890270316 
2060	 0.26602351956636 
2061	 0.266381681273574 
2062	 0.266739755945277 
2063	 0.267106820181214 
2064	 0.267478828797398 
2065	 0.267849554074161 
2066	 0.268234898071618 
2067	 0.268606939250016 
2068	 0.268982940226286 
2069	 0.269335230299668 
2070	 0.269681347234732 
2071	 0.270012061672378 
2072	 0.2703591651386 
2073	 0.270703315704104 
2074	 0.271043651561314 
2075	 0.271390793987849 
2076	 0.271732479053643 
2077	 0.27205825115696 
2078	 0.272396613518719 
2079	 0.272763829634073 
2080	 0.27309560593045 
2081	 0.273398399891588 
2082	 0.273717902255808 
2083	 0.274035195619219 
2084	 0.274341955915836 
2085	 0.274643260738359 
2086	 0.274958179630158 
2087	 0.275248859816001 
2088	 0.275508237071298 
2089	 0.27578816946583 
2090	 0.276062230665299 
2091	 0.276354560500688 
2092	 0.276672831552326 
2093	 0.276961537901048 
2094	 0.277238131524105 
2095	 0.277531734410415 
2096	 0.277807623341323 
2097	 0.278098657654831 
2098	 0.27841842057368 
2099	 0.278739556696493 
2100	 0.279038607711508 
2101	 0.27931829077342 
2102	 0.279620996175221 
2103	 0.279922572299025 
2104	 0.280226739419794 
2105	 0.280548782046252 
2106	 0.280857873160643 
2107	 0.28115869000072 
2108	 0.281460678868505 
2109	 0.281759281253938 
2110	 0.282062759331673 
2111	 0.282363939829067 
2112	 0.282667841932798 
2113	 0.282971742944015 
2114	 0.28329232709487 
2115	 0.283593951190831 
2116	 0.283892665824566 
2117	 0.284183370835185 
2118	 0.284464165817917 
2119	 0.284745513858085 
2120	 0.285039538144305 
2121	 0.285291052466783 
2122	 0.285523121107594 
2123	 0.285745957477446 
2124	 0.285912271014558 
2125	 0.286123971356798 
2126	 0.286356701567522 
2127	 0.286583036851361 
2128	 0.286842903434812 
2129	 0.287070065150644 
2130	 0.287285859424227 
2131	 0.287480549139192 
2132	 0.287661033820887 
2133	 0.287820079291793 
2134	 0.28796968531113 
2135	 0.288096207461802 
2136	 0.288231768610694 
2137	 0.288378872322559 
2138	 0.288480474575081 
2139	 0.288559909587304 
2140	 0.288638380598742 
2141	 0.288686648899743 
2142	 0.288726559234102 
2143	 0.288780992731267 
2144	 0.28880021390507 
2145	 0.28876528474207 
2146	 0.288749523443313 
2147	 0.288723982600179 
2148	 0.28870501357492 
2149	 0.288682888506703 
2150	 0.288671821661679 
2151	 0.288642108439748 
2152	 0.288611516994657 
2153	 0.288554374289028 
2154	 0.288487855674824 
2155	 0.288396696586362 
2156	 0.288279265797871 
2157	 0.288151400082445 
2158	 0.288000944805808 
2159	 0.287847182784987 
2160	 0.287653797882383 
2161	 0.287497924572699 
2162	 0.287364311106054 
2163	 0.28721947478166 
2164	 0.28709074129209 
2165	 0.28697030763577 
2166	 0.286806577659085 
2167	 0.286615854200457 
2168	 0.286418092540057 
2169	 0.286185133564285 
2170	 0.285984370187 
2171	 0.285782279508978 
2172	 0.285587931558649 
2173	 0.285417083609311 
2174	 0.28522508771821 
2175	 0.285013334320103 
2176	 0.284825857897942 
2177	 0.284646955750442 
2178	 0.28446496044946 
2179	 0.284298437767994 
2180	 0.284122226625208 
2181	 0.283962730189432 
2182	 0.283762076832958 
2183	 0.283539784927173 
2184	 0.283298854449038 
2185	 0.283065920663832 
2186	 0.282795550799016 
2187	 0.282561998808356 
2188	 0.282354445010407 
2189	 0.282136918957536 
2190	 0.281906364146936 
2191	 0.281703643825307 
2192	 0.281526519696629 
2193	 0.281337561062069 
2194	 0.281131874532963 
2195	 0.280977092087048 
2196	 0.280843128094048 
2197	 0.280713546727947 
2198	 0.280646501513867 
2199	 0.280546277460606 
2200	 0.28039659825887 
2201	 0.280293426271403 
2202	 0.280208344987646 
2203	 0.280125770726117 
2204	 0.280084496587383 
2205	 0.280095996679668 
2206	 0.280079078131416 
2207	 0.280068854888482 
2208	 0.280066060434007 
2209	 0.280064064496012 
2210	 0.280066180039523 
2211	 0.280089135652239 
2212	 0.280093179164525 
2213	 0.280089218358278 
2214	 0.280081390886646 
2215	 0.28005471046311 
2216	 0.280053242114605 
2217	 0.280062597624064 
2218	 0.280065380612314 
2219	 0.280090725171572 
2220	 0.280097009338505 
2221	 0.280094002547083 
2222	 0.280075903484894 
2223	 0.280055996469684 
2224	 0.280023167032013 
2225	 0.279992649728451 
2226	 0.27996383249935 
2227	 0.279904809949114 
2228	 0.279829082291297 
2229	 0.279760955253425 
2230	 0.279666053258304 
2231	 0.279590128770351 
2232	 0.279537504923051 
2233	 0.279463112751808 
2234	 0.279377218009796 
2235	 0.279290844349941 
2236	 0.279194708302664 
2237	 0.279104454570249 
2238	 0.279006576475979 
2239	 0.278924519280258 
2240	 0.278857442606718 
2241	 0.278785592823103 
2242	 0.278709636570032 
2243	 0.278648655254452 
2244	 0.278618077730293 
2245	 0.27855017419665 
2246	 0.278471670687637 
2247	 0.278395710545709 
2248	 0.278291349798324 
2249	 0.278135606776445 
2250	 0.278035139372192 
2251	 0.277950966469679 
2252	 0.277851052726699 
2253	 0.277755504373523 
2254	 0.277676774268747 
2255	 0.277598355539253 
2256	 0.277516516719966 
2257	 0.277469996292455 
2258	 0.277378555962984 
2259	 0.277241889355686 
2260	 0.277139043712561 
2261	 0.277020729538669 
2262	 0.276933126615868 
2263	 0.276882418520489 
2264	 0.276814248351971 
2265	 0.276761592106253 
2266	 0.276695143555104 
2267	 0.276596157707657 
2268	 0.276534605329944 
2269	 0.276501861928701 
2270	 0.276456069217684 
2271	 0.276412394359787 
2272	 0.276334632026155 
2273	 0.276239997733892 
2274	 0.276152569666925 
2275	 0.27608166993765 
2276	 0.276035905546072 
2277	 0.275974698881664 
2278	 0.275922647704053 
2279	 0.275845997473996 
2280	 0.275744071592761 
2281	 0.275666102195808 
2282	 0.275587571240245 
2283	 0.275509725085648 
2284	 0.27545987760821 
2285	 0.275377694365135 
2286	 0.275265741873033 
2287	 0.275163695731292 
2288	 0.275013588936536 
2289	 0.274950643374362 
2290	 0.274967507333898 
2291	 0.274928202667419 
2292	 0.274937287516121 
2293	 0.274888621238556 
2294	 0.274768497569722 
2295	 0.274658615341921 
2296	 0.27452455241429 
2297	 0.274416850604195 
2298	 0.274282523505672 
2299	 0.274112998680034 
2300	 0.274020624101786 
2301	 0.273939194610153 
2302	 0.273828132249884 
2303	 0.273748749528499 
2304	 0.27360917135431 
2305	 0.273427527367037 
2306	 0.273277694839917 
2307	 0.273130311894928 
2308	 0.272989248818782 
2309	 0.272864104345566 
2310	 0.272724681551657 
2311	 0.272605248443291 
2312	 0.272442572231795 
2313	 0.272253061819847 
2314	 0.272036534138318 
2315	 0.271775639312856 
2316	 0.271537031573499 
2317	 0.271269832456746 
2318	 0.271050599810282 
2319	 0.270856589311823 
2320	 0.270660421800855 
2321	 0.270495540660736 
2322	 0.270322693129051 
2323	 0.270148774863186 
2324	 0.269979939040537 
2325	 0.269827150903305 
2326	 0.269636292055374 
2327	 0.26941257052643 
2328	 0.269223276226159 
2329	 0.269000900146691 
2330	 0.268811455949756 
2331	 0.268649213030589 
2332	 0.268466018503517 
2333	 0.26830537014589 
2334	 0.268133530266495 
2335	 0.267929695980817 
2336	 0.267731871832468 
2337	 0.267523891355617 
2338	 0.267292948452519 
2339	 0.267114359259891 
2340	 0.266945545881394 
2341	 0.266702073170695 
2342	 0.266457983909037 
2343	 0.266189541585291 
2344	 0.265852716642204 
2345	 0.265549056696847 
2346	 0.265259280695067 
2347	 0.264958191001375 
2348	 0.264644132392731 
2349	 0.264343241378567 
2350	 0.264033428086511 
2351	 0.263751461213299 
2352	 0.263514655126886 
2353	 0.263207128190475 
2354	 0.262897802798005 
2355	 0.262537425973308 
2356	 0.262067285526118 
2357	 0.261717357345366 
2358	 0.261421740359495 
2359	 0.261091469839068 
2360	 0.26081855741247 
2361	 0.260464627228741 
2362	 0.260018089095343 
2363	 0.259647671117384 
2364	 0.259300697827532 
2365	 0.258941101464493 
2366	 0.258597580741206 
2367	 0.25823956262497 
2368	 0.25787628975506 
2369	 0.257497872102507 
2370	 0.257113625623845 
2371	 0.256734136109889 
2372	 0.256319624008108 
2373	 0.2559548789769 
2374	 0.25565932956714 
2375	 0.255276303388425 
2376	 0.254839380084013 
2377	 0.254312596710872 
2378	 0.253739927853617 
2379	 0.253291921733236 
2380	 0.252892774091083 
2381	 0.252511513219195 
2382	 0.25209719785731 
2383	 0.251643160780561 
2384	 0.251179085777057 
2385	 0.250712743727948 
2386	 0.25029848501491 
2387	 0.249854828471916 
2388	 0.249411613010012 
2389	 0.249009437565693 
2390	 0.248584677006678 
2391	 0.248166155424414 
2392	 0.247756986700696 
2393	 0.247290662518219 
2394	 0.246818755406652 
2395	 0.246388513991769 
2396	 0.245849510970765 
2397	 0.245245020213978 
2398	 0.244665604550936 
2399	 0.244015429510738 
2400	 0.243426777540169 
2401	 0.243028780904233 
2402	 0.242666585203595 
2403	 0.242217088238222 
2404	 0.241853951860541 
2405	 0.241480974668464 
2406	 0.240968006197584 
2407	 0.240526453269828 
2408	 0.24002053373558 
2409	 0.23941247909112 
2410	 0.238894599491674 
2411	 0.238352199717028 
2412	 0.237800806229326 
2413	 0.237293598393943 
2414	 0.236737204436976 
2415	 0.23622417967736 
2416	 0.235682948602243 
2417	 0.235111545376125 
2418	 0.234599550774272 
2419	 0.234095204606057 
2420	 0.233570165976942 
2421	 0.233112276853093 
2422	 0.232582069504514 
2423	 0.231963939853157 
2424	 0.231453923502385 
2425	 0.230916138719823 
2426	 0.23046667084918 
2427	 0.23021099382627 
2428	 0.229781914323372 
2429	 0.229350923741117 
2430	 0.228866403960993 
2431	 0.228197664924924 
2432	 0.227668394481154 
2433	 0.227182363797032 
2434	 0.226703077535541 
2435	 0.226318585643436 
2436	 0.225800890186999 
2437	 0.225172508753738 
2438	 0.224715364659723 
2439	 0.224258546828064 
2440	 0.223824285011476 
2441	 0.223609195147918 
2442	 0.223172569330161 
2443	 0.222552573981955 
2444	 0.222134894100686 
2445	 0.221793934171441 
2446	 0.221231652694365 
2447	 0.220633770913482 
2448	 0.220036141883997 
2449	 0.21921379512913 
2450	 0.218580476157208 
2451	 0.218104888185448 
2452	 0.217632889433161 
2453	 0.217229865714043 
2454	 0.216819435548417 
2455	 0.2164930199602 
2456	 0.216078234139838 
2457	 0.215555149208531 
2458	 0.215037090772218 
2459	 0.214506043393697 
2460	 0.213986987792369 
2461	 0.213480597839546 
2462	 0.212963168607018 
2463	 0.212372120306071 
2464	 0.21193076602103 
2465	 0.211585123300044 
2466	 0.211228689767609 
2467	 0.211015008842547 
2468	 0.210642078468145 
2469	 0.210121311718708 
2470	 0.209581006079612 
2471	 0.209166775974991 
2472	 0.208644220346995 
2473	 0.208085947236589 
2474	 0.207658782721159 
2475	 0.207161097316224 
2476	 0.206665297447017 
2477	 0.20629054989119 
2478	 0.205678267954971 
2479	 0.204991811176822 
2480	 0.204475661556932 
2481	 0.204109254230931 
2482	 0.203955481206228 
2483	 0.203822350677979 
2484	 0.203485321613971 
2485	 0.202938266673639 
2486	 0.202364449881231 
2487	 0.201838411353061 
2488	 0.2013804211557 
2489	 0.200987179126046 
2490	 0.20069347647226 
2491	 0.200510736192506 
2492	 0.200242288134481 
2493	 0.200037790766188 
2494	 0.199733202978233 
2495	 0.199085928568237 
2496	 0.198683849588641 
2497	 0.198338419465875 
2498	 0.197859555724432 
2499	 0.197566966333968 
2500	 0.197254922945589 
