Wavelength	LMW_1300001.asd
350	 7.02559722371741E-02 
351	 0.06847114425307 
352	 5.40378098045563E-02 
353	 0.040551448656028 
354	 5.16467020009736E-02 
355	 5.80731883030256E-02 
356	 5.47455971408941E-02 
357	 4.72717945219435E-02 
358	 5.49062998416773E-02 
359	 5.67449081002987E-02 
360	 5.19182687549024E-02 
361	 5.20914156901785E-02 
362	 0.046856663905025 
363	 4.55427482222319E-02 
364	 4.98917787237448E-02 
365	 4.63063664089184E-02 
366	 4.40733142054155E-02 
367	 0.045040114553682 
368	 4.81163395269568E-02 
369	 4.95336217320509E-02 
370	 5.10305277106899E-02 
371	 5.10452265185498E-02 
372	 4.66771453342607E-02 
373	 4.84956633573243E-02 
374	 4.98916336652424E-02 
375	 4.82752083496942E-02 
376	 0.052359848362932 
377	 4.94240492255256E-02 
378	 4.50857375495103E-02 
379	 4.75239413616511E-02 
380	 0.051400136000619 
381	 5.10662955437963E-02 
382	 4.82440668453287E-02 
383	 4.96622967632717E-02 
384	 5.02568687491178E-02 
385	 5.03439333886106E-02 
386	 5.08162234832828E-02 
387	 5.22979611954799E-02 
388	 5.30628932653062E-02 
389	 5.37479325331977E-02 
390	 5.47694431380445E-02 
391	 5.13069672328762E-02 
392	 5.03662586748469E-02 
393	 5.25409825209772E-02 
394	 0.052829069680896 
395	 5.30317757140601E-02 
396	 5.35499371464305E-02 
397	 5.44648760239228E-02 
398	 5.56705876453042E-02 
399	 5.66264089772742E-02 
400	 5.70374906914877E-02 
401	 5.68187947205352E-02 
402	 5.61064717516117E-02 
403	 5.65193296621995E-02 
404	 5.77302104647685E-02 
405	 5.75177812297688E-02 
406	 5.71474569363967E-02 
407	 5.73505289114739E-02 
408	 5.80053632166149E-02 
409	 5.70503522038707E-02 
410	 5.63310941857683E-02 
411	 5.67565572688126E-02 
412	 5.83497557818111E-02 
413	 5.86990472754735E-02 
414	 0.058044932863856 
415	 5.72281045374509E-02 
416	 0.057475135943231 
417	 5.74029170411543E-02 
418	 5.75952168159182E-02 
419	 5.84765103876056E-02 
420	 5.84136984248317E-02 
421	 5.75644557441869E-02 
422	 5.68740531036143E-02 
423	 5.74797277810012E-02 
424	 5.70137257574426E-02 
425	 5.64397762437331E-02 
426	 5.64342321432369E-02 
427	 5.63973710064816E-02 
428	 5.61767625813612E-02 
429	 5.59630143121881E-02 
430	 5.59805551960946E-02 
431	 5.59571916594675E-02 
432	 5.57490415200961E-02 
433	 0.055722337754633 
434	 5.66380112213352E-02 
435	 5.68002200143334E-02 
436	 5.64732649187068E-02 
437	 5.62130460148152E-02 
438	 5.62149734694649E-02 
439	 5.64894758825208E-02 
440	 5.68242711750852E-02 
441	 5.69520177456204E-02 
442	 5.71821748430881E-02 
443	 5.74033035695719E-02 
444	 5.75124666131197E-02 
445	 5.74705604111293E-02 
446	 0.057507405789832 
447	 5.78341577576076E-02 
448	 5.84166152830655E-02 
449	 0.058239660468249 
450	 0.05846158028266 
451	 5.91209650641074E-02 
452	 5.92960143181837E-02 
453	 5.94439943988104E-02 
454	 5.95637961540027E-02 
455	 5.96743008544213E-02 
456	 6.00614157082795E-02 
457	 0.060223641304487 
458	 6.02227965869122E-02 
459	 6.03399664150242E-02 
460	 6.03686266579298E-02 
461	 6.02404566524896E-02 
462	 6.01007450419974E-02 
463	 6.03699125161872E-02 
464	 6.07488686135378E-02 
465	 6.09377249756784E-02 
466	 6.08175060288276E-02 
467	 6.09491425032426E-02 
468	 6.11454553193642E-02 
469	 6.12942762980039E-02 
470	 6.13676360433812E-02 
471	 6.14585264977037E-02 
472	 6.15392844619744E-02 
473	 6.16133280967471E-02 
474	 6.18410164613743E-02 
475	 6.18155438991251E-02 
476	 6.17357855279456E-02 
477	 6.19852916382686E-02 
478	 6.21572679945771E-02 
479	 0.062265252375152 
480	 6.23050860107976E-02 
481	 6.21889793171017E-02 
482	 6.22158723756314E-02 
483	 6.23963897736803E-02 
484	 6.25943003312298E-02 
485	 6.24716990095327E-02 
486	 0.06231889197387 
487	 6.23298513480488E-02 
488	 6.25690917210319E-02 
489	 6.26069877466591E-02 
490	 6.24722682102269E-02 
491	 6.23466893881609E-02 
492	 6.25995502190638E-02 
493	 0.062632642480165 
494	 6.25350588452548E-02 
495	 0.062669245480578 
496	 6.27786569146394E-02 
497	 6.27751186881077E-02 
498	 6.27375405777797E-02 
499	 6.29772588055399E-02 
500	 6.29640922126464E-02 
501	 6.28574389053458E-02 
502	 6.29323617834296E-02 
503	 6.30201981272757E-02 
504	 6.29684976774476E-02 
505	 6.28752413745158E-02 
506	 6.30386435611177E-02 
507	 6.30419950920421E-02 
508	 6.30090501074181E-02 
509	 6.30492732450582E-02 
510	 6.29153357261946E-02 
511	 6.29858923593941E-02 
512	 6.30966716940618E-02 
513	 6.28806594695409E-02 
514	 6.29838258814172E-02 
515	 6.30974763599831E-02 
516	 6.30612535754878E-02 
517	 6.31633918040629E-02 
518	 6.30886047307245E-02 
519	 6.29422921168027E-02 
520	 6.29414601373563E-02 
521	 6.31279275630746E-02 
522	 6.31989086002269E-02 
523	 6.31067391947562E-02 
524	 6.30862643832807E-02 
525	 6.31467928804472E-02 
526	 6.31890185858325E-02 
527	 6.31464917729946E-02 
528	 6.31417406982128E-02 
529	 6.31757389836278E-02 
530	 6.32286704949533E-02 
531	 6.32642001337919E-02 
532	 6.32179703959417E-02 
533	 6.32543449878923E-02 
534	 6.34193645588245E-02 
535	 6.34576952085669E-02 
536	 6.34124327761856E-02 
537	 0.063394048481378 
538	 6.35114914009173E-02 
539	 6.36219675075318E-02 
540	 6.36696857735519E-02 
541	 6.36767709437136E-02 
542	 6.37542132583045E-02 
543	 0.063872124110564 
544	 6.39676908860784E-02 
545	 6.40102801955839E-02 
546	 6.41573010695652E-02 
547	 6.41775955944794E-02 
548	 6.41380674327605E-02 
549	 6.43414803820027E-02 
550	 6.44328723020407E-02 
551	 6.44920196425165E-02 
552	 6.46211612022249E-02 
553	 6.47676828220333E-02 
554	 6.49368500141017E-02 
555	 6.50980243900186E-02 
556	 6.52136549010885E-02 
557	 6.53562679752589E-02 
558	 6.54963684515505E-02 
559	 6.56556935967821E-02 
560	 6.59836947523459E-02 
561	 6.61567156476914E-02 
562	 6.62854484319397E-02 
563	 6.65798471151024E-02 
564	 6.68885269223776E-02 
565	 6.71586821224445E-02 
566	 6.74107449366906E-02 
567	 6.77390438549114E-02 
568	 6.81757736765908E-02 
569	 6.85822113035566E-02 
570	 6.88610480539696E-02 
571	 6.91875594839127E-02 
572	 6.95669637681848E-02 
573	 7.00189687405471E-02 
574	 7.05515042118718E-02 
575	 7.09220336993885E-02 
576	 7.12792396099208E-02 
577	 7.17290136592097E-02 
578	 7.21322879540669E-02 
579	 7.26202060905482E-02 
580	 0.073214092402803 
581	 7.38816116773302E-02 
582	 7.45941174382892E-02 
583	 7.52276770797032E-02 
584	 7.57792747161672E-02 
585	 7.64291375415725E-02 
586	 7.70058749677892E-02 
587	 0.077552088027597 
588	 7.81451528862734E-02 
589	 7.87350054411243E-02 
590	 7.93358531622219E-02 
591	 7.99521097847002E-02 
592	 8.05786204145447E-02 
593	 8.11491032526783E-02 
594	 8.18005132767865E-02 
595	 8.25916273819568E-02 
596	 8.32683468598862E-02 
597	 8.39988470945181E-02 
598	 8.47612388420955E-02 
599	 8.54509555951846E-02 
600	 8.61817958383656E-02 
601	 8.68705231248561E-02 
602	 8.74693101446051E-02 
603	 8.80358713890403E-02 
604	 8.85774606188813E-02 
605	 8.91076363023947E-02 
606	 8.96362859128728E-02 
607	 9.01448066053671E-02 
608	 9.06892781230438E-02 
609	 9.12494095662705E-02 
610	 9.17181757357581E-02 
611	 9.21813116997586E-02 
612	 0.092646050947102 
613	 9.31038318607728E-02 
614	 9.35747544513142E-02 
615	 9.39610395056041E-02 
616	 0.094273682315306 
617	 0.094598803335047 
618	 9.49577167482506E-02 
619	 9.52609249948335E-02 
620	 9.54736741002614E-02 
621	 9.57022930339445E-02 
622	 9.60131467306306E-02 
623	 9.63423318727189E-02 
624	 9.65865423947932E-02 
625	 9.68159840268181E-02 
626	 9.70378361784889E-02 
627	 9.72550622351898E-02 
628	 9.74701047014069E-02 
629	 9.76953566446907E-02 
630	 9.79218903608265E-02 
631	 9.81336494225369E-02 
632	 9.83092861089852E-02 
633	 9.84910508136589E-02 
634	 9.86870344856988E-02 
635	 9.88767442140612E-02 
636	 9.90647137085034E-02 
637	 0.099266559384431 
638	 9.94716014997856E-02 
639	 9.95929726195464E-02 
640	 9.97554498870863E-02 
641	 9.99629706706596E-02 
642	 0.100166564810993 
643	 0.100397800946601 
644	 0.100591007646499 
645	 0.100740421524608 
646	 0.100938134363153 
647	 0.101115717084781 
648	 0.101299176558727 
649	 0.101525457270191 
650	 0.101767543985436 
651	 0.101973581560765 
652	 0.102160116097365 
653	 0.102399923422709 
654	 0.102658706663004 
655	 0.10285804253992 
656	 0.102998518684077 
657	 0.103301922924961 
658	 0.103583435732728 
659	 0.103839337883116 
660	 0.104134529265825 
661	 0.104364953644105 
662	 0.104599527576753 
663	 0.104882196838194 
664	 0.105198050879905 
665	 0.105502340812247 
666	 0.105789037870201 
667	 0.106075644305811 
668	 0.106414703511167 
669	 0.106775218687321 
670	 0.107121146232085 
671	 0.107420489838522 
672	 0.107752199171272 
673	 0.108086893645798 
674	 0.108413955439026 
675	 0.108821363312699 
676	 0.109208008654342 
677	 0.109550336453353 
678	 0.109872388154307 
679	 0.110249477772651 
680	 0.11068536183317 
681	 0.11114258748897 
682	 0.111541959354254 
683	 0.111955553557969 
684	 0.112394517348335 
685	 0.112848607173628 
686	 0.113289896294335 
687	 0.113744855021034 
688	 0.114222239526855 
689	 0.114712147655415 
690	 0.115156243378438 
691	 0.115602910499709 
692	 0.116091815087655 
693	 0.116619557603301 
694	 0.117118658663272 
695	 0.117595011900057 
696	 0.118081565800366 
697	 0.118579915962913 
698	 0.119097261675396 
699	 0.119628009039463 
700	 0.120154797892799 
701	 0.120689396732419 
702	 0.121226462659587 
703	 0.121760720662802 
704	 0.122293750519805 
705	 0.122846622330977 
706	 0.123393899107884 
707	 0.123898997700188 
708	 0.124459162648272 
709	 0.125015913991108 
710	 0.12555054641507 
711	 0.126129337205096 
712	 0.126670888510862 
713	 0.127184035492792 
714	 0.12770018627381 
715	 0.128225712985852 
716	 0.128752635043119 
717	 0.129280662034492 
718	 0.129810978607472 
719	 0.130304490887957 
720	 0.130758752561468 
721	 0.131189209738117 
722	 0.131628992725984 
723	 0.132115691560664 
724	 0.132612418273901 
725	 0.133061887174332 
726	 0.133458728696041 
727	 0.133837156384667 
728	 0.134198879654437 
729	 0.134516492107359 
730	 0.134855038476095 
731	 0.135195563381482 
732	 0.135514523452627 
733	 0.135821333136073 
734	 0.136073465795706 
735	 0.136283436587084 
736	 0.136488760984899 
737	 0.136721212478281 
738	 0.1368959058147 
739	 0.137009533259142 
740	 0.13715433291247 
741	 0.137288619473562 
742	 0.137397533543936 
743	 0.137469456031644 
744	 0.137485075865179 
745	 0.13748233840148 
746	 0.13749209346633 
747	 0.137519048506605 
748	 0.137430301958482 
749	 0.137297372896099 
750	 0.137175752759297 
751	 0.137076654740528 
752	 0.136995895520829 
753	 0.136868179740646 
754	 0.136664323510097 
755	 0.136500587114203 
756	 0.13630348402808 
757	 0.136069721705517 
758	 0.135833571272992 
759	 0.135623133382486 
760	 0.135355741364823 
761	 0.135032799104297 
762	 0.134769991805637 
763	 0.134486127048941 
764	 0.134181916747237 
765	 0.133871118998006 
766	 0.133550431461994 
767	 0.133202158429859 
768	 0.13285289450985 
769	 0.132537339755668 
770	 0.132180092799266 
771	 0.131821290672077 
772	 0.131465714986911 
773	 0.13106550719562 
774	 0.130680647487855 
775	 0.130319405495704 
776	 0.129965743450528 
777	 0.129572104280978 
778	 0.129194828294433 
779	 0.128830930690182 
780	 0.128451747821458 
781	 0.128056183815261 
782	 0.127675421373804 
783	 0.127314271332583 
784	 0.126946963842202 
785	 0.126549470726932 
786	 0.126150443397608 
787	 0.12577165193867 
788	 0.125388963674477 
789	 0.125036052991055 
790	 0.124679436886554 
791	 0.124278847415233 
792	 0.123898744691859 
793	 0.123546677770768 
794	 0.123205862881984 
795	 0.122846589507022 
796	 0.122508888004064 
797	 0.122162676262716 
798	 0.121802402075357 
799	 0.121487513492993 
800	 0.121160004841892 
801	 0.120818591431955 
802	 0.120478903396789 
803	 0.12014546081355 
804	 0.119849232663016 
805	 0.119562774104292 
806	 0.119234491758226 
807	 0.118948109609063 
808	 0.118652802463328 
809	 0.118347048158866 
810	 0.118107671609857 
811	 0.117857883697323 
812	 0.117555527642154 
813	 0.117215790819523 
814	 0.116981197062101 
815	 0.116746979196491 
816	 0.116499222690834 
817	 0.116263363159444 
818	 0.116063440378739 
819	 0.11584578218098 
820	 0.115595889100133 
821	 0.115341132192308 
822	 0.115131794007171 
823	 0.114911610186775 
824	 0.114666723656268 
825	 0.114480006113515 
826	 0.114277017784352 
827	 0.114072072875399 
828	 0.113899535628643 
829	 0.113783511203094 
830	 0.113619213310704 
831	 0.113442336808771 
832	 0.113333894805337 
833	 0.11318916271618 
834	 0.112998428585205 
835	 0.112799163757531 
836	 0.112663210220469 
837	 0.112611535232002 
838	 0.112523810704992 
839	 0.112358029994319 
840	 0.112243130521091 
841	 0.112145129736701 
842	 0.112049192024639 
843	 0.111945033246496 
844	 0.111823597147129 
845	 0.111751706142133 
846	 0.111683107119394 
847	 0.111550863802402 
848	 0.111495356240865 
849	 0.111458807098656 
850	 0.111400149304073 
851	 0.111312529035703 
852	 0.111274398086267 
853	 0.111239154527143 
854	 0.111190510228944 
855	 0.11118169284045 
856	 0.111230032766814 
857	 0.11125749076679 
858	 0.111212708777403 
859	 0.111166882147287 
860	 0.1111402844623 
861	 0.111139990719775 
862	 0.111162245990549 
863	 0.111203081818406 
864	 0.111202087372379 
865	 0.111209626375863 
866	 0.111313211420011 
867	 0.111344113415887 
868	 0.111357303149348 
869	 0.111401264585592 
870	 0.111487456541307 
871	 0.111515340698424 
872	 0.111579652134586 
873	 0.111692502033833 
874	 0.111685756371783 
875	 0.11173266910837 
876	 0.111829838066103 
877	 0.111928189620181 
878	 0.111974503634276 
879	 0.112098759840936 
880	 0.112246475347264 
881	 0.112334959527204 
882	 0.112457541363108 
883	 0.112616293656763 
884	 0.112762961307809 
885	 0.112844070320489 
886	 0.112940026355221 
887	 0.11312468067767 
888	 0.113358719219861 
889	 0.113524544475449 
890	 0.113727919511764 
891	 0.113894767117029 
892	 0.114009527772381 
893	 0.114153757337488 
894	 0.114322247151686 
895	 0.11452890121094 
896	 0.114764293256169 
897	 0.114977298468875 
898	 0.115201145989149 
899	 0.11543362591581 
900	 0.1156625712711 
901	 0.115865832168233 
902	 0.116136352311571 
903	 0.116416984120001 
904	 0.116628010917653 
905	 0.116810223367704 
906	 0.117079909273094 
907	 0.117359302197318 
908	 0.117541950509418 
909	 0.117895198947942 
910	 0.118231869410124 
911	 0.118537679315088 
912	 0.118907341044543 
913	 0.119238407222785 
914	 0.119542760063703 
915	 0.11984735970225 
916	 0.120177890956403 
917	 0.120499538957407 
918	 0.120824625684556 
919	 0.121151483176362 
920	 0.121462917010163 
921	 0.121858116662788 
922	 0.12232293082049 
923	 0.122775291883741 
924	 0.123085829049799 
925	 0.123500090796615 
926	 0.123968161929228 
927	 0.124402222309058 
928	 0.12477084075741 
929	 0.125206415820986 
930	 0.1257204540323 
931	 0.126243869146592 
932	 0.126607292920591 
933	 0.1271084116438 
934	 0.127662103517351 
935	 0.128124620641541 
936	 0.128530793277079 
937	 0.129012982925343 
938	 0.129563099587946 
939	 0.130130307782087 
940	 0.13072382194174 
941	 0.131277959252108 
942	 0.131817795765205 
943	 0.132377000620613 
944	 0.132850319446613 
945	 0.13340624424025 
946	 0.134039376307349 
947	 0.134646653682877 
948	 0.135103433266385 
949	 0.135696483347902 
950	 0.136408792712548 
951	 0.137077111727246 
952	 0.13773652210475 
953	 0.138346343912011 
954	 0.138928115434635 
955	 0.139548625142475 
956	 0.140307662380513 
957	 0.141036237416285 
958	 0.141715719394689 
959	 0.142421811372309 
960	 0.143134152404272 
961	 0.143801614771154 
962	 0.144462948002814 
963	 0.145196300275866 
964	 0.145949243208697 
965	 0.146690696340053 
966	 0.147439299815759 
967	 0.148247068331487 
968	 0.149160685356535 
969	 0.149947743963562 
970	 0.150603707302455 
971	 0.151295924241959 
972	 0.152092424105155 
973	 0.153018306472253 
974	 0.153920236882875 
975	 0.15462011387789 
976	 0.155454615795298 
977	 0.156327970301244 
978	 0.157152373670325 
979	 0.157907920264295 
980	 0.158810564238052 
981	 0.1596089221429 
982	 0.160332326383672 
983	 0.161177943102138 
984	 0.162118045517089 
985	 0.162999249384942 
986	 0.163864864351333 
987	 0.164837819392368 
988	 0.165826406860761 
989	 0.166609050488584 
990	 0.167356865286748 
991	 0.168328525316458 
992	 0.169180712112642 
993	 0.170023337542297 
994	 0.170903083573194 
995	 0.171837531026598 
996	 0.172895387744338 
997	 0.173778949954678 
998	 0.174599058040551 
999	 0.175560721953676 
1000	 0.17654749581167 
1001	 0.176533015454643 
1002	 0.177325104602316 
1003	 0.178090338228327 
1004	 0.178898626926613 
1005	 0.179753128503816 
1006	 0.180573965297179 
1007	 0.181392974753165 
1008	 0.182240825930716 
1009	 0.182992499826716 
1010	 0.183726742253595 
1011	 0.184560379740588 
1012	 0.185325930113572 
1013	 0.186128047137375 
1014	 0.186989304694922 
1015	 0.187726989026632 
1016	 0.188470349054535 
1017	 0.1892212000509 
1018	 0.189980357996916 
1019	 0.190670650584323 
1020	 0.191384230080149 
1021	 0.192088678972224 
1022	 0.192748025086371 
1023	 0.19347349964849 
1024	 0.194229918535646 
1025	 0.194952347425219 
1026	 0.195655910523887 
1027	 0.196302504202835 
1028	 0.196957893297583 
1029	 0.197648092094081 
1030	 0.198342785035486 
1031	 0.199024406860423 
1032	 0.199735716043702 
1033	 0.200380768838934 
1034	 0.201013595076023 
1035	 0.201629495383608 
1036	 0.202211596965358 
1037	 0.202873072669937 
1038	 0.203480922676185 
1039	 0.204076162113023 
1040	 0.204754332261611 
1041	 0.205342642972258 
1042	 0.205938422220698 
1043	 0.206590489216938 
1044	 0.207213685106287 
1045	 0.207809824405147 
1046	 0.208457813248874 
1047	 0.209106644937795 
1048	 0.209671533482895 
1049	 0.210239612528605 
1050	 0.210805325883412 
1051	 0.211349797388072 
1052	 0.211944385284552 
1053	 0.212573287566947 
1054	 0.213152971854417 
1055	 0.213692376929719 
1056	 0.214215218651486 
1057	 0.214749271105857 
1058	 0.215241550884082 
1059	 0.215800539406946 
1060	 0.216400325660785 
1061	 0.217006807794173 
1062	 0.217619302379542 
1063	 0.218144651428944 
1064	 0.218591490117167 
1065	 0.219066947933515 
1066	 0.219522979983791 
1067	 0.219990874115219 
1068	 0.220515139351216 
1069	 0.221009825285885 
1070	 0.221500299026838 
1071	 0.221984448051609 
1072	 0.222470934475625 
1073	 0.222940854470034 
1074	 0.223422023589131 
1075	 0.223911755026241 
1076	 0.224392876329138 
1077	 0.224836347107759 
1078	 0.225280315106116 
1079	 0.225740718757506 
1080	 0.226209401213716 
1081	 0.226696406750288 
1082	 0.227208882823802 
1083	 0.227715066083691 
1084	 0.228229829552468 
1085	 0.228702836132367 
1086	 0.229171392939866 
1087	 0.229628594102988 
1088	 0.230048087101168 
1089	 0.230460856810317 
1090	 0.230927530524095 
1091	 0.231414168677146 
1092	 0.231877087941546 
1093	 0.232308126587743 
1094	 0.232742500613763 
1095	 0.233179969237588 
1096	 0.233645929882727 
1097	 0.234126728480699 
1098	 0.234586329511198 
1099	 0.235042615924784 
1100	 0.235501735223826 
1101	 0.235936040879778 
1102	 0.236394885919391 
1103	 0.23689185574757 
1104	 0.237338404682075 
1105	 0.237788114348563 
1106	 0.238278559746978 
1107	 0.2387385688403 
1108	 0.239210354783848 
1109	 0.239661618748593 
1110	 0.240109766511303 
1111	 0.240600698745296 
1112	 0.241129194795689 
1113	 0.241618531168383 
1114	 0.242116707662625 
1115	 0.242619322451233 
1116	 0.243093264946835 
1117	 0.243589208932606 
1118	 0.244117497358893 
1119	 0.244634938673237 
1120	 0.245115934871208 
1121	 0.245604397678982 
1122	 0.246119772394539 
1123	 0.24662507094042 
1124	 0.24712337840439 
1125	 0.2476420994254 
1126	 0.248131772685238 
1127	 0.248586947353575 
1128	 0.249066763371234 
1129	 0.249556078114071 
1130	 0.250023402375587 
1131	 0.250467028862496 
1132	 0.250942967319994 
1133	 0.251426422485579 
1134	 0.251914603879107 
1135	 0.252427069475947 
1136	 0.252937626498492 
1137	 0.253454152277783 
1138	 0.253918738060939 
1139	 0.254370526580711 
1140	 0.254807861217356 
1141	 0.255245801607413 
1142	 0.255653260018797 
1143	 0.256075664688694 
1144	 0.256517213411614 
1145	 0.256927021088577 
1146	 0.257305261533267 
1147	 0.257702073782598 
1148	 0.258104465556991 
1149	 0.258494176294201 
1150	 0.258873042127255 
1151	 0.259277053097287 
1152	 0.259662813552789 
1153	 0.260042061671234 
1154	 0.260416614810466 
1155	 0.260802748901561 
1156	 0.261156316111813 
1157	 0.261475688221203 
1158	 0.261826981191116 
1159	 0.262185547705728 
1160	 0.262529450031788 
1161	 0.262887880092666 
1162	 0.263225053564457 
1163	 0.26353271421122 
1164	 0.263852091038666 
1165	 0.264174200889377 
1166	 0.264499425323148 
1167	 0.264800820522248 
1168	 0.265103186612968 
1169	 0.265419710877861 
1170	 0.265738585348933 
1171	 0.266050406891759 
1172	 0.266388481791948 
1173	 0.266684888056421 
1174	 0.266943290059553 
1175	 0.267224888742327 
1176	 0.267501770482922 
1177	 0.26777811197439 
1178	 0.268072856490969 
1179	 0.268346242827687 
1180	 0.268594281691161 
1181	 0.268857079693391 
1182	 0.26912795273095 
1183	 0.269384991567012 
1184	 0.269638012617565 
1185	 0.269893695143957 
1186	 0.270143555380073 
1187	 0.270388315163208 
1188	 0.270617575299735 
1189	 0.270842277267982 
1190	 0.271062908503174 
1191	 0.271269818268929 
1192	 0.271469778927246 
1193	 0.271666061548711 
1194	 0.271863091591841 
1195	 0.272040720403451 
1196	 0.272229842147966 
1197	 0.272439648422498 
1198	 0.272632766107284 
1199	 0.272819845436515 
1200	 0.273001325881381 
1201	 0.273183448014112 
1202	 0.273357484784645 
1203	 0.273534034833593 
1204	 0.273721501496525 
1205	 0.273885082286751 
1206	 0.274025009239399 
1207	 0.274186766301834 
1208	 0.274352992401233 
1209	 0.274507927477889 
1210	 0.274676244055975 
1211	 0.274828769762525 
1212	 0.274951595176302 
1213	 0.275089732770003 
1214	 0.27523233662864 
1215	 0.275376254171134 
1216	 0.275522800546091 
1217	 0.275681258488623 
1218	 0.275815084307715 
1219	 0.275937802600031 
1220	 0.276067949717431 
1221	 0.27618448185473 
1222	 0.27631256786015 
1223	 0.276465906283013 
1224	 0.276586626502816 
1225	 0.276688913090496 
1226	 0.27679597590771 
1227	 0.276882917244607 
1228	 0.276983166393651 
1229	 0.27708833387899 
1230	 0.2772012278378 
1231	 0.277319618968627 
1232	 0.277441023141389 
1233	 0.277567447081493 
1234	 0.277713248285437 
1235	 0.277822934845696 
1236	 0.277920081687486 
1237	 0.278020578957848 
1238	 0.278100406732557 
1239	 0.278193406913831 
1240	 0.278300158624103 
1241	 0.278394560502449 
1242	 0.278472414786205 
1243	 0.278568623973148 
1244	 0.278684519351526 
1245	 0.278776542630701 
1246	 0.27886799516729 
1247	 0.278953433728439 
1248	 0.27900700690158 
1249	 0.279078179509231 
1250	 0.279179599071876 
1251	 0.2792732976927 
1252	 0.279359745695093 
1253	 0.279457291340404 
1254	 0.279531893782375 
1255	 0.279574436876826 
1256	 0.279651990873849 
1257	 0.279736443003042 
1258	 0.279823819194304 
1259	 0.279924025217239 
1260	 0.280027996857166 
1261	 0.280146317529823 
1262	 0.280246546485713 
1263	 0.280358018926866 
1264	 0.2804479975474 
1265	 0.280506815936145 
1266	 0.280571638234861 
1267	 0.28063543067883 
1268	 0.280685323110408 
1269	 0.280746281471619 
1270	 0.280804722279351 
1271	 0.280875481103809 
1272	 0.280956324449459 
1273	 0.281032284181518 
1274	 0.281118800239518 
1275	 0.281192484473101 
1276	 0.281254847340155 
1277	 0.281323271033456 
1278	 0.281390127345033 
1279	 0.28145405085637 
1280	 0.281519216481136 
1281	 0.281585213549317 
1282	 0.281653735935433 
1283	 0.281714759684441 
1284	 0.281769638362381 
1285	 0.281829654345417 
1286	 0.281878077657911 
1287	 0.281916468526197 
1288	 0.281975720213788 
1289	 0.282049194755185 
1290	 0.282099498338477 
1291	 0.282152220084158 
1292	 0.282201017755637 
1293	 0.28223545972182 
1294	 0.282267387435894 
1295	 0.282301570971996 
1296	 0.282331672146106 
1297	 0.282355021032824 
1298	 0.282372275204635 
1299	 0.282402213134894 
1300	 0.282403173089091 
1301	 0.282369059283983 
1302	 0.282346743946134 
1303	 0.282312839705587 
1304	 0.282283755310692 
1305	 0.28227090890954 
1306	 0.282246721964465 
1307	 0.282228198713908 
1308	 0.282197226315259 
1309	 0.282159793901634 
1310	 0.28212130987712 
1311	 0.28206616500054 
1312	 0.281981020010267 
1313	 0.281936991294333 
1314	 0.281901507886646 
1315	 0.281859390079784 
1316	 0.281837162316145 
1317	 0.281810290777051 
1318	 0.281774239968457 
1319	 0.281738405557111 
1320	 0.281710018462018 
1321	 0.281680688100429 
1322	 0.281635690477473 
1323	 0.281602435721808 
1324	 0.281601508360047 
1325	 0.281609648094295 
1326	 0.281601954435077 
1327	 0.281607785318451 
1328	 0.281594498858269 
1329	 0.281580354911767 
1330	 0.281584976319266 
1331	 0.281594703008462 
1332	 0.281620269996768 
1333	 0.281670052941021 
1334	 0.281703977944791 
1335	 0.281743664600793 
1336	 0.281781151738904 
1337	 0.281805954742631 
1338	 0.281844711370426 
1339	 0.281905110582402 
1340	 0.281940294517043 
1341	 0.281958471288397 
1342	 0.281991845814637 
1343	 0.282018229959636 
1344	 0.282048317655506 
1345	 0.28210048163281 
1346	 0.282160768039385 
1347	 0.282192658486322 
1348	 0.282221307988386 
1349	 0.282252021373877 
1350	 0.282258152033531 
1351	 0.28226581074602 
1352	 0.282273269732801 
1353	 0.282271279259228 
1354	 0.282262566204533 
1355	 0.282240029340172 
1356	 0.282190479835407 
1357	 0.282175724843943 
1358	 0.282149285049218 
1359	 0.282160055290084 
1360	 0.282218421058857 
1361	 0.282259087917457 
1362	 0.282296218724991 
1363	 0.282354717783293 
1364	 0.282410045152374 
1365	 0.282489979794265 
1366	 0.282599767976045 
1367	 0.282723762687266 
1368	 0.282828152422867 
1369	 0.282926376796359 
1370	 0.283005429277782 
1371	 0.283065783340129 
1372	 0.28311326470961 
1373	 0.283147844771677 
1374	 0.283152239482995 
1375	 0.283143905758592 
1376	 0.283077169736834 
1377	 0.282968565157215 
1378	 0.282844688239499 
1379	 0.282653745174856 
1380	 0.282506425761934 
1381	 0.282353189977754 
1382	 0.282221172885585 
1383	 0.282122446367959 
1384	 0.28199366722188 
1385	 0.281892174470792 
1386	 0.281729376402943 
1387	 0.281536232653134 
1388	 0.281316338142411 
1389	 0.281065054758142 
1390	 0.28077705215795 
1391	 0.280459970625504 
1392	 0.280097193116606 
1393	 0.279688354211856 
1394	 0.279264896125096 
1395	 0.278822921609032 
1396	 0.278365694601546 
1397	 0.277902381640586 
1398	 0.277425519760472 
1399	 0.276934262977943 
1400	 0.27643792765994 
1401	 0.275922224331666 
1402	 0.275365284748083 
1403	 0.274860752067264 
1404	 0.274358788382582 
1405	 0.273871911093834 
1406	 0.273424894706221 
1407	 0.272957802264407 
1408	 0.272470559075622 
1409	 0.272018112741326 
1410	 0.271552649645904 
1411	 0.271151311334241 
1412	 0.27079542958535 
1413	 0.270460600880109 
1414	 0.270156058260538 
1415	 0.269871330603874 
1416	 0.269576191174995 
1417	 0.269285552024376 
1418	 0.269013728100264 
1419	 0.268757487405943 
1420	 0.268530359713824 
1421	 0.268319476523152 
1422	 0.26813054169426 
1423	 0.267936204120989 
1424	 0.267731201186918 
1425	 0.267514094924637 
1426	 0.267320665880382 
1427	 0.267117726186646 
1428	 0.26695079934808 
1429	 0.266813291183798 
1430	 0.266672172674767 
1431	 0.266553938993864 
1432	 0.266423089789462 
1433	 0.26627880518554 
1434	 0.266159742723888 
1435	 0.26603982345574 
1436	 0.265943634073503 
1437	 0.265896688596399 
1438	 0.26581876456233 
1439	 0.265742332231243 
1440	 0.265650455668385 
1441	 0.265540081238966 
1442	 0.265445588342959 
1443	 0.265375436415392 
1444	 0.265301684278665 
1445	 0.265256593926153 
1446	 0.265220566891515 
1447	 0.265186009455489 
1448	 0.265164338019365 
1449	 0.265114645172631 
1450	 0.265066360593211 
1451	 0.265053754571852 
1452	 0.265041794259625 
1453	 0.265068052182207 
1454	 0.265149716233482 
1455	 0.265202740543717 
1456	 0.265272450458424 
1457	 0.265315407674833 
1458	 0.26532739883405 
1459	 0.265378201269318 
1460	 0.265422412561628 
1461	 0.26549097209816 
1462	 0.265611761806168 
1463	 0.265699999522115 
1464	 0.265782857769639 
1465	 0.265863175801109 
1466	 0.265922994300876 
1467	 0.265999837855382 
1468	 0.266073943095428 
1469	 0.266167991420508 
1470	 0.266284105822326 
1471	 0.266396187015578 
1472	 0.266528665161536 
1473	 0.266660011577074 
1474	 0.266741081496163 
1475	 0.266850015447154 
1476	 0.2669558792628 
1477	 0.267046783273124 
1478	 0.26720905540782 
1479	 0.267377332309146 
1480	 0.267540298847703 
1481	 0.267738107045768 
1482	 0.267898481480168 
1483	 0.268033552493668 
1484	 0.268188365509933 
1485	 0.268334695183719 
1486	 0.268492585741676 
1487	 0.268678864542334 
1488	 0.268835014925124 
1489	 0.268983109169894 
1490	 0.269118128015978 
1491	 0.269220990137399 
1492	 0.26935190094686 
1493	 0.269483424186479 
1494	 0.269626641742223 
1495	 0.269793772780634 
1496	 0.269949352111083 
1497	 0.270116617857052 
1498	 0.270258312922324 
1499	 0.270380713276283 
1500	 0.270509427899704 
1501	 0.27061450375289 
1502	 0.270741971528705 
1503	 0.270887471650754 
1504	 0.27103015787942 
1505	 0.271173150293597 
1506	 0.271298339927649 
1507	 0.271413451409665 
1508	 0.271530893227178 
1509	 0.271639543332049 
1510	 0.271751595714423 
1511	 0.271866184549746 
1512	 0.271975125296945 
1513	 0.272083222941964 
1514	 0.27220073598751 
1515	 0.272318688507207 
1516	 0.27243373108605 
1517	 0.27254732415733 
1518	 0.272665078460122 
1519	 0.272774083424299 
1520	 0.272876671493333 
1521	 0.272977104806517 
1522	 0.273077111540729 
1523	 0.273172878318208 
1524	 0.273257581212463 
1525	 0.273352450627313 
1526	 0.273447647748954 
1527	 0.273544987860669 
1528	 0.273652177194949 
1529	 0.273749230413486 
1530	 0.273846182007037 
1531	 0.273935333136168 
1532	 0.274011830326612 
1533	 0.274097941526727 
1534	 0.27418698423904 
1535	 0.274269300350797 
1536	 0.274347831714983 
1537	 0.274433084458921 
1538	 0.274519399978495 
1539	 0.274599660060132 
1540	 0.274676316762267 
1541	 0.274767034100836 
1542	 0.274856415976943 
1543	 0.274950588678929 
1544	 0.27506372786825 
1545	 0.275170830058715 
1546	 0.275268529726724 
1547	 0.275380021237316 
1548	 0.275496216665548 
1549	 0.275588002292799 
1550	 0.275670611735151 
1551	 0.275731202445446 
1552	 0.27577066729376 
1553	 0.2758270743233 
1554	 0.275885925032447 
1555	 0.275941452372939 
1556	 0.275996518188769 
1557	 0.276045865569862 
1558	 0.276098623709226 
1559	 0.276148831454633 
1560	 0.276194966873108 
1561	 0.276241842329338 
1562	 0.276287516995217 
1563	 0.276321014601243 
1564	 0.276374285902093 
1565	 0.27643840917542 
1566	 0.276506116565569 
1567	 0.276585352617831 
1568	 0.276653749408785 
1569	 0.27673033570227 
1570	 0.276784502015559 
1571	 0.276823090297084 
1572	 0.27686903922953 
1573	 0.276903979316412 
1574	 0.276941603725918 
1575	 0.276981172233877 
1576	 0.277022082544926 
1577	 0.277061221557562 
1578	 0.277104972327711 
1579	 0.277154986184897 
1580	 0.277200669601051 
1581	 0.277244227787907 
1582	 0.277288613093733 
1583	 0.277326860158467 
1584	 0.277377461190036 
1585	 0.27744070088482 
1586	 0.27748831399711 
1587	 0.277543238739026 
1588	 0.277587406766073 
1589	 0.277612670782737 
1590	 0.277644747420562 
1591	 0.277677979024569 
1592	 0.277705884445184 
1593	 0.277730590890206 
1594	 0.277754328395038 
1595	 0.277775623844549 
1596	 0.27779344083936 
1597	 0.277806033025744 
1598	 0.277821159540189 
1599	 0.277834028874285 
1600	 0.277849460658008 
1601	 0.277861418737122 
1602	 0.277887096240367 
1603	 0.277927797995883 
1604	 0.277957392568893 
1605	 0.277992898638497 
1606	 0.278022554374148 
1607	 0.278038510852137 
1608	 0.278059726813128 
1609	 0.278074202023748 
1610	 0.27809068666705 
1611	 0.27813903103894 
1612	 0.27817050697044 
1613	 0.278200439562046 
1614	 0.278230045013419 
1615	 0.278219380695054 
1616	 0.278217441373041 
1617	 0.278239409368166 
1618	 0.278271148224456 
1619	 0.2783076303017 
1620	 0.278328304555676 
1621	 0.278337812337472 
1622	 0.278324917172317 
1623	 0.278334144376924 
1624	 0.27833926243627 
1625	 0.278361048295528 
1626	 0.278406868476555 
1627	 0.278420574110375 
1628	 0.278429636461094 
1629	 0.27843210797333 
1630	 0.278413851612328 
1631	 0.278407109866549 
1632	 0.278402264739963 
1633	 0.278403446728279 
1634	 0.278399093511942 
1635	 0.278414219561106 
1636	 0.278455136848035 
1637	 0.278462305054118 
1638	 0.27846599005122 
1639	 0.278465913837262 
1640	 0.278438161787542 
1641	 0.278438823165342 
1642	 0.278455311284374 
1643	 0.278464319170202 
1644	 0.278477555322748 
1645	 0.278490445729734 
1646	 0.278501428663303 
1647	 0.278518079217029 
1648	 0.278542313533661 
1649	 0.278557687993796 
1650	 0.278576313621573 
1651	 0.278583078285574 
1652	 0.278572434803851 
1653	 0.278580728366714 
1654	 0.278594507850166 
1655	 0.278601867958599 
1656	 0.278625913958311 
1657	 0.278621939535157 
1658	 0.278590569381279 
1659	 0.278578218957283 
1660	 0.278558553092413 
1661	 0.27855171538802 
1662	 0.278563951113961 
1663	 0.278560423672203 
1664	 0.278559341358529 
1665	 0.278543091405839 
1666	 0.278514113478882 
1667	 0.278485180348018 
1668	 0.278439994383361 
1669	 0.278412047116403 
1670	 0.278387824922375 
1671	 0.278369843260077 
1672	 0.278356395237536 
1673	 0.278356446771461 
1674	 0.278367273631443 
1675	 0.278378452382937 
1676	 0.278415360314506 
1677	 0.278419873806206 
1678	 0.278405051378411 
1679	 0.278398992230223 
1680	 0.278375538646685 
1681	 0.278369018266456 
1682	 0.278382173399219 
1683	 0.278378638057162 
1684	 0.278366652351217 
1685	 0.27836323159579 
1686	 0.278359874533945 
1687	 0.27835228129793 
1688	 0.278349631265533 
1689	 0.27834416897167 
1690	 0.278336759776264 
1691	 0.27831695350692 
1692	 0.278301256101417 
1693	 0.278264427149226 
1694	 0.278191157979406 
1695	 0.278152659827627 
1696	 0.278107141763816 
1697	 0.278095589389851 
1698	 0.278126700613483 
1699	 0.278132608559231 
1700	 0.278149393533305 
1701	 0.27815268333984 
1702	 0.278137025479871 
1703	 0.278132451456481 
1704	 0.27813556851143 
1705	 0.278128599716506 
1706	 0.278118816396331 
1707	 0.278105207204827 
1708	 0.278086119916621 
1709	 0.278062957346642 
1710	 0.278038372091375 
1711	 0.278007447353231 
1712	 0.277962585032775 
1713	 0.277931914562432 
1714	 0.277898981976515 
1715	 0.277879597009421 
1716	 0.277878646392325 
1717	 0.277863995902121 
1718	 0.277855994928253 
1719	 0.277829685241199 
1720	 0.27779160439541 
1721	 0.277750236984718 
1722	 0.277701598204136 
1723	 0.27764235197708 
1724	 0.277575422617498 
1725	 0.277503303535628 
1726	 0.277411912956619 
1727	 0.277341864449589 
1728	 0.277276329371589 
1729	 0.277213259867221 
1730	 0.277156595190089 
1731	 0.277110035535443 
1732	 0.277066286613449 
1733	 0.277022098848219 
1734	 0.276994820621113 
1735	 0.276953991598541 
1736	 0.276917062777401 
1737	 0.276850265221793 
1738	 0.276765630133009 
1739	 0.276685313919077 
1740	 0.276569418895377 
1741	 0.2765061124232 
1742	 0.276474249441729 
1743	 0.27642752746647 
1744	 0.276399371473674 
1745	 0.276345584162738 
1746	 0.276282741972688 
1747	 0.27617831721 
1748	 0.276108408204655 
1749	 0.276029805943268 
1750	 0.275939758357785 
1751	 0.275888392828668 
1752	 0.275812922503915 
1753	 0.275752610461288 
1754	 0.275735325142861 
1755	 0.275701363087043 
1756	 0.275667572756197 
1757	 0.275624323291152 
1758	 0.275538191224767 
1759	 0.275438092623568 
1760	 0.275367881937338 
1761	 0.275327939654555 
1762	 0.275289518829699 
1763	 0.275249696740212 
1764	 0.275190740154704 
1765	 0.275104676639426 
1766	 0.27504320129225 
1767	 0.275009589479986 
1768	 0.274978925997915 
1769	 0.274975293966494 
1770	 0.274946592387209 
1771	 0.274904330166685 
1772	 0.274916341286372 
1773	 0.274903514082454 
1774	 0.274866527393719 
1775	 0.274826776382309 
1776	 0.274736966620014 
1777	 0.274617402831159 
1778	 0.274507989786371 
1779	 0.274428678863612 
1780	 0.274373364519645 
1781	 0.274342306862873 
1782	 0.274343504084647 
1783	 0.274342218631921 
1784	 0.274346381555497 
1785	 0.274383896843083 
1786	 0.274389556004228 
1787	 0.274384102874395 
1788	 0.274380309829074 
1789	 0.274352515819524 
1790	 0.274341946185336 
1791	 0.274345365102326 
1792	 0.274341979746982 
1793	 0.274346352440185 
1794	 0.274328861380116 
1795	 0.274287328827927 
1796	 0.274263330854239 
1797	 0.27422153229086 
1798	 0.274227500966934 
1799	 0.274281715633298 
1800	 0.27430884339453 
1801	 0.273324382596788 
1802	 0.273480469748892 
1803	 0.273693587788961 
1804	 0.273916582061438 
1805	 0.274113663980948 
1806	 0.274294820867069 
1807	 0.274446118087241 
1808	 0.274568116270235 
1809	 0.274640886201206 
1810	 0.274714234000992 
1811	 0.274770820981391 
1812	 0.274820066587342 
1813	 0.27485124090832 
1814	 0.274877757145957 
1815	 0.274908765769904 
1816	 0.27493914739289 
1817	 0.274963362031992 
1818	 0.274983757436086 
1819	 0.274993645942831 
1820	 0.274996605040319 
1821	 0.274997877622275 
1822	 0.274985944364595 
1823	 0.27499328950669 
1824	 0.275005335922914 
1825	 0.274983778173801 
1826	 0.274963488886697 
1827	 0.27494338427609 
1828	 0.274892977934224 
1829	 0.274816172622491 
1830	 0.27474503139959 
1831	 0.274655245082731 
1832	 0.27455551313123 
1833	 0.274485271788056 
1834	 0.274427995896223 
1835	 0.274409990117268 
1836	 0.274410674790971 
1837	 0.27438004231582 
1838	 0.274353738015774 
1839	 0.274348305774451 
1840	 0.274353729223374 
1841	 0.274340135803236 
1842	 0.274334087693542 
1843	 0.274335508281905 
1844	 0.274308844390753 
1845	 0.274291009690193 
1846	 0.274317688272202 
1847	 0.274338963306757 
1848	 0.274346784694267 
1849	 0.274349712622221 
1850	 0.274333320470414 
1851	 0.274292030907624 
1852	 0.274249935549989 
1853	 0.274206195584568 
1854	 0.274146067227322 
1855	 0.274069974940605 
1856	 0.273987643799884 
1857	 0.273900348274371 
1858	 0.273786904831396 
1859	 0.273675605530043 
1860	 0.273527590591177 
1861	 0.273366182003112 
1862	 0.273149407416157 
1863	 0.272893037145175 
1864	 0.272568773733801 
1865	 0.272190433571401 
1866	 0.27178105160308 
1867	 0.27136703431861 
1868	 0.270939874030489 
1869	 0.270513130144561 
1870	 0.27010556664377 
1871	 0.269687910318332 
1872	 0.269263508040288 
1873	 0.268858909322295 
1874	 0.268441751304258 
1875	 0.268001389962421 
1876	 0.267553233303347 
1877	 0.267049982705601 
1878	 0.266463150921649 
1879	 0.265814610348542 
1880	 0.265075913640803 
1881	 0.264239746901681 
1882	 0.26333216549104 
1883	 0.262360260958843 
1884	 0.261273210366001 
1885	 0.26012587728449 
1886	 0.258931998781466 
1887	 0.257658705027046 
1888	 0.25635736465393 
1889	 0.254974188396756 
1890	 0.253514967431297 
1891	 0.252019474850516 
1892	 0.250437055892485 
1893	 0.248861407968335 
1894	 0.247262096232646 
1895	 0.245616838863406 
1896	 0.243951129879653 
1897	 0.242260185968607 
1898	 0.240506447342579 
1899	 0.238792412363703 
1900	 0.237143225214037 
1901	 0.235498807227165 
1902	 0.233945100353064 
1903	 0.232490988537255 
1904	 0.231062558362868 
1905	 0.229658747786928 
1906	 0.228369288322951 
1907	 0.227138283694594 
1908	 0.225944376265313 
1909	 0.224824888811293 
1910	 0.223748801509914 
1911	 0.222729390611959 
1912	 0.221738744652958 
1913	 0.220812910015093 
1914	 0.219938581818441 
1915	 0.219132708736554 
1916	 0.218384130456019 
1917	 0.217690729371359 
1918	 0.217061677886769 
1919	 0.216500857495713 
1920	 0.21598318151288 
1921	 0.215539536407805 
1922	 0.215152407346977 
1923	 0.214790731915371 
1924	 0.214472052797402 
1925	 0.214198146670824 
1926	 0.213956948027694 
1927	 0.213755615556874 
1928	 0.213588692987425 
1929	 0.213449672543896 
1930	 0.21332960934277 
1931	 0.213222075146938 
1932	 0.213144811811625 
1933	 0.213097952092398 
1934	 0.21306605842274 
1935	 0.21306940117248 
1936	 0.213106436716227 
1937	 0.213165920193782 
1938	 0.213259851702812 
1939	 0.21336966660427 
1940	 0.213501532772532 
1941	 0.213650579067606 
1942	 0.21383043905735 
1943	 0.214023481535659 
1944	 0.214248614139709 
1945	 0.214503439545284 
1946	 0.214762406152189 
1947	 0.215041825411744 
1948	 0.215319668394744 
1949	 0.215606844075704 
1950	 0.21590065639599 
1951	 0.216191056826766 
1952	 0.216501199988215 
1953	 0.216844889197683 
1954	 0.21720933033204 
1955	 0.217562803244171 
1956	 0.217932690731625 
1957	 0.218302096305733 
1958	 0.218658652512839 
1959	 0.219031453287606 
1960	 0.219429202024107 
1961	 0.219812334809806 
1962	 0.220183246512626 
1963	 0.22057507795561 
1964	 0.220977440619422 
1965	 0.221381895625975 
1966	 0.221794725522105 
1967	 0.22218658653523 
1968	 0.22258792575477 
1969	 0.222975520444052 
1970	 0.223381503115713 
1971	 0.22380205598264 
1972	 0.224224893636577 
1973	 0.224656767532371 
1974	 0.225082264158936 
1975	 0.225516812814597 
1976	 0.225936555765085 
1977	 0.226358383413357 
1978	 0.226775296262041 
1979	 0.22718956339851 
1980	 0.227622777975414 
1981	 0.228044355858132 
1982	 0.228451277778097 
1983	 0.228882903077659 
1984	 0.229335267981762 
1985	 0.229764485923945 
1986	 0.230202835114069 
1987	 0.230628875969182 
1988	 0.231020576619621 
1989	 0.23144071996509 
1990	 0.231863956753048 
1991	 0.232281397510707 
1992	 0.232701678053206 
1993	 0.233128929400237 
1994	 0.233537855684678 
1995	 0.233936605651661 
1996	 0.234337955315081 
1997	 0.234721758632684 
1998	 0.23513190009464 
1999	 0.235564322755006 
2000	 0.235982423129243 
2001	 0.236415001783979 
2002	 0.236825224408298 
2003	 0.237224143250806 
2004	 0.237635478740402 
2005	 0.238040511684913 
2006	 0.238444759968018 
2007	 0.238853742264658 
2008	 0.239263808137043 
2009	 0.239670271175876 
2010	 0.240076233853299 
2011	 0.24048831116237 
2012	 0.240896597233426 
2013	 0.241308587334356 
2014	 0.241729954050635 
2015	 0.242158412020178 
2016	 0.242579626028337 
2017	 0.242982003812159 
2018	 0.243363453357129 
2019	 0.243725820006729 
2020	 0.244083594618715 
2021	 0.244409801340877 
2022	 0.244755893479133 
2023	 0.245093514159924 
2024	 0.245450737227901 
2025	 0.245827226165743 
2026	 0.246196135331434 
2027	 0.246574155892687 
2028	 0.246963052829289 
2029	 0.247314507829221 
2030	 0.247643258987042 
2031	 0.247975021543665 
2032	 0.248294695885389 
2033	 0.248603604287742 
2034	 0.248894005925869 
2035	 0.24920815218191 
2036	 0.249515675249509 
2037	 0.249828632873341 
2038	 0.25017473286994 
2039	 0.250496149159831 
2040	 0.250799244876862 
2041	 0.251107863779651 
2042	 0.251404231230738 
2043	 0.251675784886613 
2044	 0.251960336642137 
2045	 0.252226984913287 
2046	 0.252518746648803 
2047	 0.252838452069839 
2048	 0.253131050965577 
2049	 0.253433371934948 
2050	 0.253709377894234 
2051	 0.253948701879714 
2052	 0.254203584344342 
2053	 0.254443459901766 
2054	 0.254699686390037 
2055	 0.254981491062831 
2056	 0.255247646110048 
2057	 0.255499650138128 
2058	 0.255752619799872 
2059	 0.25599012822782 
2060	 0.256201683416456 
2061	 0.256422159871571 
2062	 0.256639498689166 
2063	 0.256858478860158 
2064	 0.257072273538616 
2065	 0.257289788302154 
2066	 0.257512761330509 
2067	 0.257731301641634 
2068	 0.25794102827824 
2069	 0.258161300826995 
2070	 0.258385348204407 
2071	 0.258609335434394 
2072	 0.258842232969779 
2073	 0.259092235905852 
2074	 0.259321971442497 
2075	 0.259550795972658 
2076	 0.259773133319039 
2077	 0.259976429415157 
2078	 0.260194757667161 
2079	 0.260422308206064 
2080	 0.260642516765252 
2081	 0.260857954352973 
2082	 0.261080729581747 
2083	 0.261309113365559 
2084	 0.261529942531874 
2085	 0.261746010455814 
2086	 0.261968681032086 
2087	 0.262177887553804 
2088	 0.262373752601174 
2089	 0.262566689112292 
2090	 0.262746850683373 
2091	 0.262944448390231 
2092	 0.263136065431853 
2093	 0.263340744278154 
2094	 0.263587394427507 
2095	 0.263790046883925 
2096	 0.263963107872522 
2097	 0.264152522484599 
2098	 0.264331900498631 
2099	 0.264502896720929 
2100	 0.264684529458969 
2101	 0.264885031208063 
2102	 0.265070377509657 
2103	 0.265235712696892 
2104	 0.265429046917664 
2105	 0.265634256295309 
2106	 0.265842085258016 
2107	 0.266056446652684 
2108	 0.266284855393579 
2109	 0.266531795926634 
2110	 0.266767611777594 
2111	 0.267025399109435 
2112	 0.267259558835897 
2113	 0.267475516959584 
2114	 0.267678349195577 
2115	 0.26789805125074 
2116	 0.268118802728756 
2117	 0.268326435716677 
2118	 0.268534896173326 
2119	 0.268744882077805 
2120	 0.268947805263738 
2121	 0.269145327937274 
2122	 0.269348550342779 
2123	 0.269542937064796 
2124	 0.269729132882405 
2125	 0.269900709356499 
2126	 0.270067475900067 
2127	 0.270229471789187 
2128	 0.270375686719563 
2129	 0.270515213502831 
2130	 0.270661365170328 
2131	 0.270790270427242 
2132	 0.270895204587828 
2133	 0.270975210532352 
2134	 0.271053887042648 
2135	 0.271108871559681 
2136	 0.271174204111312 
2137	 0.271250642334017 
2138	 0.271295105696484 
2139	 0.271332954322869 
2140	 0.271347530257969 
2141	 0.271325416781494 
2142	 0.271310259245984 
2143	 0.271287748105974 
2144	 0.271257237928727 
2145	 0.271206386860616 
2146	 0.271169920998269 
2147	 0.271144592094976 
2148	 0.271105456629729 
2149	 0.271054422646338 
2150	 0.27100787873638 
2151	 0.270948033346228 
2152	 0.270864815382214 
2153	 0.270784706379057 
2154	 0.270715730266032 
2155	 0.270618320622515 
2156	 0.27051246578027 
2157	 0.270377171354327 
2158	 0.270210184891952 
2159	 0.270044048766368 
2160	 0.269847762435324 
2161	 0.269660217855622 
2162	 0.269477335361641 
2163	 0.269289709752539 
2164	 0.269088657272837 
2165	 0.268899303268993 
2166	 0.268713884217395 
2167	 0.268536610889604 
2168	 0.268341515555274 
2169	 0.268143803680819 
2170	 0.267947675727218 
2171	 0.267725961990777 
2172	 0.267540102382781 
2173	 0.267398392523484 
2174	 0.267208598332666 
2175	 0.266999477323661 
2176	 0.266809287023949 
2177	 0.266596879930826 
2178	 0.266399672604298 
2179	 0.266243180868868 
2180	 0.266056112348312 
2181	 0.265847000620013 
2182	 0.265641072942739 
2183	 0.265429921565065 
2184	 0.26521475917562 
2185	 0.264994198337295 
2186	 0.264758599669378 
2187	 0.264556078652589 
2188	 0.264358854518248 
2189	 0.264170350416609 
2190	 0.264014369693814 
2191	 0.263835503822314 
2192	 0.263645432980599 
2193	 0.263461772607717 
2194	 0.263262823769798 
2195	 0.263095351010822 
2196	 0.262926320931728 
2197	 0.262793180205042 
2198	 0.262698740099813 
2199	 0.262609677192115 
2200	 0.262540154810236 
2201	 0.2624862118156 
2202	 0.262439391701825 
2203	 0.262420030304571 
2204	 0.262414565262258 
2205	 0.262438246636114 
2206	 0.262450943448144 
2207	 0.262477342374353 
2208	 0.262494473303533 
2209	 0.262504131051011 
2210	 0.262528484335171 
2211	 0.262558891257092 
2212	 0.262592004265756 
2213	 0.26263165188957 
2214	 0.262675726464745 
2215	 0.262716421853045 
2216	 0.262773608058452 
2217	 0.262882651682373 
2218	 0.262925507248058 
2219	 0.262918747137583 
2220	 0.262950124724646 
2221	 0.262978266988915 
2222	 0.262972050656281 
2223	 0.263025711622341 
2224	 0.263082217552154 
2225	 0.263100571167832 
2226	 0.2630837580187 
2227	 0.263081863143433 
2228	 0.263070652193509 
2229	 0.263065249357497 
2230	 0.263053189514345 
2231	 0.263056813991323 
2232	 0.263079515677794 
2233	 0.263076751969475 
2234	 0.263067194702605 
2235	 0.263064502098431 
2236	 0.263058338400621 
2237	 0.263038712177935 
2238	 0.263009894476371 
2239	 0.262993600321692 
2240	 0.262958729511052 
2241	 0.262941442528341 
2242	 0.262967719561209 
2243	 0.262966332630388 
2244	 0.262974713557349 
2245	 0.26294820473992 
2246	 0.262873031990884 
2247	 0.262752410259448 
2248	 0.262667632571984 
2249	 0.262545779997928 
2250	 0.262480864620755 
2251	 0.262462211397592 
2252	 0.262423317330818 
2253	 0.262397521151565 
2254	 0.262348053148811 
2255	 0.262286756433193 
2256	 0.262238993022439 
2257	 0.26217486389243 
2258	 0.262133386740079 
2259	 0.262118060873381 
2260	 0.262094631725299 
2261	 0.26206244000569 
2262	 0.262055825775405 
2263	 0.262053510283864 
2264	 0.262071182767681 
2265	 0.262154244507012 
2266	 0.262174257335543 
2267	 0.262179158031431 
2268	 0.262170484740182 
2269	 0.262125594346668 
2270	 0.262049016908462 
2271	 0.262008605721696 
2272	 0.261980237849687 
2273	 0.26197337976958 
2274	 0.262009270328966 
2275	 0.262051080825731 
2276	 0.262153468408941 
2277	 0.262160858052707 
2278	 0.262143026293178 
2279	 0.262120091311737 
2280	 0.262013598964483 
2281	 0.261988357716389 
2282	 0.261993904238815 
2283	 0.262025694127587 
2284	 0.262127970637316 
2285	 0.262160260318386 
2286	 0.262186950519559 
2287	 0.262199255029648 
2288	 0.262143084679591 
2289	 0.262144467093659 
2290	 0.262203574587996 
2291	 0.262210498023235 
2292	 0.262218547127665 
2293	 0.262193718895309 
2294	 0.262083339395449 
2295	 0.262043131048596 
2296	 0.262025855588447 
2297	 0.262026046898455 
2298	 0.262008738066613 
2299	 0.262010353901462 
2300	 0.26198324915909 
2301	 0.261892717272943 
2302	 0.261881196800667 
2303	 0.26190254298313 
2304	 0.261871346512622 
2305	 0.26186410024863 
2306	 0.261837319227547 
2307	 0.261774059376838 
2308	 0.261751208485495 
2309	 0.261771092575005 
2310	 0.261720826769986 
2311	 0.26165381999768 
2312	 0.261568699023471 
2313	 0.261422421584457 
2314	 0.261321177185322 
2315	 0.261242966240145 
2316	 0.261138692033875 
2317	 0.261017632227835 
2318	 0.260914394481196 
2319	 0.260814553621172 
2320	 0.26071671222896 
2321	 0.260625116561509 
2322	 0.260549597772379 
2323	 0.260480853188078 
2324	 0.260394165185697 
2325	 0.260305091793617 
2326	 0.260235022541276 
2327	 0.260137153926141 
2328	 0.260104814705275 
2329	 0.260081123031598 
2330	 0.260038049238235 
2331	 0.259973273940055 
2332	 0.25984485402454 
2333	 0.259713652991822 
2334	 0.259583861891645 
2335	 0.259445724806073 
2336	 0.259348427122604 
2337	 0.259313346617036 
2338	 0.259255688374523 
2339	 0.25918229576364 
2340	 0.259107551672447 
2341	 0.258902818623139 
2342	 0.25869535184504 
2343	 0.258566363459803 
2344	 0.258419281774332 
2345	 0.258275704754696 
2346	 0.258201961587372 
2347	 0.258056503823023 
2348	 0.257829088385378 
2349	 0.25767676167859 
2350	 0.257551810532288 
2351	 0.257401055586579 
2352	 0.257260619248642 
2353	 0.257122494370347 
2354	 0.256991100126843 
2355	 0.256836516980127 
2356	 0.256711537524188 
2357	 0.256497481310137 
2358	 0.256210523644559 
2359	 0.255929697387668 
2360	 0.255571031993397 
2361	 0.255283802145831 
2362	 0.255009960869495 
2363	 0.254748094480602 
2364	 0.254542988085036 
2365	 0.254318391969482 
2366	 0.254096989065392 
2367	 0.253873557377026 
2368	 0.25365648475638 
2369	 0.253400180276269 
2370	 0.253098855767614 
2371	 0.252850300421754 
2372	 0.252603556423847 
2373	 0.252377424714887 
2374	 0.252242736421439 
2375	 0.252040393787638 
2376	 0.251775860289449 
2377	 0.251495827584059 
2378	 0.251195687473452 
2379	 0.250955277683217 
2380	 0.25066738297862 
2381	 0.250351698599372 
2382	 0.25001975914334 
2383	 0.249645052445667 
2384	 0.249316607036677 
2385	 0.249043755881414 
2386	 0.248806117007165 
2387	 0.248504625142261 
2388	 0.248202796001095 
2389	 0.248021965867329 
2390	 0.247838845707415 
2391	 0.247603492445561 
2392	 0.247356645058888 
2393	 0.247006060603639 
2394	 0.246636470741572 
2395	 0.246329429102302 
2396	 0.246009964374841 
2397	 0.245704360157648 
2398	 0.24535081456662 
2399	 0.244984367427197 
2400	 0.244706073230131 
2401	 0.24440576595689 
2402	 0.244055385265096 
2403	 0.243721545852333 
2404	 0.24337124988639 
2405	 0.243074108185565 
2406	 0.242872606352677 
2407	 0.242620779246918 
2408	 0.242342779002279 
2409	 0.242079450743777 
2410	 0.241760482608707 
2411	 0.241438018683103 
2412	 0.24109844108115 
2413	 0.240698127578391 
2414	 0.240374497668137 
2415	 0.240095289130665 
2416	 0.239804620275931 
2417	 0.239589612818806 
2418	 0.239335517166085 
2419	 0.239005644528742 
2420	 0.238735723153122 
2421	 0.238521648920249 
2422	 0.238255464622832 
2423	 0.238002615067086 
2424	 0.237733416071631 
2425	 0.237444349466985 
2426	 0.237083081129227 
2427	 0.236703406820201 
2428	 0.236281721188449 
2429	 0.235725438855808 
2430	 0.235315746952979 
2431	 0.234928977477624 
2432	 0.234608724965286 
2433	 0.234446954439716 
2434	 0.234109860026417 
2435	 0.233719115584975 
2436	 0.233345014663252 
2437	 0.232867756614549 
2438	 0.232511158301748 
2439	 0.232272345923028 
2440	 0.231938519126062 
2441	 0.231562531029769 
2442	 0.231235134239146 
2443	 0.230900974476349 
2444	 0.230614936301532 
2445	 0.230368610150106 
2446	 0.230080438732116 
2447	 0.229816161961161 
2448	 0.229502570912889 
2449	 0.22917385945396 
2450	 0.228857582011225 
2451	 0.228526957647571 
2452	 0.228183606986014 
2453	 0.227788007974975 
2454	 0.227432537014581 
2455	 0.227131930458846 
2456	 0.226718659463421 
2457	 0.226246869387646 
2458	 0.225904883001598 
2459	 0.225517524530858 
2460	 0.225176360254012 
2461	 0.224963196594611 
2462	 0.224723699344817 
2463	 0.224497167050887 
2464	 0.224213198947177 
2465	 0.22391577075599 
2466	 0.223626014044522 
2467	 0.223215322275023 
2468	 0.22298482048921 
2469	 0.223059391636006 
2470	 0.222824222313202 
2471	 0.222486656115229 
2472	 0.222176555897207 
2473	 0.221515009427268 
2474	 0.221088785656268 
2475	 0.220830498275208 
2476	 0.220387985399937 
2477	 0.220098415329061 
2478	 0.219879000099917 
2479	 0.219585838668381 
2480	 0.219363082025745 
2481	 0.219227650179649 
2482	 0.218870137783665 
2483	 0.21852600146342 
2484	 0.218295035276748 
2485	 0.217940116974593 
2486	 0.217765705903185 
2487	 0.217608944352647 
2488	 0.217361762188684 
2489	 0.217215329018513 
2490	 0.216975977709803 
2491	 0.216657949276178 
2492	 0.216328190294859 
2493	 0.215864724495166 
2494	 0.21539403637488 
2495	 0.215126982613759 
2496	 0.214932991427388 
2497	 0.214795435064966 
2498	 0.214750944854996 
2499	 0.214607243587829 
2500	 0.21437885348815 
