Wavelength	LMW_12_00006.asd
350	 0.118765905735653 
351	 0.114645588973938 
352	 0.107296873011481 
353	 0.106501950961405 
354	 0.11114326421163 
355	 0.113940298421534 
356	 0.112221093572126 
357	 0.107816763322292 
358	 0.113950219238298 
359	 0.114078674835424 
360	 0.110039118296932 
361	 0.114262543975612 
362	 0.112212837271798 
363	 0.109864664344217 
364	 0.112031110425136 
365	 0.118471351070976 
366	 0.117297114740107 
367	 0.113135787416323 
368	 0.113207703807615 
369	 0.1147542116312 
370	 0.117069139832241 
371	 0.119441880039608 
372	 0.121098680166933 
373	 0.121766028616135 
374	 0.123876603519016 
375	 0.127183814369788 
376	 0.126220958640238 
377	 0.125746425622331 
378	 0.126750610186643 
379	 0.12849719762644 
380	 0.128199931611881 
381	 0.128870051930072 
382	 0.130931461733844 
383	 0.13262408076189 
384	 0.132501437747298 
385	 0.133399451318532 
386	 0.136529056638831 
387	 0.138987102918938 
388	 0.141105473495913 
389	 0.142865231913989 
390	 0.144309616816554 
391	 0.146016639665403 
392	 0.146827185677494 
393	 0.147662107117158 
394	 0.150962896496681 
395	 0.154237620752312 
396	 0.154870290627808 
397	 0.153676301445198 
398	 0.159146188657203 
399	 0.161448885513665 
400	 0.161445993305695 
401	 0.163276762587177 
402	 0.165605984412899 
403	 0.166957569688346 
404	 0.167350913487123 
405	 0.168301540791096 
406	 0.170607491688788 
407	 0.172774326758673 
408	 0.173678369810948 
409	 0.174206509615648 
410	 0.174611976149414 
411	 0.175437015055396 
412	 0.177129641932583 
413	 0.178909905667766 
414	 0.179989942099685 
415	 0.180337595137636 
416	 0.180816623785667 
417	 0.180865146099575 
418	 0.180851910290968 
419	 0.181260294454784 
420	 0.182403578418242 
421	 0.182519889696678 
422	 0.1819999747334 
423	 0.182493872657424 
424	 0.183182854891689 
425	 0.183090622565422 
426	 0.182293523997192 
427	 0.182833199772995 
428	 0.18249440938871 
429	 0.181879051680017 
430	 0.182070995899985 
431	 0.181771437061534 
432	 0.181521736898545 
433	 0.181586173212782 
434	 0.181865947889346 
435	 0.181990171012885 
436	 0.18220946815918 
437	 0.18271501253641 
438	 0.183174607935093 
439	 0.184017595546604 
440	 0.185055172451426 
441	 0.185852348409656 
442	 0.186718597372181 
443	 0.187534131042563 
444	 0.188315452041265 
445	 0.189342528498132 
446	 0.19038734208174 
447	 0.191386780032251 
448	 0.192337564769151 
449	 0.19325222113275 
450	 0.194362905507109 
451	 0.195591580753203 
452	 0.196610427577827 
453	 0.197522414615642 
454	 0.198167712814122 
455	 0.198686014951354 
456	 0.200134298756188 
457	 0.201096529463141 
458	 0.201521723390662 
459	 0.202000954936137 
460	 0.202714679765126 
461	 0.203404147342143 
462	 0.204023002479644 
463	 0.204891278306019 
464	 0.205475449217924 
465	 0.205917942324573 
466	 0.206496026586291 
467	 0.207232952588322 
468	 0.207753306017443 
469	 0.208002364179796 
470	 0.208215338613421 
471	 0.208771907210405 
472	 0.209384014505162 
473	 0.209801580250733 
474	 0.210099714321894 
475	 0.210781998101462 
476	 0.211437793642642 
477	 0.211435453388454 
478	 0.211747090641998 
479	 0.212395721112832 
480	 0.213117621409961 
481	 0.213377524297709 
482	 0.21399687436152 
483	 0.214638357251146 
484	 0.214879113958669 
485	 0.215314545624219 
486	 0.215741210741935 
487	 0.216159195569705 
488	 0.216732556216592 
489	 0.217163179366489 
490	 0.217638348915237 
491	 0.218251623518564 
492	 0.218677420980729 
493	 0.218879435580079 
494	 0.219073025999456 
495	 0.219565185672314 
496	 0.220307226220243 
497	 0.220897948314109 
498	 0.22124297354415 
499	 0.221736066747328 
500	 0.222343502634413 
501	 0.222796319603733 
502	 0.222966806355694 
503	 0.223689369101267 
504	 0.224365343234367 
505	 0.224800845462083 
506	 0.225221812149377 
507	 0.225790907791475 
508	 0.226283654818818 
509	 0.226558959913283 
510	 0.226879805233486 
511	 0.227415238687896 
512	 0.228040494577238 
513	 0.228498209570315 
514	 0.228966169372125 
515	 0.229432032740078 
516	 0.229896517661236 
517	 0.230427174930105 
518	 0.230878131126086 
519	 0.231256722997795 
520	 0.231647898780674 
521	 0.232238414939708 
522	 0.23281433442389 
523	 0.233282541633332 
524	 0.233701482406381 
525	 0.234137662105343 
526	 0.234558115946541 
527	 0.234947557799954 
528	 0.235435007010365 
529	 0.2358643443172 
530	 0.236267611361718 
531	 0.236788517976784 
532	 0.237316196977899 
533	 0.237845901513748 
534	 0.23836209215097 
535	 0.238782367232325 
536	 0.239237629323039 
537	 0.239746361141627 
538	 0.240270361831127 
539	 0.240729422094362 
540	 0.241167511840979 
541	 0.241638670046444 
542	 0.242195566362752 
543	 0.242714010892098 
544	 0.243187426924485 
545	 0.243667357417788 
546	 0.244289063332358 
547	 0.24493909228942 
548	 0.245563972914525 
549	 0.246166147063593 
550	 0.246644824386597 
551	 0.247160893686734 
552	 0.24781917945511 
553	 0.248463311460817 
554	 0.249101301711428 
555	 0.249715923266117 
556	 0.250290790139064 
557	 0.25091313399824 
558	 0.251475367765473 
559	 0.25197803975426 
560	 0.252654191254235 
561	 0.253275163415256 
562	 0.253919189343957 
563	 0.254735267529298 
564	 0.255652123189828 
565	 0.256581113054967 
566	 0.257588387588666 
567	 0.258904624429443 
568	 0.260067728382026 
569	 0.26090383280138 
570	 0.261425109544987 
571	 0.26191857182102 
572	 0.262614116068165 
573	 0.263529945293773 
574	 0.264508848069775 
575	 0.265351898188146 
576	 0.266078523093972 
577	 0.266796108306898 
578	 0.267688122971537 
579	 0.268842940898176 
580	 0.270202871647665 
581	 0.271635626217978 
582	 0.273118658102105 
583	 0.274475823865792 
584	 0.275559420215564 
585	 0.276269453923159 
586	 0.27701104541415 
587	 0.277806985885425 
588	 0.278566153945212 
589	 0.279276309661565 
590	 0.279996205824274 
591	 0.280700861499979 
592	 0.281298367999824 
593	 0.281892774747881 
594	 0.282532571879027 
595	 0.283322479201949 
596	 0.284563841014224 
597	 0.286019005318996 
598	 0.287534112156938 
599	 0.289007700496363 
600	 0.290399585839664 
601	 0.291525551374942 
602	 0.292375241245022 
603	 0.293272587720817 
604	 0.294069431183123 
605	 0.294843985828058 
606	 0.295717398390218 
607	 0.29663430639127 
608	 0.297475490691421 
609	 0.298221521714038 
610	 0.298973267208565 
611	 0.299849132739136 
612	 0.300843928782849 
613	 0.301865431714371 
614	 0.302676179360931 
615	 0.303491675584071 
616	 0.304327652402461 
617	 0.305065516506079 
618	 0.305848660210233 
619	 0.306603533737595 
620	 0.307280821832802 
621	 0.307938696116051 
622	 0.308650600722371 
623	 0.309404511091778 
624	 0.310139424105941 
625	 0.310750453970019 
626	 0.311416885215001 
627	 0.312171171249532 
628	 0.312822679137188 
629	 0.313466254753177 
630	 0.314087777698914 
631	 0.314684533358725 
632	 0.315401910987148 
633	 0.31610848320996 
634	 0.316759678257479 
635	 0.317394332637091 
636	 0.318094534661155 
637	 0.318769542973865 
638	 0.319360377630074 
639	 0.319956472991765 
640	 0.320621220413461 
641	 0.321312597782134 
642	 0.321950875513266 
643	 0.322633705609991 
644	 0.32329685925622 
645	 0.323918861351655 
646	 0.324559618756887 
647	 0.325200265686794 
648	 0.325845347235736 
649	 0.326513566231635 
650	 0.327266600257064 
651	 0.327981635699298 
652	 0.328628757568806 
653	 0.329268620988452 
654	 0.329962311817811 
655	 0.330671650155364 
656	 0.331354077730283 
657	 0.331997320424858 
658	 0.332690479508428 
659	 0.333445453577068 
660	 0.334214651041886 
661	 0.334841746015544 
662	 0.335460336760354 
663	 0.336169862594072 
664	 0.336978210943402 
665	 0.33783737123054 
666	 0.338587767333642 
667	 0.339149479061625 
668	 0.339863569433025 
669	 0.340675014023666 
670	 0.341486091898618 
671	 0.342185515743232 
672	 0.342936582463335 
673	 0.343720680905279 
674	 0.344507811194169 
675	 0.3453358624056 
676	 0.34604889379781 
677	 0.346721223500623 
678	 0.34751122681781 
679	 0.348356219031579 
680	 0.349207204766593 
681	 0.350017183417558 
682	 0.350742747896344 
683	 0.351495964173831 
684	 0.352307471219487 
685	 0.353163176772202 
686	 0.353987440139014 
687	 0.354788582947877 
688	 0.355583929847553 
689	 0.356395841348532 
690	 0.357238979283935 
691	 0.358080814906817 
692	 0.358899903027725 
693	 0.359711921743021 
694	 0.360510998282794 
695	 0.361302410052563 
696	 0.362113136546145 
697	 0.36307419226098 
698	 0.363940997901573 
699	 0.364680342205945 
700	 0.365498482190073 
701	 0.366263985618682 
702	 0.367069849202694 
703	 0.367976168682486 
704	 0.36883210321246 
705	 0.36965288557594 
706	 0.370426271826852 
707	 0.371149129971488 
708	 0.371986435235686 
709	 0.372818595411018 
710	 0.373604473805437 
711	 0.374467846886687 
712	 0.375218390922702 
713	 0.375915846500318 
714	 0.376663284965905 
715	 0.377433911786802 
716	 0.378185083319701 
717	 0.378944483219019 
718	 0.379766554086279 
719	 0.380383533322198 
720	 0.380965397721051 
721	 0.381639672395286 
722	 0.382326075579589 
723	 0.383042504870319 
724	 0.383794984328906 
725	 0.384562933019479 
726	 0.38523116625308 
727	 0.385757520545328 
728	 0.386229975877976 
729	 0.386836800642843 
730	 0.387430185633106 
731	 0.388031469149492 
732	 0.388640440500054 
733	 0.389127253526018 
734	 0.389622234476952 
735	 0.390120500948688 
736	 0.390577054051446 
737	 0.391063540324419 
738	 0.391566685732979 
739	 0.392067134762458 
740	 0.392545132892101 
741	 0.392933363007836 
742	 0.393275813529478 
743	 0.393619529853074 
744	 0.39394315033024 
745	 0.394285680118517 
746	 0.394656249999177 
747	 0.395025722018646 
748	 0.395224686342191 
749	 0.395433726229607 
750	 0.395715685574846 
751	 0.395953770834534 
752	 0.39620351693044 
753	 0.396472088725684 
754	 0.396734876874447 
755	 0.396901854802693 
756	 0.397073265573999 
757	 0.39725993088297 
758	 0.397426316818726 
759	 0.397591536881954 
760	 0.397618517158118 
761	 0.397567630646917 
762	 0.397750655613142 
763	 0.397904316925487 
764	 0.398017006587511 
765	 0.398120353641316 
766	 0.398201473820254 
767	 0.398187426972916 
768	 0.398177073310644 
769	 0.398305834842555 
770	 0.39829554096807 
771	 0.398282877173265 
772	 0.398310007822047 
773	 0.398264341436977 
774	 0.398228564566349 
775	 0.398232296969602 
776	 0.398264166783686 
777	 0.398236027920134 
778	 0.398209908496707 
779	 0.398173148772527 
780	 0.398102824912065 
781	 0.398144944040033 
782	 0.398093860331724 
783	 0.397960069586658 
784	 0.397993343527357 
785	 0.397923419415399 
786	 0.397792462193144 
787	 0.397690672110435 
788	 0.397673659207949 
789	 0.397684815835128 
790	 0.397659876168353 
791	 0.397547686876079 
792	 0.397364042271078 
793	 0.397276366671172 
794	 0.397314691330587 
795	 0.397369638474508 
796	 0.397260431342566 
797	 0.397098335511278 
798	 0.396988940814641 
799	 0.396932870594798 
800	 0.396880113932358 
801	 0.396769935906572 
802	 0.396598349919887 
803	 0.396571136033397 
804	 0.396580238307782 
805	 0.396550118538261 
806	 0.396451144037272 
807	 0.396414276587088 
808	 0.396322882137777 
809	 0.396164689645346 
810	 0.396093386058693 
811	 0.396092228287862 
812	 0.39604157878743 
813	 0.395885848245574 
814	 0.395803444014637 
815	 0.395729534314692 
816	 0.395701203093433 
817	 0.395748895517309 
818	 0.395663913569642 
819	 0.395572820244001 
820	 0.395504339252511 
821	 0.395401714391783 
822	 0.395442113054747 
823	 0.395457420649371 
824	 0.395352724197911 
825	 0.395237751546845 
826	 0.395153809649591 
827	 0.395115355310688 
828	 0.395126065265434 
829	 0.395222766289069 
830	 0.395132312430715 
831	 0.39499876186269 
832	 0.395108967618809 
833	 0.395249404208991 
834	 0.39520572684977 
835	 0.395012203079011 
836	 0.39493513598945 
837	 0.395069756825741 
838	 0.395168501292211 
839	 0.39511909498967 
840	 0.395142673668947 
841	 0.395143450700217 
842	 0.395132225722195 
843	 0.395122364819737 
844	 0.395034636990975 
845	 0.395086257016909 
846	 0.395167765273876 
847	 0.395083791088035 
848	 0.395099179931206 
849	 0.395192739311072 
850	 0.395323903283705 
851	 0.395443139248165 
852	 0.395439378624886 
853	 0.395434470559765 
854	 0.395488133874824 
855	 0.395519808800132 
856	 0.395673045961881 
857	 0.395846015615536 
858	 0.395916369465149 
859	 0.395850095942509 
860	 0.395847219074815 
861	 0.395974710575001 
862	 0.396196166621267 
863	 0.396314953604297 
864	 0.396375842084235 
865	 0.396476536737099 
866	 0.396701534429308 
867	 0.396861158640775 
868	 0.396862481622552 
869	 0.39682343276837 
870	 0.397028754062828 
871	 0.397216327846223 
872	 0.397422623627424 
873	 0.397657649120991 
874	 0.397815744329718 
875	 0.397840114235045 
876	 0.397822335154741 
877	 0.397891240574227 
878	 0.398167544896375 
879	 0.39848129237071 
880	 0.398690453875114 
881	 0.398764296599121 
882	 0.399046046678361 
883	 0.399282149038702 
884	 0.399443305137912 
885	 0.399646795712721 
886	 0.400020315145108 
887	 0.400297827497423 
888	 0.400462071551677 
889	 0.400715761851486 
890	 0.400944966740188 
891	 0.401223730063254 
892	 0.401516862683336 
893	 0.401644980859535 
894	 0.4017995014404 
895	 0.402031041851236 
896	 0.402346079010177 
897	 0.402727844357932 
898	 0.403004551332172 
899	 0.403272102053337 
900	 0.403601968853984 
901	 0.40378996324705 
902	 0.403986247517366 
903	 0.404305047310979 
904	 0.404761790574514 
905	 0.405083901883309 
906	 0.405375677637978 
907	 0.405654659369722 
908	 0.405923101782266 
909	 0.406315803394072 
910	 0.406781562187961 
911	 0.407239207811241 
912	 0.407609963375443 
913	 0.407915923373267 
914	 0.408182370862217 
915	 0.408499473653898 
916	 0.408985307020053 
917	 0.409542955339654 
918	 0.409934816706307 
919	 0.410150216005999 
920	 0.410452541465115 
921	 0.410948235591844 
922	 0.411398392667705 
923	 0.41173509326626 
924	 0.412222721065612 
925	 0.412707378487241 
926	 0.41315059434499 
927	 0.413558873627644 
928	 0.413974158587301 
929	 0.414435475303799 
930	 0.414891117053949 
931	 0.415329235569136 
932	 0.415885418672861 
933	 0.416468941616988 
934	 0.416903496707228 
935	 0.417155557040255 
936	 0.417640386419219 
937	 0.418216396703067 
938	 0.418832385247321 
939	 0.41946778242626 
940	 0.420143420501701 
941	 0.420705532817743 
942	 0.421153855945276 
943	 0.421564059634211 
944	 0.421994028302753 
945	 0.422501254742939 
946	 0.42311358562428 
947	 0.423780645269026 
948	 0.424223762701238 
949	 0.424664334472338 
950	 0.425207822945868 
951	 0.425842928768519 
952	 0.426394901251505 
953	 0.426955631337538 
954	 0.427539276279454 
955	 0.428099775435079 
956	 0.428561039819741 
957	 0.429166997689587 
958	 0.429801714362746 
959	 0.430196630536221 
960	 0.430593956430021 
961	 0.431177648441466 
962	 0.431975802223385 
963	 0.432837772652245 
964	 0.433304382754451 
965	 0.433780265865972 
966	 0.434428347945494 
967	 0.435179945642961 
968	 0.435985656304016 
969	 0.436638070474464 
970	 0.437200626082604 
971	 0.43789647508927 
972	 0.438681507335792 
973	 0.439393869508369 
974	 0.440014616098363 
975	 0.440640947327904 
976	 0.441347168557216 
977	 0.442082844282961 
978	 0.442734681046455 
979	 0.443220558608375 
980	 0.443807182753048 
981	 0.444284720388755 
982	 0.444764749552667 
983	 0.445488277965935 
984	 0.44616672531221 
985	 0.446964664326256 
986	 0.447758200029112 
987	 0.448326851719855 
988	 0.448860358302362 
989	 0.449582340100459 
990	 0.450374448444161 
991	 0.451007675549192 
992	 0.451669483147164 
993	 0.45213060692048 
994	 0.452623432643247 
995	 0.453416386760302 
996	 0.454046195133208 
997	 0.454546547347352 
998	 0.455155720279898 
999	 0.456012767720866 
1000	 0.456650237367573 
1001	 0.460769633270781 
1002	 0.461248612352228 
1003	 0.461706498465449 
1004	 0.46223280584431 
1005	 0.462801861875597 
1006	 0.463298490321592 
1007	 0.463803940571988 
1008	 0.464323887315742 
1009	 0.464782503399994 
1010	 0.465231122505564 
1011	 0.465733104779906 
1012	 0.466285571190075 
1013	 0.466775542119355 
1014	 0.46722670855379 
1015	 0.467690197814043 
1016	 0.468106542942624 
1017	 0.468552561549277 
1018	 0.468989120985992 
1019	 0.469506389407346 
1020	 0.469965566780691 
1021	 0.4704099120579 
1022	 0.470872186741223 
1023	 0.471259806576835 
1024	 0.471688943898957 
1025	 0.472082742617211 
1026	 0.472402843404835 
1027	 0.472767490556848 
1028	 0.473130549543115 
1029	 0.47352068224131 
1030	 0.474024654160758 
1031	 0.474446353395712 
1032	 0.474844544728994 
1033	 0.475156132141758 
1034	 0.475592576047821 
1035	 0.475989485653134 
1036	 0.476334599540766 
1037	 0.476768393621254 
1038	 0.477086211391053 
1039	 0.4773612755029 
1040	 0.477728639984935 
1041	 0.478056865138801 
1042	 0.478399775808954 
1043	 0.47876964110533 
1044	 0.479101356870151 
1045	 0.479388733143674 
1046	 0.47972498449592 
1047	 0.48012252290909 
1048	 0.480498143506819 
1049	 0.480887447131367 
1050	 0.4812654404211 
1051	 0.48159126379931 
1052	 0.481924161211427 
1053	 0.48229324488832 
1054	 0.482682385613871 
1055	 0.483053236763675 
1056	 0.483422364648243 
1057	 0.483761504022659 
1058	 0.484040464987598 
1059	 0.484373549894935 
1060	 0.484735304806571 
1061	 0.485047591471601 
1062	 0.485391158291024 
1063	 0.485719609553815 
1064	 0.485981879213611 
1065	 0.48625793794451 
1066	 0.486548367138856 
1067	 0.486864479493915 
1068	 0.487184075870433 
1069	 0.487516126976231 
1070	 0.487822563621727 
1071	 0.488096948702431 
1072	 0.488353992745396 
1073	 0.488580507917017 
1074	 0.488856179218977 
1075	 0.489137085627508 
1076	 0.489427979419883 
1077	 0.489706284309699 
1078	 0.489943242268261 
1079	 0.490139838116462 
1080	 0.490366658144073 
1081	 0.490607194632888 
1082	 0.490782064872918 
1083	 0.491003084318546 
1084	 0.491226864033455 
1085	 0.491437024886069 
1086	 0.491689044169169 
1087	 0.49189951020781 
1088	 0.492058522997398 
1089	 0.492232615311964 
1090	 0.49246097425374 
1091	 0.492667410253359 
1092	 0.49291880320546 
1093	 0.493096327794146 
1094	 0.493213366399702 
1095	 0.493380289070718 
1096	 0.493530595571707 
1097	 0.493694638987032 
1098	 0.493857492263949 
1099	 0.494006270357819 
1100	 0.494192370063186 
1101	 0.494398574776416 
1102	 0.494608575125183 
1103	 0.494848042462352 
1104	 0.495089297238364 
1105	 0.495301459485422 
1106	 0.495501135244051 
1107	 0.495722706899197 
1108	 0.49595023824536 
1109	 0.496167375190476 
1110	 0.496381454358876 
1111	 0.496582992056127 
1112	 0.496751016813578 
1113	 0.496948540730542 
1114	 0.497149124803876 
1115	 0.497367740078548 
1116	 0.497596914092355 
1117	 0.497842700649029 
1118	 0.498108396048992 
1119	 0.498372523138826 
1120	 0.49865762293143 
1121	 0.498911033816431 
1122	 0.499164285572127 
1123	 0.499419486255439 
1124	 0.499667462897317 
1125	 0.499914990824558 
1126	 0.500155272558062 
1127	 0.500382273280302 
1128	 0.500618982378354 
1129	 0.500841772186148 
1130	 0.501078228656458 
1131	 0.50133992307959 
1132	 0.501582992669677 
1133	 0.501831930200931 
1134	 0.502067076654317 
1135	 0.502289903401245 
1136	 0.502503003140776 
1137	 0.502707782828783 
1138	 0.502898999752075 
1139	 0.50309256151599 
1140	 0.503282500404746 
1141	 0.503462226910088 
1142	 0.503636613913536 
1143	 0.503811902641443 
1144	 0.503979440668403 
1145	 0.504144025192076 
1146	 0.504300913158114 
1147	 0.504468165857794 
1148	 0.504672340415163 
1149	 0.504816894643106 
1150	 0.504931423653083 
1151	 0.505040552028213 
1152	 0.505144125640532 
1153	 0.505253512326699 
1154	 0.505383340593458 
1155	 0.505562293086853 
1156	 0.505709513861805 
1157	 0.505835708715949 
1158	 0.505977916529452 
1159	 0.506149891850891 
1160	 0.506279337582504 
1161	 0.506379727249662 
1162	 0.506500504066489 
1163	 0.506598372590351 
1164	 0.506715241329079 
1165	 0.506856120584617 
1166	 0.507005752620368 
1167	 0.507109323765408 
1168	 0.507223517568769 
1169	 0.507354895849157 
1170	 0.507488289198362 
1171	 0.507613560140198 
1172	 0.507756873577756 
1173	 0.507891318500915 
1174	 0.508008025155675 
1175	 0.508131631991657 
1176	 0.508272502623453 
1177	 0.508396115033629 
1178	 0.5085098580544 
1179	 0.508616819858472 
1180	 0.508713659163711 
1181	 0.508813487868901 
1182	 0.508918467786553 
1183	 0.508998894678845 
1184	 0.509085294429379 
1185	 0.509165306610259 
1186	 0.509266382203607 
1187	 0.50937254610533 
1188	 0.509472321620013 
1189	 0.509595808252691 
1190	 0.509691968398704 
1191	 0.509762595881539 
1192	 0.509844391110389 
1193	 0.50990210786766 
1194	 0.509999066340637 
1195	 0.510140590327627 
1196	 0.510243577639681 
1197	 0.510353504589625 
1198	 0.510455371459593 
1199	 0.510543126013773 
1200	 0.51058805047441 
1201	 0.510672845742719 
1202	 0.510778877723559 
1203	 0.510867461007483 
1204	 0.51095636981293 
1205	 0.511040811141508 
1206	 0.511112765089 
1207	 0.511198777319927 
1208	 0.511289668132532 
1209	 0.511380546362421 
1210	 0.511481701267083 
1211	 0.511575595384189 
1212	 0.511666854100558 
1213	 0.511755946466768 
1214	 0.511848897957018 
1215	 0.511930554599157 
1216	 0.512005703732845 
1217	 0.512074804298696 
1218	 0.512141623847306 
1219	 0.512189455168963 
1220	 0.512265417931051 
1221	 0.512355355123404 
1222	 0.51243643358516 
1223	 0.51253012513315 
1224	 0.5126144768978 
1225	 0.512685425362688 
1226	 0.512765260405277 
1227	 0.512854927345884 
1228	 0.512935631587527 
1229	 0.513020654183705 
1230	 0.513092422478255 
1231	 0.513138416561854 
1232	 0.513204608554247 
1233	 0.51327587962661 
1234	 0.513350485662398 
1235	 0.513417094377485 
1236	 0.513496534797094 
1237	 0.513562126081866 
1238	 0.513610492293667 
1239	 0.513664604180548 
1240	 0.513735462068008 
1241	 0.513775743799525 
1242	 0.513778409320538 
1243	 0.513816254349816 
1244	 0.513852281059378 
1245	 0.513894754561341 
1246	 0.513963958657908 
1247	 0.514028346798236 
1248	 0.514088653115893 
1249	 0.51415202267979 
1250	 0.514218699596142 
1251	 0.514270195644152 
1252	 0.514323870790278 
1253	 0.514358430510695 
1254	 0.514420803875973 
1255	 0.514497010266929 
1256	 0.514568420315773 
1257	 0.514666060720086 
1258	 0.514724754162522 
1259	 0.514755200150227 
1260	 0.514804153800231 
1261	 0.514836284225873 
1262	 0.514882741554743 
1263	 0.514953991876162 
1264	 0.515009267841625 
1265	 0.515053980486452 
1266	 0.515104042405778 
1267	 0.515143245326142 
1268	 0.515201490418888 
1269	 0.515260589380402 
1270	 0.515324678667311 
1271	 0.515389285782123 
1272	 0.515466216490354 
1273	 0.515528204731111 
1274	 0.515587834109401 
1275	 0.515644489051551 
1276	 0.515685126168635 
1277	 0.515738045367453 
1278	 0.515789606104332 
1279	 0.515854716789656 
1280	 0.515958119140852 
1281	 0.516015718738206 
1282	 0.516049294173736 
1283	 0.516088310883627 
1284	 0.516087947817623 
1285	 0.51610557378425 
1286	 0.516175213616863 
1287	 0.516266298830648 
1288	 0.51635276828549 
1289	 0.516464843174584 
1290	 0.516561761604071 
1291	 0.516660509554744 
1292	 0.516741732199188 
1293	 0.516822696569416 
1294	 0.516888608148649 
1295	 0.516934019152604 
1296	 0.516979337943104 
1297	 0.517021662344812 
1298	 0.517059103353636 
1299	 0.517097028734238 
1300	 0.517110431118875 
1301	 0.51710187233449 
1302	 0.517101062342344 
1303	 0.517092294553078 
1304	 0.517064686400245 
1305	 0.517066277915009 
1306	 0.517066238251545 
1307	 0.51704233865142 
1308	 0.516990471178304 
1309	 0.516927238141104 
1310	 0.516832622219725 
1311	 0.516757471620254 
1312	 0.516682177702382 
1313	 0.516598640937792 
1314	 0.516508671688705 
1315	 0.516427425917583 
1316	 0.516324322386815 
1317	 0.516257478073413 
1318	 0.51622725701036 
1319	 0.516185283287939 
1320	 0.516167073634699 
1321	 0.51611954481223 
1322	 0.516058205166478 
1323	 0.515982306775042 
1324	 0.515916178407253 
1325	 0.515871664382338 
1326	 0.515832425218742 
1327	 0.515809329114193 
1328	 0.515780886767396 
1329	 0.515732280621151 
1330	 0.51570037355293 
1331	 0.515672208807964 
1332	 0.515650141262747 
1333	 0.515626077655317 
1334	 0.515627361977517 
1335	 0.5156474386349 
1336	 0.515672884981234 
1337	 0.515705362868685 
1338	 0.515750880226428 
1339	 0.515829501713433 
1340	 0.515869269720945 
1341	 0.515897492182218 
1342	 0.515938594691279 
1343	 0.515973943276448 
1344	 0.515983261759008 
1345	 0.51603967612009 
1346	 0.516079102332813 
1347	 0.516068322936472 
1348	 0.51605532430167 
1349	 0.516037835441214 
1350	 0.516018309665579 
1351	 0.516004324026177 
1352	 0.516017490443196 
1353	 0.515984342086715 
1354	 0.515936664002773 
1355	 0.515868362091796 
1356	 0.5157462021297 
1357	 0.515683245120392 
1358	 0.515626223510526 
1359	 0.515580354389886 
1360	 0.515559240490075 
1361	 0.515553783966368 
1362	 0.515549383925337 
1363	 0.515563950077415 
1364	 0.515631384699289 
1365	 0.515666652419419 
1366	 0.515680923840427 
1367	 0.515717853828733 
1368	 0.515771109545694 
1369	 0.515787543437274 
1370	 0.515783731255801 
1371	 0.515769533320612 
1372	 0.515709222796714 
1373	 0.51560879701675 
1374	 0.515473369366493 
1375	 0.515338983540695 
1376	 0.515091410132323 
1377	 0.514770011519115 
1378	 0.514410679706922 
1379	 0.513952323791431 
1380	 0.513518844356323 
1381	 0.51304581413331 
1382	 0.512584114850826 
1383	 0.512160673098645 
1384	 0.511651927350038 
1385	 0.511182125318683 
1386	 0.510559392634063 
1387	 0.509868295013801 
1388	 0.509043231616859 
1389	 0.508138240539452 
1390	 0.507056861802733 
1391	 0.505809848040446 
1392	 0.504431614435149 
1393	 0.502883495234938 
1394	 0.501261884134314 
1395	 0.499559785272104 
1396	 0.497805324987866 
1397	 0.496070300212796 
1398	 0.494264405800338 
1399	 0.492539980321553 
1400	 0.49080884263677 
1401	 0.489185409402891 
1402	 0.487574905361933 
1403	 0.486126658050743 
1404	 0.484774190209228 
1405	 0.483543012348284 
1406	 0.482419195051704 
1407	 0.481415554125878 
1408	 0.480438180494597 
1409	 0.479747843137257 
1410	 0.479124737863736 
1411	 0.478891496793385 
1412	 0.478944455103799 
1413	 0.479271087760822 
1414	 0.479925391295595 
1415	 0.480823455470429 
1416	 0.481944491171653 
1417	 0.483237480332909 
1418	 0.484640698614451 
1419	 0.486063928531239 
1420	 0.487468092293561 
1421	 0.488805471506794 
1422	 0.489970606465929 
1423	 0.49103455055195 
1424	 0.491934144220385 
1425	 0.492646329647164 
1426	 0.493302900670185 
1427	 0.493818998063895 
1428	 0.494304849807126 
1429	 0.494700336642682 
1430	 0.495065502935345 
1431	 0.495388223412965 
1432	 0.49564414181154 
1433	 0.495828114644228 
1434	 0.495984588251411 
1435	 0.496053891885735 
1436	 0.496150268305427 
1437	 0.496255049294037 
1438	 0.496319064903137 
1439	 0.496361334547083 
1440	 0.496392167331345 
1441	 0.496383366314595 
1442	 0.496363415833166 
1443	 0.496372352972239 
1444	 0.496371134359639 
1445	 0.496393120088421 
1446	 0.496413358811201 
1447	 0.496411901036673 
1448	 0.496424009948795 
1449	 0.496390679895185 
1450	 0.496337371797572 
1451	 0.49630988442316 
1452	 0.49627480119323 
1453	 0.496251561124848 
1454	 0.496271440596628 
1455	 0.496233425556131 
1456	 0.496169712362577 
1457	 0.496101310650398 
1458	 0.495983684895011 
1459	 0.495921548796848 
1460	 0.49585959689763 
1461	 0.49583878404483 
1462	 0.495878642514413 
1463	 0.495883322922081 
1464	 0.495902795744161 
1465	 0.495916281607009 
1466	 0.49589456849603 
1467	 0.495910837444574 
1468	 0.49593051126026 
1469	 0.495982618246715 
1470	 0.496069603954111 
1471	 0.496167266073575 
1472	 0.496283013847435 
1473	 0.496410080803332 
1474	 0.496495061919914 
1475	 0.496603858202236 
1476	 0.496726864624889 
1477	 0.496842264237824 
1478	 0.497031720128106 
1479	 0.497225072954979 
1480	 0.497385575006408 
1481	 0.49757841342947 
1482	 0.497731354255496 
1483	 0.497841038157689 
1484	 0.497983794039736 
1485	 0.498125823605006 
1486	 0.498268624387627 
1487	 0.498424458054796 
1488	 0.498572052381214 
1489	 0.498727562377926 
1490	 0.498864272834245 
1491	 0.49899130587249 
1492	 0.499110902359527 
1493	 0.499191377629303 
1494	 0.499313002969838 
1495	 0.499457480366295 
1496	 0.499595002988823 
1497	 0.499783299059319 
1498	 0.499906556907969 
1499	 0.499981868111273 
1500	 0.500068770582841 
1501	 0.500114984897285 
1502	 0.500184420093421 
1503	 0.500266168070325 
1504	 0.500355839021118 
1505	 0.500445082873448 
1506	 0.500528337496603 
1507	 0.500626766581207 
1508	 0.500724594499898 
1509	 0.500818049917679 
1510	 0.500906573504729 
1511	 0.500983666095158 
1512	 0.501050753548129 
1513	 0.501081757210059 
1514	 0.501129140607275 
1515	 0.501213972834777 
1516	 0.501288498874527 
1517	 0.501374085660279 
1518	 0.501504269131947 
1519	 0.501590327102547 
1520	 0.501648214986946 
1521	 0.501718801011166 
1522	 0.501783800777993 
1523	 0.501853614845554 
1524	 0.501932167997996 
1525	 0.501988332176029 
1526	 0.502039420024474 
1527	 0.502083956131934 
1528	 0.502099983398795 
1529	 0.50213802874932 
1530	 0.502190957063288 
1531	 0.502232974837466 
1532	 0.502277078133056 
1533	 0.502319427166791 
1534	 0.502346365887706 
1535	 0.502386699973597 
1536	 0.502425666020806 
1537	 0.502484983980998 
1538	 0.502571797301708 
1539	 0.502642465098156 
1540	 0.502724770932161 
1541	 0.502794611977011 
1542	 0.502846556904706 
1543	 0.502902396845018 
1544	 0.502952184270915 
1545	 0.503007976927579 
1546	 0.503061193741352 
1547	 0.503118475302874 
1548	 0.503201396074289 
1549	 0.503288093523103 
1550	 0.503362999300291 
1551	 0.503428645404892 
1552	 0.503458691005986 
1553	 0.503476486924111 
1554	 0.503506782986627 
1555	 0.503534015741512 
1556	 0.503550558349151 
1557	 0.503585791142761 
1558	 0.503621862868111 
1559	 0.503645280228714 
1560	 0.503664424585375 
1561	 0.503683297601737 
1562	 0.503705394839315 
1563	 0.503703406085975 
1564	 0.503750303908465 
1565	 0.503830394069434 
1566	 0.503902261697071 
1567	 0.504004364664126 
1568	 0.50406833106261 
1569	 0.504127859776417 
1570	 0.504159488671438 
1571	 0.504149345314814 
1572	 0.50417416589218 
1573	 0.504195049607688 
1574	 0.504221174463417 
1575	 0.504270540988366 
1576	 0.504300498933275 
1577	 0.50431945375066 
1578	 0.504336661865319 
1579	 0.504349312943053 
1580	 0.504366897263068 
1581	 0.504382878005732 
1582	 0.50439534557796 
1583	 0.504403017440822 
1584	 0.504418619293581 
1585	 0.504444799006 
1586	 0.504448699138961 
1587	 0.504453877754895 
1588	 0.504451086695215 
1589	 0.504413700255325 
1590	 0.504399370118846 
1591	 0.504396259428697 
1592	 0.504393893200042 
1593	 0.504414515011777 
1594	 0.504405114121544 
1595	 0.504372000030745 
1596	 0.50435417418897 
1597	 0.504331100154967 
1598	 0.504302837698003 
1599	 0.504291946903029 
1600	 0.50426376508056 
1601	 0.504175040101584 
1602	 0.504154132921296 
1603	 0.504179952902097 
1604	 0.504189956037881 
1605	 0.504251543653733 
1606	 0.504280478763566 
1607	 0.50427349724528 
1608	 0.504269017916242 
1609	 0.504280455687828 
1610	 0.504271867887171 
1611	 0.504280945544646 
1612	 0.504275487850517 
1613	 0.504250040732988 
1614	 0.504227265137874 
1615	 0.504168557940176 
1616	 0.50411308600523 
1617	 0.504088292281101 
1618	 0.504062899670202 
1619	 0.504062603439209 
1620	 0.504066320891229 
1621	 0.504048859937784 
1622	 0.504017745926171 
1623	 0.50398757839738 
1624	 0.503949567502252 
1625	 0.503914463840715 
1626	 0.503876987984576 
1627	 0.503840861533365 
1628	 0.503804309467986 
1629	 0.503763187978343 
1630	 0.503718512828348 
1631	 0.503681349047534 
1632	 0.503636796220543 
1633	 0.503617736398228 
1634	 0.503611008932063 
1635	 0.503611036604815 
1636	 0.503648288346998 
1637	 0.503624389461456 
1638	 0.503574720251264 
1639	 0.503541767296811 
1640	 0.503474393597342 
1641	 0.503440524721466 
1642	 0.503452116827249 
1643	 0.503409955228441 
1644	 0.503346499119695 
1645	 0.503282550417752 
1646	 0.503183912858036 
1647	 0.503125400073101 
1648	 0.503077732291159 
1649	 0.503042668535068 
1650	 0.503043308504252 
1651	 0.503006233357966 
1652	 0.502953802000093 
1653	 0.50291853229423 
1654	 0.502867790583998 
1655	 0.502838112863776 
1656	 0.502859041592748 
1657	 0.502807756929603 
1658	 0.502715880534504 
1659	 0.502646676281694 
1660	 0.50253287929449 
1661	 0.502473957549036 
1662	 0.502469333322279 
1663	 0.502426153237749 
1664	 0.502396914618467 
1665	 0.502329045293238 
1666	 0.502222075269448 
1667	 0.502135222032914 
1668	 0.502031191198852 
1669	 0.501945463505851 
1670	 0.501868605554339 
1671	 0.501804643075834 
1672	 0.501742046532191 
1673	 0.501703104268315 
1674	 0.501691224286379 
1675	 0.501675227862437 
1676	 0.50169904774522 
1677	 0.5016591190232 
1678	 0.501603247541551 
1679	 0.501515464341285 
1680	 0.501342063888372 
1681	 0.501251396601515 
1682	 0.501181440452128 
1683	 0.501116942530913 
1684	 0.501109076683546 
1685	 0.501053878276858 
1686	 0.500969746102696 
1687	 0.500897304621723 
1688	 0.500807325825841 
1689	 0.500745931487093 
1690	 0.500709931177034 
1691	 0.500650329563107 
1692	 0.500598817247804 
1693	 0.500533755170515 
1694	 0.500443703427345 
1695	 0.500367570694773 
1696	 0.500287086530821 
1697	 0.500225650839671 
1698	 0.500177353942523 
1699	 0.500122971221523 
1700	 0.500083873566458 
1701	 0.500034431564079 
1702	 0.499974487227735 
1703	 0.499917633837263 
1704	 0.499869034117454 
1705	 0.499804430990553 
1706	 0.499727615378531 
1707	 0.49965135802635 
1708	 0.499574406544074 
1709	 0.499483087644754 
1710	 0.49937142443823 
1711	 0.499288483346635 
1712	 0.499210657572093 
1713	 0.499127424434925 
1714	 0.499054749671646 
1715	 0.498990419931786 
1716	 0.498921238719986 
1717	 0.498853385927894 
1718	 0.498820437113083 
1719	 0.498738792976093 
1720	 0.498624547024707 
1721	 0.498512763026857 
1722	 0.498384503285648 
1723	 0.498256649496306 
1724	 0.498124474227171 
1725	 0.497989904658939 
1726	 0.497840048307915 
1727	 0.497708411098915 
1728	 0.497584214878692 
1729	 0.497457895455319 
1730	 0.497335502063114 
1731	 0.497216228851068 
1732	 0.497098628856493 
1733	 0.496985884960149 
1734	 0.496893478962449 
1735	 0.496768782474375 
1736	 0.496625903546175 
1737	 0.496485520409013 
1738	 0.49632526855617 
1739	 0.496184608538344 
1740	 0.496061988542352 
1741	 0.495913438957249 
1742	 0.495746000592451 
1743	 0.495616673104375 
1744	 0.495484491245315 
1745	 0.495382014565993 
1746	 0.49533806898157 
1747	 0.495208833585827 
1748	 0.495072070086692 
1749	 0.494880022598698 
1750	 0.494665180557563 
1751	 0.494493811592831 
1752	 0.494327869884987 
1753	 0.49417579077836 
1754	 0.494048573922063 
1755	 0.493908930222546 
1756	 0.493768971728153 
1757	 0.493651743262964 
1758	 0.493538129873077 
1759	 0.493424100637616 
1760	 0.493301621495585 
1761	 0.493166462227082 
1762	 0.493047253285362 
1763	 0.492932593057062 
1764	 0.49280845374651 
1765	 0.4926799102814 
1766	 0.492525973369384 
1767	 0.4923646805974 
1768	 0.49223170621758 
1769	 0.492101849505435 
1770	 0.491978912907884 
1771	 0.491885172306372 
1772	 0.491783879591745 
1773	 0.491678820378965 
1774	 0.49160422374216 
1775	 0.491532852792746 
1776	 0.491414324134049 
1777	 0.491279547946463 
1778	 0.491176494075398 
1779	 0.491056808829201 
1780	 0.490951339546729 
1781	 0.490885108345351 
1782	 0.490814660747934 
1783	 0.490754174732172 
1784	 0.490675327759123 
1785	 0.490605682265019 
1786	 0.490525903312171 
1787	 0.490410684002179 
1788	 0.490330362972247 
1789	 0.490263353488353 
1790	 0.490198455227004 
1791	 0.490156329262943 
1792	 0.490104445044701 
1793	 0.490056874078832 
1794	 0.489992607097632 
1795	 0.489903069076654 
1796	 0.489834193338448 
1797	 0.489778478585303 
1798	 0.489717433296809 
1799	 0.48966956668788 
1800	 0.48960934040954 
1801	 0.489319217588191 
1802	 0.489513143474949 
1803	 0.4897291736412 
1804	 0.489996204367608 
1805	 0.490245618385783 
1806	 0.490431675200322 
1807	 0.490605736107067 
1808	 0.490726433196723 
1809	 0.4907755089525 
1810	 0.490823839929345 
1811	 0.490855547330281 
1812	 0.490860159307308 
1813	 0.490820328478425 
1814	 0.490778729921129 
1815	 0.490754399879068 
1816	 0.490698892978713 
1817	 0.490651530263354 
1818	 0.490605465584867 
1819	 0.49056426769643 
1820	 0.490523225557298 
1821	 0.490479903915386 
1822	 0.490430005087945 
1823	 0.490370878721991 
1824	 0.490271604773607 
1825	 0.490150943535446 
1826	 0.490044038979743 
1827	 0.489922216997632 
1828	 0.489789469529947 
1829	 0.489657525456838 
1830	 0.489514218221126 
1831	 0.489351614493413 
1832	 0.489182639684326 
1833	 0.489023078337782 
1834	 0.488849997877803 
1835	 0.488676853663435 
1836	 0.488544971274872 
1837	 0.488418251046923 
1838	 0.488270900726089 
1839	 0.488165349634963 
1840	 0.488087326394362 
1841	 0.488010117789646 
1842	 0.487943058827639 
1843	 0.487933341677243 
1844	 0.487935235617764 
1845	 0.487907692902645 
1846	 0.487916808567671 
1847	 0.487932680792233 
1848	 0.487877494713847 
1849	 0.48782139753721 
1850	 0.487772795469242 
1851	 0.487704575862726 
1852	 0.487629411841139 
1853	 0.487586289645306 
1854	 0.487554389264652 
1855	 0.487496321748401 
1856	 0.487394862011083 
1857	 0.487315634027064 
1858	 0.487208025536871 
1859	 0.487065860389833 
1860	 0.486894945740108 
1861	 0.48671976356175 
1862	 0.486470751878952 
1863	 0.486153241243388 
1864	 0.485788420896739 
1865	 0.485396648112979 
1866	 0.484949316864181 
1867	 0.484500079197903 
1868	 0.484044536945072 
1869	 0.483560125674477 
1870	 0.483096585577165 
1871	 0.482623599962877 
1872	 0.482151737987815 
1873	 0.481677769095485 
1874	 0.481202750743322 
1875	 0.480727902758018 
1876	 0.480210246204168 
1877	 0.479677605237536 
1878	 0.479050766663416 
1879	 0.47828122322394 
1880	 0.477393171075407 
1881	 0.476377783586799 
1882	 0.475252147673091 
1883	 0.474011437108619 
1884	 0.472649057352841 
1885	 0.471191189471155 
1886	 0.469642358485853 
1887	 0.467948980709175 
1888	 0.466143762537002 
1889	 0.464243064314236 
1890	 0.462239741515121 
1891	 0.460199522852999 
1892	 0.458077364856722 
1893	 0.455931323220463 
1894	 0.453717106294171 
1895	 0.451467954184711 
1896	 0.449255785789536 
1897	 0.447039577908383 
1898	 0.444837227430165 
1899	 0.442746138756709 
1900	 0.440728799611685 
1901	 0.438790238627554 
1902	 0.437015995453695 
1903	 0.435426986890791 
1904	 0.433907545780417 
1905	 0.432489279527267 
1906	 0.431215553598239 
1907	 0.430036527603248 
1908	 0.42893259805594 
1909	 0.427884128769326 
1910	 0.426861429821797 
1911	 0.425908874693163 
1912	 0.424994897962843 
1913	 0.424136728480458 
1914	 0.423334198064133 
1915	 0.422599024118074 
1916	 0.421915578462657 
1917	 0.421287290940658 
1918	 0.420736125021012 
1919	 0.420252504509422 
1920	 0.419800185614731 
1921	 0.419368729377935 
1922	 0.419016857439051 
1923	 0.418759913535679 
1924	 0.418515256244393 
1925	 0.41834879097098 
1926	 0.418186103472297 
1927	 0.41804404254464 
1928	 0.417908236345117 
1929	 0.417839316296855 
1930	 0.417801453631361 
1931	 0.417796162403325 
1932	 0.417802358670188 
1933	 0.417812473741591 
1934	 0.417849831967954 
1935	 0.417911838874662 
1936	 0.417991869181506 
1937	 0.418100934129266 
1938	 0.418236064466495 
1939	 0.418399325102594 
1940	 0.418594219765067 
1941	 0.418804421465072 
1942	 0.419030380467135 
1943	 0.419275823033901 
1944	 0.419556393791626 
1945	 0.419854893909616 
1946	 0.420150369742682 
1947	 0.420497128047 
1948	 0.420787959927623 
1949	 0.42102832138362 
1950	 0.421303033386538 
1951	 0.421576429090499 
1952	 0.421835707336412 
1953	 0.422139969206846 
1954	 0.422504356712431 
1955	 0.422837026518202 
1956	 0.423173138133534 
1957	 0.423526221712022 
1958	 0.423872223139767 
1959	 0.424244425137168 
1960	 0.424654213530264 
1961	 0.425049938482615 
1962	 0.425451739143698 
1963	 0.425854903977116 
1964	 0.426247146449874 
1965	 0.42666321518701 
1966	 0.427083340364835 
1967	 0.427516036991256 
1968	 0.427963404483435 
1969	 0.428439045637993 
1970	 0.428884857668985 
1971	 0.429343500851229 
1972	 0.429775313961322 
1973	 0.430165654424685 
1974	 0.430582289488282 
1975	 0.430993426060751 
1976	 0.431420251781218 
1977	 0.431866954258308 
1978	 0.432323035102197 
1979	 0.432777712635624 
1980	 0.433249558708359 
1981	 0.433713501261936 
1982	 0.434174976070203 
1983	 0.43463890248201 
1984	 0.435118686613763 
1985	 0.435569532807872 
1986	 0.436006062787256 
1987	 0.436444469542488 
1988	 0.436860700426845 
1989	 0.437289088525696 
1990	 0.437734987088234 
1991	 0.43815852602481 
1992	 0.438595284735871 
1993	 0.439041405192716 
1994	 0.439478119380901 
1995	 0.439910282951335 
1996	 0.440348145565903 
1997	 0.440770274204674 
1998	 0.441221447902954 
1999	 0.441703275331558 
2000	 0.442164920584261 
2001	 0.442631366212093 
2002	 0.443098973005181 
2003	 0.443558640292577 
2004	 0.444020363211564 
2005	 0.444479514468131 
2006	 0.444957309392932 
2007	 0.445406857504656 
2008	 0.445829239011505 
2009	 0.446270418754657 
2010	 0.446716950404879 
2011	 0.447153844126902 
2012	 0.44757717750928 
2013	 0.448017116544726 
2014	 0.448457946011922 
2015	 0.448915904214807 
2016	 0.449346461632207 
2017	 0.449783328870019 
2018	 0.450193109070682 
2019	 0.450558029738976 
2020	 0.450944790528086 
2021	 0.45134465067899 
2022	 0.451722326759004 
2023	 0.45207672879615 
2024	 0.452452163991484 
2025	 0.452820106259585 
2026	 0.453196676834057 
2027	 0.45359744189691 
2028	 0.453993711033091 
2029	 0.454363581071213 
2030	 0.454727291761864 
2031	 0.455062449325659 
2032	 0.455369890646668 
2033	 0.455677755895666 
2034	 0.455964128960483 
2035	 0.456255464750044 
2036	 0.456538154681218 
2037	 0.456825605040283 
2038	 0.457107966787999 
2039	 0.457396676352663 
2040	 0.457679676071065 
2041	 0.457987502048817 
2042	 0.458300541422341 
2043	 0.458588610451719 
2044	 0.458857538979806 
2045	 0.459110970510358 
2046	 0.45935773532912 
2047	 0.459578973894554 
2048	 0.459807550369611 
2049	 0.460040293120444 
2050	 0.460257965264237 
2051	 0.460473664496075 
2052	 0.460666828420391 
2053	 0.460805468729028 
2054	 0.460999363796141 
2055	 0.461220851201156 
2056	 0.461419153379503 
2057	 0.46163507676903 
2058	 0.461913489767296 
2059	 0.462108935468443 
2060	 0.462260465805979 
2061	 0.462414923274608 
2062	 0.462540549569558 
2063	 0.462669350791148 
2064	 0.462800154120426 
2065	 0.462908487574928 
2066	 0.462965095603341 
2067	 0.46307415049596 
2068	 0.463176507043527 
2069	 0.463321569601838 
2070	 0.463472450871492 
2071	 0.463678815780521 
2072	 0.463829680594237 
2073	 0.463967650970153 
2074	 0.464096790749055 
2075	 0.464190822196213 
2076	 0.464326333274551 
2077	 0.46447647172815 
2078	 0.464622543101617 
2079	 0.464809126948839 
2080	 0.464953219064727 
2081	 0.465061066170149 
2082	 0.465180017824213 
2083	 0.465292159136732 
2084	 0.465401518725089 
2085	 0.465491244557049 
2086	 0.465581820074917 
2087	 0.465653607645482 
2088	 0.465686033423207 
2089	 0.465752640301564 
2090	 0.465831038076563 
2091	 0.465900327756699 
2092	 0.465979401510502 
2093	 0.466048070573189 
2094	 0.466091265791583 
2095	 0.466160691806389 
2096	 0.466259515123729 
2097	 0.466331397191659 
2098	 0.466391879251791 
2099	 0.466474213556126 
2100	 0.46652676071341 
2101	 0.466534891769413 
2102	 0.466600896337592 
2103	 0.46667207710312 
2104	 0.466776326892362 
2105	 0.466926818945164 
2106	 0.467060866041559 
2107	 0.467208079173981 
2108	 0.467356223204558 
2109	 0.46748943229909 
2110	 0.467654411774624 
2111	 0.467853206649998 
2112	 0.468038169248207 
2113	 0.468236463641462 
2114	 0.468433804670398 
2115	 0.468624542289462 
2116	 0.468807969245711 
2117	 0.468981858613148 
2118	 0.469155550351648 
2119	 0.469319921674865 
2120	 0.46946373847011 
2121	 0.46961842097975 
2122	 0.46976644894915 
2123	 0.4699318906348 
2124	 0.470118226945971 
2125	 0.470281819949323 
2126	 0.470457256038375 
2127	 0.470610396705965 
2128	 0.470731640758609 
2129	 0.470857613134302 
2130	 0.47100355351026 
2131	 0.471117578392246 
2132	 0.471174822007305 
2133	 0.471204626914018 
2134	 0.471206246932839 
2135	 0.471135004261945 
2136	 0.471090535651464 
2137	 0.471075305476697 
2138	 0.470980598548214 
2139	 0.470850038167473 
2140	 0.47068864751633 
2141	 0.470448857994426 
2142	 0.47023189950045 
2143	 0.47001986366744 
2144	 0.469773495391018 
2145	 0.469534918545805 
2146	 0.469241839449428 
2147	 0.468901609185326 
2148	 0.468532445396595 
2149	 0.46813824605415 
2150	 0.467713030407841 
2151	 0.467251336167818 
2152	 0.466764062993225 
2153	 0.466234986044859 
2154	 0.465666924432592 
2155	 0.465055622050345 
2156	 0.464396845401338 
2157	 0.463723675793959 
2158	 0.462998994071138 
2159	 0.462272543842829 
2160	 0.461552353245613 
2161	 0.46078280662978 
2162	 0.460010922967362 
2163	 0.459165216869886 
2164	 0.458269880625856 
2165	 0.45730228936364 
2166	 0.456330604680805 
2167	 0.455303779481873 
2168	 0.45427064665885 
2169	 0.45322841853462 
2170	 0.452147341305048 
2171	 0.451042204476215 
2172	 0.449880769379483 
2173	 0.448687104112922 
2174	 0.447441929137146 
2175	 0.44613738161372 
2176	 0.444799062416112 
2177	 0.443420405732993 
2178	 0.442001954811306 
2179	 0.440529699926302 
2180	 0.439032527910026 
2181	 0.437497361183291 
2182	 0.435933185949919 
2183	 0.434334767900696 
2184	 0.43268506456425 
2185	 0.431072409477084 
2186	 0.429417612366502 
2187	 0.427838770159929 
2188	 0.42628076889777 
2189	 0.424780840850536 
2190	 0.423286848886726 
2191	 0.421918444036649 
2192	 0.420581285640931 
2193	 0.419405974354781 
2194	 0.418327634609498 
2195	 0.417406613358334 
2196	 0.416638861489228 
2197	 0.415985127641225 
2198	 0.415464137982174 
2199	 0.415079428073015 
2200	 0.414821614200228 
2201	 0.414698851130546 
2202	 0.414742422456788 
2203	 0.414883952716685 
2204	 0.415162988494413 
2205	 0.415574210013399 
2206	 0.416107769481514 
2207	 0.41677722038183 
2208	 0.417559803139797 
2209	 0.418489927566554 
2210	 0.419485386350813 
2211	 0.420634571340952 
2212	 0.421780186628376 
2213	 0.423038816664725 
2214	 0.424241241007025 
2215	 0.425481636422283 
2216	 0.426671879533224 
2217	 0.427885863769239 
2218	 0.428990769091602 
2219	 0.43003221298291 
2220	 0.431029412679678 
2221	 0.431958713103968 
2222	 0.432819795082877 
2223	 0.43366039740658 
2224	 0.43440165881148 
2225	 0.435041591913809 
2226	 0.435556293772978 
2227	 0.436070975878535 
2228	 0.436488280979642 
2229	 0.43693787168385 
2230	 0.437385640044305 
2231	 0.437772752592785 
2232	 0.438139341944067 
2233	 0.438452936140817 
2234	 0.438726748343201 
2235	 0.438940472879337 
2236	 0.43909982440518 
2237	 0.439218296246051 
2238	 0.43923634153737 
2239	 0.439286783097294 
2240	 0.439325928291104 
2241	 0.439353060499186 
2242	 0.439382899987342 
2243	 0.439392750594675 
2244	 0.439401092705755 
2245	 0.439364315825077 
2246	 0.439278780452048 
2247	 0.439173737023198 
2248	 0.43905140166941 
2249	 0.43887973375175 
2250	 0.438713720727291 
2251	 0.438529247347961 
2252	 0.43836572732412 
2253	 0.438165860997356 
2254	 0.438040684140634 
2255	 0.437970003231584 
2256	 0.437895563518421 
2257	 0.437865559236626 
2258	 0.437804723953758 
2259	 0.437727511064008 
2260	 0.437671924621984 
2261	 0.437614450847683 
2262	 0.437573011137788 
2263	 0.437505264701644 
2264	 0.437533513233587 
2265	 0.437635750477145 
2266	 0.437717556089918 
2267	 0.437880208384268 
2268	 0.438011063584863 
2269	 0.438108293292269 
2270	 0.438210531890231 
2271	 0.438334206204535 
2272	 0.438413907807842 
2273	 0.438490800710614 
2274	 0.438603526941521 
2275	 0.43872208726772 
2276	 0.438876852618241 
2277	 0.438978196189851 
2278	 0.43906986448064 
2279	 0.439141026037364 
2280	 0.439154752733455 
2281	 0.439228817685723 
2282	 0.439348810978574 
2283	 0.439421668973812 
2284	 0.439501846779432 
2285	 0.43955080124995 
2286	 0.439542284661628 
2287	 0.439559148564807 
2288	 0.439596087646403 
2289	 0.439602914603661 
2290	 0.439626823310199 
2291	 0.439585776221311 
2292	 0.439473302897406 
2293	 0.439379205012727 
2294	 0.439252880002423 
2295	 0.439127325984186 
2296	 0.439004753485339 
2297	 0.438891051445851 
2298	 0.438751664974015 
2299	 0.438568809274972 
2300	 0.438391350912697 
2301	 0.438237531387717 
2302	 0.438058858589572 
2303	 0.437865742956697 
2304	 0.437638799186288 
2305	 0.43735849476297 
2306	 0.437085324404927 
2307	 0.436756041294257 
2308	 0.436506261295102 
2309	 0.43629475529139 
2310	 0.43608007364949 
2311	 0.435923033916843 
2312	 0.43568519916024 
2313	 0.435444124114133 
2314	 0.435108622984789 
2315	 0.434649823512344 
2316	 0.43429380868396 
2317	 0.433904557262275 
2318	 0.433566305780737 
2319	 0.433320321346407 
2320	 0.433031270469563 
2321	 0.432746156835822 
2322	 0.432426604293919 
2323	 0.432107550761303 
2324	 0.431761007792996 
2325	 0.431358833508824 
2326	 0.43097718022361 
2327	 0.430591831279395 
2328	 0.4301896819966 
2329	 0.42983549096696 
2330	 0.429460317396799 
2331	 0.429085100390701 
2332	 0.428701358229475 
2333	 0.428240415414187 
2334	 0.427792425356689 
2335	 0.427352517756074 
2336	 0.426851540694701 
2337	 0.426360257080221 
2338	 0.425872966704702 
2339	 0.425435972710713 
2340	 0.425092539666705 
2341	 0.424767801616535 
2342	 0.42449559002686 
2343	 0.424184992977361 
2344	 0.423831529690289 
2345	 0.423540421190522 
2346	 0.423265040201579 
2347	 0.423049392736532 
2348	 0.422888120582337 
2349	 0.422721036443834 
2350	 0.422603797555455 
2351	 0.422467384119353 
2352	 0.422305469186202 
2353	 0.422233255737245 
2354	 0.422181976400262 
2355	 0.42219038290997 
2356	 0.42229897503233 
2357	 0.422350629977893 
2358	 0.42246039055799 
2359	 0.422506452110534 
2360	 0.422507379905213 
2361	 0.422508400847976 
2362	 0.422456732248098 
2363	 0.422443761586302 
2364	 0.42247920796939 
2365	 0.422411493754026 
2366	 0.422333914549958 
2367	 0.422191786521709 
2368	 0.421929040932639 
2369	 0.421709172942018 
2370	 0.421468395648848 
2371	 0.421250926426192 
2372	 0.421030542522498 
2373	 0.420807085235349 
2374	 0.420644795222071 
2375	 0.420423406011916 
2376	 0.420114098181884 
2377	 0.419774489128308 
2378	 0.419417932970956 
2379	 0.41905226143135 
2380	 0.418736559395069 
2381	 0.418477726678735 
2382	 0.418122096471335 
2383	 0.41777315970981 
2384	 0.417428085062648 
2385	 0.417041812483465 
2386	 0.416747659530004 
2387	 0.416401768210414 
2388	 0.41605192273557 
2389	 0.415803137110622 
2390	 0.415564081480454 
2391	 0.415361778771715 
2392	 0.415144859281187 
2393	 0.414813655192814 
2394	 0.414458177084215 
2395	 0.414091923404723 
2396	 0.413687552146964 
2397	 0.413316539028958 
2398	 0.412869135952459 
2399	 0.412370956388198 
2400	 0.411915037823657 
2401	 0.411385295148831 
2402	 0.41081905060746 
2403	 0.410267619555925 
2404	 0.409693442227017 
2405	 0.409139945827335 
2406	 0.408597553431059 
2407	 0.408004844860124 
2408	 0.407298961677723 
2409	 0.406600990495012 
2410	 0.405968255555461 
2411	 0.405274423186274 
2412	 0.404635026751186 
2413	 0.403948182888759 
2414	 0.403247971919093 
2415	 0.402594765948595 
2416	 0.40193902989228 
2417	 0.401356075172482 
2418	 0.400738681499375 
2419	 0.400075907758486 
2420	 0.399418307346287 
2421	 0.39874307692248 
2422	 0.398083111473262 
2423	 0.397431520818976 
2424	 0.39678200795274 
2425	 0.396183303910419 
2426	 0.395484051214707 
2427	 0.394743348907147 
2428	 0.39397987942647 
2429	 0.393093192330566 
2430	 0.392344393030952 
2431	 0.391582007527623 
2432	 0.391002734618033 
2433	 0.390636460875981 
2434	 0.390161404296006 
2435	 0.38980015155427 
2436	 0.389282965763861 
2437	 0.388591854659845 
2438	 0.388053557409431 
2439	 0.387482136160282 
2440	 0.386943724588987 
2441	 0.386533843810281 
2442	 0.386098503161428 
2443	 0.385654094108635 
2444	 0.385281020709954 
2445	 0.38495575886728 
2446	 0.384650161652335 
2447	 0.384393465286281 
2448	 0.384090754767483 
2449	 0.383811269489202 
2450	 0.38341959000524 
2451	 0.382912440620094 
2452	 0.382549148229119 
2453	 0.382191045337491 
2454	 0.381922823288935 
2455	 0.381785930616937 
2456	 0.381545802296724 
2457	 0.381316797846392 
2458	 0.381010268782485 
2459	 0.380617743381798 
2460	 0.380332564910758 
2461	 0.380015489933769 
2462	 0.37974233832972 
2463	 0.379662132089832 
2464	 0.379373524372448 
2465	 0.378953165776753 
2466	 0.378635270994691 
2467	 0.378225803264855 
2468	 0.377842459108477 
2469	 0.377557292822963 
2470	 0.377213661213984 
2471	 0.376891285227272 
2472	 0.37670078514047 
2473	 0.376290660547635 
2474	 0.375794103222737 
2475	 0.375395838845826 
2476	 0.374938149472045 
2477	 0.374551711161142 
2478	 0.374171950482821 
2479	 0.373722118403613 
2480	 0.373417916816283 
2481	 0.373269918880526 
2482	 0.373166004961368 
2483	 0.372892451957879 
2484	 0.37254250556712 
2485	 0.372180512009779 
2486	 0.371780599985901 
2487	 0.371700622249518 
2488	 0.371525511359124 
2489	 0.371140512031598 
2490	 0.37090346245256 
2491	 0.370576060737874 
2492	 0.370317529988202 
2493	 0.370211729851414 
2494	 0.370020733376436 
2495	 0.369860008958665 
2496	 0.369728296050847 
2497	 0.36940444988636 
2498	 0.369076732009404 
2499	 0.368781479655351 
2500	 0.368492599048078 
