Wavelength	LMW_1500002.asd
350	 6.21315338272403E-02 
351	 5.54008256624075E-02 
352	 0.05012890805192 
353	 5.23148801426463E-02 
354	 4.98471370974963E-02 
355	 4.90193711853105E-02 
356	 5.13006719975318E-02 
357	 5.59151951680225E-02 
358	 5.97519136804155E-02 
359	 5.52621500016103E-02 
360	 4.88694489478369E-02 
361	 5.36081365846635E-02 
362	 0.05030765020408 
363	 4.93878639366543E-02 
364	 5.42766366329928E-02 
365	 5.19760239748644E-02 
366	 4.94101172742609E-02 
367	 4.84577928140166E-02 
368	 4.97191610699108E-02 
369	 5.51208800439607E-02 
370	 5.54190523755143E-02 
371	 5.18578275383564E-02 
372	 5.24284740209586E-02 
373	 5.31699505065481E-02 
374	 5.38762881469345E-02 
375	 5.50436796078838E-02 
376	 5.80318274430633E-02 
377	 0.054590121602463 
378	 5.05836804947924E-02 
379	 5.30013387234574E-02 
380	 5.44079830638625E-02 
381	 5.34634357278384E-02 
382	 5.24050708593199E-02 
383	 5.53030868293947E-02 
384	 5.54601217042332E-02 
385	 0.052582841328923 
386	 4.93799449365709E-02 
387	 5.26379192327107E-02 
388	 5.39155697316484E-02 
389	 5.37034859820097E-02 
390	 5.44862420622248E-02 
391	 5.34912447620222E-02 
392	 5.22410619302761E-02 
393	 5.26553360314653E-02 
394	 5.62620461581704E-02 
395	 5.53630227254834E-02 
396	 5.38192308711151E-02 
397	 5.46386614694846E-02 
398	 5.47271887423539E-02 
399	 0.055328854898105 
400	 5.60233942321715E-02 
401	 5.59854287146753E-02 
402	 5.54779426629643E-02 
403	 5.50635831078039E-02 
404	 5.46402334376602E-02 
405	 5.34923231826468E-02 
406	 5.40333295047961E-02 
407	 5.58478535066928E-02 
408	 0.057201547143875 
409	 5.41257130535224E-02 
410	 5.30427275782505E-02 
411	 5.41281885683605E-02 
412	 0.054758364280313 
413	 5.59790255228969E-02 
414	 5.60490047696383E-02 
415	 5.49732598622809E-02 
416	 5.51761186057024E-02 
417	 5.50530116918614E-02 
418	 5.53458312080424E-02 
419	 5.65500026645559E-02 
420	 5.66059662514715E-02 
421	 5.58727378338649E-02 
422	 5.54314534772904E-02 
423	 5.64934157370996E-02 
424	 5.68074308707363E-02 
425	 5.64342862554332E-02 
426	 5.58907662930401E-02 
427	 5.58870150989551E-02 
428	 5.60887676719858E-02 
429	 5.61627746033178E-02 
430	 5.59925871930479E-02 
431	 5.66123696208522E-02 
432	 5.69793282749406E-02 
433	 5.68885750136924E-02 
434	 5.70064493333582E-02 
435	 5.70980797340215E-02 
436	 5.71724122626021E-02 
437	 5.71594517251641E-02 
438	 5.65551903050163E-02 
439	 5.67018089221583E-02 
440	 5.73101703429617E-02 
441	 5.73960037435617E-02 
442	 5.76764694317183E-02 
443	 5.80907084499269E-02 
444	 5.83801720516733E-02 
445	 5.80812999062881E-02 
446	 5.80880005315072E-02 
447	 5.83672114238156E-02 
448	 5.85901472051268E-02 
449	 5.84137537928882E-02 
450	 5.85438058506311E-02 
451	 5.90392455735377E-02 
452	 5.93866720982658E-02 
453	 5.95043396743891E-02 
454	 5.94408749946192E-02 
455	 5.93396979800716E-02 
456	 5.94938887303966E-02 
457	 5.96037356677712E-02 
458	 0.059671785469655 
459	 5.98081787308599E-02 
460	 5.98004360423681E-02 
461	 5.99761407364966E-02 
462	 6.03434205579061E-02 
463	 6.04043287002921E-02 
464	 6.05655497198137E-02 
465	 6.07699050475944E-02 
466	 6.08990164358176E-02 
467	 0.061125723240606 
468	 6.12836768217861E-02 
469	 6.13499680328991E-02 
470	 0.061422197028543 
471	 6.14709752122948E-02 
472	 6.16002050148975E-02 
473	 0.061826415967596 
474	 6.18963182838287E-02 
475	 6.21702911877293E-02 
476	 6.24543991558036E-02 
477	 6.24088375195436E-02 
478	 6.25289988232909E-02 
479	 6.27933958145352E-02 
480	 6.30644873302093E-02 
481	 6.31078205455602E-02 
482	 6.34016090560903E-02 
483	 6.37617810173599E-02 
484	 6.38826868272401E-02 
485	 6.37379503072542E-02 
486	 6.37718501116672E-02 
487	 6.40394018321656E-02 
488	 6.42611157332235E-02 
489	 6.44081481347737E-02 
490	 6.45006724611766E-02 
491	 6.45721584119321E-02 
492	 6.46369099391288E-02 
493	 6.47879433307112E-02 
494	 6.49331538745094E-02 
495	 6.49502709088435E-02 
496	 6.52552164438674E-02 
497	 6.53899704896157E-02 
498	 6.52999013023471E-02 
499	 6.56553329709157E-02 
500	 6.57542941693829E-02 
501	 6.57031496497862E-02 
502	 6.57777608773737E-02 
503	 6.58779736926085E-02 
504	 6.60145683423345E-02 
505	 0.066157139300617 
506	 6.62407464938431E-02 
507	 6.63115406930892E-02 
508	 6.63986189158077E-02 
509	 6.64951765846772E-02 
510	 6.64955446567571E-02 
511	 6.65833440476324E-02 
512	 0.066718893292599 
513	 6.67551767143186E-02 
514	 6.67446301554373E-02 
515	 6.68053252012675E-02 
516	 0.066958590706054 
517	 6.70593341887142E-02 
518	 6.70963207202896E-02 
519	 6.71473092407843E-02 
520	 6.72828119346363E-02 
521	 6.73543086690096E-02 
522	 0.067410106314736 
523	 6.74619440224201E-02 
524	 6.74723238837405E-02 
525	 6.74036925481835E-02 
526	 0.067391201192158 
527	 6.75277650427818E-02 
528	 6.76698792833689E-02 
529	 6.77638766273029E-02 
530	 6.77970227652708E-02 
531	 6.77935280042798E-02 
532	 6.78330589848345E-02 
533	 6.79241668702471E-02 
534	 6.80351145047157E-02 
535	 6.80701647797785E-02 
536	 6.81518896063717E-02 
537	 0.068255530848429 
538	 6.82995858700687E-02 
539	 6.82385831142247E-02 
540	 6.82286783264115E-02 
541	 6.83140415520829E-02 
542	 6.83732853816782E-02 
543	 6.84258971119241E-02 
544	 6.84844538234189E-02 
545	 6.85537746297355E-02 
546	 6.86123078751101E-02 
547	 6.85940258637733E-02 
548	 6.85786204466113E-02 
549	 6.87481870965365E-02 
550	 6.87843024781906E-02 
551	 6.87359376856969E-02 
552	 6.87200813508279E-02 
553	 6.88505923249726E-02 
554	 6.89746387090121E-02 
555	 6.90134788428334E-02 
556	 6.89570095215836E-02 
557	 6.90195093669685E-02 
558	 6.90959512861785E-02 
559	 6.91129110191833E-02 
560	 6.91139272987748E-02 
561	 6.91456141013443E-02 
562	 6.92058561261089E-02 
563	 6.92661647361503E-02 
564	 6.92773982619798E-02 
565	 6.92784262371061E-02 
566	 6.92889555136364E-02 
567	 6.93014569641283E-02 
568	 6.94287439918015E-02 
569	 0.069520745855012 
570	 6.94672507712567E-02 
571	 6.95056166990958E-02 
572	 6.95508076253308E-02 
573	 6.95915115364744E-02 
574	 6.96574444286686E-02 
575	 6.95790345707958E-02 
576	 6.95654419049175E-02 
577	 6.96956521752377E-02 
578	 0.069625164758127 
579	 6.95944480675092E-02 
580	 6.96128896847429E-02 
581	 0.069603729982985 
582	 6.96069362200447E-02 
583	 6.95565229465761E-02 
584	 6.94531116922261E-02 
585	 6.93989799750491E-02 
586	 6.94272116588616E-02 
587	 6.94652967238081E-02 
588	 6.94455729383027E-02 
589	 6.94888320361325E-02 
590	 6.94810274852458E-02 
591	 0.069423150796003 
592	 6.94210726387893E-02 
593	 6.93700335755122E-02 
594	 6.93344688038873E-02 
595	 6.93617072934451E-02 
596	 6.93700935610293E-02 
597	 6.93758705985723E-02 
598	 6.93940608672975E-02 
599	 6.94386423732655E-02 
600	 6.95151633773637E-02 
601	 6.95371938623217E-02 
602	 6.94753016361971E-02 
603	 6.94130567797348E-02 
604	 6.93733646291074E-02 
605	 6.93714471750814E-02 
606	 6.94061810302005E-02 
607	 6.94404668255751E-02 
608	 6.94366634010318E-02 
609	 6.94273952998066E-02 
610	 6.95202515054158E-02 
611	 6.95197256022988E-02 
612	 6.94949920555551E-02 
613	 6.95376718683736E-02 
614	 6.95927836122219E-02 
615	 6.95951518761094E-02 
616	 6.95524459052689E-02 
617	 6.95294095443854E-02 
618	 6.96032020583359E-02 
619	 6.96664358518207E-02 
620	 6.96512581951929E-02 
621	 0.069628397683118 
622	 0.069633327007986 
623	 0.069671494393397 
624	 6.97209387946336E-02 
625	 6.97013101787057E-02 
626	 6.96813256363403E-02 
627	 6.97020224905748E-02 
628	 6.97521102668278E-02 
629	 6.97875178401455E-02 
630	 6.98006072325102E-02 
631	 6.98001739003164E-02 
632	 0.069803345034503 
633	 6.98445854502759E-02 
634	 6.98810796004851E-02 
635	 6.98243254583314E-02 
636	 6.99256204784872E-02 
637	 7.00050039484719E-02 
638	 6.99444811078221E-02 
639	 6.99633068290262E-02 
640	 6.99724804211043E-02 
641	 6.99846807519171E-02 
642	 7.00440310887977E-02 
643	 7.00924252630909E-02 
644	 7.01219161939627E-02 
645	 7.01466145028633E-02 
646	 0.070206502682411 
647	 7.02085507507842E-02 
648	 0.070205191765327 
649	 7.02585809847852E-02 
650	 7.02748762315161E-02 
651	 7.03232844236961E-02 
652	 7.03949440320905E-02 
653	 7.04154598397164E-02 
654	 7.04578350124788E-02 
655	 7.04845276909511E-02 
656	 7.04804544425821E-02 
657	 7.05363961591451E-02 
658	 7.06061079529614E-02 
659	 7.06532863253183E-02 
660	 0.070655194018878 
661	 7.06624708755937E-02 
662	 0.070687639079361 
663	 7.07293128427998E-02 
664	 7.07730112625257E-02 
665	 7.08091455085207E-02 
666	 0.070844137563444 
667	 7.08824619559541E-02 
668	 7.08938669308303E-02 
669	 0.070931491207869 
670	 7.09740665732286E-02 
671	 7.09461632080346E-02 
672	 7.09630999340589E-02 
673	 7.10122647256965E-02 
674	 7.10658699170162E-02 
675	 7.11231571243527E-02 
676	 7.11257005501896E-02 
677	 7.11117313538606E-02 
678	 7.11502395845146E-02 
679	 7.11881886806683E-02 
680	 7.12143407827434E-02 
681	 7.12350909904225E-02 
682	 7.12751693303958E-02 
683	 7.12933719721969E-02 
684	 7.13105260711693E-02 
685	 7.13468623728992E-02 
686	 7.13599194388018E-02 
687	 7.13586850534279E-02 
688	 7.13814106133422E-02 
689	 7.14706273300956E-02 
690	 7.14681474713303E-02 
691	 7.14411404517206E-02 
692	 7.14501174157761E-02 
693	 7.14758915523657E-02 
694	 7.14852371550542E-02 
695	 7.15068217226241E-02 
696	 0.071568565126966 
697	 7.15556439208123E-02 
698	 7.15565803034955E-02 
699	 7.15874723535729E-02 
700	 7.15783620954187E-02 
701	 7.15809452436806E-02 
702	 7.15895761098033E-02 
703	 7.15874504994318E-02 
704	 7.15550434635195E-02 
705	 7.15565066613959E-02 
706	 7.15851604980221E-02 
707	 7.15998909482728E-02 
708	 7.16243030541965E-02 
709	 7.16348063272472E-02 
710	 7.16284178096696E-02 
711	 7.16375101171449E-02 
712	 7.16596616254064E-02 
713	 7.16626489731776E-02 
714	 7.16303352884966E-02 
715	 7.16393641740903E-02 
716	 0.071653964883556 
717	 0.071664235135992 
718	 7.16790298516466E-02 
719	 7.16798899891544E-02 
720	 0.071655146071767 
721	 0.071616357122697 
722	 7.16168715114892E-02 
723	 7.16168820899991E-02 
724	 7.16269440138596E-02 
725	 7.16542352010027E-02 
726	 7.16030225464859E-02 
727	 7.15652912484128E-02 
728	 7.15671299815186E-02 
729	 0.071565193163929 
730	 7.15652212238512E-02 
731	 7.15583183189504E-02 
732	 7.15405440150838E-02 
733	 7.15214184688324E-02 
734	 7.15184873016692E-02 
735	 7.15079933889004E-02 
736	 7.14637381925596E-02 
737	 7.14608547732088E-02 
738	 7.14534880067454E-02 
739	 0.071425309652584 
740	 7.14025083050211E-02 
741	 0.071424807818449 
742	 7.14205632759255E-02 
743	 0.071353664486419 
744	 7.13550301994628E-02 
745	 7.13114318117593E-02 
746	 7.12602023913659E-02 
747	 7.12848014612279E-02 
748	 7.12521280238801E-02 
749	 7.12101346254995E-02 
750	 7.11876344492291E-02 
751	 0.071170545793813 
752	 0.071161862412944 
753	 7.11386565286775E-02 
754	 7.10962755648881E-02 
755	 7.11012590972537E-02 
756	 7.10934564871072E-02 
757	 7.10644016920785E-02 
758	 7.10339265693217E-02 
759	 7.10137907762218E-02 
760	 0.070983508082792 
761	 7.09468460226501E-02 
762	 0.070940582080695 
763	 7.09249642208838E-02 
764	 7.08997587225793E-02 
765	 7.08775194291062E-02 
766	 7.08814505458633E-02 
767	 7.08727434258079E-02 
768	 7.08407585120226E-02 
769	 7.07989362344334E-02 
770	 7.08139692598149E-02 
771	 7.08040375508781E-02 
772	 7.07552562598005E-02 
773	 7.07484096389069E-02 
774	 7.06991896562755E-02 
775	 7.06579136732681E-02 
776	 7.06678943063105E-02 
777	 7.06761026775548E-02 
778	 7.06564039100384E-02 
779	 7.06236857888456E-02 
780	 7.06083780273144E-02 
781	 0.070592884794065 
782	 7.05724713263358E-02 
783	 7.05422360084663E-02 
784	 7.04983943809789E-02 
785	 7.04851860296791E-02 
786	 7.04689398587432E-02 
787	 7.04280221061497E-02 
788	 7.04043900977387E-02 
789	 7.04139057610459E-02 
790	 7.04019116499876E-02 
791	 7.03170402825928E-02 
792	 7.02717470226521E-02 
793	 7.02773651702866E-02 
794	 7.02959918989974E-02 
795	 7.02597256392482E-02 
796	 7.02340745165361E-02 
797	 7.02053881100147E-02 
798	 7.01662289333275E-02 
799	 7.01414284123855E-02 
800	 7.01489003563865E-02 
801	 7.01421545769981E-02 
802	 7.00850884390298E-02 
803	 7.00623544863532E-02 
804	 7.00347491304548E-02 
805	 7.00081962277522E-02 
806	 7.00105529462104E-02 
807	 6.99920881608896E-02 
808	 6.99692827097688E-02 
809	 6.99491580304892E-02 
810	 6.99173332508507E-02 
811	 6.99150502302957E-02 
812	 6.98746097521977E-02 
813	 6.97723127630227E-02 
814	 6.97676510212244E-02 
815	 6.97665593104458E-02 
816	 6.97597831279332E-02 
817	 6.97647712016582E-02 
818	 6.97511433656306E-02 
819	 0.069745874036354 
820	 6.97220711469074E-02 
821	 6.96218074314041E-02 
822	 6.96148067028365E-02 
823	 6.96029933837699E-02 
824	 6.95430007102099E-02 
825	 6.95487562428349E-02 
826	 6.95336595793107E-02 
827	 0.069483800210585 
828	 6.94248843357174E-02 
829	 6.94467613944023E-02 
830	 6.94126346911586E-02 
831	 6.93634079052052E-02 
832	 0.069399220247627 
833	 6.93996212721871E-02 
834	 6.93668062774674E-02 
835	 6.93198770870331E-02 
836	 6.92881651607293E-02 
837	 6.93340126520955E-02 
838	 6.93415206065104E-02 
839	 6.92620713965472E-02 
840	 6.92099234102471E-02 
841	 6.91725502722209E-02 
842	 6.91565381339038E-02 
843	 6.91592874576266E-02 
844	 0.069143180186662 
845	 6.91559948355071E-02 
846	 6.91506591972931E-02 
847	 6.90728835568472E-02 
848	 6.90939303709321E-02 
849	 6.90729921310935E-02 
850	 6.90060388868363E-02 
851	 6.90095603714233E-02 
852	 6.89996625724309E-02 
853	 6.89970528091773E-02 
854	 6.90045342177827E-02 
855	 6.89807273279716E-02 
856	 6.89815926424774E-02 
857	 6.89859273908295E-02 
858	 6.89655206143794E-02 
859	 6.89197323736579E-02 
860	 6.88876345256321E-02 
861	 6.88686130358229E-02 
862	 6.88499231947744E-02 
863	 0.068838746623644 
864	 6.88426510257805E-02 
865	 6.88493205006281E-02 
866	 6.88372309021383E-02 
867	 6.88134038145738E-02 
868	 0.068784635131487 
869	 6.87606912135925E-02 
870	 6.87515259111954E-02 
871	 6.87327085161688E-02 
872	 6.87476036029241E-02 
873	 6.87793047420214E-02 
874	 6.87021135183614E-02 
875	 6.86700776642546E-02 
876	 6.86539346103544E-02 
877	 6.86175926347013E-02 
878	 6.86330661863088E-02 
879	 6.86561698605277E-02 
880	 0.068651000699081 
881	 6.86097018958944E-02 
882	 6.86189877339306E-02 
883	 6.86430825793212E-02 
884	 0.068641032023241 
885	 6.85877478454126E-02 
886	 6.85503504619829E-02 
887	 6.85413295366295E-02 
888	 6.85537844059225E-02 
889	 6.85682134010355E-02 
890	 6.85891768766882E-02 
891	 6.85746507816048E-02 
892	 6.85303506551173E-02 
893	 6.85221361941386E-02 
894	 6.84802803858852E-02 
895	 6.84762223770992E-02 
896	 6.85164932285418E-02 
897	 6.84464598477901E-02 
898	 0.068481742150952 
899	 6.85433259248532E-02 
900	 6.85274621066033E-02 
901	 6.84764615704495E-02 
902	 6.84531987401374E-02 
903	 6.84351896408734E-02 
904	 6.83965091987599E-02 
905	 6.84289464408661E-02 
906	 6.84379861313749E-02 
907	 6.84191814862435E-02 
908	 6.84114645230722E-02 
909	 6.84173847871596E-02 
910	 6.84270016459692E-02 
911	 6.84402537459217E-02 
912	 6.84543722078951E-02 
913	 6.83897039230088E-02 
914	 6.83945376363208E-02 
915	 6.84649502417073E-02 
916	 0.068454099953969 
917	 6.83710167563972E-02 
918	 0.06833480892096 
919	 0.068350274857414 
920	 6.82892552784207E-02 
921	 6.83127002125394E-02 
922	 6.83662725436559E-02 
923	 6.83829200913362E-02 
924	 6.83388012746737E-02 
925	 6.83088738757404E-02 
926	 0.068321662733029 
927	 6.83565782580195E-02 
928	 6.83295761289638E-02 
929	 6.83499234371192E-02 
930	 6.83710550865799E-02 
931	 6.83510666537392E-02 
932	 6.83495799032506E-02 
933	 6.84026767201937E-02 
934	 6.84150691532065E-02 
935	 6.83399449937085E-02 
936	 6.83883720159026E-02 
937	 6.83573705013988E-02 
938	 0.068317800716045 
939	 6.83762568353806E-02 
940	 0.068440951991135 
941	 6.84015862691662E-02 
942	 6.83449230831177E-02 
943	 6.83750240002265E-02 
944	 6.83136144083182E-02 
945	 6.83119830728579E-02 
946	 6.83466423277385E-02 
947	 6.83338926367131E-02 
948	 6.83240707142387E-02 
949	 6.83056236020699E-02 
950	 6.82906092606912E-02 
951	 0.068292026663362 
952	 6.82618726053752E-02 
953	 6.82684844704214E-02 
954	 6.83360894928569E-02 
955	 6.84293644015007E-02 
956	 6.83805366641063E-02 
957	 6.83887182296989E-02 
958	 6.84554993632221E-02 
959	 6.84581368626284E-02 
960	 6.83966733593501E-02 
961	 6.83868040751724E-02 
962	 0.068442438227551 
963	 0.068489878195088 
964	 6.84146638226726E-02 
965	 6.84106992237601E-02 
966	 6.84805077005357E-02 
967	 6.84821964282225E-02 
968	 0.068343980533909 
969	 6.82963462847165E-02 
970	 6.83325077715286E-02 
971	 6.82957542791465E-02 
972	 0.068281038499789 
973	 6.83373679582504E-02 
974	 6.83841682924938E-02 
975	 6.83030109523763E-02 
976	 6.82574848431615E-02 
977	 6.83345960959329E-02 
978	 6.83691502055689E-02 
979	 0.068159881402989 
980	 6.82211670469964E-02 
981	 6.82980688804832E-02 
982	 6.82794066407639E-02 
983	 6.82018767948816E-02 
984	 6.81629492569114E-02 
985	 6.81985881458715E-02 
986	 6.82439220967241E-02 
987	 6.82299920979336E-02 
988	 6.83611477006011E-02 
989	 6.84177671537371E-02 
990	 6.83358654603016E-02 
991	 6.82046494211913E-02 
992	 6.82977044364482E-02 
993	 6.83698382934138E-02 
994	 6.84560761965942E-02 
995	 6.86216649835168E-02 
996	 6.84793361403377E-02 
997	 6.83717047232585E-02 
998	 6.83339047275767E-02 
999	 6.83093174870878E-02 
1000	 6.84274486528342E-02 
1001	 6.76421212900236E-02 
1002	 6.76065874422991E-02 
1003	 6.76126545559024E-02 
1004	 6.75875630350162E-02 
1005	 6.75868109279964E-02 
1006	 6.75785039928129E-02 
1007	 6.75267508811945E-02 
1008	 6.75320616036399E-02 
1009	 6.75469444606355E-02 
1010	 6.75484227808768E-02 
1011	 6.75849963955617E-02 
1012	 6.75674845618218E-02 
1013	 6.75415731120653E-02 
1014	 6.75911668658648E-02 
1015	 6.75904609084464E-02 
1016	 6.75622850848691E-02 
1017	 6.75463905100341E-02 
1018	 6.75186560990831E-02 
1019	 6.75271795474982E-02 
1020	 6.75479410293075E-02 
1021	 6.75159871477935E-02 
1022	 6.75459668470572E-02 
1023	 6.75500609080679E-02 
1024	 6.75138421765218E-02 
1025	 6.75300719643558E-02 
1026	 6.75368788727558E-02 
1027	 6.74889803011512E-02 
1028	 6.74191523008118E-02 
1029	 6.74022769130887E-02 
1030	 6.73916497490241E-02 
1031	 6.73674135324272E-02 
1032	 0.067352670094859 
1033	 6.73651770253052E-02 
1034	 6.73358209544837E-02 
1035	 6.72794203318039E-02 
1036	 6.72406583152126E-02 
1037	 6.72003599535794E-02 
1038	 6.71485427208211E-02 
1039	 6.71184101933704E-02 
1040	 6.71272615738128E-02 
1041	 6.71589065361907E-02 
1042	 6.71686112699164E-02 
1043	 6.71487996550428E-02 
1044	 0.06711966158896 
1045	 6.70467271358844E-02 
1046	 6.69815181033976E-02 
1047	 6.69688940608286E-02 
1048	 6.69966564552772E-02 
1049	 6.70578763960609E-02 
1050	 0.067123170469244 
1051	 0.067151855532108 
1052	 6.71114659600882E-02 
1053	 6.70556333725244E-02 
1054	 6.70256440706847E-02 
1055	 6.70168958238188E-02 
1056	 0.067050280846721 
1057	 6.70770960449167E-02 
1058	 6.71208483461446E-02 
1059	 6.71492840888421E-02 
1060	 6.71819469404766E-02 
1061	 6.71801053440766E-02 
1062	 6.72077599996131E-02 
1063	 6.72781928194593E-02 
1064	 6.72731998127598E-02 
1065	 6.73010975530836E-02 
1066	 6.73358293361184E-02 
1067	 6.72872804594696E-02 
1068	 6.72576341469929E-02 
1069	 6.72806952645578E-02 
1070	 6.73037174009647E-02 
1071	 6.73368830434014E-02 
1072	 0.067348353439054 
1073	 6.73638302504471E-02 
1074	 6.73845335786245E-02 
1075	 6.73744536517869E-02 
1076	 6.74195075145479E-02 
1077	 0.067477627500846 
1078	 6.75178727928871E-02 
1079	 6.75323921485477E-02 
1080	 6.75200745299737E-02 
1081	 6.75147141303578E-02 
1082	 6.74925006795392E-02 
1083	 6.74808003040114E-02 
1084	 6.74833117511145E-02 
1085	 6.74749950447951E-02 
1086	 6.74457401587324E-02 
1087	 0.067447166280149 
1088	 6.74725131522048E-02 
1089	 6.74636401610121E-02 
1090	 6.74611224573462E-02 
1091	 6.74937045368751E-02 
1092	 6.74928109567225E-02 
1093	 6.74554806707884E-02 
1094	 6.74348325703506E-02 
1095	 6.74193882244063E-02 
1096	 6.74198976155535E-02 
1097	 6.74409581507242E-02 
1098	 6.74398851957467E-02 
1099	 6.74314883850122E-02 
1100	 6.74311559963444E-02 
1101	 6.74305322863114E-02 
1102	 6.74217055251704E-02 
1103	 6.74081641079006E-02 
1104	 6.74240677506147E-02 
1105	 6.74131582966726E-02 
1106	 6.73673690818062E-02 
1107	 6.73747115989017E-02 
1108	 6.73574620768964E-02 
1109	 6.73362271841991E-02 
1110	 6.73426867808809E-02 
1111	 6.73183727875656E-02 
1112	 6.72655740707929E-02 
1113	 6.72403263215581E-02 
1114	 6.72185574500702E-02 
1115	 6.71979387766144E-02 
1116	 6.71831313677937E-02 
1117	 0.067179202454605 
1118	 6.71936088177064E-02 
1119	 0.067173707935307 
1120	 6.71602974976638E-02 
1121	 6.71632849191584E-02 
1122	 6.71303552597153E-02 
1123	 6.70979162728591E-02 
1124	 6.70793687053426E-02 
1125	 6.70630463507148E-02 
1126	 0.067055633069335 
1127	 6.70597099485966E-02 
1128	 6.70590059073104E-02 
1129	 6.70773681909375E-02 
1130	 0.067067238895843 
1131	 6.70301065763559E-02 
1132	 6.70154823294395E-02 
1133	 6.69985790285294E-02 
1134	 6.69801720765431E-02 
1135	 6.69696631671198E-02 
1136	 6.69719579743329E-02 
1137	 6.69588434359897E-02 
1138	 6.69366951249017E-02 
1139	 6.69195656378555E-02 
1140	 6.69027691232883E-02 
1141	 6.68874483373785E-02 
1142	 6.68754583975548E-02 
1143	 6.68587738995134E-02 
1144	 6.68417906360218E-02 
1145	 0.066826485778611 
1146	 6.68006551617294E-02 
1147	 6.67869445205103E-02 
1148	 6.67857909145701E-02 
1149	 6.67797125215182E-02 
1150	 6.67882342789332E-02 
1151	 6.67735962771012E-02 
1152	 6.67446846929203E-02 
1153	 6.67335261905871E-02 
1154	 6.67209052831108E-02 
1155	 6.67044042695549E-02 
1156	 6.66965158529381E-02 
1157	 6.67028853900483E-02 
1158	 6.66927686478607E-02 
1159	 6.66688270199316E-02 
1160	 6.66631822410667E-02 
1161	 6.66682480149583E-02 
1162	 6.66629078722688E-02 
1163	 6.66650355905579E-02 
1164	 6.66609247155986E-02 
1165	 6.66580343750381E-02 
1166	 6.66211831603073E-02 
1167	 6.66021441567215E-02 
1168	 6.66094305076316E-02 
1169	 6.66057502999197E-02 
1170	 6.66091812561367E-02 
1171	 6.66007835047307E-02 
1172	 6.65889588878266E-02 
1173	 6.65738277061415E-02 
1174	 6.65425648500173E-02 
1175	 0.066531487645339 
1176	 6.65219670570289E-02 
1177	 6.65251860525124E-02 
1178	 0.066555340444957 
1179	 6.65646964817902E-02 
1180	 6.65734741552791E-02 
1181	 6.65787981724468E-02 
1182	 0.066574486084559 
1183	 6.65634276537912E-02 
1184	 6.65601261760661E-02 
1185	 0.066557374373717 
1186	 6.65611510256367E-02 
1187	 6.65715484279176E-02 
1188	 6.65745591922929E-02 
1189	 6.65784473485768E-02 
1190	 0.066584916576195 
1191	 6.65887747126058E-02 
1192	 6.65914076047781E-02 
1193	 6.65936474082982E-02 
1194	 6.66019733621322E-02 
1195	 6.66159717916541E-02 
1196	 6.66206892409985E-02 
1197	 6.66234969680913E-02 
1198	 6.66316283896292E-02 
1199	 6.66386494760842E-02 
1200	 6.66342796524762E-02 
1201	 0.066642741588428 
1202	 0.066662455853555 
1203	 6.66783114105126E-02 
1204	 6.66952912866827E-02 
1205	 6.67086584805531E-02 
1206	 6.67235371264417E-02 
1207	 6.67372965449456E-02 
1208	 6.67472936327099E-02 
1209	 6.67574665003776E-02 
1210	 6.67748113973013E-02 
1211	 6.67811214916208E-02 
1212	 6.67657390534597E-02 
1213	 6.67725221103339E-02 
1214	 6.67952698585942E-02 
1215	 6.68049931230535E-02 
1216	 6.68147952711126E-02 
1217	 0.066835301919359 
1218	 6.68476543944396E-02 
1219	 6.68437132834801E-02 
1220	 0.066853674322205 
1221	 6.68774396719209E-02 
1222	 6.68899855215543E-02 
1223	 6.69007825902477E-02 
1224	 6.69056760595799E-02 
1225	 6.69003469488509E-02 
1226	 6.69049406234642E-02 
1227	 6.69115342180404E-02 
1228	 6.69151977175178E-02 
1229	 6.69213240041599E-02 
1230	 6.69294418637204E-02 
1231	 6.69330764868039E-02 
1232	 6.69401383840135E-02 
1233	 6.69503654559001E-02 
1234	 6.69721542937052E-02 
1235	 6.69772044040792E-02 
1236	 0.066975702413101 
1237	 6.69756657877245E-02 
1238	 6.69628600950193E-02 
1239	 6.69668706375525E-02 
1240	 6.69847751719932E-02 
1241	 0.066989766449816 
1242	 6.69886304771975E-02 
1243	 6.69998892254142E-02 
1244	 6.70175373659517E-02 
1245	 6.70243110326881E-02 
1246	 6.70318656421173E-02 
1247	 6.70461356472135E-02 
1248	 6.70610945901169E-02 
1249	 6.70610789924591E-02 
1250	 0.067079153103168 
1251	 6.70924983172121E-02 
1252	 6.70982456743927E-02 
1253	 6.70911928945327E-02 
1254	 0.067088744539908 
1255	 6.70805641632868E-02 
1256	 6.70838081618577E-02 
1257	 6.70927055392547E-02 
1258	 6.70951565373545E-02 
1259	 6.71074754816926E-02 
1260	 6.71087023643461E-02 
1261	 6.70974024161154E-02 
1262	 6.70882260625151E-02 
1263	 6.70694446056284E-02 
1264	 6.70643757518895E-02 
1265	 6.70677755411504E-02 
1266	 6.70658968228362E-02 
1267	 0.067068932049299 
1268	 6.70760615765462E-02 
1269	 6.70762549383649E-02 
1270	 6.70696154452982E-02 
1271	 6.70609486757448E-02 
1272	 6.70464832067269E-02 
1273	 6.70466207456557E-02 
1274	 6.70387456861608E-02 
1275	 6.70532712602633E-02 
1276	 6.70960449035607E-02 
1277	 0.067121670125606 
1278	 6.71505172765466E-02 
1279	 6.71780905833319E-02 
1280	 6.71933318881796E-02 
1281	 6.72227021040119E-02 
1282	 0.067269339359732 
1283	 6.73024709269845E-02 
1284	 6.73341220334008E-02 
1285	 6.73637667098891E-02 
1286	 6.73970852342261E-02 
1287	 6.74287475662991E-02 
1288	 6.74633171964336E-02 
1289	 6.75009791697306E-02 
1290	 6.75553801550102E-02 
1291	 6.76158783931738E-02 
1292	 6.76734010896172E-02 
1293	 6.77552819686953E-02 
1294	 6.78130666129696E-02 
1295	 6.78513109936825E-02 
1296	 6.78946915714228E-02 
1297	 6.79301033762306E-02 
1298	 6.79754832240719E-02 
1299	 6.80257070171875E-02 
1300	 6.80730165834313E-02 
1301	 6.81318698607357E-02 
1302	 6.81762314012235E-02 
1303	 6.82041214106464E-02 
1304	 6.82410852567333E-02 
1305	 6.82843955530701E-02 
1306	 6.83108852909903E-02 
1307	 6.83280738593904E-02 
1308	 6.83610194568288E-02 
1309	 6.83855460149342E-02 
1310	 6.83991998706866E-02 
1311	 0.068417683500999 
1312	 6.84399607644989E-02 
1313	 6.84603312597562E-02 
1314	 0.068482767802771 
1315	 0.06849773657616 
1316	 0.068504396912602 
1317	 6.85198314337035E-02 
1318	 6.85366103749687E-02 
1319	 6.85455763965336E-02 
1320	 6.85685602931278E-02 
1321	 6.85767736333134E-02 
1322	 6.85778233337373E-02 
1323	 6.85529853723371E-02 
1324	 6.85358529856769E-02 
1325	 6.85209573342741E-02 
1326	 6.84966634583808E-02 
1327	 6.84933472535729E-02 
1328	 6.85056507069162E-02 
1329	 6.85068362602529E-02 
1330	 6.84955697103781E-02 
1331	 6.84772924158968E-02 
1332	 6.84641011365182E-02 
1333	 6.84356324571934E-02 
1334	 6.84239372517186E-02 
1335	 6.84303779636249E-02 
1336	 6.84234076076604E-02 
1337	 6.84110058711402E-02 
1338	 6.83998220375258E-02 
1339	 6.83917536125049E-02 
1340	 6.83761398816781E-02 
1341	 6.83549143676316E-02 
1342	 6.83356355095054E-02 
1343	 6.83097895697625E-02 
1344	 6.82897396171948E-02 
1345	 6.82707739940934E-02 
1346	 6.82464693990453E-02 
1347	 6.82084722222538E-02 
1348	 6.81628229887697E-02 
1349	 6.81260676941382E-02 
1350	 6.80961868974359E-02 
1351	 6.80667094953496E-02 
1352	 6.80531704164143E-02 
1353	 6.80195238894569E-02 
1354	 6.79735543538292E-02 
1355	 6.79335101387414E-02 
1356	 6.78868357729159E-02 
1357	 6.78453949264184E-02 
1358	 6.78012568627472E-02 
1359	 6.77710083135348E-02 
1360	 6.77438685717971E-02 
1361	 6.77252610569214E-02 
1362	 6.77199116054754E-02 
1363	 6.77188137329165E-02 
1364	 6.77217722045794E-02 
1365	 6.77328497838305E-02 
1366	 6.77616566491863E-02 
1367	 6.77756767609393E-02 
1368	 6.77987169330245E-02 
1369	 6.78154595934556E-02 
1370	 6.78078295801746E-02 
1371	 6.78077127262091E-02 
1372	 6.78060086604288E-02 
1373	 6.78063394674219E-02 
1374	 6.77971890299136E-02 
1375	 6.77954287055535E-02 
1376	 6.77718671855128E-02 
1377	 6.77259405642817E-02 
1378	 6.76858965256649E-02 
1379	 0.067628648081864 
1380	 0.067597682569278 
1381	 6.75809835465344E-02 
1382	 6.75577700745577E-02 
1383	 6.75437478426789E-02 
1384	 0.067532601301588 
1385	 6.75138257221653E-02 
1386	 6.75047814098639E-02 
1387	 6.75116511593863E-02 
1388	 6.75120446501819E-02 
1389	 6.75105231057895E-02 
1390	 6.75136314892974E-02 
1391	 6.75147699363568E-02 
1392	 6.75071799022669E-02 
1393	 6.74813053923519E-02 
1394	 6.74532978399669E-02 
1395	 6.74370864349053E-02 
1396	 6.74223131730113E-02 
1397	 6.74150096077989E-02 
1398	 6.74278725000288E-02 
1399	 6.74225208626387E-02 
1400	 6.74102738391335E-02 
1401	 6.74018668835607E-02 
1402	 6.73859524429047E-02 
1403	 6.73820846804665E-02 
1404	 6.73791058510566E-02 
1405	 6.73867914241648E-02 
1406	 6.74116338954632E-02 
1407	 6.74248831015686E-02 
1408	 6.74451271382155E-02 
1409	 6.74552611976177E-02 
1410	 6.74450329906283E-02 
1411	 6.74528959300341E-02 
1412	 6.74687119541715E-02 
1413	 6.74814766675764E-02 
1414	 6.74949895343303E-02 
1415	 6.75149806478857E-02 
1416	 0.067540870987307 
1417	 6.75625583633705E-02 
1418	 6.75804680315237E-02 
1419	 6.76136650994763E-02 
1420	 6.76509389677608E-02 
1421	 6.76658067403482E-02 
1422	 6.76841116445187E-02 
1423	 0.067706005254966 
1424	 6.77152091227581E-02 
1425	 6.77010362845372E-02 
1426	 6.77113045264689E-02 
1427	 6.77252408423471E-02 
1428	 6.77463115724615E-02 
1429	 6.77811930105221E-02 
1430	 6.78096073155576E-02 
1431	 6.78475880619361E-02 
1432	 6.78696506091733E-02 
1433	 6.78788460331175E-02 
1434	 6.78933893764625E-02 
1435	 6.78957769341935E-02 
1436	 0.067914930817202 
1437	 6.79528889289725E-02 
1438	 6.79773245976943E-02 
1439	 6.80049951020841E-02 
1440	 6.80249073285584E-02 
1441	 6.80283504526524E-02 
1442	 6.80359565843288E-02 
1443	 6.80622752876985E-02 
1444	 6.80785462662365E-02 
1445	 6.81065963320024E-02 
1446	 6.81424099520866E-02 
1447	 6.81510158712305E-02 
1448	 6.81584757539989E-02 
1449	 6.81594075622823E-02 
1450	 6.81517483161977E-02 
1451	 6.81667765609399E-02 
1452	 6.81975871035843E-02 
1453	 6.82243057597903E-02 
1454	 6.82688111726607E-02 
1455	 6.82895025777755E-02 
1456	 6.82933852559056E-02 
1457	 6.83102261217376E-02 
1458	 6.83210131286047E-02 
1459	 6.83384083634817E-02 
1460	 6.83661341904777E-02 
1461	 6.83932613996843E-02 
1462	 6.84267881208117E-02 
1463	 6.84462351653204E-02 
1464	 6.84657782606324E-02 
1465	 6.84780111958282E-02 
1466	 6.84655877363871E-02 
1467	 6.84735655529005E-02 
1468	 6.84894534609967E-02 
1469	 0.068505229124596 
1470	 6.85307479505201E-02 
1471	 6.85537745233242E-02 
1472	 6.85759177786529E-02 
1473	 6.85932626261151E-02 
1474	 6.85866057757829E-02 
1475	 6.85933330931569E-02 
1476	 6.86062235852252E-02 
1477	 6.86148045844012E-02 
1478	 0.068643816783769 
1479	 6.86670584092522E-02 
1480	 0.068673307447071 
1481	 6.86860533151245E-02 
1482	 6.86980699629441E-02 
1483	 6.87077408955175E-02 
1484	 6.87244821455558E-02 
1485	 6.87481758795487E-02 
1486	 0.068759424854337 
1487	 6.87693983940077E-02 
1488	 6.87764878451056E-02 
1489	 6.87724923503106E-02 
1490	 6.87790053369358E-02 
1491	 6.87895557827137E-02 
1492	 6.87987573533349E-02 
1493	 6.88123045525701E-02 
1494	 0.068823177594478 
1495	 6.88291685609133E-02 
1496	 6.88440351500803E-02 
1497	 6.88677305933459E-02 
1498	 6.88783667867796E-02 
1499	 6.88866165846032E-02 
1500	 6.88982836537779E-02 
1501	 6.89023959299386E-02 
1502	 6.89097133447709E-02 
1503	 6.89228301398887E-02 
1504	 6.89330450836784E-02 
1505	 0.068948258792487 
1506	 6.89574130569604E-02 
1507	 6.89720080956815E-02 
1508	 6.89885844341473E-02 
1509	 6.90053204876299E-02 
1510	 6.90162878163676E-02 
1511	 6.90084466855245E-02 
1512	 6.90086684605722E-02 
1513	 6.90077158062788E-02 
1514	 6.89980472912236E-02 
1515	 6.89969966867815E-02 
1516	 6.90030235470734E-02 
1517	 0.069009416081311 
1518	 6.90099791306411E-02 
1519	 6.90209137357126E-02 
1520	 6.90428249644829E-02 
1521	 6.90624517956363E-02 
1522	 6.90903621867248E-02 
1523	 6.91048643975839E-02 
1524	 6.91131097809237E-02 
1525	 0.069124097675438 
1526	 0.069124661297597 
1527	 6.91326670887773E-02 
1528	 6.91530138259565E-02 
1529	 6.91611869741954E-02 
1530	 6.91597667125963E-02 
1531	 0.069167103720694 
1532	 0.069178173995445 
1533	 6.91819540309818E-02 
1534	 6.91858735585204E-02 
1535	 6.91899901836355E-02 
1536	 6.91878812943482E-02 
1537	 0.069187256255776 
1538	 6.91881274032589E-02 
1539	 6.91900413030999E-02 
1540	 6.91852072717223E-02 
1541	 6.91894184074059E-02 
1542	 6.92017996402537E-02 
1543	 6.92156520953602E-02 
1544	 6.92423718876194E-02 
1545	 6.92565786166957E-02 
1546	 6.92625964897667E-02 
1547	 6.92732322900412E-02 
1548	 6.92859136524077E-02 
1549	 6.92879186483336E-02 
1550	 6.93041932065213E-02 
1551	 6.93176528315517E-02 
1552	 6.93144598994867E-02 
1553	 0.069319327153524 
1554	 6.93200644322145E-02 
1555	 6.93150558505227E-02 
1556	 0.069312438504356 
1557	 6.93006169528857E-02 
1558	 6.93031465896606E-02 
1559	 6.93196586691804E-02 
1560	 6.93273660227853E-02 
1561	 6.93455507726355E-02 
1562	 0.069352881592728 
1563	 6.93487655678235E-02 
1564	 6.93493219751168E-02 
1565	 6.93500724192847E-02 
1566	 6.93549742518033E-02 
1567	 6.93621592543228E-02 
1568	 6.93636665775557E-02 
1569	 6.93648209727898E-02 
1570	 6.93715895047275E-02 
1571	 6.93787443107711E-02 
1572	 6.93774019927586E-02 
1573	 6.93763136724649E-02 
1574	 6.93771487415484E-02 
1575	 6.93672799780459E-02 
1576	 6.93674666499653E-02 
1577	 6.93777445189947E-02 
1578	 6.93867526317254E-02 
1579	 0.069400053624001 
1580	 6.94062899904271E-02 
1581	 6.94127505457266E-02 
1582	 6.94177682392816E-02 
1583	 6.94124387161316E-02 
1584	 6.94129560492783E-02 
1585	 6.94203520111482E-02 
1586	 6.94260239469434E-02 
1587	 6.94346097962184E-02 
1588	 6.94358198729504E-02 
1589	 6.94326979298482E-02 
1590	 6.94282293564868E-02 
1591	 6.94130202773389E-02 
1592	 0.069408892966352 
1593	 6.94166540764346E-02 
1594	 6.94134520258753E-02 
1595	 6.94043091497917E-02 
1596	 6.94021531443986E-02 
1597	 6.94006051427474E-02 
1598	 6.93944081902585E-02 
1599	 6.93907944363884E-02 
1600	 6.93891104525474E-02 
1601	 6.93730322001707E-02 
1602	 6.93728011096905E-02 
1603	 6.93987728451718E-02 
1604	 6.94066535492335E-02 
1605	 6.94087894225729E-02 
1606	 6.94127190858607E-02 
1607	 6.94121294108153E-02 
1608	 6.93988471180427E-02 
1609	 0.069399931366074 
1610	 6.94155700666912E-02 
1611	 6.94230897512234E-02 
1612	 6.94116648927497E-02 
1613	 6.93925565231827E-02 
1614	 6.93892890764603E-02 
1615	 6.94073474494847E-02 
1616	 6.94315516277764E-02 
1617	 6.94531896245896E-02 
1618	 6.94590461656571E-02 
1619	 6.94367362755998E-02 
1620	 6.94214909531631E-02 
1621	 6.94131635817535E-02 
1622	 6.94064512000563E-02 
1623	 6.94094391156953E-02 
1624	 6.94219806697728E-02 
1625	 6.94285657482486E-02 
1626	 6.94414249850126E-02 
1627	 6.94491943762972E-02 
1628	 6.94549134618682E-02 
1629	 6.94533419937754E-02 
1630	 6.94499683224688E-02 
1631	 6.94409236597648E-02 
1632	 6.94175776867836E-02 
1633	 6.94124671982456E-02 
1634	 6.94140995848852E-02 
1635	 6.94116640069963E-02 
1636	 6.94208545655218E-02 
1637	 6.94118668500157E-02 
1638	 6.93844565268138E-02 
1639	 6.93802056455295E-02 
1640	 6.93777403281025E-02 
1641	 6.93779508561259E-02 
1642	 6.93947012092308E-02 
1643	 6.94017626678712E-02 
1644	 6.94021185261801E-02 
1645	 6.94067163835207E-02 
1646	 6.94221452236322E-02 
1647	 6.94136072367006E-02 
1648	 6.93887153728184E-02 
1649	 6.93758082436942E-02 
1650	 6.93463181459933E-02 
1651	 6.93432087260305E-02 
1652	 6.93655473030309E-02 
1653	 6.93707287772211E-02 
1654	 6.93848310199669E-02 
1655	 6.93801136435377E-02 
1656	 6.93495684432307E-02 
1657	 6.93486288226304E-02 
1658	 6.93583655692043E-02 
1659	 6.93567143739002E-02 
1660	 6.93713411105737E-02 
1661	 6.93662989031804E-02 
1662	 0.069336372070231 
1663	 6.93207116978627E-02 
1664	 6.93075047554923E-02 
1665	 6.92955828040413E-02 
1666	 6.92841785638293E-02 
1667	 6.92751650041496E-02 
1668	 6.92679978919212E-02 
1669	 6.92640897534865E-02 
1670	 6.92629086192219E-02 
1671	 6.92625243691286E-02 
1672	 0.069263485156406 
1673	 6.92691575420423E-02 
1674	 6.92793632244521E-02 
1675	 6.92868739817661E-02 
1676	 6.93036823583675E-02 
1677	 6.93054624597567E-02 
1678	 0.069300982535726 
1679	 6.92888344426276E-02 
1680	 6.92561092134036E-02 
1681	 6.92442928877804E-02 
1682	 6.92298417014008E-02 
1683	 6.92327172398525E-02 
1684	 6.92664066817659E-02 
1685	 0.069273664505271 
1686	 6.92778398843869E-02 
1687	 6.92765176243301E-02 
1688	 0.069253177567498 
1689	 6.92485346417459E-02 
1690	 6.92555914000495E-02 
1691	 6.92559118825046E-02 
1692	 6.92643857683183E-02 
1693	 6.92594171857733E-02 
1694	 6.92383897744289E-02 
1695	 6.92318192392734E-02 
1696	 6.92288383143085E-02 
1697	 6.92217417393277E-02 
1698	 0.069220594234976 
1699	 6.92149362970194E-02 
1700	 6.91919791486704E-02 
1701	 6.91942634683005E-02 
1702	 6.92080028528985E-02 
1703	 6.92281822143027E-02 
1704	 6.92823475216772E-02 
1705	 6.92907466633101E-02 
1706	 6.92775928023164E-02 
1707	 6.92730523599132E-02 
1708	 6.92404260728192E-02 
1709	 6.92346463007776E-02 
1710	 6.92567895412819E-02 
1711	 6.92556891299847E-02 
1712	 6.92529891169145E-02 
1713	 6.92390698000403E-02 
1714	 6.91929518990548E-02 
1715	 6.91941547377767E-02 
1716	 6.92217678518622E-02 
1717	 6.92273207757861E-02 
1718	 6.92576088002249E-02 
1719	 6.92600088542531E-02 
1720	 6.92199424879391E-02 
1721	 6.92147891205544E-02 
1722	 6.92222024753414E-02 
1723	 6.92297795502061E-02 
1724	 6.92608779352398E-02 
1725	 6.92545512201845E-02 
1726	 6.92278971432876E-02 
1727	 6.92116842539605E-02 
1728	 6.91748692044555E-02 
1729	 6.91579887704099E-02 
1730	 6.91635070671383E-02 
1731	 6.91545377756861E-02 
1732	 6.91332504821278E-02 
1733	 6.91309555587424E-02 
1734	 6.91424558770557E-02 
1735	 6.91352798591506E-02 
1736	 6.91211847185235E-02 
1737	 6.91300023261468E-02 
1738	 6.91456902572026E-02 
1739	 6.91345670608759E-02 
1740	 6.91430155667824E-02 
1741	 6.91152575547382E-02 
1742	 6.90232513791164E-02 
1743	 6.90073443169303E-02 
1744	 6.90208059069299E-02 
1745	 0.069025943197809 
1746	 6.90637525701115E-02 
1747	 0.069057099372679 
1748	 6.90355392004316E-02 
1749	 6.90177744564299E-02 
1750	 6.90226168934901E-02 
1751	 6.90152243827449E-02 
1752	 6.90089601174539E-02 
1753	 6.89746004586695E-02 
1754	 6.89342136422095E-02 
1755	 6.89154998887332E-02 
1756	 6.88900564028366E-02 
1757	 6.88902633040099E-02 
1758	 6.88908048372842E-02 
1759	 6.88769612569965E-02 
1760	 6.88688559407684E-02 
1761	 6.88640406409164E-02 
1762	 6.88583541020773E-02 
1763	 6.88511253039501E-02 
1764	 6.88450019753918E-02 
1765	 6.88220995151531E-02 
1766	 6.87961844382585E-02 
1767	 0.068787686316954 
1768	 6.87633977631441E-02 
1769	 6.87333238523228E-02 
1770	 6.87399412112512E-02 
1771	 6.87459721608166E-02 
1772	 6.87431036337979E-02 
1773	 6.87496210505177E-02 
1774	 6.87407323896541E-02 
1775	 0.068740828290834 
1776	 6.87489454816342E-02 
1777	 6.87369939179351E-02 
1778	 6.87328107782348E-02 
1779	 6.87161509223419E-02 
1780	 6.86920258616489E-02 
1781	 6.87034025142441E-02 
1782	 6.86941219646017E-02 
1783	 6.86571783935933E-02 
1784	 6.86375610230814E-02 
1785	 6.86081217509337E-02 
1786	 6.85993886396789E-02 
1787	 6.86235619796184E-02 
1788	 6.86294537900245E-02 
1789	 6.86359698254478E-02 
1790	 6.86317127526519E-02 
1791	 6.86080457884878E-02 
1792	 6.85916812538519E-02 
1793	 0.068573876711668 
1794	 6.85680493677708E-02 
1795	 6.85659712230291E-02 
1796	 6.85662673614083E-02 
1797	 6.85768767549662E-02 
1798	 6.85790782998572E-02 
1799	 6.85925334926223E-02 
1800	 6.85836760196726E-02 
1801	 6.59126917158239E-02 
1802	 6.59806330238042E-02 
1803	 0.066019696376855 
1804	 6.60760543843488E-02 
1805	 6.61752832488235E-02 
1806	 6.62399694449789E-02 
1807	 6.63025866591925E-02 
1808	 6.63492015702395E-02 
1809	 6.63609237447632E-02 
1810	 6.63871325040524E-02 
1811	 6.64146323424133E-02 
1812	 6.64406811395534E-02 
1813	 6.64667140818087E-02 
1814	 6.64864768807314E-02 
1815	 0.066511959422162 
1816	 6.65497861586604E-02 
1817	 6.65626068486516E-02 
1818	 6.65555577327009E-02 
1819	 6.65712154553416E-02 
1820	 0.066586668155485 
1821	 6.65943628150318E-02 
1822	 6.66104892944067E-02 
1823	 6.66243523513519E-02 
1824	 6.66320751399979E-02 
1825	 6.66262564731068E-02 
1826	 6.66220726713439E-02 
1827	 6.66392870206887E-02 
1828	 6.66487396767105E-02 
1829	 6.66560004674266E-02 
1830	 6.66496794969585E-02 
1831	 6.66397228075366E-02 
1832	 6.66263049563928E-02 
1833	 6.66119653192045E-02 
1834	 6.66119526668315E-02 
1835	 6.66245700237376E-02 
1836	 6.66467385762969E-02 
1837	 6.66573991910059E-02 
1838	 6.66351245763064E-02 
1839	 6.66383077107582E-02 
1840	 6.66499095764603E-02 
1841	 6.66686062687114E-02 
1842	 6.66685783945352E-02 
1843	 6.67019056560153E-02 
1844	 6.67263739413244E-02 
1845	 6.67252376070411E-02 
1846	 6.67601145449084E-02 
1847	 6.68151130093416E-02 
1848	 6.68497206096415E-02 
1849	 6.68776825724416E-02 
1850	 6.69051939477366E-02 
1851	 6.69293744665005E-02 
1852	 6.69306353533699E-02 
1853	 0.066925291698672 
1854	 6.69376485379447E-02 
1855	 6.69651379625231E-02 
1856	 0.066973943177994 
1857	 6.70100562216527E-02 
1858	 6.70488786671829E-02 
1859	 6.70471285704651E-02 
1860	 6.70523068723445E-02 
1861	 6.70605464597558E-02 
1862	 6.70421856670688E-02 
1863	 6.70313757670251E-02 
1864	 6.70422442449549E-02 
1865	 6.70147795016079E-02 
1866	 6.69786550559209E-02 
1867	 6.69394307541945E-02 
1868	 6.68884812183781E-02 
1869	 6.68652780212641E-02 
1870	 6.68647747337081E-02 
1871	 0.066871337179655 
1872	 6.68929464748659E-02 
1873	 0.066924394559065 
1874	 6.69501391884548E-02 
1875	 6.69985440635752E-02 
1876	 6.70405157491792E-02 
1877	 6.70718276581381E-02 
1878	 6.71221284547439E-02 
1879	 6.71514011345365E-02 
1880	 6.71710696447687E-02 
1881	 6.71953149315394E-02 
1882	 0.067198356963259 
1883	 6.71798425985772E-02 
1884	 0.067155350906941 
1885	 6.71274411010433E-02 
1886	 6.70843010779881E-02 
1887	 6.70385637177831E-02 
1888	 0.066989177528956 
1889	 6.69601769587605E-02 
1890	 6.69557914709442E-02 
1891	 0.066938116801472 
1892	 6.69449919108361E-02 
1893	 6.69165955621168E-02 
1894	 6.68724262004039E-02 
1895	 6.68064583118775E-02 
1896	 6.67291776851414E-02 
1897	 6.66535384069517E-02 
1898	 6.65661245136405E-02 
1899	 6.64779300203888E-02 
1900	 6.64207038417367E-02 
1901	 6.63703718123703E-02 
1902	 6.63266306717283E-02 
1903	 6.63135937122688E-02 
1904	 6.62876477361639E-02 
1905	 6.62585471114981E-02 
1906	 6.62288205622289E-02 
1907	 6.61887530709766E-02 
1908	 6.61487680363527E-02 
1909	 6.61167849327934E-02 
1910	 6.60799326371224E-02 
1911	 6.60569899056905E-02 
1912	 6.60310853968505E-02 
1913	 6.59941080743992E-02 
1914	 6.59299021392797E-02 
1915	 6.58941073175541E-02 
1916	 6.58664564162082E-02 
1917	 6.58368551714157E-02 
1918	 6.58197671065395E-02 
1919	 6.58241188366295E-02 
1920	 0.065826794980223 
1921	 6.58274939920577E-02 
1922	 0.06582599703274 
1923	 6.58134291091709E-02 
1924	 0.065808958967669 
1925	 6.57940575884019E-02 
1926	 6.57976621272588E-02 
1927	 6.58168496015574E-02 
1928	 0.065836000594758 
1929	 6.58514054283345E-02 
1930	 6.58584143944342E-02 
1931	 6.58480306080789E-02 
1932	 6.58344713603358E-02 
1933	 6.58348941078466E-02 
1934	 0.065816169435758 
1935	 6.58102058201554E-02 
1936	 6.58143138677777E-02 
1937	 6.58212208474621E-02 
1938	 0.065832194610517 
1939	 6.58446831368222E-02 
1940	 6.58729832490025E-02 
1941	 0.065875268517408 
1942	 0.065880102835913 
1943	 6.58824007903438E-02 
1944	 0.065883101686971 
1945	 6.59112875632705E-02 
1946	 0.065924448536739 
1947	 6.59365774423516E-02 
1948	 6.59482510981368E-02 
1949	 6.59527505973991E-02 
1950	 6.59617289382341E-02 
1951	 0.065971199851261 
1952	 6.59965853755213E-02 
1953	 6.60041073724298E-02 
1954	 6.59995494950284E-02 
1955	 6.60083133911931E-02 
1956	 6.60136645235214E-02 
1957	 6.60247132970558E-02 
1958	 0.066045536319704 
1959	 6.60712345314441E-02 
1960	 6.61027695057915E-02 
1961	 6.61266778407644E-02 
1962	 6.61520548689561E-02 
1963	 6.61777720886157E-02 
1964	 0.066194728940557 
1965	 6.62158489946375E-02 
1966	 0.066251332068112 
1967	 6.62997645408995E-02 
1968	 6.63398812955712E-02 
1969	 6.63899722128974E-02 
1970	 6.64231604282064E-02 
1971	 6.64437463653882E-02 
1972	 6.64665631178983E-02 
1973	 6.64726731079723E-02 
1974	 6.64974298613383E-02 
1975	 6.65312781027894E-02 
1976	 6.65740337887945E-02 
1977	 6.65961039419321E-02 
1978	 6.66197556235359E-02 
1979	 6.66506038242934E-02 
1980	 6.66592961548674E-02 
1981	 6.66770503045568E-02 
1982	 6.67017867084384E-02 
1983	 6.67355378853702E-02 
1984	 6.67651254116571E-02 
1985	 6.68022702216307E-02 
1986	 6.68719829118817E-02 
1987	 6.69109546122324E-02 
1988	 6.69347834885258E-02 
1989	 6.69479782816695E-02 
1990	 6.69703986724749E-02 
1991	 6.69839038222795E-02 
1992	 6.70021878709161E-02 
1993	 6.70270048554799E-02 
1994	 6.70489229586522E-02 
1995	 6.70656805826836E-02 
1996	 6.70854244855984E-02 
1997	 6.71013373759059E-02 
1998	 6.71281290159855E-02 
1999	 6.71624587983112E-02 
2000	 6.71960783990709E-02 
2001	 6.72336433630858E-02 
2002	 6.72769656474665E-02 
2003	 6.73266157457269E-02 
2004	 6.73683935759519E-02 
2005	 6.74156310932653E-02 
2006	 6.74785715749457E-02 
2007	 6.75226035603331E-02 
2008	 6.75508157626155E-02 
2009	 6.75916322198386E-02 
2010	 6.76233247521681E-02 
2011	 6.76677135867479E-02 
2012	 6.77379310868459E-02 
2013	 6.77864943249635E-02 
2014	 6.78281164020859E-02 
2015	 6.78749245889863E-02 
2016	 6.78956724729692E-02 
2017	 6.79115855417928E-02 
2018	 6.79379556336758E-02 
2019	 6.79674557764995E-02 
2020	 6.79943624399381E-02 
2021	 0.068020821100173 
2022	 6.80526995677911E-02 
2023	 6.80807872214523E-02 
2024	 6.81168678330196E-02 
2025	 6.81696037309763E-02 
2026	 6.82137441786601E-02 
2027	 6.82593238720542E-02 
2028	 6.82968401911333E-02 
2029	 0.068338476248605 
2030	 6.83825933215551E-02 
2031	 6.84118920269518E-02 
2032	 6.84336969905275E-02 
2033	 6.84600464869151E-02 
2034	 6.84761837972557E-02 
2035	 0.06849667868924 
2036	 6.85190246512306E-02 
2037	 6.85490991024078E-02 
2038	 6.85890817959941E-02 
2039	 6.86139209331836E-02 
2040	 6.86421949743852E-02 
2041	 0.068660159460994 
2042	 0.068674572466419 
2043	 6.86962747072538E-02 
2044	 6.87116009577141E-02 
2045	 6.87402157710834E-02 
2046	 6.87499510586394E-02 
2047	 6.87328487765281E-02 
2048	 6.87408783887667E-02 
2049	 6.87549690239662E-02 
2050	 6.87695957074441E-02 
2051	 6.87962605262864E-02 
2052	 6.88201255878768E-02 
2053	 6.88422020492392E-02 
2054	 6.88644378758458E-02 
2055	 0.06888076513075 
2056	 6.89127268391622E-02 
2057	 6.89454432023239E-02 
2058	 6.89850211679729E-02 
2059	 6.90149449894912E-02 
2060	 6.90585380273708E-02 
2061	 6.90711432727576E-02 
2062	 6.90401897581278E-02 
2063	 6.90540371129439E-02 
2064	 6.90773510962144E-02 
2065	 0.069101827793154 
2066	 6.91565549948742E-02 
2067	 6.91956168625716E-02 
2068	 6.92183681745861E-02 
2069	 6.92494649953969E-02 
2070	 6.92798494726158E-02 
2071	 0.069318400629258 
2072	 6.93442167441313E-02 
2073	 0.069364682672671 
2074	 6.93798028925649E-02 
2075	 6.93751877307166E-02 
2076	 6.93990911564083E-02 
2077	 6.94395660076188E-02 
2078	 6.94662866255189E-02 
2079	 6.95019670814121E-02 
2080	 6.95330038683311E-02 
2081	 6.95551334417826E-02 
2082	 6.95733161965528E-02 
2083	 6.95885458793385E-02 
2084	 6.96164665405618E-02 
2085	 6.96256996471992E-02 
2086	 6.96097272721641E-02 
2087	 6.96263413964214E-02 
2088	 0.069651307205346 
2089	 6.96784650942309E-02 
2090	 6.97351584444467E-02 
2091	 6.97581159485043E-02 
2092	 6.97558985566389E-02 
2093	 6.97729314096376E-02 
2094	 6.97869876533687E-02 
2095	 0.069800105976125 
2096	 6.98196064784252E-02 
2097	 6.98444183158686E-02 
2098	 6.98744985829851E-02 
2099	 6.98899811369287E-02 
2100	 6.99091652379087E-02 
2101	 6.99390881428663E-02 
2102	 6.99558173509051E-02 
2103	 6.99512871569832E-02 
2104	 6.99711940123287E-02 
2105	 7.00010128667991E-02 
2106	 7.00320904050058E-02 
2107	 0.070071844086756 
2108	 7.01111867429626E-02 
2109	 7.01561338920421E-02 
2110	 7.01950548701618E-02 
2111	 7.02385237329197E-02 
2112	 7.02755941160232E-02 
2113	 7.03035527819015E-02 
2114	 0.07033243060706 
2115	 7.03638036382866E-02 
2116	 7.03907708416699E-02 
2117	 7.04298544445632E-02 
2118	 7.04874836222097E-02 
2119	 7.05147081909992E-02 
2120	 7.05305547304647E-02 
2121	 7.05532606795934E-02 
2122	 7.05671420919311E-02 
2123	 7.05717141267839E-02 
2124	 7.05656145587838E-02 
2125	 7.05824228906515E-02 
2126	 7.05933579097379E-02 
2127	 7.06112930484246E-02 
2128	 7.06783485221941E-02 
2129	 7.07065340194351E-02 
2130	 7.07075806353101E-02 
2131	 7.07024687042206E-02 
2132	 7.07009058309957E-02 
2133	 7.06826782588055E-02 
2134	 7.06802224804213E-02 
2135	 7.06903910388175E-02 
2136	 7.06895175309436E-02 
2137	 7.06924894391461E-02 
2138	 7.06807903916216E-02 
2139	 7.06569686303348E-02 
2140	 7.06347698887024E-02 
2141	 7.05947682348785E-02 
2142	 7.05739053375377E-02 
2143	 7.05687823719287E-02 
2144	 7.05542456583971E-02 
2145	 7.05545110902503E-02 
2146	 7.05348580992459E-02 
2147	 7.04951847497578E-02 
2148	 7.04582017274777E-02 
2149	 7.04152956742235E-02 
2150	 0.070361682503509 
2151	 7.03144153676816E-02 
2152	 7.02661844149765E-02 
2153	 7.02193290397962E-02 
2154	 7.01710622987912E-02 
2155	 7.01268556256571E-02 
2156	 7.00869449296485E-02 
2157	 7.00445778308045E-02 
2158	 7.00085047392197E-02 
2159	 6.99619529018507E-02 
2160	 6.99135997318611E-02 
2161	 6.98567456565314E-02 
2162	 6.97785141000624E-02 
2163	 6.97170489947658E-02 
2164	 0.069663115063283 
2165	 6.96029669713107E-02 
2166	 6.95461427348081E-02 
2167	 6.95017358177843E-02 
2168	 6.94417376158408E-02 
2169	 6.93706871422727E-02 
2170	 6.93041899601633E-02 
2171	 6.92340496996276E-02 
2172	 6.91702715235567E-02 
2173	 6.91020138612304E-02 
2174	 6.90475940424302E-02 
2175	 6.89999618892746E-02 
2176	 6.89596644414274E-02 
2177	 6.89343630057795E-02 
2178	 6.89038137262777E-02 
2179	 6.88960618652461E-02 
2180	 6.88562452172726E-02 
2181	 6.87798331092015E-02 
2182	 6.87296520611549E-02 
2183	 6.86796911963395E-02 
2184	 6.86214133475879E-02 
2185	 6.85737871382006E-02 
2186	 6.85479180503014E-02 
2187	 0.068511589689615 
2188	 6.84726871510864E-02 
2189	 6.84228125636846E-02 
2190	 6.83705152764862E-02 
2191	 0.068326203924804 
2192	 6.82650086161303E-02 
2193	 6.82197594097813E-02 
2194	 6.81930712404087E-02 
2195	 6.81643213143316E-02 
2196	 6.81388969644045E-02 
2197	 6.81105246558162E-02 
2198	 6.80738210021019E-02 
2199	 6.80601117713346E-02 
2200	 6.80694663921276E-02 
2201	 6.80601830133473E-02 
2202	 6.80667406321525E-02 
2203	 6.80505834386387E-02 
2204	 6.80452764511514E-02 
2205	 0.06802183647245 
2206	 6.80085279541877E-02 
2207	 6.80078265760321E-02 
2208	 6.80068949241123E-02 
2209	 6.80005234256037E-02 
2210	 6.79942790130474E-02 
2211	 6.80033117558503E-02 
2212	 6.79960862975897E-02 
2213	 6.79642449948715E-02 
2214	 6.79572490450211E-02 
2215	 6.79626458126969E-02 
2216	 6.79601732893353E-02 
2217	 6.79636497406358E-02 
2218	 6.79652845625989E-02 
2219	 6.79767349429081E-02 
2220	 0.067965782529989 
2221	 6.79365650193512E-02 
2222	 0.067913807747223 
2223	 6.79101179094396E-02 
2224	 6.78852945555549E-02 
2225	 0.067881337981435 
2226	 6.79123998724527E-02 
2227	 6.79108192072696E-02 
2228	 6.78815019920996E-02 
2229	 6.78845760134991E-02 
2230	 0.067901164312321 
2231	 6.79141155754485E-02 
2232	 0.067932278523933 
2233	 0.067963106508741 
2234	 6.80015719931655E-02 
2235	 6.80308011102884E-02 
2236	 6.80964313734353E-02 
2237	 6.81078167809904E-02 
2238	 6.80609513351324E-02 
2239	 6.80518609475119E-02 
2240	 6.80296882988731E-02 
2241	 6.80204909706809E-02 
2242	 6.80429041130191E-02 
2243	 6.80576611232918E-02 
2244	 6.80765599037939E-02 
2245	 6.80739949247255E-02 
2246	 6.80890197909874E-02 
2247	 6.81020074311678E-02 
2248	 6.81032493611199E-02 
2249	 6.80894094852876E-02 
2250	 6.81026443317242E-02 
2251	 6.81115538784171E-02 
2252	 6.81414435572032E-02 
2253	 0.068203534009282 
2254	 6.82420349250899E-02 
2255	 6.82925824816367E-02 
2256	 6.83138448513027E-02 
2257	 6.83088709090682E-02 
2258	 6.83180837259486E-02 
2259	 6.83174313069823E-02 
2260	 0.068313132765527 
2261	 6.83038254917483E-02 
2262	 6.83109165883121E-02 
2263	 6.83037575003251E-02 
2264	 6.83302246219844E-02 
2265	 0.068410479963244 
2266	 6.84577066487273E-02 
2267	 6.85081657950451E-02 
2268	 6.85437417240311E-02 
2269	 6.85659365707173E-02 
2270	 6.85652797183911E-02 
2271	 6.85740420007859E-02 
2272	 6.85777225589266E-02 
2273	 6.85473335361119E-02 
2274	 6.85313749848348E-02 
2275	 6.85372545840964E-02 
2276	 0.06854704797864 
2277	 0.068567067555605 
2278	 6.86287808118088E-02 
2279	 6.86415466970962E-02 
2280	 6.86242813345636E-02 
2281	 0.068631482794716 
2282	 0.068624207704454 
2283	 6.86474345567274E-02 
2284	 6.87169196558647E-02 
2285	 6.87304023988445E-02 
2286	 6.87279471462125E-02 
2287	 6.87240826203343E-02 
2288	 6.86658630677977E-02 
2289	 6.86730179306706E-02 
2290	 6.87156990532095E-02 
2291	 6.87520930448397E-02 
2292	 6.88404972658751E-02 
2293	 6.88807204413225E-02 
2294	 6.89069113059268E-02 
2295	 6.89183885694708E-02 
2296	 6.89041192657753E-02 
2297	 6.88653230748646E-02 
2298	 6.88478870650758E-02 
2299	 6.88193793098716E-02 
2300	 6.88258609634471E-02 
2301	 6.88328300340697E-02 
2302	 6.88012577522878E-02 
2303	 6.88206907291428E-02 
2304	 6.88462319541831E-02 
2305	 6.88384342638245E-02 
2306	 6.88890642081512E-02 
2307	 6.90035028629678E-02 
2308	 6.90585130563966E-02 
2309	 6.91226171883018E-02 
2310	 6.91717619813652E-02 
2311	 6.91842232226625E-02 
2312	 6.92037652766014E-02 
2313	 6.92287368090437E-02 
2314	 6.92276611674418E-02 
2315	 6.91857556700568E-02 
2316	 6.91922696857583E-02 
2317	 6.92228190110431E-02 
2318	 6.92350894692903E-02 
2319	 6.92729377032887E-02 
2320	 0.069287871563994 
2321	 6.92546572626928E-02 
2322	 6.92620086556686E-02 
2323	 6.92858646655627E-02 
2324	 6.93128685694055E-02 
2325	 6.93742858664723E-02 
2326	 0.069409080930094 
2327	 6.94156379200182E-02 
2328	 6.94586775927933E-02 
2329	 6.95310439132377E-02 
2330	 6.95457931658813E-02 
2331	 0.069592643550124 
2332	 6.96219752111636E-02 
2333	 6.96023737777247E-02 
2334	 6.96121029591973E-02 
2335	 6.96691245636843E-02 
2336	 0.069722758045453 
2337	 6.97300941775805E-02 
2338	 6.97358344245186E-02 
2339	 6.97171327218533E-02 
2340	 6.97096249639205E-02 
2341	 6.97504038024134E-02 
2342	 6.97946090363957E-02 
2343	 6.98287227743926E-02 
2344	 6.98291352430087E-02 
2345	 6.98377134635719E-02 
2346	 6.98619748983475E-02 
2347	 0.069832171678076 
2348	 6.97504588490887E-02 
2349	 6.97246105945101E-02 
2350	 6.96409453954382E-02 
2351	 6.96568448465734E-02 
2352	 6.97882893859493E-02 
2353	 6.98584952139043E-02 
2354	 6.99755821947063E-02 
2355	 7.00186748770177E-02 
2356	 7.00059237018574E-02 
2357	 6.99909956581093E-02 
2358	 6.99192421203804E-02 
2359	 6.98924999653519E-02 
2360	 0.069876594433415 
2361	 0.069867773343873 
2362	 0.069903203443556 
2363	 6.99015870432527E-02 
2364	 6.98516986574429E-02 
2365	 0.069846386398307 
2366	 6.98398154147494E-02 
2367	 6.98342967607337E-02 
2368	 6.99178226568778E-02 
2369	 6.99112153584657E-02 
2370	 6.98149957063751E-02 
2371	 6.97817516133231E-02 
2372	 6.97975329766599E-02 
2373	 6.97907373623337E-02 
2374	 6.99060615206992E-02 
2375	 6.99663315732038E-02 
2376	 6.98941569739297E-02 
2377	 6.98278328752593E-02 
2378	 6.97409958822191E-02 
2379	 6.97024638713608E-02 
2380	 6.97647591018727E-02 
2381	 6.98131820653286E-02 
2382	 6.98221287294785E-02 
2383	 6.98011117934918E-02 
2384	 6.96680580545435E-02 
2385	 6.95904311659713E-02 
2386	 6.96330942568444E-02 
2387	 6.96477408974581E-02 
2388	 6.97051285630609E-02 
2389	 6.97778704587667E-02 
2390	 6.97769244411984E-02 
2391	 6.97916922621523E-02 
2392	 6.98104224395053E-02 
2393	 6.97616211471647E-02 
2394	 6.97178192634642E-02 
2395	 0.06970043226499 
2396	 6.97633248894868E-02 
2397	 6.98058066731587E-02 
2398	 6.97840337222877E-02 
2399	 6.98765765786365E-02 
2400	 6.99016375048018E-02 
2401	 6.98573108940531E-02 
2402	 6.98968247082063E-02 
2403	 6.99006523123576E-02 
2404	 6.98302847382039E-02 
2405	 0.069855177483797 
2406	 6.99125616491907E-02 
2407	 6.98322536307475E-02 
2408	 6.98076519000024E-02 
2409	 0.069736760275844 
2410	 6.96028603104481E-02 
2411	 6.95837351824388E-02 
2412	 6.95954061212492E-02 
2413	 0.069643082557355 
2414	 6.96376811383828E-02 
2415	 0.069641932057588 
2416	 6.96528192054206E-02 
2417	 6.95790682243141E-02 
2418	 6.95837313841749E-02 
2419	 6.97219033408877E-02 
2420	 6.96905721251633E-02 
2421	 6.96040090065224E-02 
2422	 6.95715896623536E-02 
2423	 6.94297920365766E-02 
2424	 6.94082938560004E-02 
2425	 6.94706065196482E-02 
2426	 6.95064948823058E-02 
2427	 6.96256676359173E-02 
2428	 6.96154821156165E-02 
2429	 6.95214093854773E-02 
2430	 6.94579211780811E-02 
2431	 6.93413647783767E-02 
2432	 6.92970843118265E-02 
2433	 6.93387282053627E-02 
2434	 6.93250762302564E-02 
2435	 6.92360816337084E-02 
2436	 6.92205651184057E-02 
2437	 6.92377548324027E-02 
2438	 6.92487763389517E-02 
2439	 6.93680695947962E-02 
2440	 6.93840101046316E-02 
2441	 6.93084955031968E-02 
2442	 6.92494270989312E-02 
2443	 0.069124074915632 
2444	 6.90946427425481E-02 
2445	 6.90819011647359E-02 
2446	 6.90687968533891E-02 
2447	 6.91530997523803E-02 
2448	 6.91445540770581E-02 
2449	 6.91274455303684E-02 
2450	 6.90897269300026E-02 
2451	 6.89870652275173E-02 
2452	 6.89495466837723E-02 
2453	 6.89026163357602E-02 
2454	 6.88781458883758E-02 
2455	 0.068857063665482 
2456	 6.88667183911828E-02 
2457	 6.88861114633775E-02 
2458	 6.88874273350878E-02 
2459	 6.89815742509867E-02 
2460	 6.89776733783209E-02 
2461	 6.89241076934164E-02 
2462	 6.88750860603893E-02 
2463	 6.87727002703963E-02 
2464	 6.86964162986006E-02 
2465	 6.85373405573108E-02 
2466	 6.85097888716341E-02 
2467	 6.86122506828393E-02 
2468	 6.86892784776262E-02 
2469	 6.88870757269127E-02 
2470	 6.90079282251128E-02 
2471	 6.89296901290613E-02 
2472	 0.0687828868117 
2473	 6.86305369149186E-02 
2474	 6.85080063950036E-02 
2475	 6.84521475591778E-02 
2476	 6.85578268043213E-02 
2477	 6.87695927089657E-02 
2478	 6.88034181169245E-02 
2479	 6.86218863652181E-02 
2480	 0.0684239660419 
2481	 0.068260352824998 
2482	 6.81301741840112E-02 
2483	 6.82541172809835E-02 
2484	 6.84992242981367E-02 
2485	 6.85273034995317E-02 
2486	 6.84741262409885E-02 
2487	 6.84777307416316E-02 
2488	 6.84092722819403E-02 
2489	 6.83395131394474E-02 
2490	 6.84394497741273E-02 
2491	 6.85114217894558E-02 
2492	 6.84900022242133E-02 
2493	 6.84107118886496E-02 
2494	 6.82970004628739E-02 
2495	 6.83726171727411E-02 
2496	 6.82818748660887E-02 
2497	 6.80165138458544E-02 
2498	 0.067954840955116 
2499	 6.76649969426673E-02 
2500	 6.76110990436118E-02 
