Wavelength	LMW_1500008.asd
350	 4.05866496089977E-02 
351	 4.23463723643687E-02 
352	 4.87586127055995E-02 
353	 5.18789786808996E-02 
354	 0.052322188990749 
355	 5.07891976956939E-02 
356	 4.96510024319767E-02 
357	 0.051001137919553 
358	 0.055889018145195 
359	 5.23844343683873E-02 
360	 4.58732643082764E-02 
361	 5.07770820583936E-02 
362	 4.91195569295505E-02 
363	 4.89541887466509E-02 
364	 0.051708167242657 
365	 4.28014263358018E-02 
366	 4.27357423690807E-02 
367	 4.82696301337535E-02 
368	 5.09534625746767E-02 
369	 4.98734353285712E-02 
370	 5.11488824493229E-02 
371	 5.34054907907324E-02 
372	 5.08207926709971E-02 
373	 5.08721342735642E-02 
374	 5.23029327523516E-02 
375	 5.28369482254842E-02 
376	 5.03864101885974E-02 
377	 4.80674446104033E-02 
378	 4.93119785954212E-02 
379	 5.46474087871353E-02 
380	 5.33095446148704E-02 
381	 5.11822996959846E-02 
382	 5.10840418877941E-02 
383	 5.27436546225516E-02 
384	 5.38551577991837E-02 
385	 5.22341897295143E-02 
386	 4.91117880892499E-02 
387	 5.22150737318837E-02 
388	 5.32485489035512E-02 
389	 5.24223611321058E-02 
390	 5.22522599305198E-02 
391	 5.20938891189291E-02 
392	 5.26437512537828E-02 
393	 5.37626849973066E-02 
394	 5.45186388242563E-02 
395	 5.25710169028968E-02 
396	 5.19329374180607E-02 
397	 5.44031191274677E-02 
398	 5.50838651585001E-02 
399	 5.47456907771465E-02 
400	 5.42767882274306E-02 
401	 5.44427209978484E-02 
402	 5.44693955392555E-02 
403	 5.33434386479741E-02 
404	 5.19000428698178E-02 
405	 5.26524660389141E-02 
406	 5.39390187890871E-02 
407	 5.51581941981702E-02 
408	 0.055753413051698 
409	 5.44930153115873E-02 
410	 5.35966949092376E-02 
411	 5.35674341511991E-02 
412	 5.40131999309583E-02 
413	 5.48462641988078E-02 
414	 5.54460668021643E-02 
415	 5.55096311126997E-02 
416	 5.51520977132228E-02 
417	 5.47022628503181E-02 
418	 5.47677969656054E-02 
419	 5.55442052717921E-02 
420	 5.58110573481837E-02 
421	 5.59537742274646E-02 
422	 5.61022408136895E-02 
423	 5.61790707211262E-02 
424	 5.58129666741216E-02 
425	 5.57376476706433E-02 
426	 5.60609029244409E-02 
427	 5.54760809966037E-02 
428	 5.52983956409892E-02 
429	 5.56404709578908E-02 
430	 5.61429055251568E-02 
431	 5.62499318243685E-02 
432	 0.056254112416481 
433	 5.63340421121153E-02 
434	 5.64997697497699E-02 
435	 5.63782809058821E-02 
436	 5.64411601340133E-02 
437	 5.68594587243314E-02 
438	 5.65026442374309E-02 
439	 5.68185611354407E-02 
440	 5.72981378974905E-02 
441	 5.67600084102569E-02 
442	 5.71470685233096E-02 
443	 5.77500670047943E-02 
444	 5.80323778021227E-02 
445	 5.81242062788244E-02 
446	 0.057986089198992 
447	 5.79268139202545E-02 
448	 5.81785614758613E-02 
449	 5.82268720100608E-02 
450	 5.84113898917065E-02 
451	 5.88107779678341E-02 
452	 5.92334372706544E-02 
453	 5.90715642732017E-02 
454	 5.88508400238944E-02 
455	 5.90313417712176E-02 
456	 5.94649571039829E-02 
457	 5.96223679002994E-02 
458	 5.94833247601853E-02 
459	 5.93347210788928E-02 
460	 5.96647304226588E-02 
461	 5.98359405601753E-02 
462	 5.97493840189111E-02 
463	 6.01998118619672E-02 
464	 6.05002156020169E-02 
465	 6.05955192264879E-02 
466	 6.06353243181682E-02 
467	 6.08275558608333E-02 
468	 6.10464045857458E-02 
469	 6.12442428281444E-02 
470	 6.14370182801612E-02 
471	 6.14809524214262E-02 
472	 6.15607586676556E-02 
473	 6.17539820259472E-02 
474	 6.17461191181257E-02 
475	 6.17778882227337E-02 
476	 6.19136045276141E-02 
477	 6.21396330581877E-02 
478	 6.24974125940218E-02 
479	 6.27088199152406E-02 
480	 6.27652289945345E-02 
481	 6.30615284380863E-02 
482	 6.32108879273426E-02 
483	 6.33007431468502E-02 
484	 6.34782126439725E-02 
485	 6.35915253137993E-02 
486	 6.35956345116374E-02 
487	 6.35716869699421E-02 
488	 6.36994014087171E-02 
489	 6.40390890137696E-02 
490	 6.44524879590038E-02 
491	 6.47374351141909E-02 
492	 6.45837462238757E-02 
493	 0.064579736061245 
494	 6.47347601996926E-02 
495	 6.48005765073684E-02 
496	 6.48762467797105E-02 
497	 0.064992779696432 
498	 0.065167402677745 
499	 6.54120387085539E-02 
500	 6.55843498806669E-02 
501	 6.56709554970855E-02 
502	 6.57154957048877E-02 
503	 6.57992147570435E-02 
504	 6.58889119273246E-02 
505	 6.59849131760967E-02 
506	 6.61183468487116E-02 
507	 6.62238173689289E-02 
508	 6.62862376080466E-02 
509	 6.63168919711638E-02 
510	 6.63616486643307E-02 
511	 6.64295095542102E-02 
512	 6.64696193338863E-02 
513	 6.64345612728207E-02 
514	 6.66276840921894E-02 
515	 6.68020298451671E-02 
516	 6.68503933773393E-02 
517	 6.70163476745891E-02 
518	 6.70610431650047E-02 
519	 6.70270299072099E-02 
520	 0.067040603864868 
521	 0.06714909878236 
522	 6.72238995085283E-02 
523	 6.72293804394065E-02 
524	 6.72374571989039E-02 
525	 6.72925693732062E-02 
526	 0.067325588498629 
527	 6.73015792273737E-02 
528	 6.73752640804641E-02 
529	 6.75001503787512E-02 
530	 6.76310617674216E-02 
531	 6.77236846775542E-02 
532	 6.77193055409508E-02 
533	 6.77882912142194E-02 
534	 0.067961372609976 
535	 6.78881724990058E-02 
536	 6.80020782794598E-02 
537	 6.81468722986792E-02 
538	 6.80230257645979E-02 
539	 6.80427089463337E-02 
540	 6.81204295977568E-02 
541	 0.068187025615346 
542	 6.82502483575258E-02 
543	 6.82952629902352E-02 
544	 6.83155519355228E-02 
545	 6.83328314446014E-02 
546	 6.84778731989326E-02 
547	 6.85547268031651E-02 
548	 0.06854995746881 
549	 6.86055957554701E-02 
550	 0.0686156996385 
551	 6.86180223801957E-02 
552	 6.86726983934029E-02 
553	 6.88596891811678E-02 
554	 6.88816081308684E-02 
555	 6.88396156253918E-02 
556	 6.89986601008161E-02 
557	 6.90058265107536E-02 
558	 6.89683762137864E-02 
559	 6.89931463526651E-02 
560	 6.91069382251001E-02 
561	 6.91004215259442E-02 
562	 6.90841970418391E-02 
563	 6.92114045791317E-02 
564	 6.91973051542519E-02 
565	 6.91687454029858E-02 
566	 6.92023854699623E-02 
567	 6.92902786583524E-02 
568	 6.93768557783913E-02 
569	 6.94513110093428E-02 
570	 6.95032199010458E-02 
571	 6.94700423209286E-02 
572	 6.94688510129947E-02 
573	 6.95265411653161E-02 
574	 6.95958316743248E-02 
575	 6.95755157000156E-02 
576	 6.95634477435811E-02 
577	 6.96017713794566E-02 
578	 0.069524926355843 
579	 0.069527738109983 
580	 6.95798161764613E-02 
581	 6.95674775978599E-02 
582	 6.95410042352558E-02 
583	 6.94805137070782E-02 
584	 0.069397428257732 
585	 0.069350220294558 
586	 6.94306752948976E-02 
587	 6.94822376091456E-02 
588	 6.93751373410098E-02 
589	 6.94384920012822E-02 
590	 6.94966580642636E-02 
591	 6.94662764092111E-02 
592	 6.93699532639266E-02 
593	 6.93113391101176E-02 
594	 6.92862102093584E-02 
595	 6.92803100685442E-02 
596	 0.069327839256028 
597	 6.93510019507438E-02 
598	 0.06937029976056 
599	 6.94473471047117E-02 
600	 0.069488165029682 
601	 6.94817539722047E-02 
602	 6.94370511366417E-02 
603	 6.93727924377361E-02 
604	 6.93553677839484E-02 
605	 6.93721756185409E-02 
606	 6.93851176023129E-02 
607	 0.069404428929442 
608	 0.069432367660528 
609	 6.94608548625701E-02 
610	 6.94708831371844E-02 
611	 6.94555367684673E-02 
612	 6.94860497849616E-02 
613	 0.069592728275964 
614	 6.96142778550396E-02 
615	 6.95817382248465E-02 
616	 6.95395708650635E-02 
617	 6.95381907673497E-02 
618	 6.95733123324151E-02 
619	 6.95639170188839E-02 
620	 6.95043665718618E-02 
621	 6.95822120959096E-02 
622	 0.069646002062818 
623	 6.96703390904078E-02 
624	 6.96790625313802E-02 
625	 6.96734092647326E-02 
626	 6.96771347301627E-02 
627	 0.069680840622138 
628	 6.96282897167372E-02 
629	 6.97039641660696E-02 
630	 6.97779186228078E-02 
631	 0.069720309124569 
632	 6.97588290438211E-02 
633	 6.98097137374105E-02 
634	 6.98301095201616E-02 
635	 6.98224324522623E-02 
636	 6.98848819235224E-02 
637	 6.99575291615682E-02 
638	 6.99776810788808E-02 
639	 6.99361560264227E-02 
640	 0.069950426225392 
641	 7.00011512631472E-02 
642	 7.00160795587835E-02 
643	 7.00786658144416E-02 
644	 7.01288250732844E-02 
645	 0.07013195419669 
646	 7.01069436911751E-02 
647	 7.01190633269617E-02 
648	 7.01664277221464E-02 
649	 7.02249091180916E-02 
650	 7.02860827616254E-02 
651	 0.070317414733584 
652	 7.03237504186012E-02 
653	 0.070342240413893 
654	 7.03727608551504E-02 
655	 7.04065686024454E-02 
656	 7.04407836935082E-02 
657	 7.04949789957199E-02 
658	 7.05450595329369E-02 
659	 7.05863519964088E-02 
660	 7.06219742216794E-02 
661	 7.06374401979782E-02 
662	 7.06489827289596E-02 
663	 7.06701443176536E-02 
664	 7.07065203932639E-02 
665	 7.07417902060571E-02 
666	 7.07748682350367E-02 
667	 7.08084839170179E-02 
668	 7.08399963391449E-02 
669	 7.08766204582054E-02 
670	 7.09071000083959E-02 
671	 7.09088078767305E-02 
672	 7.09304268201321E-02 
673	 7.09913902101892E-02 
674	 7.10715977498652E-02 
675	 7.10707099586733E-02 
676	 7.10641084143744E-02 
677	 7.10683393528675E-02 
678	 7.10783229749157E-02 
679	 7.11211154423498E-02 
680	 7.11551989008037E-02 
681	 7.11799777939422E-02 
682	 0.07125542678234 
683	 7.12907005261602E-02 
684	 7.13032323047339E-02 
685	 7.13248740424265E-02 
686	 7.13263703601203E-02 
687	 7.13318757435013E-02 
688	 7.13592012929528E-02 
689	 7.14137799538855E-02 
690	 7.14227300339322E-02 
691	 7.14217196879406E-02 
692	 7.14417760266218E-02 
693	 7.14757601518068E-02 
694	 7.14652140053001E-02 
695	 7.14547929962933E-02 
696	 7.15067936077271E-02 
697	 7.15547489002657E-02 
698	 7.15587242318456E-02 
699	 7.15342010872596E-02 
700	 7.15496372357994E-02 
701	 7.15427419244256E-02 
702	 7.15405526547707E-02 
703	 7.15622423083891E-02 
704	 7.15526659151006E-02 
705	 7.15364476673034E-02 
706	 7.15302985346212E-02 
707	 7.15429709909495E-02 
708	 0.071549059584551 
709	 7.15723950358232E-02 
710	 7.16045853820868E-02 
711	 7.15832903000565E-02 
712	 7.15784518412855E-02 
713	 7.16001275975721E-02 
714	 7.16319754480803E-02 
715	 7.16244453918153E-02 
716	 7.16537528533369E-02 
717	 7.16930457840232E-02 
718	 7.16511821975514E-02 
719	 7.16437549522146E-02 
720	 7.16294669198812E-02 
721	 7.15879080274735E-02 
722	 7.15830246723366E-02 
723	 7.15822087823591E-02 
724	 7.15941120779434E-02 
725	 7.16268195683771E-02 
726	 7.16244846001046E-02 
727	 7.15916504446993E-02 
728	 7.15602051297689E-02 
729	 0.071577972203498 
730	 7.15590469500352E-02 
731	 0.071545577666364 
732	 7.15615368252558E-02 
733	 7.15268320986126E-02 
734	 7.15190849896997E-02 
735	 7.15158378460172E-02 
736	 7.14700153482443E-02 
737	 7.14534806986138E-02 
738	 7.14386677535375E-02 
739	 7.14228009672941E-02 
740	 7.14358631876078E-02 
741	 7.14253682592166E-02 
742	 7.13781629349775E-02 
743	 7.13112446289174E-02 
744	 7.12966930356135E-02 
745	 7.12735521410139E-02 
746	 7.12587130096323E-02 
747	 7.12846906454247E-02 
748	 7.12180384260688E-02 
749	 7.11658711404438E-02 
750	 7.11645573511348E-02 
751	 7.11400218793208E-02 
752	 7.11317414292181E-02 
753	 7.11099718446283E-02 
754	 7.10605361917571E-02 
755	 7.10604405076379E-02 
756	 7.10465929516765E-02 
757	 7.10156979689351E-02 
758	 7.09966200015224E-02 
759	 7.10095921255138E-02 
760	 7.09992951934266E-02 
761	 7.09580039319652E-02 
762	 7.09450426548185E-02 
763	 7.09234947874274E-02 
764	 7.09002889008997E-02 
765	 7.08858109656743E-02 
766	 0.070874601829639 
767	 0.070834710116579 
768	 7.07945067868526E-02 
769	 7.08003542383098E-02 
770	 7.07855280946749E-02 
771	 7.07815359267942E-02 
772	 7.07813773598042E-02 
773	 0.070724781112133 
774	 7.06804227743721E-02 
775	 7.06625081759604E-02 
776	 7.06629614354418E-02 
777	 7.06523321147458E-02 
778	 7.06299054824935E-02 
779	 7.06076058189433E-02 
780	 7.05984709539992E-02 
781	 7.05781087804997E-02 
782	 7.05506373350255E-02 
783	 7.05209906124117E-02 
784	 7.04928801965158E-02 
785	 7.04815360494656E-02 
786	 0.070449891900779 
787	 7.03897616395845E-02 
788	 7.03844487545918E-02 
789	 7.04035940387516E-02 
790	 7.03940375923238E-02 
791	 7.03184580129242E-02 
792	 7.02680324850508E-02 
793	 0.070261653687972 
794	 7.02763622632911E-02 
795	 7.02597219282208E-02 
796	 7.02317099510468E-02 
797	 7.02001915458205E-02 
798	 0.070169353921981 
799	 7.01373703899794E-02 
800	 7.01383966235612E-02 
801	 7.01348572236689E-02 
802	 7.00878451959964E-02 
803	 7.00403818779758E-02 
804	 7.00219130927227E-02 
805	 7.00128113259044E-02 
806	 6.99725378439522E-02 
807	 6.99732323250263E-02 
808	 6.99727173599413E-02 
809	 6.99422465422111E-02 
810	 6.98885149217052E-02 
811	 6.98709165606969E-02 
812	 0.069852318619563 
813	 6.98074360422525E-02 
814	 6.98094574127172E-02 
815	 6.97899608115132E-02 
816	 6.97699909716073E-02 
817	 6.97866672144915E-02 
818	 6.97530380863962E-02 
819	 6.97137498785511E-02 
820	 6.96828983099247E-02 
821	 6.96435739314096E-02 
822	 6.96112062452651E-02 
823	 6.95822645063599E-02 
824	 6.95544383228981E-02 
825	 6.95321339930615E-02 
826	 6.95153959476239E-02 
827	 0.069487248768952 
828	 6.94464429049339E-02 
829	 6.94616110201387E-02 
830	 6.94191829279321E-02 
831	 6.93698835761513E-02 
832	 6.94103862660895E-02 
833	 6.93804728691701E-02 
834	 6.93490358528631E-02 
835	 0.069331962858806 
836	 6.92868135823858E-02 
837	 6.92917063795229E-02 
838	 6.93035458611402E-02 
839	 6.92850441843282E-02 
840	 6.92439898798265E-02 
841	 6.91909928203036E-02 
842	 6.91687716066724E-02 
843	 6.91910952342727E-02 
844	 6.91582937130333E-02 
845	 6.91416478301866E-02 
846	 6.91176226570599E-02 
847	 6.90448454833456E-02 
848	 6.90428642383794E-02 
849	 6.90446391287538E-02 
850	 6.90292823967719E-02 
851	 6.90239210769998E-02 
852	 6.90190459364766E-02 
853	 6.89948459165758E-02 
854	 6.89627648700812E-02 
855	 6.89785785946894E-02 
856	 6.89709277865382E-02 
857	 6.89644316813196E-02 
858	 6.89714874742224E-02 
859	 6.89082505459385E-02 
860	 0.068885504137196 
861	 6.88905025298271E-02 
862	 6.88782343464093E-02 
863	 0.06888217887055 
864	 6.88447084194036E-02 
865	 6.87966468196085E-02 
866	 6.88041823884198E-02 
867	 0.068756097116576 
868	 6.87329319299221E-02 
869	 6.87452751380802E-02 
870	 0.068722343744161 
871	 6.87297538416047E-02 
872	 0.068746944853868 
873	 0.068742941822851 
874	 6.86945884533785E-02 
875	 6.86900328707518E-02 
876	 6.86615379150364E-02 
877	 6.85788092503208E-02 
878	 6.86163006826222E-02 
879	 6.86491411888996E-02 
880	 6.86363873172032E-02 
881	 6.85889146424657E-02 
882	 6.85918984597952E-02 
883	 6.86202373428181E-02 
884	 6.86116744572446E-02 
885	 6.85239554479546E-02 
886	 6.85447324707769E-02 
887	 6.85826730693254E-02 
888	 6.85786759025062E-02 
889	 6.85336451082431E-02 
890	 6.85568546923617E-02 
891	 6.85625260898813E-02 
892	 6.85200904813073E-02 
893	 6.84987486992162E-02 
894	 6.84882482191689E-02 
895	 6.84789279673748E-02 
896	 6.84814337443707E-02 
897	 0.068544832070498 
898	 6.85181727988274E-02 
899	 6.84756858160527E-02 
900	 6.84854144077091E-02 
901	 6.84237787710998E-02 
902	 6.84373806095328E-02 
903	 0.068484635546823 
904	 6.84822470132391E-02 
905	 6.84553111564353E-02 
906	 6.84329839215524E-02 
907	 6.84310351611279E-02 
908	 6.84488226291567E-02 
909	 6.84600926435891E-02 
910	 6.84093683189224E-02 
911	 6.83557789837004E-02 
912	 6.83997919699921E-02 
913	 6.83708312874046E-02 
914	 6.83778556060433E-02 
915	 6.84199373112972E-02 
916	 0.068392665012798 
917	 6.83806905960747E-02 
918	 6.83502231392072E-02 
919	 6.83005852882658E-02 
920	 6.82817714561858E-02 
921	 6.82790920035022E-02 
922	 0.068294130161237 
923	 6.83127099114438E-02 
924	 6.82986861091582E-02 
925	 6.82725628877003E-02 
926	 6.82901729355839E-02 
927	 6.83353627127638E-02 
928	 6.82540343313963E-02 
929	 6.82865496081906E-02 
930	 6.83522974649061E-02 
931	 6.83452838155173E-02 
932	 6.82962490897063E-02 
933	 6.83615900948325E-02 
934	 6.83851501657742E-02 
935	 6.82605481311039E-02 
936	 6.83035210896945E-02 
937	 6.83069205404996E-02 
938	 6.82865505773556E-02 
939	 6.83029917732261E-02 
940	 6.83024715666684E-02 
941	 6.83358423608743E-02 
942	 6.83691720703636E-02 
943	 6.83517231821324E-02 
944	 6.83050636197114E-02 
945	 6.82759144400277E-02 
946	 6.82797414422025E-02 
947	 6.82977158355283E-02 
948	 6.82509719262638E-02 
949	 6.81842971177934E-02 
950	 0.068178602008055 
951	 6.82795723281918E-02 
952	 6.83162305326856E-02 
953	 6.82569624699197E-02 
954	 6.82128910772822E-02 
955	 6.83037695451926E-02 
956	 6.82639781884728E-02 
957	 6.82840860656742E-02 
958	 6.83455324198705E-02 
959	 6.83230514965812E-02 
960	 6.83573374796519E-02 
961	 6.83522183687434E-02 
962	 6.83141482489524E-02 
963	 6.83161101970958E-02 
964	 6.83407067564779E-02 
965	 6.83907312112592E-02 
966	 6.84141763754872E-02 
967	 6.83602583559211E-02 
968	 6.84040658648142E-02 
969	 6.83736131112956E-02 
970	 6.82616449037735E-02 
971	 0.068192753861672 
972	 0.068238089236106 
973	 6.82479329147977E-02 
974	 6.82437665818851E-02 
975	 6.83263067106405E-02 
976	 6.82599766814119E-02 
977	 6.82836798675821E-02 
978	 6.83367286341274E-02 
979	 6.82191266748159E-02 
980	 6.82331988291142E-02 
981	 6.82627191151966E-02 
982	 6.82410554992373E-02 
983	 6.81859386106882E-02 
984	 0.068278420646296 
985	 6.83243156378574E-02 
986	 6.83353059033334E-02 
987	 0.06840432815085 
988	 6.83190588654136E-02 
989	 0.068378291212302 
990	 6.84367954957253E-02 
991	 6.82546993191014E-02 
992	 6.83134582042979E-02 
993	 6.83072969466524E-02 
994	 6.83450808056921E-02 
995	 6.85563134803693E-02 
996	 6.83170401435932E-02 
997	 6.83027461217645E-02 
998	 6.84598912801111E-02 
999	 6.84942743863752E-02 
1000	 6.84489719345016E-02 
1001	 6.76765254255506E-02 
1002	 6.76807552830021E-02 
1003	 6.76336931552665E-02 
1004	 6.76242615506284E-02 
1005	 6.76724443207887E-02 
1006	 6.76696394540127E-02 
1007	 6.76559837309226E-02 
1008	 6.76281460161026E-02 
1009	 6.75590537348186E-02 
1010	 6.74902644469437E-02 
1011	 6.75291434405182E-02 
1012	 6.75991512000273E-02 
1013	 6.76276001110837E-02 
1014	 0.067607329959676 
1015	 6.75373138192551E-02 
1016	 0.067488854357177 
1017	 6.74674075739041E-02 
1018	 6.74648598291618E-02 
1019	 6.74985025263526E-02 
1020	 6.75705243547867E-02 
1021	 6.75709738109518E-02 
1022	 0.067599896619072 
1023	 6.76563995506826E-02 
1024	 6.75785284160818E-02 
1025	 6.75146124480514E-02 
1026	 6.74682519347973E-02 
1027	 6.74115005660451E-02 
1028	 6.74395321816274E-02 
1029	 6.74493800742118E-02 
1030	 6.74119788208995E-02 
1031	 6.73984523559854E-02 
1032	 0.067384699009502 
1033	 6.73327051326765E-02 
1034	 6.72784404286262E-02 
1035	 6.72998503312455E-02 
1036	 6.73081806526496E-02 
1037	 6.73104789805081E-02 
1038	 6.72965244097144E-02 
1039	 6.72452698910414E-02 
1040	 6.72048118969932E-02 
1041	 6.71395966580811E-02 
1042	 6.71305400974057E-02 
1043	 6.71564872447944E-02 
1044	 6.71489641958188E-02 
1045	 6.71091398784405E-02 
1046	 6.70916255965526E-02 
1047	 6.70875346063532E-02 
1048	 6.70574005875713E-02 
1049	 0.067009690411057 
1050	 6.70065231791152E-02 
1051	 6.70253954590219E-02 
1052	 6.70125486965973E-02 
1053	 6.70379014062879E-02 
1054	 0.067088664171333 
1055	 6.71016567572043E-02 
1056	 6.71149239771328E-02 
1057	 6.71227650425292E-02 
1058	 0.067112782469454 
1059	 6.71074255558736E-02 
1060	 6.70862521854792E-02 
1061	 6.71085146196299E-02 
1062	 6.71255496760444E-02 
1063	 6.71478426208593E-02 
1064	 6.71640547682226E-02 
1065	 6.71687206394087E-02 
1066	 6.71821498477128E-02 
1067	 6.72112752842842E-02 
1068	 0.067252424813078 
1069	 6.72941462709821E-02 
1070	 6.73070778966421E-02 
1071	 6.72796374773221E-02 
1072	 6.72912951985953E-02 
1073	 6.73095085989697E-02 
1074	 6.73244189384582E-02 
1075	 6.73428470801826E-02 
1076	 6.74035267353536E-02 
1077	 6.74691101442704E-02 
1078	 6.74985198144776E-02 
1079	 0.067512378774454 
1080	 0.067522545923632 
1081	 6.74954882754046E-02 
1082	 6.74320865295354E-02 
1083	 6.74109666422319E-02 
1084	 0.067427871266188 
1085	 6.74222546679922E-02 
1086	 6.74162845162753E-02 
1087	 6.74123301096325E-02 
1088	 6.74020395936874E-02 
1089	 6.73843823831462E-02 
1090	 6.74223237462604E-02 
1091	 6.74447394230652E-02 
1092	 6.74587468171711E-02 
1093	 6.74674489447197E-02 
1094	 6.74209269535598E-02 
1095	 6.74050806399229E-02 
1096	 6.74115237494619E-02 
1097	 6.74070606914266E-02 
1098	 6.74109565525033E-02 
1099	 6.74351482355354E-02 
1100	 6.74312260766695E-02 
1101	 0.067413791153032 
1102	 6.74067792346884E-02 
1103	 6.74001824845784E-02 
1104	 6.73728301176505E-02 
1105	 6.73723030481923E-02 
1106	 6.73697694098858E-02 
1107	 6.73475841187969E-02 
1108	 6.73632948365613E-02 
1109	 6.73512737568327E-02 
1110	 0.067311973381231 
1111	 6.73007927088316E-02 
1112	 0.067303075303209 
1113	 6.72723249253804E-02 
1114	 6.72320863338237E-02 
1115	 6.72159489106523E-02 
1116	 6.71958880103349E-02 
1117	 6.71689590437675E-02 
1118	 6.71596060640287E-02 
1119	 6.71374171285493E-02 
1120	 6.71091026520492E-02 
1121	 6.70939509982246E-02 
1122	 6.70826761678751E-02 
1123	 6.70833377410858E-02 
1124	 6.70757668351163E-02 
1125	 6.70455779829962E-02 
1126	 6.70379639193383E-02 
1127	 6.70520400535756E-02 
1128	 6.70540947612414E-02 
1129	 6.70690400720586E-02 
1130	 0.067056239470759 
1131	 6.70196693330835E-02 
1132	 6.69961518410641E-02 
1133	 6.69489722019278E-02 
1134	 6.69269470511259E-02 
1135	 6.69274187189915E-02 
1136	 6.69348783360647E-02 
1137	 0.06692373356654 
1138	 0.06691531941042 
1139	 6.68987438449015E-02 
1140	 6.68736989899348E-02 
1141	 0.066839194603591 
1142	 6.67770722078582E-02 
1143	 6.67701767416797E-02 
1144	 6.67822413086435E-02 
1145	 6.67829225110436E-02 
1146	 6.68357047234797E-02 
1147	 6.68375938652776E-02 
1148	 6.67907108152064E-02 
1149	 6.67655029228701E-02 
1150	 6.67358623568801E-02 
1151	 6.67020699228797E-02 
1152	 6.66996575093588E-02 
1153	 6.66969628523084E-02 
1154	 6.66910234945785E-02 
1155	 6.66963383874311E-02 
1156	 6.66908548934173E-02 
1157	 6.66711188641637E-02 
1158	 6.66653044535593E-02 
1159	 6.66661222249463E-02 
1160	 6.66657832868357E-02 
1161	 6.66771878563213E-02 
1162	 6.66730275566514E-02 
1163	 6.66559578535067E-02 
1164	 6.66436866901451E-02 
1165	 0.066622234463713 
1166	 6.66094284562493E-02 
1167	 6.65953142648882E-02 
1168	 6.66036147433855E-02 
1169	 6.66029361880566E-02 
1170	 6.66031335882152E-02 
1171	 6.66040700482431E-02 
1172	 6.66189550381191E-02 
1173	 6.66052570800906E-02 
1174	 6.65706776613651E-02 
1175	 6.65569604375606E-02 
1176	 0.066531071606069 
1177	 6.65176776708973E-02 
1178	 6.65288991953771E-02 
1179	 0.066529176263632 
1180	 0.066514276705153 
1181	 6.65148662572975E-02 
1182	 6.65297634637413E-02 
1183	 6.65430044869073E-02 
1184	 6.65429458985377E-02 
1185	 6.65459841598478E-02 
1186	 6.65389908377609E-02 
1187	 6.65055268093604E-02 
1188	 6.65015481465359E-02 
1189	 6.65087350746845E-02 
1190	 6.65167434870982E-02 
1191	 6.65364228519715E-02 
1192	 6.65544730269073E-02 
1193	 6.65759330953447E-02 
1194	 0.066593199148523 
1195	 6.66165050561627E-02 
1196	 6.66308234940923E-02 
1197	 6.66442499343619E-02 
1198	 6.66464205571616E-02 
1199	 6.66406554063923E-02 
1200	 6.66173461652519E-02 
1201	 6.66220445482205E-02 
1202	 0.066625332016913 
1203	 6.66412666425126E-02 
1204	 0.066687927616808 
1205	 6.67071283800739E-02 
1206	 6.67146637911563E-02 
1207	 6.67270456569083E-02 
1208	 6.67300094856536E-02 
1209	 6.67428644399832E-02 
1210	 6.67624006459256E-02 
1211	 0.066780845598315 
1212	 6.68114697271876E-02 
1213	 6.68268186619309E-02 
1214	 6.68308527367363E-02 
1215	 6.68388997885352E-02 
1216	 6.68443696726372E-02 
1217	 6.68456661437622E-02 
1218	 6.68371846621421E-02 
1219	 6.68193728277429E-02 
1220	 6.68195793675487E-02 
1221	 6.68122763514129E-02 
1222	 6.68179929619189E-02 
1223	 6.68494648641983E-02 
1224	 6.68655617712023E-02 
1225	 0.066873813752826 
1226	 6.68866488492369E-02 
1227	 6.69117727546418E-02 
1228	 0.066918175227206 
1229	 6.69084662485868E-02 
1230	 6.69081046403227E-02 
1231	 0.066890941556391 
1232	 6.68904981446097E-02 
1233	 6.69001608277407E-02 
1234	 6.69288033271455E-02 
1235	 6.69414052154441E-02 
1236	 6.69566644098353E-02 
1237	 6.69697681056904E-02 
1238	 0.066978179547132 
1239	 6.69857933149558E-02 
1240	 6.69994393316826E-02 
1241	 6.70021255546534E-02 
1242	 6.69852989169151E-02 
1243	 6.69880187314092E-02 
1244	 6.69932379862789E-02 
1245	 6.70042807142127E-02 
1246	 6.70420160839598E-02 
1247	 6.70577782620171E-02 
1248	 0.067064668502219 
1249	 6.70647005147428E-02 
1250	 6.70748393083914E-02 
1251	 6.70763337714454E-02 
1252	 6.70737057389666E-02 
1253	 6.70732595355153E-02 
1254	 6.70734380433768E-02 
1255	 6.70541475091937E-02 
1256	 6.70616415174314E-02 
1257	 6.70955735426649E-02 
1258	 6.71119085235992E-02 
1259	 6.71390196223146E-02 
1260	 6.71435561595482E-02 
1261	 6.71239497618458E-02 
1262	 6.71170140857404E-02 
1263	 6.71029782860457E-02 
1264	 6.70944598427539E-02 
1265	 6.70977876780986E-02 
1266	 0.067094133418928 
1267	 6.70829091021957E-02 
1268	 6.70778116884295E-02 
1269	 6.70688813029934E-02 
1270	 6.70551277530564E-02 
1271	 6.70499390713795E-02 
1272	 6.70441479623635E-02 
1273	 6.70484022494069E-02 
1274	 6.70611028165939E-02 
1275	 6.70741873808545E-02 
1276	 0.067097222680332 
1277	 6.71114262235323E-02 
1278	 6.71189159127372E-02 
1279	 6.71375427544406E-02 
1280	 6.71524654330092E-02 
1281	 6.71800862018565E-02 
1282	 6.72318170521243E-02 
1283	 6.72652855304937E-02 
1284	 6.72862211271216E-02 
1285	 6.73224384063835E-02 
1286	 6.73709469956006E-02 
1287	 6.74046147875914E-02 
1288	 6.74384626458148E-02 
1289	 0.067478944724576 
1290	 6.75296065272612E-02 
1291	 6.75691271383389E-02 
1292	 6.76254941038402E-02 
1293	 6.77172287169478E-02 
1294	 6.77757417223181E-02 
1295	 6.78179174704095E-02 
1296	 6.78635504831528E-02 
1297	 6.78976153414299E-02 
1298	 6.79430590701268E-02 
1299	 6.79929585814439E-02 
1300	 6.80414820256962E-02 
1301	 6.81002895051015E-02 
1302	 0.06814763999929 
1303	 6.81881103085051E-02 
1304	 6.82240690300781E-02 
1305	 6.82673346430829E-02 
1306	 6.82983215241376E-02 
1307	 6.83239467817214E-02 
1308	 6.83621805478055E-02 
1309	 6.83919583732765E-02 
1310	 0.06841985386099 
1311	 6.84363054325354E-02 
1312	 6.84484738951841E-02 
1313	 6.84566454420887E-02 
1314	 0.068448672953691 
1315	 6.84521885944938E-02 
1316	 6.84606939358181E-02 
1317	 6.84666622087234E-02 
1318	 6.84756802020905E-02 
1319	 6.84799110419563E-02 
1320	 6.84819810559167E-02 
1321	 6.84832200045332E-02 
1322	 6.84752476940426E-02 
1323	 6.84748652613569E-02 
1324	 6.85027793263131E-02 
1325	 6.85151321162445E-02 
1326	 6.85204576442441E-02 
1327	 6.85263430299695E-02 
1328	 0.068487534219241 
1329	 6.84511978178726E-02 
1330	 6.84356173965009E-02 
1331	 6.84298334658283E-02 
1332	 6.84148104675293E-02 
1333	 6.84119002413086E-02 
1334	 6.83994217393116E-02 
1335	 6.83717585688282E-02 
1336	 6.83593187282963E-02 
1337	 6.83614404761583E-02 
1338	 0.06834953689078 
1339	 6.83287036142539E-02 
1340	 6.83161322220649E-02 
1341	 6.83071731728483E-02 
1342	 6.82913139884764E-02 
1343	 6.82746751508383E-02 
1344	 6.82635327526143E-02 
1345	 6.82488353444933E-02 
1346	 6.82197474966273E-02 
1347	 6.81937202005223E-02 
1348	 6.81655108842101E-02 
1349	 6.81264969460003E-02 
1350	 6.80893092274224E-02 
1351	 6.80568747900281E-02 
1352	 6.80355044273863E-02 
1353	 6.79950950182558E-02 
1354	 6.79463836272597E-02 
1355	 6.79019726394399E-02 
1356	 6.78474178931295E-02 
1357	 6.78028207066684E-02 
1358	 6.77518468576835E-02 
1359	 6.77267572194452E-02 
1360	 6.77204500270445E-02 
1361	 6.77043140697206E-02 
1362	 6.77009316766426E-02 
1363	 6.77031381892422E-02 
1364	 6.77035094112722E-02 
1365	 6.77015803230833E-02 
1366	 6.77075985158948E-02 
1367	 0.067712662789431 
1368	 6.77176929735384E-02 
1369	 6.77287925508307E-02 
1370	 6.77523956532398E-02 
1371	 6.77790711754552E-02 
1372	 6.77817324110274E-02 
1373	 6.77750723106212E-02 
1374	 6.77663055505888E-02 
1375	 6.77509534472047E-02 
1376	 6.77236990005589E-02 
1377	 6.76921152981164E-02 
1378	 6.76491084183944E-02 
1379	 6.75793079847269E-02 
1380	 6.75407457872788E-02 
1381	 6.74974172048023E-02 
1382	 6.74758361362906E-02 
1383	 6.74894575196038E-02 
1384	 0.067480565178617 
1385	 6.74666907223717E-02 
1386	 6.74670497279215E-02 
1387	 6.74716513530465E-02 
1388	 6.74708505080449E-02 
1389	 6.74794136021558E-02 
1390	 6.74853646611307E-02 
1391	 6.74768589944262E-02 
1392	 6.74533222976704E-02 
1393	 6.74270408818328E-02 
1394	 6.74066543699957E-02 
1395	 6.73833043409164E-02 
1396	 6.73669312212184E-02 
1397	 6.73565614388743E-02 
1398	 6.73537248425654E-02 
1399	 6.73493926993512E-02 
1400	 6.73543574072834E-02 
1401	 6.73459443664184E-02 
1402	 6.73224937740567E-02 
1403	 6.73258726069473E-02 
1404	 6.73301984638366E-02 
1405	 6.73453262639819E-02 
1406	 6.73976650576563E-02 
1407	 6.74196658374681E-02 
1408	 6.74308114138616E-02 
1409	 6.74373717806666E-02 
1410	 6.74208860653046E-02 
1411	 6.74220063120387E-02 
1412	 6.74229018269163E-02 
1413	 6.74381622614025E-02 
1414	 6.74608357933691E-02 
1415	 6.74801900651514E-02 
1416	 6.74943876930237E-02 
1417	 6.75055354956361E-02 
1418	 6.75167172607134E-02 
1419	 0.067531711304151 
1420	 6.75499103240382E-02 
1421	 6.75763459932052E-02 
1422	 6.76065174128883E-02 
1423	 6.76344880913784E-02 
1424	 6.76579526239009E-02 
1425	 0.067679205530667 
1426	 0.067697005366231 
1427	 6.77071682566019E-02 
1428	 6.77228253666321E-02 
1429	 6.77372515747231E-02 
1430	 6.77588615781004E-02 
1431	 6.77888204287887E-02 
1432	 6.78113658930679E-02 
1433	 6.78357055685213E-02 
1434	 6.78536388256026E-02 
1435	 0.067859146518493 
1436	 6.78798795040742E-02 
1437	 6.79051334305982E-02 
1438	 6.79291678450825E-02 
1439	 6.79651254645615E-02 
1440	 6.79919109483064E-02 
1441	 6.79984448937432E-02 
1442	 6.80226926268894E-02 
1443	 6.80409977208127E-02 
1444	 6.80540929127572E-02 
1445	 6.80816667811435E-02 
1446	 0.068106019791829 
1447	 6.81301252533523E-02 
1448	 6.81547515648015E-02 
1449	 6.81618996794995E-02 
1450	 6.81664178822081E-02 
1451	 0.068181386594458 
1452	 6.81920599932257E-02 
1453	 6.82131553652511E-02 
1454	 6.82557024255113E-02 
1455	 0.068272160818331 
1456	 6.82824134679171E-02 
1457	 6.82896756361275E-02 
1458	 6.82741312561541E-02 
1459	 6.82851018324474E-02 
1460	 6.83098951899273E-02 
1461	 6.83246975188491E-02 
1462	 0.068347201001692 
1463	 6.83663779034886E-02 
1464	 6.83775599269295E-02 
1465	 6.83947011482843E-02 
1466	 6.84211044121789E-02 
1467	 6.84371030733135E-02 
1468	 0.068440523544191 
1469	 6.84539703250308E-02 
1470	 6.84657878341742E-02 
1471	 6.84895244604893E-02 
1472	 0.068505399329413 
1473	 6.85355200494777E-02 
1474	 6.85574249110745E-02 
1475	 6.85616851359627E-02 
1476	 6.85719942833684E-02 
1477	 6.85782978705462E-02 
1478	 6.85922415153591E-02 
1479	 6.86201082808294E-02 
1480	 6.86410337200716E-02 
1481	 6.86585315940521E-02 
1482	 6.86671547124078E-02 
1483	 6.86551777631398E-02 
1484	 6.86603206384192E-02 
1485	 6.86702574925597E-02 
1486	 6.86839641920018E-02 
1487	 6.87005335992517E-02 
1488	 6.87200553491032E-02 
1489	 0.068746626393182 
1490	 6.87679844048173E-02 
1491	 6.87952044186119E-02 
1492	 6.88143966891774E-02 
1493	 0.068830656124046 
1494	 6.88373620650013E-02 
1495	 6.88280152171992E-02 
1496	 6.88339806164027E-02 
1497	 0.068842855080943 
1498	 6.88478200044949E-02 
1499	 6.88536754690825E-02 
1500	 6.88665357790204E-02 
1501	 6.88907388469586E-02 
1502	 6.88977049942109E-02 
1503	 6.88977102723464E-02 
1504	 6.89040958529019E-02 
1505	 0.068917251278459 
1506	 6.89087454368668E-02 
1507	 6.89162845743111E-02 
1508	 6.89450172783959E-02 
1509	 6.89509442509851E-02 
1510	 6.89523240252154E-02 
1511	 6.89628292394237E-02 
1512	 6.89710858812412E-02 
1513	 6.89758324112818E-02 
1514	 0.068978497369948 
1515	 6.89851056717684E-02 
1516	 6.89964474725452E-02 
1517	 6.90123486841429E-02 
1518	 6.90395342425692E-02 
1519	 6.90462404158829E-02 
1520	 6.90458299678006E-02 
1521	 6.90517234027827E-02 
1522	 6.90441302897783E-02 
1523	 6.90562740939637E-02 
1524	 6.90861226101032E-02 
1525	 6.91058765609058E-02 
1526	 6.91261328577428E-02 
1527	 6.91443807704665E-02 
1528	 6.91686795088139E-02 
1529	 6.91764206936598E-02 
1530	 6.91777063516083E-02 
1531	 0.06917441578132 
1532	 6.91466996769617E-02 
1533	 6.91408494352714E-02 
1534	 6.91407556925054E-02 
1535	 6.91464266910772E-02 
1536	 6.91749030353916E-02 
1537	 6.91867173432928E-02 
1538	 6.91854911006881E-02 
1539	 6.91939154980288E-02 
1540	 6.92051423170477E-02 
1541	 6.92078211248341E-02 
1542	 0.069212831638621 
1543	 6.92225510564268E-02 
1544	 6.92168434296638E-02 
1545	 0.06922395813583 
1546	 6.92506809879366E-02 
1547	 6.92673169610148E-02 
1548	 6.92815393790961E-02 
1549	 0.06930338853227 
1550	 6.93024456285178E-02 
1551	 6.92949954864943E-02 
1552	 6.92720400746708E-02 
1553	 6.92549173060238E-02 
1554	 6.92567962404278E-02 
1555	 6.92701568573973E-02 
1556	 6.92997982486148E-02 
1557	 0.069323283261238 
1558	 6.93355180746334E-02 
1559	 6.93368552939582E-02 
1560	 6.93328963224999E-02 
1561	 6.93132097212745E-02 
1562	 6.93096228944179E-02 
1563	 6.93072873100691E-02 
1564	 6.93075292253639E-02 
1565	 6.93152392091978E-02 
1566	 6.93225228393009E-02 
1567	 6.93270809131267E-02 
1568	 6.93373264942523E-02 
1569	 6.93549568622896E-02 
1570	 6.93686072845165E-02 
1571	 6.93894482196822E-02 
1572	 6.93918912401997E-02 
1573	 6.93842810495756E-02 
1574	 6.93800422727061E-02 
1575	 6.93550759050206E-02 
1576	 6.93547980487162E-02 
1577	 6.93800610191383E-02 
1578	 6.93818846018401E-02 
1579	 6.93741381251441E-02 
1580	 6.93840647720892E-02 
1581	 6.93930698541434E-02 
1582	 6.93963481254293E-02 
1583	 6.94147139605916E-02 
1584	 6.94255188862454E-02 
1585	 6.94234703464768E-02 
1586	 6.94227013628582E-02 
1587	 6.94324365722878E-02 
1588	 6.94260884766699E-02 
1589	 6.93898442676374E-02 
1590	 6.93806478794539E-02 
1591	 6.93813481751532E-02 
1592	 6.93836561227813E-02 
1593	 6.94104421079847E-02 
1594	 6.94186424630574E-02 
1595	 6.94182535345451E-02 
1596	 6.94124851171803E-02 
1597	 6.93858857499828E-02 
1598	 6.93766661670637E-02 
1599	 6.93754564249199E-02 
1600	 6.93709546091692E-02 
1601	 0.069374178352618 
1602	 6.93800266643286E-02 
1603	 0.069380557124667 
1604	 6.93856782380998E-02 
1605	 6.94084726024598E-02 
1606	 6.94137320384632E-02 
1607	 6.94082272312389E-02 
1608	 6.94006629623958E-02 
1609	 0.069394236602503 
1610	 6.93946680468478E-02 
1611	 6.94061839408645E-02 
1612	 6.94293338010476E-02 
1613	 6.94345107830231E-02 
1614	 6.94327969751317E-02 
1615	 6.94355131406415E-02 
1616	 6.94285583954096E-02 
1617	 6.94196169876465E-02 
1618	 6.94287766246698E-02 
1619	 6.94298874413863E-02 
1620	 6.94161983586551E-02 
1621	 6.94116928775343E-02 
1622	 6.94082136529732E-02 
1623	 6.94075759334096E-02 
1624	 0.069408437811565 
1625	 6.94097206689814E-02 
1626	 6.94114845741704E-02 
1627	 6.94195577066931E-02 
1628	 6.94374453905234E-02 
1629	 6.94342057580803E-02 
1630	 6.94273837312793E-02 
1631	 6.94195800846498E-02 
1632	 6.93922711419414E-02 
1633	 6.93833758609533E-02 
1634	 6.93851452134527E-02 
1635	 0.069386169276248 
1636	 6.93892276243984E-02 
1637	 6.93934415271669E-02 
1638	 6.94075281353975E-02 
1639	 6.94075244708188E-02 
1640	 0.069399515994917 
1641	 6.93952731367468E-02 
1642	 6.93884515827959E-02 
1643	 6.93778316519162E-02 
1644	 6.93674685324222E-02 
1645	 6.93550963532095E-02 
1646	 6.93293165930245E-02 
1647	 6.93235951736713E-02 
1648	 6.93293560492459E-02 
1649	 6.93318242716452E-02 
1650	 6.93435139083955E-02 
1651	 6.93496543124912E-02 
1652	 6.93532128073717E-02 
1653	 6.93553201383343E-02 
1654	 6.93616094305288E-02 
1655	 6.93570087528576E-02 
1656	 6.93410299172764E-02 
1657	 6.93336034605893E-02 
1658	 6.93254957838124E-02 
1659	 0.069315262607968 
1660	 6.93062351341921E-02 
1661	 0.069300318632562 
1662	 6.92869519541253E-02 
1663	 0.069287576581623 
1664	 6.93045086455945E-02 
1665	 6.93093010997241E-02 
1666	 0.069319810491994 
1667	 6.93160716720958E-02 
1668	 6.92895264753377E-02 
1669	 6.92905923445751E-02 
1670	 0.0693031377507 
1671	 6.93049442832462E-02 
1672	 6.93233015694489E-02 
1673	 6.93220154907292E-02 
1674	 6.92968886128891E-02 
1675	 6.92846311927584E-02 
1676	 6.92688345857945E-02 
1677	 0.069265690202189 
1678	 6.92720288846034E-02 
1679	 6.92732503625766E-02 
1680	 6.92846767061754E-02 
1681	 6.92860814945443E-02 
1682	 6.92764985564719E-02 
1683	 6.92742193680187E-02 
1684	 0.069277633628204 
1685	 6.92693442779478E-02 
1686	 6.92511286966295E-02 
1687	 6.92457915165192E-02 
1688	 6.92360657866466E-02 
1689	 0.069237514033007 
1690	 6.92638047607653E-02 
1691	 6.92646046332781E-02 
1692	 6.92487481558275E-02 
1693	 6.92488074696649E-02 
1694	 6.92539843061579E-02 
1695	 6.92427905430554E-02 
1696	 6.92233735823262E-02 
1697	 0.069222397242876 
1698	 6.92168745480616E-02 
1699	 6.92131902567247E-02 
1700	 6.92350333157421E-02 
1701	 6.92385204912463E-02 
1702	 6.92160113538058E-02 
1703	 6.92141732681944E-02 
1704	 6.92308896229943E-02 
1705	 6.92287104984832E-02 
1706	 6.92202127634086E-02 
1707	 0.069215637787377 
1708	 6.92022704096301E-02 
1709	 6.91951513022379E-02 
1710	 6.91922734043258E-02 
1711	 6.91941056195632E-02 
1712	 6.91991008092119E-02 
1713	 6.92004754156852E-02 
1714	 6.92031080174675E-02 
1715	 6.92136638835583E-02 
1716	 6.92362007451879E-02 
1717	 6.92304966691219E-02 
1718	 6.92153218493168E-02 
1719	 0.069206724734491 
1720	 0.06916814199132 
1721	 6.91635472098643E-02 
1722	 6.91971440421771E-02 
1723	 6.92019059991612E-02 
1724	 6.91983285368724E-02 
1725	 6.92022796610154E-02 
1726	 6.92035363194767E-02 
1727	 6.91972022975338E-02 
1728	 6.91946525617256E-02 
1729	 6.91857041283338E-02 
1730	 6.91589697542686E-02 
1731	 6.91486346813336E-02 
1732	 6.91512354007442E-02 
1733	 6.91448675288417E-02 
1734	 6.91339943024679E-02 
1735	 6.91272745240038E-02 
1736	 6.91294928677154E-02 
1737	 6.91085968919855E-02 
1738	 6.90788023321206E-02 
1739	 6.90536349675124E-02 
1740	 6.90032532196619E-02 
1741	 6.89875999540536E-02 
1742	 6.89924821050468E-02 
1743	 0.068998564567048 
1744	 6.90259536599079E-02 
1745	 6.90253561526872E-02 
1746	 0.069019915802255 
1747	 6.89937370553464E-02 
1748	 6.89736183629987E-02 
1749	 6.89901028259302E-02 
1750	 6.89795166348439E-02 
1751	 6.89599889747066E-02 
1752	 6.89573895538725E-02 
1753	 6.89318097806978E-02 
1754	 6.89058707256159E-02 
1755	 6.88802858197221E-02 
1756	 6.88570701333817E-02 
1757	 6.88398939990433E-02 
1758	 6.88298401179453E-02 
1759	 6.88458215200525E-02 
1760	 6.88450007436363E-02 
1761	 6.88355351040219E-02 
1762	 0.068846159983441 
1763	 6.88495189852056E-02 
1764	 6.88443057838766E-02 
1765	 0.068840103359008 
1766	 6.88193615859335E-02 
1767	 6.87823561818054E-02 
1768	 0.068769787165449 
1769	 6.87499943054693E-02 
1770	 6.87189300093629E-02 
1771	 6.87207040306075E-02 
1772	 6.87116051194114E-02 
1773	 6.86924157242418E-02 
1774	 6.86874276303859E-02 
1775	 6.86893027882899E-02 
1776	 0.068689637398806 
1777	 6.86866400842101E-02 
1778	 6.86829846304413E-02 
1779	 6.86520391194701E-02 
1780	 6.86149401427208E-02 
1781	 6.86032553206551E-02 
1782	 6.85855999318378E-02 
1783	 6.85850710308778E-02 
1784	 6.85762658367793E-02 
1785	 6.85575228857816E-02 
1786	 6.85540799427593E-02 
1787	 6.85486715038178E-02 
1788	 6.85509984984452E-02 
1789	 6.85797043027366E-02 
1790	 6.85752082553633E-02 
1791	 6.85561573038565E-02 
1792	 6.85464041124723E-02 
1793	 6.85181199694486E-02 
1794	 0.06850634758435 
1795	 6.85110482781812E-02 
1796	 6.85083993940655E-02 
1797	 6.85061204572256E-02 
1798	 6.85034827574594E-02 
1799	 6.85053790623887E-02 
1800	 6.84898789351714E-02 
1801	 6.58519473475081E-02 
1802	 0.065927219167104 
1803	 6.60028213782248E-02 
1804	 6.60576839330199E-02 
1805	 6.61219329022101E-02 
1806	 6.62074736905427E-02 
1807	 6.62835327523918E-02 
1808	 6.63416328460234E-02 
1809	 0.066401726321566 
1810	 0.066439708259719 
1811	 6.64497066112964E-02 
1812	 6.64622829342928E-02 
1813	 0.066473915071552 
1814	 0.066493448859904 
1815	 6.65181887422507E-02 
1816	 0.066539386555197 
1817	 6.65534542020614E-02 
1818	 6.65632791881522E-02 
1819	 6.65723992608617E-02 
1820	 0.0665792900081 
1821	 6.65739016397601E-02 
1822	 6.65916153158475E-02 
1823	 6.65820872053127E-02 
1824	 6.65646551779271E-02 
1825	 0.066576213784189 
1826	 6.65623219168836E-02 
1827	 6.65522576651241E-02 
1828	 0.066544419173312 
1829	 0.066531514718937 
1830	 6.65279735592013E-02 
1831	 6.65321982424393E-02 
1832	 0.066535110415258 
1833	 6.65341968120373E-02 
1834	 6.65244535090822E-02 
1835	 0.066495554552727 
1836	 6.64821362858099E-02 
1837	 6.64915340105945E-02 
1838	 6.65309887475379E-02 
1839	 6.65615171452059E-02 
1840	 6.66121186319957E-02 
1841	 6.66371656147721E-02 
1842	 6.66430610935784E-02 
1843	 6.66355636215587E-02 
1844	 0.066637920691553 
1845	 6.66704989615359E-02 
1846	 6.67447494780759E-02 
1847	 6.67981246125466E-02 
1848	 6.68375736738001E-02 
1849	 6.68885562209103E-02 
1850	 6.69118205828753E-02 
1851	 6.68986768970191E-02 
1852	 6.69075969906562E-02 
1853	 6.69350770829949E-02 
1854	 6.69481780597939E-02 
1855	 6.69800063137746E-02 
1856	 6.70165895286656E-02 
1857	 6.70378673313227E-02 
1858	 6.70507395351972E-02 
1859	 6.70618096458777E-02 
1860	 6.70617111215531E-02 
1861	 6.70549806227628E-02 
1862	 6.70390463867859E-02 
1863	 0.067002286250105 
1864	 6.69829009057459E-02 
1865	 6.69718611474422E-02 
1866	 6.69212772091032E-02 
1867	 6.68862100206598E-02 
1868	 6.68425525809178E-02 
1869	 6.67828651911536E-02 
1870	 6.67589701774062E-02 
1871	 6.67574717490474E-02 
1872	 0.066783358373041 
1873	 0.06681786234804 
1874	 0.066851642462486 
1875	 6.69054066516742E-02 
1876	 6.69558442917289E-02 
1877	 6.70036110436419E-02 
1878	 0.067058185270605 
1879	 6.70866446206236E-02 
1880	 6.71044275263276E-02 
1881	 0.067096517234694 
1882	 6.70949077841362E-02 
1883	 6.70853260663459E-02 
1884	 6.70840521205516E-02 
1885	 6.70756238144775E-02 
1886	 0.067044564845619 
1887	 6.69937267072661E-02 
1888	 6.69506316153296E-02 
1889	 6.68895980840497E-02 
1890	 6.68613624111396E-02 
1891	 6.68388576589904E-02 
1892	 0.066832940728906 
1893	 6.68046353874713E-02 
1894	 6.67854422993436E-02 
1895	 6.67528596669722E-02 
1896	 6.66990189228715E-02 
1897	 6.66534895246033E-02 
1898	 6.65984515843184E-02 
1899	 6.65245005949596E-02 
1900	 6.64283917572242E-02 
1901	 6.63498787921799E-02 
1902	 6.62907363663642E-02 
1903	 6.62488667554375E-02 
1904	 6.62019684956924E-02 
1905	 6.61675077694905E-02 
1906	 6.61427533107606E-02 
1907	 6.61136291709628E-02 
1908	 6.60859238806421E-02 
1909	 6.60634202899433E-02 
1910	 6.60408024038921E-02 
1911	 6.60040062532601E-02 
1912	 6.59621811865818E-02 
1913	 6.59180422266022E-02 
1914	 6.58625962494939E-02 
1915	 6.58206523372284E-02 
1916	 6.57767157769976E-02 
1917	 6.57393619837513E-02 
1918	 0.065720029334107 
1919	 6.57238994551425E-02 
1920	 6.57271466032332E-02 
1921	 6.57303901423656E-02 
1922	 6.57393081830681E-02 
1923	 6.57483789359441E-02 
1924	 6.57569563099584E-02 
1925	 0.065770111218738 
1926	 6.57770306746007E-02 
1927	 6.57863181779924E-02 
1928	 6.57812554729405E-02 
1929	 6.57718136811958E-02 
1930	 6.57742579293972E-02 
1931	 6.57664624035094E-02 
1932	 0.065750196005285 
1933	 6.57568009841559E-02 
1934	 6.57623962362195E-02 
1935	 0.065773746795022 
1936	 6.58084514979205E-02 
1937	 6.58302631201158E-02 
1938	 6.58528445626141E-02 
1939	 6.58577379990155E-02 
1940	 6.58545068135562E-02 
1941	 6.58379105421976E-02 
1942	 0.065814616264296 
1943	 6.58129550675233E-02 
1944	 6.58379650633313E-02 
1945	 6.58774645270197E-02 
1946	 6.59003530993485E-02 
1947	 6.59338549656637E-02 
1948	 6.59525987330748E-02 
1949	 6.59446398425159E-02 
1950	 0.065950785938383 
1951	 6.59670100064989E-02 
1952	 6.59715656277751E-02 
1953	 6.59630454902973E-02 
1954	 0.065983690593613 
1955	 6.59984354868808E-02 
1956	 0.066019561023558 
1957	 6.60420311726336E-02 
1958	 6.60780112660338E-02 
1959	 6.60955967983285E-02 
1960	 6.61000920696089E-02 
1961	 6.61167032090594E-02 
1962	 6.61318339927708E-02 
1963	 6.61570552371073E-02 
1964	 0.066201571905905 
1965	 6.62278662335889E-02 
1966	 0.066244266434517 
1967	 6.62634704743944E-02 
1968	 6.62990382758755E-02 
1969	 6.63410116286492E-02 
1970	 6.63791120547003E-02 
1971	 6.64348339529984E-02 
1972	 6.64776489708186E-02 
1973	 6.65155367753885E-02 
1974	 6.65431694921965E-02 
1975	 6.65631179822624E-02 
1976	 6.65830414428832E-02 
1977	 6.66084129427431E-02 
1978	 6.66199030376027E-02 
1979	 6.66644719033599E-02 
1980	 6.67237176195681E-02 
1981	 6.67608475259909E-02 
1982	 6.67940728146624E-02 
1983	 6.68253276442713E-02 
1984	 6.68426562603732E-02 
1985	 6.68621512976474E-02 
1986	 6.68797411021015E-02 
1987	 6.68997665192407E-02 
1988	 6.69115446830313E-02 
1989	 6.69362333224069E-02 
1990	 6.69719400754558E-02 
1991	 6.70064352144657E-02 
1992	 6.70352308027384E-02 
1993	 6.70669142419316E-02 
1994	 6.70914615651124E-02 
1995	 0.067102729040506 
1996	 6.71273638878478E-02 
1997	 0.067151712043482 
1998	 6.71845594691749E-02 
1999	 6.72389291030612E-02 
2000	 0.067271548277508 
2001	 6.72879460460213E-02 
2002	 6.73213400150257E-02 
2003	 0.067352660357924 
2004	 0.0673795009666 
2005	 6.74076260570685E-02 
2006	 6.74503311182905E-02 
2007	 6.74771987416793E-02 
2008	 6.74820017158757E-02 
2009	 6.75075126085603E-02 
2010	 0.067535353825581 
2011	 6.75736536112324E-02 
2012	 6.76347962932806E-02 
2013	 6.76804092698975E-02 
2014	 6.77256644870207E-02 
2015	 6.77679178848658E-02 
2016	 6.78066888926103E-02 
2017	 6.78465874638548E-02 
2018	 6.78832711860998E-02 
2019	 6.79248561578681E-02 
2020	 6.79596983404451E-02 
2021	 6.79828614802516E-02 
2022	 0.068013134686018 
2023	 6.80445650085862E-02 
2024	 6.80793557809263E-02 
2025	 6.81154899477878E-02 
2026	 6.81559452426119E-02 
2027	 0.068197707586996 
2028	 0.068251204280681 
2029	 0.068290405087911 
2030	 6.83241391269421E-02 
2031	 6.83575733791092E-02 
2032	 6.83872916346912E-02 
2033	 6.84133027561923E-02 
2034	 6.84398499037287E-02 
2035	 6.84662213615012E-02 
2036	 6.84815207593854E-02 
2037	 6.85056058206217E-02 
2038	 6.85398769849148E-02 
2039	 6.85646048115446E-02 
2040	 6.85877907808246E-02 
2041	 6.86122173563187E-02 
2042	 0.068612840322888 
2043	 6.86246856764034E-02 
2044	 6.86470458845878E-02 
2045	 6.86740511860503E-02 
2046	 6.87023947674872E-02 
2047	 6.87495711108927E-02 
2048	 6.87789872073646E-02 
2049	 0.068795131042814 
2050	 6.88196025005871E-02 
2051	 6.88471789707388E-02 
2052	 6.88695331259721E-02 
2053	 6.88925002615733E-02 
2054	 6.89141784964015E-02 
2055	 6.89321599441424E-02 
2056	 6.89408487845914E-02 
2057	 6.89651974612723E-02 
2058	 6.90023703086571E-02 
2059	 6.90234818805615E-02 
2060	 6.90484527132427E-02 
2061	 6.90635193849608E-02 
2062	 6.90570505292884E-02 
2063	 6.90682730697985E-02 
2064	 6.90827555565371E-02 
2065	 6.90993581346646E-02 
2066	 6.91311150371233E-02 
2067	 6.91514072021326E-02 
2068	 0.069157870281429 
2069	 6.91785737816902E-02 
2070	 6.92024291864695E-02 
2071	 6.92294077014214E-02 
2072	 6.92437832281878E-02 
2073	 6.92561110704078E-02 
2074	 6.92834066511466E-02 
2075	 6.93053657907039E-02 
2076	 6.93322289554225E-02 
2077	 0.069387797385735 
2078	 6.94155140755258E-02 
2079	 6.94198430713937E-02 
2080	 6.94362002458799E-02 
2081	 6.94449138833279E-02 
2082	 6.94636057578018E-02 
2083	 6.94933938368283E-02 
2084	 6.95174133603951E-02 
2085	 6.95447027853646E-02 
2086	 6.95807868976527E-02 
2087	 6.96010113909813E-02 
2088	 6.96098680723519E-02 
2089	 6.96302328781288E-02 
2090	 6.96476458263267E-02 
2091	 6.96692871527548E-02 
2092	 6.97040619297949E-02 
2093	 6.97284649640178E-02 
2094	 6.97394819784869E-02 
2095	 6.97634989553044E-02 
2096	 6.98004686738626E-02 
2097	 6.98216350802641E-02 
2098	 6.98363510580632E-02 
2099	 6.98676290508592E-02 
2100	 6.98663048898756E-02 
2101	 0.069825289028784 
2102	 6.98432088086983E-02 
2103	 6.98785039369184E-02 
2104	 6.99007687535297E-02 
2105	 6.99528205479263E-02 
2106	 0.069985820014978 
2107	 6.99889352338005E-02 
2108	 7.00117711327027E-02 
2109	 7.00546036033754E-02 
2110	 7.00859427975371E-02 
2111	 7.01135178752265E-02 
2112	 7.01388590889445E-02 
2113	 7.01582445049801E-02 
2114	 7.01762905936028E-02 
2115	 7.02149598756073E-02 
2116	 0.070267123652244 
2117	 7.03026205422089E-02 
2118	 7.03524354851313E-02 
2119	 7.03803828123312E-02 
2120	 7.03827492078432E-02 
2121	 7.03971888516004E-02 
2122	 7.04168763892445E-02 
2123	 7.04261996844494E-02 
2124	 7.04162220541588E-02 
2125	 7.04284613676788E-02 
2126	 7.04453578320862E-02 
2127	 7.04657821619927E-02 
2128	 7.05197828413264E-02 
2129	 7.05453367702439E-02 
2130	 7.05300276220048E-02 
2131	 7.05530192600102E-02 
2132	 7.05767598941713E-02 
2133	 0.070604496390401 
2134	 7.06168482523576E-02 
2135	 7.06413130007854E-02 
2136	 0.070651891788877 
2137	 7.06389094903291E-02 
2138	 7.06333301603806E-02 
2139	 0.070640054128657 
2140	 7.06319413986581E-02 
2141	 7.06058988767224E-02 
2142	 7.05840696448839E-02 
2143	 7.05618030255693E-02 
2144	 7.05376699714356E-02 
2145	 7.05093228461643E-02 
2146	 7.04806164941205E-02 
2147	 7.04482485205979E-02 
2148	 7.04253423747319E-02 
2149	 7.03846601571191E-02 
2150	 7.03333281277264E-02 
2151	 7.02935814616723E-02 
2152	 7.02441176713115E-02 
2153	 7.02096923020058E-02 
2154	 7.01982566655708E-02 
2155	 7.01656081163715E-02 
2156	 7.01340362911293E-02 
2157	 7.00855013817938E-02 
2158	 7.00126036994456E-02 
2159	 6.99541650724011E-02 
2160	 6.98970260333325E-02 
2161	 6.98358607232771E-02 
2162	 6.97744005069643E-02 
2163	 6.97165539995348E-02 
2164	 6.96640020922546E-02 
2165	 6.95902326345812E-02 
2166	 6.95341618549697E-02 
2167	 6.94910112443258E-02 
2168	 0.069436632974989 
2169	 6.93812380742736E-02 
2170	 6.93225041927739E-02 
2171	 6.92561488409038E-02 
2172	 6.91984066307732E-02 
2173	 6.91380018547187E-02 
2174	 6.90855560718372E-02 
2175	 6.90389350259635E-02 
2176	 6.89975559946098E-02 
2177	 0.068972216909714 
2178	 6.89315123465652E-02 
2179	 6.88838103462786E-02 
2180	 6.88415954599812E-02 
2181	 6.87987589537796E-02 
2182	 6.87475385460519E-02 
2183	 6.86886570874806E-02 
2184	 6.86492895932194E-02 
2185	 6.85895557416996E-02 
2186	 6.85060607819996E-02 
2187	 6.84530854523379E-02 
2188	 0.068406392005405 
2189	 6.83639758770744E-02 
2190	 6.83362176858972E-02 
2191	 6.83085162067596E-02 
2192	 6.82871920529803E-02 
2193	 6.82610814628097E-02 
2194	 6.82461071013534E-02 
2195	 0.068213019126609 
2196	 6.81557256574288E-02 
2197	 6.81194935270676E-02 
2198	 6.80797802774437E-02 
2199	 6.80539830959419E-02 
2200	 6.80410643568505E-02 
2201	 6.80386785469558E-02 
2202	 0.068065229457263 
2203	 6.80735009573581E-02 
2204	 6.80590636904312E-02 
2205	 6.80390681106257E-02 
2206	 6.80138326184555E-02 
2207	 6.79496509648996E-02 
2208	 6.79235022644855E-02 
2209	 6.79260721377336E-02 
2210	 6.79115583904618E-02 
2211	 6.78874134798732E-02 
2212	 6.78805247067077E-02 
2213	 6.78764020144379E-02 
2214	 6.78780355584473E-02 
2215	 6.79010678505484E-02 
2216	 6.79119792736843E-02 
2217	 6.79192738492413E-02 
2218	 6.79257373118664E-02 
2219	 6.79322268114539E-02 
2220	 6.79336684106161E-02 
2221	 6.79302938325716E-02 
2222	 6.79266837191919E-02 
2223	 6.79185706777999E-02 
2224	 6.79251237607045E-02 
2225	 6.79244835753365E-02 
2226	 6.79241667242728E-02 
2227	 6.79293341153451E-02 
2228	 6.79332093414998E-02 
2229	 6.79419803496731E-02 
2230	 6.79650015256659E-02 
2231	 6.79762210816091E-02 
2232	 6.79776083023751E-02 
2233	 6.79886180498567E-02 
2234	 6.80075363859577E-02 
2235	 6.80120398813877E-02 
2236	 6.80037545293854E-02 
2237	 6.80168721780137E-02 
2238	 6.80423959298554E-02 
2239	 6.80475667280449E-02 
2240	 0.068058565431806 
2241	 6.80676627101534E-02 
2242	 6.80296846271959E-02 
2243	 6.80379977678972E-02 
2244	 6.81004148419802E-02 
2245	 6.81352098031074E-02 
2246	 6.81570782192291E-02 
2247	 6.81875632907062E-02 
2248	 6.81803482099826E-02 
2249	 6.81270519327591E-02 
2250	 6.81045410307506E-02 
2251	 6.80617437199892E-02 
2252	 6.80674791918237E-02 
2253	 0.068098478133729 
2254	 6.81315971053863E-02 
2255	 6.82113271880755E-02 
2256	 6.82495932870372E-02 
2257	 6.82635410364101E-02 
2258	 0.068294600837026 
2259	 6.83396455016201E-02 
2260	 6.83477683884286E-02 
2261	 6.83367913934092E-02 
2262	 6.83341727515623E-02 
2263	 6.82800154974101E-02 
2264	 6.82804550269913E-02 
2265	 6.83412314395564E-02 
2266	 6.83748201715016E-02 
2267	 6.84203876239135E-02 
2268	 6.84511136532953E-02 
2269	 6.84685065496511E-02 
2270	 6.84740840008102E-02 
2271	 6.84636339384943E-02 
2272	 6.84821231807848E-02 
2273	 6.85140600876329E-02 
2274	 6.84974748129523E-02 
2275	 6.85074337800853E-02 
2276	 6.85397013742384E-02 
2277	 6.85397816439747E-02 
2278	 6.85169777101059E-02 
2279	 6.85264966775996E-02 
2280	 6.85266236865821E-02 
2281	 6.85464284866155E-02 
2282	 6.86008402805507E-02 
2283	 6.86291880260277E-02 
2284	 6.86571971452496E-02 
2285	 6.86748706761176E-02 
2286	 6.86737722562106E-02 
2287	 6.86936503931509E-02 
2288	 6.87188373291851E-02 
2289	 6.87418330877719E-02 
2290	 6.87770205794101E-02 
2291	 6.88031170473732E-02 
2292	 6.88404275375589E-02 
2293	 0.068844432550366 
2294	 6.88047872880266E-02 
2295	 6.88026803624436E-02 
2296	 6.88096320507022E-02 
2297	 6.87889310048003E-02 
2298	 6.88083477475957E-02 
2299	 6.88432663022585E-02 
2300	 6.88421435652245E-02 
2301	 0.068816103523645 
2302	 6.88329547722806E-02 
2303	 6.88728095083215E-02 
2304	 6.88471664614766E-02 
2305	 6.88620856475769E-02 
2306	 6.88955372976117E-02 
2307	 6.89161512779159E-02 
2308	 6.89511666252635E-02 
2309	 6.90505474799308E-02 
2310	 6.90859593020654E-02 
2311	 6.90778408955018E-02 
2312	 0.069080834747273 
2313	 6.90617254251159E-02 
2314	 6.90852853629374E-02 
2315	 6.91353154673108E-02 
2316	 6.91529263926626E-02 
2317	 6.91868947957738E-02 
2318	 6.92025706662228E-02 
2319	 6.91616414793833E-02 
2320	 6.91686749833119E-02 
2321	 6.92227139724337E-02 
2322	 6.92419640230879E-02 
2323	 6.92534338469536E-02 
2324	 6.92655770953472E-02 
2325	 6.92501985138583E-02 
2326	 6.92572979788494E-02 
2327	 6.92613047328758E-02 
2328	 6.93155560831513E-02 
2329	 6.93747318508709E-02 
2330	 6.94123288434208E-02 
2331	 6.94394947360623E-02 
2332	 6.94442229226045E-02 
2333	 6.94152982802099E-02 
2334	 6.94013709029668E-02 
2335	 6.94354175108565E-02 
2336	 0.069474235503268 
2337	 6.95023020285739E-02 
2338	 6.95200791155146E-02 
2339	 6.95207123634437E-02 
2340	 6.95292169653708E-02 
2341	 6.95651985975908E-02 
2342	 6.96215446112608E-02 
2343	 6.96746321992566E-02 
2344	 6.96760127470767E-02 
2345	 6.97092069512423E-02 
2346	 6.97622252664632E-02 
2347	 6.97898241749503E-02 
2348	 6.98266210658909E-02 
2349	 6.98282687184953E-02 
2350	 6.97782461475195E-02 
2351	 6.97594883402096E-02 
2352	 0.069740806062776 
2353	 0.069716556988715 
2354	 6.96848130168468E-02 
2355	 6.96889905623222E-02 
2356	 6.97149363003832E-02 
2357	 6.97351432310632E-02 
2358	 0.069803136331333 
2359	 6.98048680560799E-02 
2360	 0.069715134830598 
2361	 6.97048753996375E-02 
2362	 6.97320376528018E-02 
2363	 6.97482286696725E-02 
2364	 6.98289447859937E-02 
2365	 6.98391362403809E-02 
2366	 6.97730373433477E-02 
2367	 6.97407402304994E-02 
2368	 0.069682132386278 
2369	 6.96480657487436E-02 
2370	 6.96258685795089E-02 
2371	 6.96597959984596E-02 
2372	 6.96148917429809E-02 
2373	 6.96532711438066E-02 
2374	 0.06974015838519 
2375	 6.97349093010004E-02 
2376	 0.069722060675207 
2377	 0.069780161383958 
2378	 6.97982754194303E-02 
2379	 6.97990291124529E-02 
2380	 6.98795370905701E-02 
2381	 6.98766762306306E-02 
2382	 6.98883869989737E-02 
2383	 6.99120346947805E-02 
2384	 6.98352916824739E-02 
2385	 6.98510559084952E-02 
2386	 0.069808112800526 
2387	 6.97218724026739E-02 
2388	 6.97631360313827E-02 
2389	 0.069773284188034 
2390	 6.98311111728124E-02 
2391	 6.98624188765709E-02 
2392	 6.98063654607537E-02 
2393	 6.98132080849634E-02 
2394	 6.97294629538055E-02 
2395	 6.96942897065736E-02 
2396	 6.97787609584972E-02 
2397	 6.97936442767604E-02 
2398	 6.98331420187542E-02 
2399	 6.98014553260236E-02 
2400	 6.97015836861218E-02 
2401	 0.069655031484593 
2402	 6.96189153390355E-02 
2403	 6.96371224505816E-02 
2404	 6.96669263607178E-02 
2405	 6.96474491940836E-02 
2406	 6.96476581133869E-02 
2407	 6.96952410974157E-02 
2408	 6.96905027142143E-02 
2409	 6.96508732463741E-02 
2410	 0.069666876101492 
2411	 6.96600579606993E-02 
2412	 0.069692635457114 
2413	 6.97179845236463E-02 
2414	 6.96524170852404E-02 
2415	 6.96076321240719E-02 
2416	 6.95575787470302E-02 
2417	 0.069482413096137 
2418	 6.94711353743371E-02 
2419	 6.94648171918017E-02 
2420	 6.94686953117881E-02 
2421	 6.95619489175919E-02 
2422	 6.95757615312194E-02 
2423	 6.95722377927141E-02 
2424	 6.95331496714864E-02 
2425	 6.93833788309724E-02 
2426	 6.93487338286254E-02 
2427	 6.93777677118675E-02 
2428	 6.93776064791856E-02 
2429	 6.94211352262068E-02 
2430	 6.93875305103853E-02 
2431	 0.069254375569055 
2432	 6.92446582969426E-02 
2433	 6.93204719705394E-02 
2434	 6.93389664526288E-02 
2435	 0.069428806737191 
2436	 6.93899014642352E-02 
2437	 6.91346428300562E-02 
2438	 0.069133080547473 
2439	 6.92647270272861E-02 
2440	 6.92722055120164E-02 
2441	 6.93872909751462E-02 
2442	 6.93891532319816E-02 
2443	 6.91939596229847E-02 
2444	 6.91281409591314E-02 
2445	 6.90765974291719E-02 
2446	 0.069109398892591 
2447	 6.92918197380155E-02 
2448	 6.93239482039154E-02 
2449	 6.93345757342684E-02 
2450	 6.93401373327401E-02 
2451	 6.92175758631336E-02 
2452	 6.91346112226142E-02 
2453	 6.91122947711165E-02 
2454	 6.90907990873858E-02 
2455	 0.069056906650962 
2456	 0.069010952092179 
2457	 6.89676404765084E-02 
2458	 6.89830508527195E-02 
2459	 0.069033043631568 
2460	 6.90012462622182E-02 
2461	 0.068977785317132 
2462	 6.88853085834099E-02 
2463	 6.86609820666535E-02 
2464	 6.86083409941084E-02 
2465	 0.068639348011336 
2466	 6.86314598741074E-02 
2467	 6.86520771065413E-02 
2468	 6.85973220091992E-02 
2469	 6.85115078387758E-02 
2470	 6.84908703509242E-02 
2471	 6.85072329401606E-02 
2472	 6.85591496919957E-02 
2473	 6.85443546663072E-02 
2474	 6.85420884410575E-02 
2475	 6.85263687036672E-02 
2476	 6.84570032080336E-02 
2477	 6.84268426396168E-02 
2478	 6.84768153283731E-02 
2479	 6.84394924934587E-02 
2480	 6.83527856804936E-02 
2481	 6.82938938380874E-02 
2482	 6.82313604912835E-02 
2483	 6.82991606606784E-02 
2484	 6.84922442794575E-02 
2485	 6.86410080005696E-02 
2486	 6.86005362208463E-02 
2487	 6.84615038499029E-02 
2488	 6.83628002742963E-02 
2489	 6.82825438371973E-02 
2490	 6.81878025857526E-02 
2491	 6.81103784423325E-02 
2492	 6.81698569356411E-02 
2493	 6.82866076495549E-02 
2494	 6.84091279296389E-02 
2495	 6.85147670649517E-02 
2496	 6.85158450274184E-02 
2497	 6.84289392920339E-02 
2498	 6.83590968691203E-02 
2499	 6.84724173876132E-02 
2500	 6.85257812277449E-02 
