Wavelength	LMW_13_a00009.asd
350	 4.54458334188197E-02 
351	 5.46907718245108E-02 
352	 5.32888505712281E-02 
353	 3.91882536467701E-02 
354	 4.47718350799993E-02 
355	 4.91678289375291E-02 
356	 4.91239458861008E-02 
357	 4.70711863634874E-02 
358	 4.93372331976654E-02 
359	 4.54352547206768E-02 
360	 3.94309915087303E-02 
361	 0.043260281219205 
362	 4.38199948202923E-02 
363	 4.23109168588496E-02 
364	 4.09236719066618E-02 
365	 4.03104509866711E-02 
366	 4.07656769849829E-02 
367	 4.19387581713357E-02 
368	 4.33098895316978E-02 
369	 4.47308418059379E-02 
370	 4.54213246937462E-02 
371	 4.59626323692256E-02 
372	 4.73401250975159E-02 
373	 4.37162361585278E-02 
374	 4.32010711751961E-02 
375	 4.81886881045624E-02 
376	 4.86110758920031E-02 
377	 0.045211760727797 
378	 4.35418232638808E-02 
379	 4.73645306790185E-02 
380	 4.62440052363733E-02 
381	 4.28660759685065E-02 
382	 4.22365006914879E-02 
383	 4.92665257977735E-02 
384	 5.00411642264401E-02 
385	 0.047435767685027 
386	 4.61983147001241E-02 
387	 0.050075970635183 
388	 5.14925966293268E-02 
389	 5.12129914867543E-02 
390	 0.051849842361718 
391	 5.04689601477837E-02 
392	 5.05944658719352E-02 
393	 5.27077038640208E-02 
394	 5.45066730990141E-02 
395	 5.48651105443342E-02 
396	 5.55593713621165E-02 
397	 5.71729426796434E-02 
398	 5.63866245930242E-02 
399	 5.73134837707973E-02 
400	 5.96156911357182E-02 
401	 6.11126814640842E-02 
402	 0.059425362559339 
403	 5.91261193464028E-02 
404	 0.061092246281814 
405	 0.062169435759164 
406	 6.31447633984121E-02 
407	 6.38616703201627E-02 
408	 6.39660501453865E-02 
409	 6.26789009657574E-02 
410	 6.22395808672291E-02 
411	 6.29145704493906E-02 
412	 6.38536618823454E-02 
413	 6.39422726981525E-02 
414	 6.36754706611475E-02 
415	 0.063397522272663 
416	 6.30472491083021E-02 
417	 6.24439304792847E-02 
418	 6.22316026254112E-02 
419	 6.25714810075005E-02 
420	 6.13231187887301E-02 
421	 6.03341258135265E-02 
422	 0.060096833829196 
423	 6.01082118300555E-02 
424	 0.05971442260396 
425	 5.92355259409477E-02 
426	 5.88207228268025E-02 
427	 0.057991543467631 
428	 5.76190108240457E-02 
429	 5.75882607283826E-02 
430	 5.74587722340816E-02 
431	 5.68866882556249E-02 
432	 0.056799431850361 
433	 5.73232913047937E-02 
434	 5.77757550387237E-02 
435	 5.78064744591731E-02 
436	 5.82664027362245E-02 
437	 5.94716918341141E-02 
438	 5.96347840942672E-02 
439	 6.04326033800915E-02 
440	 6.17491060964804E-02 
441	 6.26772204198225E-02 
442	 0.063818422246289 
443	 6.48419729264658E-02 
444	 6.56197303591591E-02 
445	 6.64350602460611E-02 
446	 0.067421795600271 
447	 6.85012483045844E-02 
448	 6.95354498269465E-02 
449	 7.04763942766166E-02 
450	 7.14279839821634E-02 
451	 7.24897496612948E-02 
452	 7.37318031781282E-02 
453	 7.48449758581999E-02 
454	 7.57180098484224E-02 
455	 7.64626162996778E-02 
456	 7.76872871539214E-02 
457	 7.84560509242073E-02 
458	 7.90036891047254E-02 
459	 8.00031408777535E-02 
460	 0.081004686732875 
461	 8.18982675282988E-02 
462	 8.26496811366133E-02 
463	 8.32710749279419E-02 
464	 8.42465651445279E-02 
465	 0.085367862975851 
466	 8.62852077027189E-02 
467	 8.69479598052251E-02 
468	 8.76479356307314E-02 
469	 8.85388683940972E-02 
470	 8.96190529402866E-02 
471	 9.04948246957702E-02 
472	 9.11433144187618E-02 
473	 9.17033124761604E-02 
474	 9.25162629199337E-02 
475	 9.33190063687006E-02 
476	 9.39951666230044E-02 
477	 9.45421691671562E-02 
478	 9.52888092606919E-02 
479	 9.60273493678151E-02 
480	 9.66796475171597E-02 
481	 9.74144386881144E-02 
482	 9.80972673293163E-02 
483	 9.86908091482944E-02 
484	 9.92046321412318E-02 
485	 9.97308475029883E-02 
486	 0.100119289264356 
487	 0.100423766891057 
488	 0.100868408290246 
489	 0.101518806499817 
490	 0.102127093410827 
491	 0.102507643567794 
492	 0.102756013881185 
493	 0.102887483992209 
494	 0.103089888122864 
495	 0.103557716241632 
496	 0.103939542534414 
497	 0.104108077673135 
498	 0.104165326326881 
499	 0.104509829474761 
500	 0.104826500483326 
501	 0.105082335844491 
502	 0.105317613494084 
503	 0.105535241399849 
504	 0.105625885743018 
505	 0.105662484697494 
506	 0.105872072052321 
507	 0.106123656413166 
508	 0.106237403032962 
509	 0.106185064114802 
510	 0.106362672081202 
511	 0.106510415723843 
512	 0.106595205519776 
513	 0.106692446382897 
514	 0.106694264498879 
515	 0.106756059715761 
516	 0.106914430478723 
517	 0.106961973150356 
518	 0.10698135845691 
519	 0.106949295837059 
520	 0.106861184522811 
521	 0.106954510696185 
522	 0.107091300398219 
523	 0.107177881870402 
524	 0.107193356954661 
525	 0.107277181440595 
526	 0.107363218508775 
527	 0.107393640859522 
528	 0.107497764932561 
529	 0.107566737370079 
530	 0.107600565755658 
531	 0.107669443351936 
532	 0.107754364831768 
533	 0.107890357047115 
534	 0.10803380673759 
535	 0.107939202757055 
536	 0.10793880032341 
537	 0.108063026541353 
538	 0.108208808025924 
539	 0.108264175917179 
540	 0.10835020988763 
541	 0.108520053474571 
542	 0.108714908812162 
543	 0.108825952325465 
544	 0.108893534539885 
545	 0.109002769733609 
546	 0.109234588554851 
547	 0.109393852146333 
548	 0.10947848460758 
549	 0.109647198218427 
550	 0.10975302449195 
551	 0.109823658834532 
552	 0.109936702488725 
553	 0.11023875847555 
554	 0.110431325603713 
555	 0.110555657792964 
556	 0.110805254840933 
557	 0.11096473398254 
558	 0.111131499495101 
559	 0.111381158045514 
560	 0.11169986499195 
561	 0.111969652851443 
562	 0.112242732451914 
563	 0.112588175503975 
564	 0.112801284057369 
565	 0.113032279602585 
566	 0.113351114071817 
567	 0.113713892277298 
568	 0.114078804397325 
569	 0.11440343249243 
570	 0.114675116680572 
571	 0.114959622259276 
572	 0.115277613040134 
573	 0.115664822337701 
574	 0.116148532895184 
575	 0.116531668348296 
576	 0.11693176311919 
577	 0.1174283782349 
578	 0.117903889600146 
579	 0.118420900061047 
580	 0.118960182496126 
581	 0.119477290237012 
582	 0.120016340830006 
583	 0.120468391620541 
584	 0.120816188045526 
585	 0.121187375938076 
586	 0.121592561588304 
587	 0.122063012607081 
588	 0.122625864323034 
589	 0.123319590153787 
590	 0.123918291450343 
591	 0.124394479618673 
592	 0.124908367849755 
593	 0.125391085728499 
594	 0.125936543676362 
595	 0.126617752733324 
596	 0.127411251148945 
597	 0.128084272748046 
598	 0.128620793730469 
599	 0.129129692601271 
600	 0.129594452948179 
601	 0.130000642743031 
602	 0.130373364640641 
603	 0.130810836406443 
604	 0.1313102388952 
605	 0.131850051024307 
606	 0.132397635821707 
607	 0.132931317940361 
608	 0.133463041378214 
609	 0.1339578091175 
610	 0.134329674309253 
611	 0.1347062815547 
612	 0.135090265081773 
613	 0.135458287610237 
614	 0.135823424023784 
615	 0.136123290462613 
616	 0.136384291987607 
617	 0.136691715647768 
618	 0.137063967444825 
619	 0.137353598879145 
620	 0.137508602637316 
621	 0.137718920559808 
622	 0.138022835337989 
623	 0.138338911830791 
624	 0.13856081217438 
625	 0.138841491773509 
626	 0.139096579889966 
627	 0.139304215806363 
628	 0.139547532641377 
629	 0.139786233829132 
630	 0.139988183810871 
631	 0.140152117784403 
632	 0.140388035046851 
633	 0.14061654906377 
634	 0.140789843217695 
635	 0.140903276420859 
636	 0.141141122278782 
637	 0.141421771735629 
638	 0.141647542632843 
639	 0.141798311881307 
640	 0.141969271369464 
641	 0.142170309076208 
642	 0.142367408022675 
643	 0.142538713973506 
644	 0.142729931048559 
645	 0.142945041958771 
646	 0.14311775785194 
647	 0.143292838203672 
648	 0.143491958514328 
649	 0.143709862457498 
650	 0.143849917984325 
651	 0.144059626366536 
652	 0.144314273598399 
653	 0.144449037420406 
654	 0.144662363263199 
655	 0.144882690196512 
656	 0.145045244726204 
657	 0.145226812234327 
658	 0.145384395240001 
659	 0.145565695887754 
660	 0.145836695336786 
661	 0.146076358105737 
662	 0.146222581580129 
663	 0.146337918901162 
664	 0.146653769417974 
665	 0.146958254402275 
666	 0.147168371659179 
667	 0.14728737379141 
668	 0.147496429614136 
669	 0.147717884451091 
670	 0.147914274328497 
671	 0.148090701889746 
672	 0.148287443716176 
673	 0.14853267407441 
674	 0.148805197890515 
675	 0.148969968053086 
676	 0.149159553495214 
677	 0.149405335508939 
678	 0.149685189312595 
679	 0.149948817748953 
680	 0.150148610745651 
681	 0.150301268512635 
682	 0.150502783637509 
683	 0.150731996107128 
684	 0.150990241656008 
685	 0.151260685812167 
686	 0.151445275536303 
687	 0.151674063783433 
688	 0.151940390911837 
689	 0.152148009910848 
690	 0.152406278166994 
691	 0.152656880924068 
692	 0.152868076442863 
693	 0.153112129267284 
694	 0.153316006702628 
695	 0.153535109297827 
696	 0.153837410940865 
697	 0.154098175191534 
698	 0.154310638995189 
699	 0.1545173827288 
700	 0.154798701129251 
701	 0.1550062841164 
702	 0.155204158841441 
703	 0.155451741909017 
704	 0.155659587757925 
705	 0.155897233881774 
706	 0.156134430946345 
707	 0.156306108581132 
708	 0.156517682271734 
709	 0.156757959068636 
710	 0.156998379975091 
711	 0.157205546851827 
712	 0.157413977313152 
713	 0.157623652464074 
714	 0.157820136869527 
715	 0.157964307119059 
716	 0.158151069557557 
717	 0.158360018243435 
718	 0.158493330152359 
719	 0.158621609089325 
720	 0.158776547627329 
721	 0.15895357458829 
722	 0.159091027295866 
723	 0.159222812501212 
724	 0.159342532424955 
725	 0.159437382895901 
726	 0.159522493507336 
727	 0.159641927110366 
728	 0.159759161976683 
729	 0.159772388274094 
730	 0.15980852867148 
731	 0.159900066150996 
732	 0.160008939681515 
733	 0.159965840384043 
734	 0.159975033090669 
735	 0.159987673075791 
736	 0.159894433942982 
737	 0.159904010617792 
738	 0.1599146014287 
739	 0.159869249877052 
740	 0.159786812069308 
741	 0.159704471386665 
742	 0.15962329089739 
743	 0.159523548041112 
744	 0.159347126050082 
745	 0.15920112237547 
746	 0.159102849623876 
747	 0.159005974419833 
748	 0.158771840167968 
749	 0.158526112892138 
750	 0.158353353230783 
751	 0.158254743690126 
752	 0.158065983202214 
753	 0.157828841497681 
754	 0.157602625828143 
755	 0.157333082932174 
756	 0.157088892742741 
757	 0.156871307846941 
758	 0.156641963369752 
759	 0.156368985684114 
760	 0.156024947642025 
761	 0.155666718066219 
762	 0.155446918526318 
763	 0.155184493194124 
764	 0.154886730313334 
765	 0.15459805770744 
766	 0.154340722900032 
767	 0.154013850637999 
768	 0.153645068123167 
769	 0.153316986780377 
770	 0.152979993944089 
771	 0.152661874935502 
772	 0.152351287006079 
773	 0.151986128891737 
774	 0.151637722925026 
775	 0.151323189738455 
776	 0.15102279636352 
777	 0.150647040195486 
778	 0.150330689862451 
779	 0.150059768772741 
780	 0.149753624864784 
781	 0.149401359284198 
782	 0.149030006977416 
783	 0.148659561116612 
784	 0.148299383235148 
785	 0.147995301665762 
786	 0.147675339996074 
787	 0.14730945262089 
788	 0.147029432021348 
789	 0.146696498084536 
790	 0.1463401345405 
791	 0.146028751534315 
792	 0.145671878364972 
793	 0.1453587764877 
794	 0.145103235328148 
795	 0.144843433383009 
796	 0.144513532321642 
797	 0.144159264115 
798	 0.143832580112665 
799	 0.143563173200213 
800	 0.143230590125852 
801	 0.142867754322183 
802	 0.142559510977725 
803	 0.142390657362295 
804	 0.142198367893109 
805	 0.141908230795026 
806	 0.141536496499496 
807	 0.141272166564184 
808	 0.140998839993694 
809	 0.14069744863578 
810	 0.140514335711068 
811	 0.140300729304836 
812	 0.140035332683974 
813	 0.139742523413975 
814	 0.139477083989276 
815	 0.139263219347164 
816	 0.139061220320561 
817	 0.138820429631985 
818	 0.13859976417855 
819	 0.138387279342965 
820	 0.138174097389795 
821	 0.137956091691888 
822	 0.13770514079062 
823	 0.137502778350675 
824	 0.13736820352395 
825	 0.13719611892175 
826	 0.136964661209142 
827	 0.136720139841325 
828	 0.136527280116728 
829	 0.136443988776165 
830	 0.136295372034368 
831	 0.136081077199319 
832	 0.135898139925889 
833	 0.135834330046337 
834	 0.135719510516557 
835	 0.135525314665443 
836	 0.135371560447922 
837	 0.135232538863929 
838	 0.135114842762466 
839	 0.135006301525333 
840	 0.134857728600237 
841	 0.134746892386155 
842	 0.134623230043809 
843	 0.134459115535519 
844	 0.134420049167649 
845	 0.134343135004285 
846	 0.134209550010625 
847	 0.134081469942963 
848	 0.134041782454275 
849	 0.133982092446405 
850	 0.133877353722517 
851	 0.133785793669275 
852	 0.133734079794672 
853	 0.133649927576914 
854	 0.133539340614364 
855	 0.133537035129931 
856	 0.133499939977937 
857	 0.133475951777535 
858	 0.133490453555516 
859	 0.13338901771114 
860	 0.133322091556356 
861	 0.133313826773577 
862	 0.133327439744088 
863	 0.133279581020538 
864	 0.133285509071005 
865	 0.133334366665728 
866	 0.133335409755986 
867	 0.133259672741525 
868	 0.133219259686012 
869	 0.133261560762349 
870	 0.133345749459058 
871	 0.133373815214901 
872	 0.133444215635071 
873	 0.133556913445666 
874	 0.133506485504481 
875	 0.133446991159281 
876	 0.133423947608797 
877	 0.133443645988028 
878	 0.133479524821612 
879	 0.133587818945317 
880	 0.133715939974372 
881	 0.133804937575446 
882	 0.133945741922368 
883	 0.134040353108821 
884	 0.134109831526577 
885	 0.13422790144825 
886	 0.13433139124022 
887	 0.134439415126842 
888	 0.13455575786023 
889	 0.134667084655716 
890	 0.13477241329297 
891	 0.134870167926043 
892	 0.134958945307751 
893	 0.135040181659256 
894	 0.135185928437643 
895	 0.135360729173026 
896	 0.135523646191821 
897	 0.135666160436251 
898	 0.135862049587704 
899	 0.136071517171765 
900	 0.136246748696328 
901	 0.13640172818727 
902	 0.136560704770614 
903	 0.136723808344491 
904	 0.136888982088246 
905	 0.137084358714078 
906	 0.137279476709358 
907	 0.137474213509946 
908	 0.137686665520263 
909	 0.137943698072839 
910	 0.138182565640757 
911	 0.138389003610272 
912	 0.138593653185744 
913	 0.138863292718326 
914	 0.139098605477174 
915	 0.139302251253902 
916	 0.139574040821649 
917	 0.139917160781028 
918	 0.140164490452648 
919	 0.140325342171888 
920	 0.1406188656921 
921	 0.140957828898418 
922	 0.141260108036163 
923	 0.141509851918116 
924	 0.141786756979096 
925	 0.142014583729958 
926	 0.142290050901419 
927	 0.142658204810262 
928	 0.143006170145153 
929	 0.143372711413841 
930	 0.143705141782493 
931	 0.143994585404272 
932	 0.144379720981715 
933	 0.144685799515557 
934	 0.144973288556974 
935	 0.145325065830979 
936	 0.145671771752883 
937	 0.146119894995302 
938	 0.146564898101257 
939	 0.146898936263608 
940	 0.147253648043537 
941	 0.147629410283327 
942	 0.148043341331764 
943	 0.148481383170817 
944	 0.148796574004011 
945	 0.149167938302475 
946	 0.14961978295629 
947	 0.150080108795714 
948	 0.150427964544261 
949	 0.150859520684247 
950	 0.151375953901368 
951	 0.151866511321709 
952	 0.152271763461414 
953	 0.152614828460375 
954	 0.152999640454265 
955	 0.153508610516797 
956	 0.153898748052882 
957	 0.154365203691192 
958	 0.154874876161757 
959	 0.155274693083036 
960	 0.155651562421219 
961	 0.156199018961087 
962	 0.156835362488884 
963	 0.157335184822627 
964	 0.157802737933914 
965	 0.158322032823132 
966	 0.158828679833909 
967	 0.159216731503336 
968	 0.15975164389848 
969	 0.160277746924774 
970	 0.160736053799957 
971	 0.161184407904284 
972	 0.161818267339863 
973	 0.162351955066687 
974	 0.162804796857678 
975	 0.163384365263655 
976	 0.163943891832287 
977	 0.16449657899644 
978	 0.164987819143565 
979	 0.165386478627976 
980	 0.16606690104074 
981	 0.166627247525871 
982	 0.167090867127037 
983	 0.167701000005164 
984	 0.168159878055912 
985	 0.168736367532572 
986	 0.169357127467116 
987	 0.169803308074287 
988	 0.17025433018577 
989	 0.170795595748186 
990	 0.171341213198747 
991	 0.171809378275866 
992	 0.172569569693752 
993	 0.173119684430896 
994	 0.173646889927992 
995	 0.174441467439684 
996	 0.174789547820585 
997	 0.175359182242725 
998	 0.176053445081892 
999	 0.176593652581535 
1000	 0.177287250707514 
1001	 0.176532373977443 
1002	 0.17703328354294 
1003	 0.177548588880738 
1004	 0.178087580782287 
1005	 0.178650714485644 
1006	 0.179167849444025 
1007	 0.17967116273446 
1008	 0.180208057850917 
1009	 0.180704997590925 
1010	 0.18116305821807 
1011	 0.181693389112934 
1012	 0.18220318804994 
1013	 0.182734420077041 
1014	 0.183323159417918 
1015	 0.183789994480627 
1016	 0.184248122346471 
1017	 0.184719593489895 
1018	 0.185185433325454 
1019	 0.185549163261407 
1020	 0.185989222373045 
1021	 0.186467957683808 
1022	 0.186917439608051 
1023	 0.187404171259218 
1024	 0.187875857514259 
1025	 0.188320949621202 
1026	 0.188676726963851 
1027	 0.189024218096756 
1028	 0.189420647342327 
1029	 0.189800163323169 
1030	 0.190239511816446 
1031	 0.190613106040535 
1032	 0.190968789031298 
1033	 0.191243560018414 
1034	 0.191547943049658 
1035	 0.191840055899993 
1036	 0.192152806920037 
1037	 0.192527371692315 
1038	 0.192916346696443 
1039	 0.193257800720814 
1040	 0.193563928692059 
1041	 0.193858007266443 
1042	 0.194105919581011 
1043	 0.194319110582084 
1044	 0.194576741820439 
1045	 0.194859581598804 
1046	 0.195159868808848 
1047	 0.195457755198144 
1048	 0.195769723841126 
1049	 0.196029876318579 
1050	 0.19627559943448 
1051	 0.196547577183339 
1052	 0.196810619667988 
1053	 0.197145141549437 
1054	 0.197480780449455 
1055	 0.197731542002802 
1056	 0.197987718186985 
1057	 0.198279246998746 
1058	 0.198535989048436 
1059	 0.198893940300238 
1060	 0.199341614032082 
1061	 0.199757356944458 
1062	 0.200184796861472 
1063	 0.200569171536008 
1064	 0.20088758804436 
1065	 0.20123976452815 
1066	 0.201652239881097 
1067	 0.202057763864182 
1068	 0.202440586713634 
1069	 0.202831782588305 
1070	 0.203256689366369 
1071	 0.203686499378288 
1072	 0.204123490976948 
1073	 0.204617852399642 
1074	 0.205079347788028 
1075	 0.205526377505171 
1076	 0.205929132385294 
1077	 0.2063658498609 
1078	 0.206783539812539 
1079	 0.207213371371204 
1080	 0.207669264298233 
1081	 0.208099264981829 
1082	 0.208561647166568 
1083	 0.209025919834616 
1084	 0.209493891738536 
1085	 0.209935742804768 
1086	 0.210398040488663 
1087	 0.210816172913539 
1088	 0.211168946748106 
1089	 0.21159660673824 
1090	 0.212016996489195 
1091	 0.21239065802284 
1092	 0.212790218760355 
1093	 0.213153477535597 
1094	 0.213465727992476 
1095	 0.213789374151152 
1096	 0.214165643772485 
1097	 0.214516475104168 
1098	 0.214828274795066 
1099	 0.215147842436109 
1100	 0.215438968154568 
1101	 0.215659255754223 
1102	 0.215905310345736 
1103	 0.216170384346774 
1104	 0.21641796828679 
1105	 0.216629727185788 
1106	 0.216833073016815 
1107	 0.217018577650986 
1108	 0.217179788141832 
1109	 0.217323984005182 
1110	 0.217473765755321 
1111	 0.217633930131108 
1112	 0.217815170515042 
1113	 0.217950231213044 
1114	 0.218085043373804 
1115	 0.218196340779114 
1116	 0.218243162464026 
1117	 0.218331376336508 
1118	 0.218437292989024 
1119	 0.218542285210757 
1120	 0.21862108447762 
1121	 0.218698587744223 
1122	 0.218782451704263 
1123	 0.218831274791589 
1124	 0.218876955709851 
1125	 0.21892843297477 
1126	 0.218967709629687 
1127	 0.218979351274847 
1128	 0.219006178038581 
1129	 0.21903546575344 
1130	 0.21906368187745 
1131	 0.219090553034877 
1132	 0.219118125834586 
1133	 0.219151468798184 
1134	 0.219184256730708 
1135	 0.219232707187887 
1136	 0.219241774677878 
1137	 0.219242429072124 
1138	 0.219263924749068 
1139	 0.219280315188932 
1140	 0.219294829689332 
1141	 0.219301190623554 
1142	 0.219318745706443 
1143	 0.219308847155413 
1144	 0.219253478410747 
1145	 0.219248370826773 
1146	 0.219263266620566 
1147	 0.219267618847799 
1148	 0.219302835503407 
1149	 0.219313798098249 
1150	 0.219297963498893 
1151	 0.219277472219096 
1152	 0.219292455557104 
1153	 0.219329689567499 
1154	 0.219360581182982 
1155	 0.21942049600297 
1156	 0.21945056698634 
1157	 0.219453375578782 
1158	 0.219485241612772 
1159	 0.219512657500209 
1160	 0.219564599220353 
1161	 0.219650250145942 
1162	 0.219717201436112 
1163	 0.219781144513911 
1164	 0.219855238178302 
1165	 0.219916698651851 
1166	 0.220005118057544 
1167	 0.220101859259646 
1168	 0.220206862619854 
1169	 0.220304082468333 
1170	 0.22040101014333 
1171	 0.220499568527773 
1172	 0.220597813334556 
1173	 0.220696634486193 
1174	 0.220794415824561 
1175	 0.22089860010169 
1176	 0.221003204018029 
1177	 0.221111995294782 
1178	 0.221226129914771 
1179	 0.22134613193153 
1180	 0.221471441608627 
1181	 0.221595383041325 
1182	 0.221728264946586 
1183	 0.221857881964714 
1184	 0.221980173770363 
1185	 0.222091972672483 
1186	 0.222217307476033 
1187	 0.222342434445284 
1188	 0.222473177875948 
1189	 0.2226174620257 
1190	 0.222750468898867 
1191	 0.222888048510327 
1192	 0.223009073852384 
1193	 0.223114277224489 
1194	 0.22322776562523 
1195	 0.223332508398138 
1196	 0.223441788294936 
1197	 0.223562651697552 
1198	 0.223674740318313 
1199	 0.223783220468999 
1200	 0.223881292767061 
1201	 0.22399877357045 
1202	 0.22412177730621 
1203	 0.224242862189284 
1204	 0.224383104867668 
1205	 0.22449741478561 
1206	 0.224591630068285 
1207	 0.224699126476614 
1208	 0.224810487846882 
1209	 0.22490839161682 
1210	 0.224996661830878 
1211	 0.225096901641949 
1212	 0.225190781927425 
1213	 0.225287762623792 
1214	 0.22541254948447 
1215	 0.225513958977871 
1216	 0.225603940651198 
1217	 0.225679639642202 
1218	 0.225754246176698 
1219	 0.22581317247957 
1220	 0.225883258608946 
1221	 0.225943477434825 
1222	 0.226028108903064 
1223	 0.226140493576126 
1224	 0.226223171209122 
1225	 0.22629856492694 
1226	 0.226385342887701 
1227	 0.226466014257853 
1228	 0.226540493648961 
1229	 0.22662631859958 
1230	 0.226707538640438 
1231	 0.226766882386574 
1232	 0.22683569303858 
1233	 0.226909936572226 
1234	 0.227001329362403 
1235	 0.227072811522874 
1236	 0.227146646636669 
1237	 0.227195852432649 
1238	 0.22721766385673 
1239	 0.227264393123808 
1240	 0.227310451467298 
1241	 0.2273504531312 
1242	 0.227392874188481 
1243	 0.227446095724585 
1244	 0.22748156580866 
1245	 0.227542128760018 
1246	 0.227652658277071 
1247	 0.227728858582234 
1248	 0.227789186123298 
1249	 0.227858301103521 
1250	 0.227915642713365 
1251	 0.227966409247013 
1252	 0.228022556250072 
1253	 0.228085906865565 
1254	 0.228145910078999 
1255	 0.228203378734469 
1256	 0.228255399624113 
1257	 0.228312842992133 
1258	 0.228359533645673 
1259	 0.228395617037425 
1260	 0.228430824581197 
1261	 0.228458028316246 
1262	 0.228488069417659 
1263	 0.228516867009849 
1264	 0.228544202195113 
1265	 0.228573821722556 
1266	 0.22860111801048 
1267	 0.228629396883609 
1268	 0.228644372709103 
1269	 0.22866644811714 
1270	 0.228685295161343 
1271	 0.228714161801234 
1272	 0.228754368899794 
1273	 0.22877640001372 
1274	 0.228799932066826 
1275	 0.228813185609194 
1276	 0.228803470893073 
1277	 0.228809772648197 
1278	 0.228814790836478 
1279	 0.228833068190138 
1280	 0.228864684315001 
1281	 0.228889457079488 
1282	 0.228914989704502 
1283	 0.22894873049192 
1284	 0.228973748046689 
1285	 0.229017262264818 
1286	 0.229080466007714 
1287	 0.229144030495224 
1288	 0.229231810218192 
1289	 0.229337733869717 
1290	 0.229446871466018 
1291	 0.229563566263321 
1292	 0.22971243216938 
1293	 0.229862464696359 
1294	 0.230059556749724 
1295	 0.230317290957496 
1296	 0.230549331644507 
1297	 0.230798615271239 
1298	 0.231044845690969 
1299	 0.231275910877577 
1300	 0.231531210067059 
1301	 0.231820401859582 
1302	 0.232086533057913 
1303	 0.232347965124267 
1304	 0.23261230602716 
1305	 0.232859002869782 
1306	 0.233118579183871 
1307	 0.23343149725512 
1308	 0.233707558629415 
1309	 0.233945295269103 
1310	 0.234160436624867 
1311	 0.234373608238103 
1312	 0.234543570854533 
1313	 0.234732474492787 
1314	 0.23495249032812 
1315	 0.235118389743293 
1316	 0.23526081549449 
1317	 0.235373015698705 
1318	 0.235442321030512 
1319	 0.23552094377176 
1320	 0.235599490400558 
1321	 0.235638122427771 
1322	 0.23567242405292 
1323	 0.235664153776739 
1324	 0.235618214438828 
1325	 0.235546847516247 
1326	 0.235450793922148 
1327	 0.235361934397761 
1328	 0.235227247575952 
1329	 0.235066941436455 
1330	 0.234911744487174 
1331	 0.234744519546201 
1332	 0.23455675426768 
1333	 0.234384082273162 
1334	 0.234152744072276 
1335	 0.233876320382701 
1336	 0.233598787803852 
1337	 0.2332776180542 
1338	 0.232974799283515 
1339	 0.232678868151683 
1340	 0.232370816107193 
1341	 0.232070827700106 
1342	 0.231743644917791 
1343	 0.231398834283785 
1344	 0.231036558128042 
1345	 0.230674558437198 
1346	 0.230313221709154 
1347	 0.229953309801267 
1348	 0.229584783699376 
1349	 0.22920411748193 
1350	 0.228816637239109 
1351	 0.228431978308889 
1352	 0.228046254103205 
1353	 0.227660640408866 
1354	 0.227270263895238 
1355	 0.226884268428018 
1356	 0.226488771143022 
1357	 0.226113097055224 
1358	 0.225730012746162 
1359	 0.22539042863656 
1360	 0.225084031274485 
1361	 0.224780705413912 
1362	 0.224495565871289 
1363	 0.224230551100401 
1364	 0.223969395080169 
1365	 0.22373529680477 
1366	 0.223537427469724 
1367	 0.22334751762348 
1368	 0.22316846023951 
1369	 0.22298658322129 
1370	 0.222776704246714 
1371	 0.222561546508858 
1372	 0.222331518497807 
1373	 0.222062536045105 
1374	 0.221769058288784 
1375	 0.221457986688749 
1376	 0.221112802792185 
1377	 0.220727696486833 
1378	 0.220329433195625 
1379	 0.219887769202241 
1380	 0.219473749632298 
1381	 0.219028730198257 
1382	 0.218630256515427 
1383	 0.218273282285994 
1384	 0.217902561430124 
1385	 0.217580157272524 
1386	 0.217199736103196 
1387	 0.216806155395343 
1388	 0.216378526658098 
1389	 0.215932646452494 
1390	 0.215424097692122 
1391	 0.214866372429515 
1392	 0.214290633380734 
1393	 0.213666351354149 
1394	 0.213009170812268 
1395	 0.212332129946433 
1396	 0.211624217230746 
1397	 0.210899429759581 
1398	 0.210136596175476 
1399	 0.209371845646062 
1400	 0.20860421714853 
1401	 0.20780274034429 
1402	 0.206971343937689 
1403	 0.206140057416525 
1404	 0.205283553480608 
1405	 0.204434382831878 
1406	 0.203582125159411 
1407	 0.202724726844646 
1408	 0.201852052604598 
1409	 0.200998057352551 
1410	 0.20012903250193 
1411	 0.199305469883107 
1412	 0.198502378530762 
1413	 0.197729330265798 
1414	 0.196992535460638 
1415	 0.196263437045024 
1416	 0.195546679702617 
1417	 0.194851232468131 
1418	 0.194165091762805 
1419	 0.193513986138981 
1420	 0.192904196334034 
1421	 0.19231661960312 
1422	 0.191773575269991 
1423	 0.191249635916401 
1424	 0.190731437788978 
1425	 0.190223797026164 
1426	 0.189743780305533 
1427	 0.189275662151347 
1428	 0.188839634432344 
1429	 0.188436440076702 
1430	 0.188043686556664 
1431	 0.187685028648068 
1432	 0.187306261889782 
1433	 0.186929026976446 
1434	 0.186563620139508 
1435	 0.186186172412048 
1436	 0.185833945252889 
1437	 0.185514160411019 
1438	 0.185181178779002 
1439	 0.184852909958343 
1440	 0.184525106333686 
1441	 0.184182912073398 
1442	 0.183860232852354 
1443	 0.18354194445097 
1444	 0.183247601701265 
1445	 0.182993585889311 
1446	 0.182753783004759 
1447	 0.182544448396342 
1448	 0.182360115610099 
1449	 0.182203330519064 
1450	 0.182090060701702 
1451	 0.182031082944051 
1452	 0.182020563788642 
1453	 0.182058003596881 
1454	 0.182160417187919 
1455	 0.182267058106759 
1456	 0.182424148709097 
1457	 0.182569521801267 
1458	 0.182724007715624 
1459	 0.18289247959579 
1460	 0.183082489670016 
1461	 0.183258089595298 
1462	 0.18345515743193 
1463	 0.183618374513809 
1464	 0.183773142270664 
1465	 0.183897218113799 
1466	 0.183988217272237 
1467	 0.184077998089981 
1468	 0.184124295951286 
1469	 0.184201273298365 
1470	 0.184299632115699 
1471	 0.18438263343704 
1472	 0.18446348873691 
1473	 0.184540021446897 
1474	 0.184574427071679 
1475	 0.184611494910061 
1476	 0.184661615808131 
1477	 0.184725850751316 
1478	 0.184823018865093 
1479	 0.184921194536139 
1480	 0.185025514500029 
1481	 0.185130034770667 
1482	 0.185223411074938 
1483	 0.18530831248641 
1484	 0.18540037849618 
1485	 0.185486381433514 
1486	 0.18557921437821 
1487	 0.185680194901377 
1488	 0.185774872305688 
1489	 0.185869379072854 
1490	 0.18596043978844 
1491	 0.186047418095566 
1492	 0.186136643512989 
1493	 0.186223000136884 
1494	 0.186316198964448 
1495	 0.186419475014723 
1496	 0.186508339809648 
1497	 0.186593716846263 
1498	 0.18667403282571 
1499	 0.186747104843439 
1500	 0.186818050013032 
1501	 0.186877319559505 
1502	 0.186950388861679 
1503	 0.187026355534758 
1504	 0.187102303149384 
1505	 0.18718345784364 
1506	 0.187265303528957 
1507	 0.187343211422966 
1508	 0.187404549389161 
1509	 0.187453279465672 
1510	 0.187503177649806 
1511	 0.187559873146756 
1512	 0.187615738932461 
1513	 0.187695386907004 
1514	 0.187799558099941 
1515	 0.187888003352773 
1516	 0.187963475113733 
1517	 0.188030315421983 
1518	 0.188079234585192 
1519	 0.188139148073237 
1520	 0.188199152801161 
1521	 0.188258581049198 
1522	 0.188317364755772 
1523	 0.18838103980166 
1524	 0.18844458716254 
1525	 0.188504166509215 
1526	 0.188575956965269 
1527	 0.188626731976483 
1528	 0.188656740839856 
1529	 0.188700201501536 
1530	 0.188735650882094 
1531	 0.188787492465824 
1532	 0.188868455621172 
1533	 0.188912305747293 
1534	 0.188942649557244 
1535	 0.188968895713592 
1536	 0.188961955024814 
1537	 0.188982249695416 
1538	 0.189011361999771 
1539	 0.189052573320921 
1540	 0.18911196130716 
1541	 0.189165044555174 
1542	 0.189240262622361 
1543	 0.189287515766526 
1544	 0.189313819264111 
1545	 0.189343425642306 
1546	 0.189360791428934 
1547	 0.189368845576994 
1548	 0.189412393480232 
1549	 0.189450365007303 
1550	 0.189471483833538 
1551	 0.189514701502261 
1552	 0.18954226402869 
1553	 0.189551588255425 
1554	 0.189576653798872 
1555	 0.18959584785341 
1556	 0.189587276849279 
1557	 0.189602610437677 
1558	 0.189639408612215 
1559	 0.189665719753976 
1560	 0.189686133866639 
1561	 0.18971229963799 
1562	 0.189734438325196 
1563	 0.189741493496415 
1564	 0.18976044873695 
1565	 0.189797559520672 
1566	 0.189820658837145 
1567	 0.189834283614504 
1568	 0.189846593829866 
1569	 0.189858483396831 
1570	 0.189864141444237 
1571	 0.189867083790187 
1572	 0.189857831597403 
1573	 0.189830711409635 
1574	 0.189826174941661 
1575	 0.189823238053161 
1576	 0.189820767808731 
1577	 0.189835730026252 
1578	 0.189837676493277 
1579	 0.189824068254914 
1580	 0.189822818450416 
1581	 0.189837381924725 
1582	 0.189833773103429 
1583	 0.189818625145052 
1584	 0.189810071025014 
1585	 0.189799304073896 
1586	 0.189781391503292 
1587	 0.189765827431608 
1588	 0.1897490455165 
1589	 0.189710768017037 
1590	 0.189692700884313 
1591	 0.189709840573322 
1592	 0.189686491876356 
1593	 0.189651155803961 
1594	 0.189612159558687 
1595	 0.189528466480878 
1596	 0.189477093404363 
1597	 0.189450246415341 
1598	 0.189412765702174 
1599	 0.189390014901008 
1600	 0.189353105009504 
1601	 0.189295925871266 
1602	 0.189251488867133 
1603	 0.189208989756478 
1604	 0.189164236530231 
1605	 0.189133460516342 
1606	 0.189088237708261 
1607	 0.189031614242039 
1608	 0.188972053854948 
1609	 0.188906884257165 
1610	 0.188833980102166 
1611	 0.188780946868014 
1612	 0.188732521695473 
1613	 0.188695038488504 
1614	 0.188663949605518 
1615	 0.188594513256168 
1616	 0.188522868699944 
1617	 0.188467743788086 
1618	 0.188390623625665 
1619	 0.188324397938884 
1620	 0.188258851483139 
1621	 0.188183299768493 
1622	 0.188089178305247 
1623	 0.188004136401971 
1624	 0.187926892345551 
1625	 0.187836898378759 
1626	 0.187733117640496 
1627	 0.187642785385084 
1628	 0.187553268924748 
1629	 0.187466470901319 
1630	 0.187386418421925 
1631	 0.187301360364701 
1632	 0.187209218294808 
1633	 0.187136675339777 
1634	 0.187076188626929 
1635	 0.187004183979565 
1636	 0.186941284263376 
1637	 0.186868272868505 
1638	 0.186780078978344 
1639	 0.186702112358469 
1640	 0.186627635300955 
1641	 0.186556087505392 
1642	 0.186495958426097 
1643	 0.18640924643538 
1644	 0.186316543707524 
1645	 0.186215956961401 
1646	 0.186083924877951 
1647	 0.185981704121048 
1648	 0.185895338211245 
1649	 0.185798648996992 
1650	 0.185710000984548 
1651	 0.185608704312981 
1652	 0.185491089813118 
1653	 0.185391341619716 
1654	 0.185293498713948 
1655	 0.185201414508049 
1656	 0.185126002299172 
1657	 0.185033989170179 
1658	 0.184935973636565 
1659	 0.184839162067063 
1660	 0.184731590712938 
1661	 0.184637664842495 
1662	 0.184557148268687 
1663	 0.184460587147768 
1664	 0.184367873150421 
1665	 0.184259356630836 
1666	 0.18412118383896 
1667	 0.184015151106544 
1668	 0.183914617348898 
1669	 0.183822276188076 
1670	 0.183748688735912 
1671	 0.183675184825728 
1672	 0.18359822247602 
1673	 0.183539421658501 
1674	 0.183509684513046 
1675	 0.183451128620067 
1676	 0.183403001453049 
1677	 0.183319177626688 
1678	 0.183199544871795 
1679	 0.183089501951063 
1680	 0.182957086422852 
1681	 0.182844148249612 
1682	 0.182737375642166 
1683	 0.182634505515923 
1684	 0.18254267330357 
1685	 0.182443718693875 
1686	 0.182343347584375 
1687	 0.182247027102181 
1688	 0.182154705050661 
1689	 0.182054422743688 
1690	 0.181954440758414 
1691	 0.1818498008472 
1692	 0.181729330688812 
1693	 0.181627407069423 
1694	 0.181524669422888 
1695	 0.18144447849383 
1696	 0.181388797840997 
1697	 0.181322165796069 
1698	 0.181272456848133 
1699	 0.181202877879124 
1700	 0.181120470863288 
1701	 0.181035927324032 
1702	 0.180948933357084 
1703	 0.180852434197585 
1704	 0.180742005991384 
1705	 0.180640090351378 
1706	 0.180519163475201 
1707	 0.180433325514302 
1708	 0.180391162457929 
1709	 0.1802997003609 
1710	 0.180194840574829 
1711	 0.180103594975846 
1712	 0.179984599875808 
1713	 0.179886059341205 
1714	 0.179816073339464 
1715	 0.179738101697524 
1716	 0.179647640365808 
1717	 0.179574164810877 
1718	 0.179522101208236 
1719	 0.179451931264495 
1720	 0.179394975755032 
1721	 0.179293795124309 
1722	 0.179154340532904 
1723	 0.179050287869247 
1724	 0.17893321621786 
1725	 0.178822082942525 
1726	 0.178739379700251 
1727	 0.178637215367653 
1728	 0.178510966426944 
1729	 0.178402857882781 
1730	 0.178301564557754 
1731	 0.17820986812052 
1732	 0.178119855990134 
1733	 0.178042991472936 
1734	 0.177991753057066 
1735	 0.177914976803652 
1736	 0.17784131919159 
1737	 0.17774360963208 
1738	 0.177611724378147 
1739	 0.177520671693415 
1740	 0.177433410251981 
1741	 0.177349730060438 
1742	 0.177289039327417 
1743	 0.177219780240918 
1744	 0.17714155380097 
1745	 0.17708128805838 
1746	 0.177046500585838 
1747	 0.176958464727099 
1748	 0.176866973635673 
1749	 0.176768413817469 
1750	 0.176675284758846 
1751	 0.17662569027371 
1752	 0.176554430464717 
1753	 0.176462056648632 
1754	 0.176395418150319 
1755	 0.176310667305679 
1756	 0.176238276123977 
1757	 0.176186540403769 
1758	 0.17610804853651 
1759	 0.176016855537397 
1760	 0.17592823243374 
1761	 0.175834512134478 
1762	 0.175740253616462 
1763	 0.175667680788366 
1764	 0.175612653160235 
1765	 0.175569023975076 
1766	 0.175523386120071 
1767	 0.175466302600274 
1768	 0.175401117589344 
1769	 0.175310394192823 
1770	 0.175228739682648 
1771	 0.175161038528816 
1772	 0.175091604527914 
1773	 0.1750398317746 
1774	 0.174978720750415 
1775	 0.174913536370525 
1776	 0.174838008851035 
1777	 0.174717564192209 
1778	 0.174612872477866 
1779	 0.174530308819298 
1780	 0.174431497150785 
1781	 0.17438614387485 
1782	 0.174382451941727 
1783	 0.174361579862169 
1784	 0.174330452184988 
1785	 0.174303502782066 
1786	 0.174254581794763 
1787	 0.174187816152228 
1788	 0.174120982186394 
1789	 0.174027987297392 
1790	 0.173965068212338 
1791	 0.173913120939053 
1792	 0.17386951691829 
1793	 0.173842154628714 
1794	 0.173805870658262 
1795	 0.173778695821134 
1796	 0.173740625577211 
1797	 0.173687568146141 
1798	 0.173677698301573 
1799	 0.173692262857566 
1800	 0.173673874832741 
1801	 0.169547633500308 
1802	 0.169710308578066 
1803	 0.169885823815614 
1804	 0.170049018355173 
1805	 0.170171930433672 
1806	 0.170279229792296 
1807	 0.170382087892673 
1808	 0.170477055860774 
1809	 0.170572272421896 
1810	 0.17063745445376 
1811	 0.170674033688631 
1812	 0.17073722759782 
1813	 0.170768625788485 
1814	 0.170772268117782 
1815	 0.170807126393661 
1816	 0.170810346303832 
1817	 0.170816940325294 
1818	 0.170810733976956 
1819	 0.170830314300867 
1820	 0.170862708634682 
1821	 0.170878966897473 
1822	 0.170895621681237 
1823	 0.170913515692531 
1824	 0.17093179264495 
1825	 0.170953533532729 
1826	 0.170998562294593 
1827	 0.171027929693963 
1828	 0.171022107133188 
1829	 0.170983624557585 
1830	 0.170951136632945 
1831	 0.170896966132624 
1832	 0.170836102817737 
1833	 0.170781245273504 
1834	 0.170737305919157 
1835	 0.170698830100603 
1836	 0.170660372155375 
1837	 0.170643471065824 
1838	 0.170619483617494 
1839	 0.170609049522189 
1840	 0.170604332608909 
1841	 0.170612103675895 
1842	 0.170623429528486 
1843	 0.170638538325622 
1844	 0.170641697121696 
1845	 0.170639673792129 
1846	 0.170624904977006 
1847	 0.170606962516519 
1848	 0.170591269331483 
1849	 0.170578578499793 
1850	 0.170559212560415 
1851	 0.170538055538909 
1852	 0.170521097178037 
1853	 0.170508851943498 
1854	 0.170458382134515 
1855	 0.170407656246172 
1856	 0.170352078070985 
1857	 0.170263054828246 
1858	 0.170185381867498 
1859	 0.170093051687346 
1860	 0.169973396125722 
1861	 0.169831377386538 
1862	 0.16968531080476 
1863	 0.169493284608633 
1864	 0.16927425685891 
1865	 0.169037284117988 
1866	 0.168746112982918 
1867	 0.168460959371343 
1868	 0.168137871289228 
1869	 0.167797003903228 
1870	 0.167472287396971 
1871	 0.16713802958649 
1872	 0.166776796349452 
1873	 0.166452919686501 
1874	 0.16616725066018 
1875	 0.165892591881147 
1876	 0.165599333748976 
1877	 0.165294599306567 
1878	 0.16494242805102 
1879	 0.164518284997769 
1880	 0.164056093576512 
1881	 0.163563755493973 
1882	 0.163005861395841 
1883	 0.162392031195667 
1884	 0.161723427794553 
1885	 0.161005811683778 
1886	 0.16025715496976 
1887	 0.15945227546117 
1888	 0.158601391150105 
1889	 0.157741251672324 
1890	 0.15683248043283 
1891	 0.155889310786445 
1892	 0.154923919819051 
1893	 0.153913030187465 
1894	 0.152851624969 
1895	 0.151755454289863 
1896	 0.150639784922135 
1897	 0.14948539863831 
1898	 0.148281579448116 
1899	 0.147064841416195 
1900	 0.145865758346308 
1901	 0.144699579420718 
1902	 0.143577147137932 
1903	 0.142538249775583 
1904	 0.141470482586183 
1905	 0.140405732367313 
1906	 0.139371289705697 
1907	 0.13835972557369 
1908	 0.137379165077846 
1909	 0.136463549344202 
1910	 0.135569710273069 
1911	 0.13470004150261 
1912	 0.133862970431029 
1913	 0.133046090627442 
1914	 0.13224532467324 
1915	 0.131487321140496 
1916	 0.130750499788228 
1917	 0.130049987224722 
1918	 0.129425067646462 
1919	 0.128831771154378 
1920	 0.128286564956063 
1921	 0.127801749989637 
1922	 0.12732263355657 
1923	 0.126915830035771 
1924	 0.126517516521268 
1925	 0.126150147446113 
1926	 0.125798143111372 
1927	 0.125481321192974 
1928	 0.125154648191152 
1929	 0.12485348516143 
1930	 0.124586280542093 
1931	 0.124320696072959 
1932	 0.124091071263563 
1933	 0.12388377917187 
1934	 0.123703225680235 
1935	 0.123539398759187 
1936	 0.123404154995475 
1937	 0.123271177553073 
1938	 0.123144065837528 
1939	 0.123044056899442 
1940	 0.122948042184155 
1941	 0.122898338403919 
1942	 0.122877373912302 
1943	 0.122880126993808 
1944	 0.122923205552846 
1945	 0.122988596160756 
1946	 0.123075178951877 
1947	 0.123201619941716 
1948	 0.12332035732523 
1949	 0.123448570684689 
1950	 0.123595297574355 
1951	 0.123757300865954 
1952	 0.123917280433565 
1953	 0.124099198512409 
1954	 0.124281022577707 
1955	 0.124455254253814 
1956	 0.124640182003327 
1957	 0.124829724409923 
1958	 0.125037616189807 
1959	 0.125230083479992 
1960	 0.125418557417219 
1961	 0.12560669114119 
1962	 0.125796985290524 
1963	 0.125971369030669 
1964	 0.126135574424608 
1965	 0.12630448339796 
1966	 0.12646661647882 
1967	 0.12661829006946 
1968	 0.126775491263596 
1969	 0.126935929539238 
1970	 0.127099256313496 
1971	 0.127263088325711 
1972	 0.127424768093323 
1973	 0.127584616294185 
1974	 0.127750341991356 
1975	 0.127910378998087 
1976	 0.128086498444553 
1977	 0.128249990699836 
1978	 0.128433696100729 
1979	 0.12862421434703 
1980	 0.12881569413587 
1981	 0.129017196227295 
1982	 0.129240359317698 
1983	 0.129453455080975 
1984	 0.129672045944187 
1985	 0.129876084575672 
1986	 0.130075699648685 
1987	 0.130272705639409 
1988	 0.130449850771496 
1989	 0.130647669863947 
1990	 0.130846916545398 
1991	 0.131041217591625 
1992	 0.1312235869817 
1993	 0.131392940213546 
1994	 0.131574323415699 
1995	 0.131750585086133 
1996	 0.131928533415647 
1997	 0.132111924261158 
1998	 0.132304052669499 
1999	 0.132495173621649 
2000	 0.132689380620368 
2001	 0.13290480832595 
2002	 0.133099784646939 
2003	 0.133298084238337 
2004	 0.133498863475094 
2005	 0.133701084637701 
2006	 0.133914785382948 
2007	 0.134117989788789 
2008	 0.134311574445537 
2009	 0.134512163471823 
2010	 0.134709793086794 
2011	 0.134911359771041 
2012	 0.135114512515852 
2013	 0.135325239077523 
2014	 0.135538605782466 
2015	 0.135762499152038 
2016	 0.135990569545538 
2017	 0.136210049782806 
2018	 0.13642644781692 
2019	 0.136634631254442 
2020	 0.136853391299623 
2021	 0.137074035623844 
2022	 0.137290792822722 
2023	 0.137512239290681 
2024	 0.137730666057101 
2025	 0.137950599873158 
2026	 0.138161138539911 
2027	 0.138361471012693 
2028	 0.138567250445389 
2029	 0.138783361001404 
2030	 0.138993705890029 
2031	 0.139214069615323 
2032	 0.139461200178478 
2033	 0.139679271989914 
2034	 0.139882290338913 
2035	 0.140089776373953 
2036	 0.140294386088832 
2037	 0.140492283665554 
2038	 0.140694447786116 
2039	 0.140880711045652 
2040	 0.141050740402514 
2041	 0.14121910468969 
2042	 0.141381997275499 
2043	 0.141536037911749 
2044	 0.141709592914015 
2045	 0.141881392835297 
2046	 0.142078105703374 
2047	 0.14230845284566 
2048	 0.142514957194615 
2049	 0.142733724953165 
2050	 0.142934717226345 
2051	 0.143124969173467 
2052	 0.143298300179855 
2053	 0.143445883199303 
2054	 0.143611936560636 
2055	 0.143768721632623 
2056	 0.143935102281057 
2057	 0.144095008550882 
2058	 0.144266860015759 
2059	 0.144428333292683 
2060	 0.144570993202403 
2061	 0.144732282607532 
2062	 0.144902992474263 
2063	 0.145075963747256 
2064	 0.145268418552187 
2065	 0.145435194896552 
2066	 0.145591379178082 
2067	 0.145751574807936 
2068	 0.145903689363628 
2069	 0.146037784878454 
2070	 0.146197824758303 
2071	 0.146378852598296 
2072	 0.146534349016937 
2073	 0.146690264618564 
2074	 0.146837368114306 
2075	 0.146965470163084 
2076	 0.147103533497015 
2077	 0.147238865092989 
2078	 0.147381354785285 
2079	 0.147529254960831 
2080	 0.147674976323574 
2081	 0.147824012094249 
2082	 0.147974072667959 
2083	 0.148127337596111 
2084	 0.148276505064457 
2085	 0.148415265918746 
2086	 0.148551819405585 
2087	 0.148686095982241 
2088	 0.148802350140087 
2089	 0.148937405323354 
2090	 0.149080261643331 
2091	 0.149224883235308 
2092	 0.149385446250579 
2093	 0.149526510028323 
2094	 0.149662888259673 
2095	 0.149797238073871 
2096	 0.1499161829506 
2097	 0.150040693018666 
2098	 0.150180462513211 
2099	 0.150301381516899 
2100	 0.150409547472157 
2101	 0.150502053707901 
2102	 0.150607302497148 
2103	 0.15069100866835 
2104	 0.150808159519181 
2105	 0.150949274900426 
2106	 0.151085338161191 
2107	 0.151218458418233 
2108	 0.15137984153476 
2109	 0.151571500892941 
2110	 0.151742104184354 
2111	 0.151940203069573 
2112	 0.152109718915733 
2113	 0.152248539414981 
2114	 0.152380130516812 
2115	 0.152529097038665 
2116	 0.152683408236323 
2117	 0.152821216946101 
2118	 0.152967638816014 
2119	 0.153091640246802 
2120	 0.153179629733809 
2121	 0.153299822875705 
2122	 0.1534218828857 
2123	 0.153552080110298 
2124	 0.15372725453296 
2125	 0.153847846540716 
2126	 0.153930925739258 
2127	 0.154033958799896 
2128	 0.154122611181529 
2129	 0.154203647942448 
2130	 0.154292633925091 
2131	 0.154388621830335 
2132	 0.154455485119505 
2133	 0.154476962904282 
2134	 0.154551758657606 
2135	 0.154651352701598 
2136	 0.154722349182275 
2137	 0.154826786437984 
2138	 0.154871073070589 
2139	 0.15485181027061 
2140	 0.154864799302619 
2141	 0.154860573959829 
2142	 0.154868876765999 
2143	 0.154898366245949 
2144	 0.154915902799363 
2145	 0.154933079523541 
2146	 0.154939734306333 
2147	 0.154935189528148 
2148	 0.154937250659731 
2149	 0.154923420602485 
2150	 0.15489904450694 
2151	 0.15487114750154 
2152	 0.154840733881134 
2153	 0.154792404877553 
2154	 0.154721213342482 
2155	 0.154667719754985 
2156	 0.154613510470169 
2157	 0.154552078134091 
2158	 0.154494741828827 
2159	 0.154437252180358 
2160	 0.154378225017139 
2161	 0.154305305909021 
2162	 0.154227250359891 
2163	 0.154152514173083 
2164	 0.154057411037354 
2165	 0.153970860107362 
2166	 0.153897685479883 
2167	 0.153852213496239 
2168	 0.153766190314066 
2169	 0.153665824286643 
2170	 0.153572649276918 
2171	 0.153464513669973 
2172	 0.15335862385038 
2173	 0.153264124075687 
2174	 0.153159385030157 
2175	 0.153021754939449 
2176	 0.152921704866475 
2177	 0.152851614003578 
2178	 0.152762554966349 
2179	 0.152697384825694 
2180	 0.152604961000794 
2181	 0.15247633589528 
2182	 0.152360793831011 
2183	 0.152244031598067 
2184	 0.152118175688801 
2185	 0.152004320846067 
2186	 0.15189780127572 
2187	 0.15179231921649 
2188	 0.151692136945062 
2189	 0.151586508879145 
2190	 0.151479502358189 
2191	 0.151378946065647 
2192	 0.151278667267709 
2193	 0.151178815345034 
2194	 0.151082727479347 
2195	 0.150990535452525 
2196	 0.150884899990781 
2197	 0.15080356054319 
2198	 0.150737948500213 
2199	 0.150681292662098 
2200	 0.150649599773617 
2201	 0.150612115667184 
2202	 0.150587353127985 
2203	 0.150548869275349 
2204	 0.150511833020717 
2205	 0.150468657038164 
2206	 0.150430906777609 
2207	 0.150385626405514 
2208	 0.150367721615171 
2209	 0.150373548624878 
2210	 0.150355497918877 
2211	 0.15032537874301 
2212	 0.150326322616754 
2213	 0.150333414931571 
2214	 0.150337678750594 
2215	 0.150385562101843 
2216	 0.150399337042463 
2217	 0.150379790466955 
2218	 0.150365706912786 
2219	 0.15034529614513 
2220	 0.150329201308197 
2221	 0.150297636370058 
2222	 0.150275816656661 
2223	 0.150315874275898 
2224	 0.150363960696057 
2225	 0.150400252028765 
2226	 0.150470990084581 
2227	 0.15050328190996 
2228	 0.150500399369894 
2229	 0.150517021737492 
2230	 0.150543732069507 
2231	 0.150555141941255 
2232	 0.150566390275106 
2233	 0.150557180751714 
2234	 0.150513160254915 
2235	 0.150504483510219 
2236	 0.15050739647127 
2237	 0.150496284707908 
2238	 0.15052612704559 
2239	 0.150498457033013 
2240	 0.150402543725711 
2241	 0.150346084381697 
2242	 0.150257279247264 
2243	 0.150214387163531 
2244	 0.150226867220847 
2245	 0.150229224322676 
2246	 0.150217176092016 
2247	 0.150219573116138 
2248	 0.150209391407204 
2249	 0.150187630575127 
2250	 0.15015636688163 
2251	 0.150124123991235 
2252	 0.150083717367659 
2253	 0.150016552607946 
2254	 0.149971170426023 
2255	 0.149944563259189 
2256	 0.14989744418174 
2257	 0.149852248468727 
2258	 0.149787507229689 
2259	 0.149694247914041 
2260	 0.149620038926631 
2261	 0.149534215051177 
2262	 0.149466791702914 
2263	 0.149401579767038 
2264	 0.149366719729457 
2265	 0.149382532873329 
2266	 0.149356439832726 
2267	 0.149317606339607 
2268	 0.149297119325804 
2269	 0.149252066596114 
2270	 0.14922460418533 
2271	 0.149238193424599 
2272	 0.14925658825636 
2273	 0.149267790058011 
2274	 0.14922386299664 
2275	 0.149181047584618 
2276	 0.149115688085351 
2277	 0.149060052290984 
2278	 0.149001237562261 
2279	 0.148921188596405 
2280	 0.148813887237318 
2281	 0.148752267537459 
2282	 0.148698214094692 
2283	 0.148636726924649 
2284	 0.148619978661272 
2285	 0.148553216803214 
2286	 0.148432643266367 
2287	 0.148341717455315 
2288	 0.148250224965775 
2289	 0.14816921274356 
2290	 0.148100557358106 
2291	 0.148030157930291 
2292	 0.147967729946423 
2293	 0.147898010505436 
2294	 0.147831372856481 
2295	 0.147747839459552 
2296	 0.147641724995058 
2297	 0.147553696042883 
2298	 0.14746492827955 
2299	 0.147405515213107 
2300	 0.147340749691142 
2301	 0.147278742415319 
2302	 0.147203486850397 
2303	 0.147068537234058 
2304	 0.146953887093563 
2305	 0.146819243460492 
2306	 0.146678195519258 
2307	 0.146525572145202 
2308	 0.146377328872164 
2309	 0.146218633187512 
2310	 0.146069391494971 
2311	 0.145917914735361 
2312	 0.145767309626009 
2313	 0.145622840328254 
2314	 0.145476626563868 
2315	 0.145335900367673 
2316	 0.145183680386791 
2317	 0.145018406810984 
2318	 0.144862768219522 
2319	 0.144691340052427 
2320	 0.144550528672892 
2321	 0.144453345044265 
2322	 0.144317587979713 
2323	 0.14416273322977 
2324	 0.144032870121701 
2325	 0.143906494497918 
2326	 0.143768963093879 
2327	 0.143657030196783 
2328	 0.143516718861873 
2329	 0.143351169870322 
2330	 0.143145151300988 
2331	 0.142958104097581 
2332	 0.142821815417016 
2333	 0.14267066509939 
2334	 0.142555999738734 
2335	 0.142432030289172 
2336	 0.142288728117235 
2337	 0.142177555077746 
2338	 0.142035956159667 
2339	 0.141863856717009 
2340	 0.141671997564783 
2341	 0.141479739915732 
2342	 0.141255543817641 
2343	 0.14100307151545 
2344	 0.140795138073675 
2345	 0.14059639886718 
2346	 0.140399021376544 
2347	 0.140194083186321 
2348	 0.14002371302013 
2349	 0.139808132606734 
2350	 0.139531286784816 
2351	 0.139301905667769 
2352	 0.139108472317956 
2353	 0.1388782589909 
2354	 0.138642026462202 
2355	 0.138411977568734 
2356	 0.13815582692943 
2357	 0.137926977367045 
2358	 0.137739661445183 
2359	 0.137501900346397 
2360	 0.137221914277593 
2361	 0.136966142009798 
2362	 0.136713341050989 
2363	 0.136450458752973 
2364	 0.136227277031708 
2365	 0.135944581931845 
2366	 0.13558384510767 
2367	 0.135256161363878 
2368	 0.134879368708486 
2369	 0.134594884326765 
2370	 0.134381840429911 
2371	 0.13418357712073 
2372	 0.133917612453449 
2373	 0.133652593546732 
2374	 0.133356528508047 
2375	 0.133078111035833 
2376	 0.132915774362343 
2377	 0.132708739465796 
2378	 0.132425416818021 
2379	 0.132153424889585 
2380	 0.131872774159971 
2381	 0.131585523191279 
2382	 0.131337454674131 
2383	 0.131084716666491 
2384	 0.130779527731687 
2385	 0.130498192675581 
2386	 0.130240065257798 
2387	 0.129931561400017 
2388	 0.129676990466506 
2389	 0.129478921685562 
2390	 0.129314400571022 
2391	 0.129196819236052 
2392	 0.129001609364284 
2393	 0.128739173814575 
2394	 0.128479834391417 
2395	 0.128225209322675 
2396	 0.12794976081326 
2397	 0.127694414679151 
2398	 0.127491462949592 
2399	 0.127285164577983 
2400	 0.12713450703826 
2401	 0.127004758915224 
2402	 0.126714513615034 
2403	 0.126383105248961 
2404	 0.126079915106106 
2405	 0.125767014829833 
2406	 0.125555823643743 
2407	 0.125412981135215 
2408	 0.12529425334976 
2409	 0.12517734216999 
2410	 0.125093120613863 
2411	 0.125032136455205 
2412	 0.124877566151356 
2413	 0.124632023635408 
2414	 0.124374946983417 
2415	 0.124123275011336 
2416	 0.123945586761736 
2417	 0.12388086407016 
2418	 0.123739530888024 
2419	 0.123592166721878 
2420	 0.123442241476804 
2421	 0.123261844061868 
2422	 0.123078644040715 
2423	 0.122937515368301 
2424	 0.122785498905818 
2425	 0.122573187531869 
2426	 0.122367281572462 
2427	 0.122185164250029 
2428	 0.121961245001113 
2429	 0.121690550042796 
2430	 0.121494188232947 
2431	 0.121332270692659 
2432	 0.12112500334455 
2433	 0.120920667742892 
2434	 0.12073267816574 
2435	 0.120531766209012 
2436	 0.120373536634447 
2437	 0.120241481633633 
2438	 0.120073008433054 
2439	 0.11989787065387 
2440	 0.119752535514787 
2441	 0.119654048960886 
2442	 0.119505389406446 
2443	 0.119331513565393 
2444	 0.119158028225325 
2445	 0.118968938532578 
2446	 0.118673143762101 
2447	 0.118329934184868 
2448	 0.11805249015715 
2449	 0.117690431953513 
2450	 0.117462073061917 
2451	 0.117358610733262 
2452	 0.117183057166676 
2453	 0.117022420220987 
2454	 0.116868961649217 
2455	 0.116734188557893 
2456	 0.116537236415727 
2457	 0.116338925290459 
2458	 0.116062498689975 
2459	 0.115658633331521 
2460	 0.115427830744574 
2461	 0.115157772360206 
2462	 0.114986316561371 
2463	 0.115090652912664 
2464	 0.114919353841699 
2465	 0.114601380971063 
2466	 0.114363999704185 
2467	 0.114009760732251 
2468	 0.113796278061736 
2469	 0.113743013873539 
2470	 0.11377586260086 
2471	 0.113676224478763 
2472	 0.113607706336172 
2473	 0.113575596341694 
2474	 0.113551693726256 
2475	 0.113391042922035 
2476	 0.113300085675363 
2477	 0.113485889469475 
2478	 0.11336946413864 
2479	 0.113069269389333 
2480	 0.112860140116191 
2481	 0.11242795373549 
2482	 0.112108020444333 
2483	 0.112008392697752 
2484	 0.11187829698472 
2485	 0.111592911394552 
2486	 0.11140773437111 
2487	 0.111459062398899 
2488	 0.111244428944668 
2489	 0.111059476103144 
2490	 0.111067522254315 
2491	 0.110849884797155 
2492	 0.110710415473578 
2493	 0.110608479631998 
2494	 0.110193060244545 
2495	 0.109822876844136 
2496	 0.109631724170574 
2497	 0.109492321115706 
2498	 0.109568220324581 
2499	 0.109624059034905 
2500	 0.109533887120274 
