Wavelength	LMW_1000002.asd
350	 0.046782170346977 
351	 0.051280634060446 
352	 4.83041886079696E-02 
353	 3.95830546096997E-02 
354	 3.97099716041074E-02 
355	 4.29411689092932E-02 
356	 4.44453338934479E-02 
357	 4.25622376805251E-02 
358	 4.73119561476704E-02 
359	 4.55652283227694E-02 
360	 4.05398184754734E-02 
361	 4.45443413180585E-02 
362	 0.043265868353714 
363	 4.24483978508372E-02 
364	 4.45693506128162E-02 
365	 4.33809175309885E-02 
366	 3.86706364733345E-02 
367	 3.56515633308247E-02 
368	 3.84514211148636E-02 
369	 4.15030944625789E-02 
370	 0.042184721583653 
371	 4.23120220932504E-02 
372	 4.58046720030507E-02 
373	 4.51291481365456E-02 
374	 4.35568001373403E-02 
375	 4.34968390897666E-02 
376	 4.35712204888688E-02 
377	 4.09383636169789E-02 
378	 4.07584417729447E-02 
379	 4.68244395570096E-02 
380	 4.76779806926402E-02 
381	 4.34803701045893E-02 
382	 4.01213167375437E-02 
383	 4.58455497201155E-02 
384	 4.54944630160974E-02 
385	 4.40213696618331E-02 
386	 4.52220302923139E-02 
387	 4.49341415181983E-02 
388	 4.63883875567639E-02 
389	 4.77390815286246E-02 
390	 4.66326155945285E-02 
391	 4.62474553763805E-02 
392	 4.50231041175408E-02 
393	 4.42789716544267E-02 
394	 4.73502127189384E-02 
395	 4.71990534642581E-02 
396	 4.69647996661687E-02 
397	 0.048644350541093 
398	 4.79256361411535E-02 
399	 4.83474505554443E-02 
400	 4.93919243770685E-02 
401	 4.93575670697277E-02 
402	 0.0487471965538 
403	 0.04859077912708 
404	 4.89923726525301E-02 
405	 4.91299245911827E-02 
406	 4.94130771091448E-02 
407	 5.03326157269388E-02 
408	 5.13825437993219E-02 
409	 4.91892963977695E-02 
410	 4.83801500844435E-02 
411	 4.93882108743219E-02 
412	 5.04333998294663E-02 
413	 4.97305189492491E-02 
414	 4.89088480661705E-02 
415	 4.91792860683676E-02 
416	 0.050873441533402 
417	 5.04713509352818E-02 
418	 4.99810991972122E-02 
419	 5.12463476182069E-02 
420	 5.07533150030975E-02 
421	 4.98109895128534E-02 
422	 4.94616680546961E-02 
423	 5.02825992678849E-02 
424	 5.04734654758149E-02 
425	 5.02336163382392E-02 
426	 4.99470356235426E-02 
427	 4.97957299066513E-02 
428	 4.96387309207327E-02 
429	 4.95328740516713E-02 
430	 4.95543669221359E-02 
431	 4.96370320951218E-02 
432	 4.92669540371846E-02 
433	 4.88102788839951E-02 
434	 4.93940581914891E-02 
435	 0.04930808126301 
436	 4.90811295003977E-02 
437	 4.92276715550249E-02 
438	 4.90006905188536E-02 
439	 4.90490566014257E-02 
440	 4.92019438873597E-02 
441	 4.89705966713587E-02 
442	 4.88237122928817E-02 
443	 4.89877305449447E-02 
444	 4.92743993662219E-02 
445	 4.89116183773936E-02 
446	 4.88145208776648E-02 
447	 4.90156709548799E-02 
448	 4.92631956102282E-02 
449	 4.92782813314602E-02 
450	 4.94198659536343E-02 
451	 4.96654646703752E-02 
452	 4.96657809854652E-02 
453	 4.94736191828806E-02 
454	 4.92762952795094E-02 
455	 4.92158144845916E-02 
456	 4.92587941311738E-02 
457	 4.94709690984181E-02 
458	 4.95567660743694E-02 
459	 4.91996729367035E-02 
460	 0.049226514322574 
461	 0.049155093562108 
462	 4.89181560836603E-02 
463	 4.91973211315185E-02 
464	 4.92462446806989E-02 
465	 4.91763944254488E-02 
466	 4.92386847686443E-02 
467	 4.92341594600514E-02 
468	 4.91823807502711E-02 
469	 4.90735850276509E-02 
470	 4.88840168943126E-02 
471	 4.87912584276857E-02 
472	 4.87232254765293E-02 
473	 4.86690125169207E-02 
474	 4.89455703794475E-02 
475	 4.86876302858684E-02 
476	 4.82327208655038E-02 
477	 4.83289346179185E-02 
478	 4.84143935155694E-02 
479	 4.84158093481113E-02 
480	 4.84022809751624E-02 
481	 0.048579206185862 
482	 4.87470969980694E-02 
483	 4.88158473397328E-02 
484	 4.87566594959946E-02 
485	 4.86125617912224E-02 
486	 4.86757616594189E-02 
487	 4.87770912965023E-02 
488	 4.84223294811723E-02 
489	 4.84210110677941E-02 
490	 4.85966120977016E-02 
491	 0.048644052693591 
492	 4.83513289382859E-02 
493	 4.82401812286063E-02 
494	 4.83081561345739E-02 
495	 4.83244200819625E-02 
496	 4.84631784264462E-02 
497	 4.84119370645563E-02 
498	 4.81851614758034E-02 
499	 0.048340127547306 
500	 4.84550493929886E-02 
501	 4.84379809165179E-02 
502	 4.83228372817241E-02 
503	 4.82289429168558E-02 
504	 4.82320996806973E-02 
505	 0.048310470537083 
506	 4.83574638024287E-02 
507	 4.83272785785028E-02 
508	 4.83273375779482E-02 
509	 4.83969954409557E-02 
510	 4.83097541544395E-02 
511	 4.81757559393726E-02 
512	 4.80868225906073E-02 
513	 4.81093826752632E-02 
514	 4.81741430109992E-02 
515	 4.81455698593999E-02 
516	 4.80644359032814E-02 
517	 4.82982914633347E-02 
518	 4.83554897915195E-02 
519	 4.82539053412752E-02 
520	 4.81789806673892E-02 
521	 4.82059030625662E-02 
522	 4.83363160859943E-02 
523	 4.84464451010921E-02 
524	 4.82997890492507E-02 
525	 4.82648650396329E-02 
526	 0.048299561360965 
527	 0.048307205144226 
528	 4.83340501258075E-02 
529	 4.83777427572911E-02 
530	 4.84091710238744E-02 
531	 4.83892560297853E-02 
532	 4.83747001141931E-02 
533	 0.04839618241752 
534	 4.84526886294793E-02 
535	 4.84996333947242E-02 
536	 4.84497211609193E-02 
537	 4.84120505484879E-02 
538	 4.85327512153729E-02 
539	 4.86308208988057E-02 
540	 4.86239739084376E-02 
541	 4.85660050786968E-02 
542	 4.86758193947783E-02 
543	 4.87557347752907E-02 
544	 4.87945050470177E-02 
545	 4.88344691769068E-02 
546	 4.89267361401446E-02 
547	 4.89478728395631E-02 
548	 4.89398675153289E-02 
549	 4.90725788823916E-02 
550	 4.90956253422889E-02 
551	 4.91176794041668E-02 
552	 0.049241722361464 
553	 4.93938843127883E-02 
554	 4.94842233430865E-02 
555	 4.95479791656807E-02 
556	 4.96782386443178E-02 
557	 4.97989639376903E-02 
558	 4.99561790649199E-02 
559	 5.01376609249941E-02 
560	 5.01984425336609E-02 
561	 5.03282323377272E-02 
562	 5.05294044060066E-02 
563	 5.07426816796843E-02 
564	 5.09700895884378E-02 
565	 0.051164187479811 
566	 5.13476965383897E-02 
567	 0.05162097684678 
568	 5.19258933408688E-02 
569	 5.22171580149341E-02 
570	 5.24793640529222E-02 
571	 5.27812403225904E-02 
572	 5.31374255636251E-02 
573	 5.35166074313923E-02 
574	 5.38571832152129E-02 
575	 5.41743218262692E-02 
576	 5.45167238878496E-02 
577	 5.49067891200539E-02 
578	 5.52922406792057E-02 
579	 5.57387317600145E-02 
580	 5.62740518101888E-02 
581	 5.68886854106866E-02 
582	 5.74577292456369E-02 
583	 5.79781147800279E-02 
584	 5.84677172497929E-02 
585	 5.89538121957496E-02 
586	 5.95538359322502E-02 
587	 6.01405931776665E-02 
588	 6.06000489743402E-02 
589	 6.12142794614925E-02 
590	 0.06188219914321 
591	 6.25161317578673E-02 
592	 6.30628677067816E-02 
593	 6.36005048995713E-02 
594	 6.41856793596775E-02 
595	 6.48324007367726E-02 
596	 6.54547024486208E-02 
597	 6.61570528546695E-02 
598	 6.68772700535338E-02 
599	 6.74860027561471E-02 
600	 6.81143999503806E-02 
601	 0.068723615267073 
602	 6.92826955449077E-02 
603	 6.98130544747936E-02 
604	 7.03266008510227E-02 
605	 7.08616780810974E-02 
606	 0.071442745479228 
607	 0.071973541822914 
608	 7.25010320609537E-02 
609	 7.30384520344339E-02 
610	 7.35524093141356E-02 
611	 7.39948659983364E-02 
612	 7.44014984184472E-02 
613	 7.48098492774679E-02 
614	 7.51892109929729E-02 
615	 7.55628341649055E-02 
616	 7.59131226305448E-02 
617	 7.62006423638317E-02 
618	 7.65208355190423E-02 
619	 0.076801344622693 
620	 7.70172418735801E-02 
621	 7.73025252447121E-02 
622	 0.077567377024248 
623	 0.077787849326275 
624	 7.79767393973771E-02 
625	 7.82100863179327E-02 
626	 7.84383792805431E-02 
627	 7.86415126214934E-02 
628	 7.88513835933193E-02 
629	 7.90391780492229E-02 
630	 7.92252884862059E-02 
631	 7.94228516236939E-02 
632	 7.95592248651571E-02 
633	 7.97061643631892E-02 
634	 7.98880482969923E-02 
635	 8.00847718767399E-02 
636	 8.02564433655679E-02 
637	 8.04086515525181E-02 
638	 8.05529334883835E-02 
639	 8.06878484795363E-02 
640	 8.08567328687261E-02 
641	 8.10603265440041E-02 
642	 8.12732225180811E-02 
643	 8.14621689048518E-02 
644	 8.16183246400945E-02 
645	 8.17649776160885E-02 
646	 8.19671428603026E-02 
647	 8.21477644212467E-02 
648	 8.23035383068749E-02 
649	 0.082465933255871 
650	 0.082716024763365 
651	 8.29439080953992E-02 
652	 8.31395185976979E-02 
653	 8.33801247188248E-02 
654	 0.083602057497849 
655	 8.37981264408375E-02 
656	 8.39960870112404E-02 
657	 8.42941289054442E-02 
658	 8.45395036119007E-02 
659	 8.47532224177814E-02 
660	 0.085024394298739 
661	 8.52603195495214E-02 
662	 8.55389019807457E-02 
663	 8.58685646701846E-02 
664	 8.61365879901238E-02 
665	 0.086370540072108 
666	 8.66282942791552E-02 
667	 8.69498777676138E-02 
668	 8.72570199406742E-02 
669	 8.75768291809758E-02 
670	 8.79112221302826E-02 
671	 8.82392944402471E-02 
672	 8.85622101569196E-02 
673	 8.89147858435724E-02 
674	 8.93145926309508E-02 
675	 8.97399083381904E-02 
676	 9.00740235538258E-02 
677	 9.03747381165233E-02 
678	 9.07634816460171E-02 
679	 9.11800159176398E-02 
680	 9.16147616740553E-02 
681	 9.20524356045062E-02 
682	 9.24666284124544E-02 
683	 0.092903741604295 
684	 9.33427957544812E-02 
685	 9.37678462241775E-02 
686	 9.42481872484789E-02 
687	 9.47276408310923E-02 
688	 9.52091930555731E-02 
689	 9.57310185402002E-02 
690	 9.62134912202381E-02 
691	 9.66802466090491E-02 
692	 9.71601589193174E-02 
693	 9.76610342927065E-02 
694	 0.098180015735564 
695	 9.87008125935506E-02 
696	 9.92151257457531E-02 
697	 9.97883041518324E-02 
698	 0.100348732282514 
699	 0.100889501093953 
700	 0.101478070878617 
701	 0.10206482818279 
702	 0.102637484151422 
703	 0.10318856300164 
704	 0.103687665126358 
705	 0.104260414923884 
706	 0.104876043180585 
707	 0.105437307916161 
708	 0.106069209779222 
709	 0.106681786762733 
710	 0.107235790238117 
711	 0.107798170558396 
712	 0.108376312319441 
713	 0.108963944489016 
714	 0.109549145975924 
715	 0.110119016408362 
716	 0.110686958970391 
717	 0.111259440762844 
718	 0.111832846583257 
719	 0.112369894555772 
720	 0.112870551519998 
721	 0.113356031844629 
722	 0.113876995181906 
723	 0.11439070593173 
724	 0.114898921373709 
725	 0.115406179357105 
726	 0.115854827002913 
727	 0.116280409480969 
728	 0.116699384129122 
729	 0.117104655118748 
730	 0.117485361583181 
731	 0.117859115345135 
732	 0.118233850828555 
733	 0.118588308321324 
734	 0.118876660378156 
735	 0.119108144226333 
736	 0.119320901477071 
737	 0.119551678356281 
738	 0.119786858240976 
739	 0.120005180501676 
740	 0.120182774666286 
741	 0.120304591529405 
742	 0.120399871873348 
743	 0.120483976055686 
744	 0.120506305834289 
745	 0.12048835960698 
746	 0.120479532809038 
747	 0.120515056545875 
748	 0.120439258566271 
749	 0.120321560191909 
750	 0.120212315607791 
751	 0.120112259104481 
752	 0.119992952358691 
753	 0.119864344206626 
754	 0.119727567092044 
755	 0.1195316764039 
756	 0.119291682078973 
757	 0.11904411056736 
758	 0.118826371676991 
759	 0.118595643308807 
760	 0.118313625328586 
761	 0.117993079628719 
762	 0.11770671940293 
763	 0.117402413981572 
764	 0.117093350330434 
765	 0.116788082963817 
766	 0.116435116659072 
767	 0.116088043760698 
768	 0.115732556766678 
769	 0.115329210533486 
770	 0.114926634197029 
771	 0.114538212523231 
772	 0.114160976218207 
773	 0.1137767085393 
774	 0.113375635249923 
775	 0.112993143219182 
776	 0.112639194324188 
777	 0.112226710754231 
778	 0.111819609371268 
779	 0.111421743833158 
780	 0.11101479430749 
781	 0.110627041132238 
782	 0.110238411242137 
783	 0.109837744447611 
784	 0.109428788676244 
785	 0.109026482500051 
786	 0.108622733685411 
787	 0.108218499039856 
788	 0.107851817135397 
789	 0.107456627878232 
790	 0.107047802627513 
791	 0.106662149465059 
792	 0.106269778086702 
793	 0.105914598523352 
794	 0.105594234220699 
795	 0.105263167973074 
796	 0.104878763999829 
797	 0.104492597552302 
798	 0.104143550123423 
799	 0.103818676358355 
800	 0.103486789278311 
801	 0.103142740375521 
802	 0.102799966590847 
803	 0.10250726094618 
804	 0.102182817351558 
805	 0.101846021462131 
806	 0.101568605008094 
807	 0.101267566884354 
808	 0.100942103090541 
809	 0.100623670087173 
810	 0.100368586448423 
811	 0.100112802905996 
812	 9.98285850184291E-02 
813	 9.95256836749063E-02 
814	 9.92875317855747E-02 
815	 9.90611016773958E-02 
816	 9.88267681275603E-02 
817	 9.85807987427767E-02 
818	 9.83239551841857E-02 
819	 0.098096201494332 
820	 9.78904913910533E-02 
821	 9.76617805578531E-02 
822	 9.74369043995198E-02 
823	 9.72163172034213E-02 
824	 9.70043603872245E-02 
825	 9.68174707671082E-02 
826	 9.66436107677844E-02 
827	 9.64519214383106E-02 
828	 0.096238707668353 
829	 9.61030224981634E-02 
830	 9.59349813646539E-02 
831	 9.57647972200294E-02 
832	 0.095671673337463 
833	 9.55864367646387E-02 
834	 9.54374186155735E-02 
835	 9.52360670691526E-02 
836	 9.50718004538389E-02 
837	 9.49816259821475E-02 
838	 9.48981387327483E-02 
839	 9.47731233017211E-02 
840	 9.46231103071699E-02 
841	 0.094511485441246 
842	 0.094417493042934 
843	 9.43104441099451E-02 
844	 9.42117866293642E-02 
845	 9.41331909162322E-02 
846	 9.40601579217457E-02 
847	 9.39801704702598E-02 
848	 9.39718834076773E-02 
849	 9.39305102392716E-02 
850	 9.38481072602056E-02 
851	 9.38021582429027E-02 
852	 0.093740695943376 
853	 9.36969991576421E-02 
854	 9.36779828250023E-02 
855	 9.36379884887357E-02 
856	 9.36263094260985E-02 
857	 9.36225583453326E-02 
858	 9.36032776279472E-02 
859	 9.35780883928062E-02 
860	 9.35621142795866E-02 
861	 9.35810959877338E-02 
862	 9.36451422137029E-02 
863	 9.36963875603547E-02 
864	 9.37116757762908E-02 
865	 9.37193263858979E-02 
866	 9.37638623871861E-02 
867	 9.37590158860527E-02 
868	 9.37779556545074E-02 
869	 9.38476904474675E-02 
870	 9.39313853346596E-02 
871	 9.39951984560115E-02 
872	 9.40727488442174E-02 
873	 9.41682875527718E-02 
874	 9.42208277219909E-02 
875	 9.43001034257815E-02 
876	 9.43867147931623E-02 
877	 9.44588156825993E-02 
878	 9.45456566421983E-02 
879	 9.46647112051212E-02 
880	 9.47845584906158E-02 
881	 9.48821458322459E-02 
882	 9.50477660791474E-02 
883	 9.52067291542325E-02 
884	 9.53455327758776E-02 
885	 9.54865465236276E-02 
886	 0.095621242265068 
887	 9.57900608850046E-02 
888	 9.59863748171744E-02 
889	 9.61648836542197E-02 
890	 0.096349424225106 
891	 9.64806902437387E-02 
892	 9.65998312802401E-02 
893	 0.096863902723568 
894	 9.70129625699464E-02 
895	 9.71592994040585E-02 
896	 9.73959357045673E-02 
897	 9.76478150802475E-02 
898	 9.78706918482142E-02 
899	 0.098111876407039 
900	 9.83909011244453E-02 
901	 0.098578887388217 
902	 9.87683860294195E-02 
903	 9.90358145160492E-02 
904	 9.93915211949657E-02 
905	 9.96369874841373E-02 
906	 9.99044964210735E-02 
907	 0.10018126868265 
908	 0.100423380325333 
909	 0.100819029361917 
910	 0.101154979096569 
911	 0.101435841757688 
912	 0.101795646704901 
913	 0.10208519902204 
914	 0.102421310657979 
915	 0.102806858338707 
916	 0.103138645481486 
917	 0.103499261164009 
918	 0.103856687347731 
919	 0.104183239789561 
920	 0.104482339783989 
921	 0.104896622852389 
922	 0.105330861103335 
923	 0.105732325278335 
924	 0.106172662427278 
925	 0.106589416928061 
926	 0.107032591088549 
927	 0.107502362070598 
928	 0.107867824380266 
929	 0.108356492788671 
930	 0.108892074082352 
931	 0.109373149208391 
932	 0.109829556832377 
933	 0.110370218879386 
934	 0.110878792560666 
935	 0.111286144302688 
936	 0.11185840668933 
937	 0.112443083332918 
938	 0.113023849295146 
939	 0.113611050460847 
940	 0.114146967789733 
941	 0.114706120014352 
942	 0.115340326256447 
943	 0.116026214598143 
944	 0.116505227787154 
945	 0.117035544365681 
946	 0.117705652201733 
947	 0.11845031431132 
948	 0.118964552820391 
949	 0.1196228638169 
950	 0.120354944631793 
951	 0.120940214641291 
952	 0.121700870451821 
953	 0.122447273002707 
954	 0.123143382195756 
955	 0.123851683171501 
956	 0.124571700890628 
957	 0.125411033199698 
958	 0.126226711584309 
959	 0.126821290650426 
960	 0.127593778817834 
961	 0.128432179964053 
962	 0.129310484263512 
963	 0.130236799139148 
964	 0.130975297053876 
965	 0.131786030407646 
966	 0.132684347533653 
967	 0.133527983133595 
968	 0.134453305071027 
969	 0.135313797759092 
970	 0.136132758373759 
971	 0.137051220851298 
972	 0.138113718031964 
973	 0.139089141710197 
974	 0.139937849219611 
975	 0.140795519809133 
976	 0.141851414843199 
977	 0.142926227466054 
978	 0.143890671213395 
979	 0.144718219756763 
980	 0.145591612161865 
981	 0.146570900645824 
982	 0.147587319107332 
983	 0.148558628430387 
984	 0.149743662066532 
985	 0.150929204963292 
986	 0.152011113329955 
987	 0.153008219073645 
988	 0.154072278232517 
989	 0.155220406895722 
990	 0.156367433422131 
991	 0.1574215912295 
992	 0.158496031292731 
993	 0.15956702633117 
994	 0.160653805566163 
995	 0.16178495870767 
996	 0.162968299137009 
997	 0.163932668227298 
998	 0.164950563194905 
999	 0.166295637775981 
1000	 0.16744456461576 
1001	 0.16549506533866 
1002	 0.166654384982289 
1003	 0.167654846085751 
1004	 0.168692359882515 
1005	 0.169749790883142 
1006	 0.170791339467035 
1007	 0.17179281647659 
1008	 0.172865498998257 
1009	 0.173910163386385 
1010	 0.174911461588204 
1011	 0.175922625003361 
1012	 0.176908558145191 
1013	 0.177918144484601 
1014	 0.178958193403678 
1015	 0.180009837791012 
1016	 0.18105893914972 
1017	 0.182098654308117 
1018	 0.183137156699657 
1019	 0.184133270514419 
1020	 0.185131203579607 
1021	 0.18616666856008 
1022	 0.187157581880787 
1023	 0.188142734018414 
1024	 0.189125463967863 
1025	 0.190080289138811 
1026	 0.191013515036621 
1027	 0.191933829874451 
1028	 0.192890407040154 
1029	 0.193840935013452 
1030	 0.194824062876998 
1031	 0.195778287250446 
1032	 0.196756937437324 
1033	 0.197655157252508 
1034	 0.198548504727966 
1035	 0.199409231764129 
1036	 0.200243965316799 
1037	 0.201170503024681 
1038	 0.202127304265443 
1039	 0.203022699060843 
1040	 0.203921550705548 
1041	 0.204816503339098 
1042	 0.205695540058726 
1043	 0.206563127343079 
1044	 0.207440747001489 
1045	 0.208332477735396 
1046	 0.209266230138524 
1047	 0.210163756148743 
1048	 0.211079364068849 
1049	 0.212047890479307 
1050	 0.212921757605424 
1051	 0.213775771513028 
1052	 0.214652378241035 
1053	 0.215514580030447 
1054	 0.216413168099627 
1055	 0.217285417698731 
1056	 0.218174652607422 
1057	 0.219057066547969 
1058	 0.219886192351485 
1059	 0.22078205573419 
1060	 0.221729620492661 
1061	 0.222657800845783 
1062	 0.22355174225523 
1063	 0.224476583093843 
1064	 0.22532584878866 
1065	 0.226155077645157 
1066	 0.227003861000366 
1067	 0.227828109827719 
1068	 0.228706125596275 
1069	 0.229602259720509 
1070	 0.230482674458276 
1071	 0.231387992577621 
1072	 0.232281974107304 
1073	 0.233114370711594 
1074	 0.234000294275127 
1075	 0.234901180340411 
1076	 0.235877154091984 
1077	 0.236751983021236 
1078	 0.237577696333257 
1079	 0.238456415306382 
1080	 0.239277057516106 
1081	 0.240156533330186 
1082	 0.241130454848522 
1083	 0.242046510026113 
1084	 0.242923646795024 
1085	 0.243836029063145 
1086	 0.244769471877339 
1087	 0.245664171986285 
1088	 0.246535321458958 
1089	 0.247433795823194 
1090	 0.248354300887845 
1091	 0.249313565369575 
1092	 0.250330025402886 
1093	 0.251305946425401 
1094	 0.252222258393572 
1095	 0.253141850660973 
1096	 0.254062265622283 
1097	 0.255024114567388 
1098	 0.255976092695904 
1099	 0.25693453546096 
1100	 0.257894361861822 
1101	 0.258847959192646 
1102	 0.259821926465234 
1103	 0.260818918331682 
1104	 0.261814942214739 
1105	 0.262792333848649 
1106	 0.263776651722484 
1107	 0.264779331481331 
1108	 0.265841784801633 
1109	 0.266890788065338 
1110	 0.267923413235088 
1111	 0.268976087331316 
1112	 0.270007114386872 
1113	 0.271063151014791 
1114	 0.272168399023391 
1115	 0.273236073234928 
1116	 0.274296491062265 
1117	 0.275353658753815 
1118	 0.276376930961286 
1119	 0.277433073690228 
1120	 0.278547126295206 
1121	 0.279620455937522 
1122	 0.280734185390841 
1123	 0.281881354848917 
1124	 0.283005633862814 
1125	 0.284126658174089 
1126	 0.285244396417855 
1127	 0.28634415563349 
1128	 0.287472824226059 
1129	 0.28861264484858 
1130	 0.289743702783495 
1131	 0.29088386417437 
1132	 0.292036309175408 
1133	 0.293183694262995 
1134	 0.29433771865218 
1135	 0.29551921267547 
1136	 0.296680072022322 
1137	 0.297845794305467 
1138	 0.298980287350988 
1139	 0.300116229782098 
1140	 0.301256278011244 
1141	 0.302374295452415 
1142	 0.303461687587705 
1143	 0.304576922093724 
1144	 0.305679032513139 
1145	 0.306803291411908 
1146	 0.307978963009431 
1147	 0.309099587536308 
1148	 0.310204504565072 
1149	 0.311302391320343 
1150	 0.312358460483144 
1151	 0.313428012058402 
1152	 0.314525138491351 
1153	 0.315610380248944 
1154	 0.316716294123674 
1155	 0.317846499896958 
1156	 0.318953892234309 
1157	 0.320074013752582 
1158	 0.32117054190021 
1159	 0.322252083365924 
1160	 0.323324242340827 
1161	 0.324369103061928 
1162	 0.325436018118086 
1163	 0.326520497096602 
1164	 0.327581782167624 
1165	 0.328650737201751 
1166	 0.329705024528381 
1167	 0.330729565156763 
1168	 0.331756953478201 
1169	 0.332775021862859 
1170	 0.333781508306278 
1171	 0.334804870870051 
1172	 0.335839950178391 
1173	 0.336847479062801 
1174	 0.337870690682595 
1175	 0.338854191020857 
1176	 0.339788319235997 
1177	 0.340747735540702 
1178	 0.341718614061192 
1179	 0.342662276522855 
1180	 0.343604246269409 
1181	 0.344528905177572 
1182	 0.345422097293212 
1183	 0.346313944076836 
1184	 0.347211929734036 
1185	 0.348125155696968 
1186	 0.348996206830666 
1187	 0.349858002643817 
1188	 0.350699529319563 
1189	 0.351508327926551 
1190	 0.352318025371783 
1191	 0.353115188310137 
1192	 0.353913906938491 
1193	 0.354709599297661 
1194	 0.355492861447234 
1195	 0.356288075427675 
1196	 0.357051097873654 
1197	 0.357792395317294 
1198	 0.358516328118171 
1199	 0.359221759133487 
1200	 0.35989432907929 
1201	 0.360594690691625 
1202	 0.361299150665068 
1203	 0.361980517989931 
1204	 0.362676804904071 
1205	 0.363331751337248 
1206	 0.363948090731956 
1207	 0.364568050503892 
1208	 0.365175722808642 
1209	 0.365775373517676 
1210	 0.366365133534393 
1211	 0.366946972105993 
1212	 0.367518492951954 
1213	 0.368084433168612 
1214	 0.368637175670715 
1215	 0.369192932214108 
1216	 0.369746875009027 
1217	 0.37030850829408 
1218	 0.37083374575129 
1219	 0.371347870630792 
1220	 0.371852104954187 
1221	 0.372319436789531 
1222	 0.372811860720022 
1223	 0.3733249123502 
1224	 0.373808676027544 
1225	 0.374288510101348 
1226	 0.374753803948546 
1227	 0.375206838379934 
1228	 0.37564106419717 
1229	 0.376057674757766 
1230	 0.376470249151002 
1231	 0.376861324931167 
1232	 0.377252333856507 
1233	 0.377640233363488 
1234	 0.378032275585012 
1235	 0.378405323066086 
1236	 0.378764913956334 
1237	 0.37912857314171 
1238	 0.379483925566031 
1239	 0.379839644394554 
1240	 0.380210720168791 
1241	 0.380549684682064 
1242	 0.380864886426827 
1243	 0.381187190484782 
1244	 0.381495477578468 
1245	 0.381801739417144 
1246	 0.382109896213377 
1247	 0.382417962558482 
1248	 0.382731150984708 
1249	 0.383023682138722 
1250	 0.383300616975575 
1251	 0.383580968384362 
1252	 0.383853006712425 
1253	 0.384101939983553 
1254	 0.384365069477412 
1255	 0.384646096600893 
1256	 0.384898594040763 
1257	 0.385124725928623 
1258	 0.385374148166635 
1259	 0.385622519214978 
1260	 0.385872695881135 
1261	 0.386151154697996 
1262	 0.386399431180268 
1263	 0.386628046102002 
1264	 0.38685623041805 
1265	 0.387077235071766 
1266	 0.387288902486132 
1267	 0.387501669857092 
1268	 0.387691219692026 
1269	 0.3878793868275 
1270	 0.388051553593026 
1271	 0.388225591758706 
1272	 0.388393063368522 
1273	 0.388564153006567 
1274	 0.388728665959731 
1275	 0.388906726261435 
1276	 0.389088610383719 
1277	 0.389274547797424 
1278	 0.389467660015518 
1279	 0.389660239462241 
1280	 0.389865993426459 
1281	 0.390058118903417 
1282	 0.390261593634212 
1283	 0.390433682869752 
1284	 0.390579203652616 
1285	 0.390715059610151 
1286	 0.390850710107074 
1287	 0.390999024890517 
1288	 0.391148992919475 
1289	 0.391321181751541 
1290	 0.391466487269987 
1291	 0.391598815437617 
1292	 0.391732697549699 
1293	 0.391866219977518 
1294	 0.391976835585492 
1295	 0.392084311375607 
1296	 0.392172164082258 
1297	 0.392219134469012 
1298	 0.392297556669016 
1299	 0.392387552439182 
1300	 0.392459777255065 
1301	 0.392542222401901 
1302	 0.392610296310395 
1303	 0.392663095959465 
1304	 0.392697864256849 
1305	 0.392754142166557 
1306	 0.392796688724343 
1307	 0.392804836433109 
1308	 0.392813520680622 
1309	 0.392812438372208 
1310	 0.392781951524505 
1311	 0.392769956067134 
1312	 0.392770313091604 
1313	 0.392756370849683 
1314	 0.392738791978879 
1315	 0.392714193766838 
1316	 0.392680368100266 
1317	 0.392646257370821 
1318	 0.392596625101855 
1319	 0.392567845501276 
1320	 0.392568662173958 
1321	 0.392533777627683 
1322	 0.392492144775548 
1323	 0.392439958071743 
1324	 0.392384106906734 
1325	 0.392314181681136 
1326	 0.392260676597545 
1327	 0.392228048871393 
1328	 0.392159208790602 
1329	 0.392079305088911 
1330	 0.392018884589828 
1331	 0.391956200669978 
1332	 0.391904803940823 
1333	 0.391888883984568 
1334	 0.391826662756827 
1335	 0.391737693182325 
1336	 0.391666943346766 
1337	 0.391569160037146 
1338	 0.391502070092627 
1339	 0.391476943250118 
1340	 0.391423186258476 
1341	 0.391365704301129 
1342	 0.391304786642716 
1343	 0.391238966274512 
1344	 0.391155684591092 
1345	 0.391087472783188 
1346	 0.391006180193265 
1347	 0.390892522252588 
1348	 0.390777974448993 
1349	 0.390626531157734 
1350	 0.390440661688659 
1351	 0.39026502618622 
1352	 0.390071807493009 
1353	 0.389883172381119 
1354	 0.389706443579608 
1355	 0.389501784014543 
1356	 0.389256380931051 
1357	 0.389067004534165 
1358	 0.388864203761773 
1359	 0.388713302631106 
1360	 0.388615111385876 
1361	 0.388524444102437 
1362	 0.388446369179611 
1363	 0.388402535644787 
1364	 0.388389800759553 
1365	 0.388392903043592 
1366	 0.388428929472624 
1367	 0.388480305468006 
1368	 0.388539332169178 
1369	 0.388578475031139 
1370	 0.388551889352282 
1371	 0.388479681633898 
1372	 0.388333765832684 
1373	 0.388118742861057 
1374	 0.387854297883281 
1375	 0.387562519477024 
1376	 0.38714190435029 
1377	 0.386636837592472 
1378	 0.386062615801472 
1379	 0.38533344897871 
1380	 0.384671479009444 
1381	 0.383971989578925 
1382	 0.383282837869222 
1383	 0.382634390076672 
1384	 0.381919998613236 
1385	 0.38123330295525 
1386	 0.380424452874389 
1387	 0.379549323084961 
1388	 0.378613521685971 
1389	 0.377623900151842 
1390	 0.376505145980136 
1391	 0.375323526311216 
1392	 0.37406091649163 
1393	 0.372651865028658 
1394	 0.37120733287318 
1395	 0.369733015818518 
1396	 0.368214181663954 
1397	 0.366718215069956 
1398	 0.365217680551816 
1399	 0.363705106042331 
1400	 0.362190691224547 
1401	 0.360666382925613 
1402	 0.359089348992458 
1403	 0.357601161569787 
1404	 0.356112247929718 
1405	 0.354714518139785 
1406	 0.35341346084858 
1407	 0.352101096021746 
1408	 0.35080152083608 
1409	 0.349572330603575 
1410	 0.348347247820107 
1411	 0.347224708098116 
1412	 0.34618066963186 
1413	 0.345213629031447 
1414	 0.344322379730115 
1415	 0.343466031791656 
1416	 0.342635482642947 
1417	 0.341868400642838 
1418	 0.341122894730744 
1419	 0.340411663057724 
1420	 0.339805780999126 
1421	 0.339251347441206 
1422	 0.338736671687733 
1423	 0.338262905650904 
1424	 0.337779770216807 
1425	 0.337298419033469 
1426	 0.336846337677357 
1427	 0.336381136799917 
1428	 0.33601161101027 
1429	 0.335699288200521 
1430	 0.335408863034424 
1431	 0.335205333738743 
1432	 0.33496044773774 
1433	 0.334695215298259 
1434	 0.334478187061258 
1435	 0.334260133169449 
1436	 0.334096860246939 
1437	 0.334016223670233 
1438	 0.333897610600212 
1439	 0.333795147365635 
1440	 0.333682733734306 
1441	 0.333536946967095 
1442	 0.333415333514102 
1443	 0.333331973628636 
1444	 0.333273967115637 
1445	 0.333279590166153 
1446	 0.333274638047753 
1447	 0.333247775590977 
1448	 0.333239308912691 
1449	 0.333184864495861 
1450	 0.333127598960517 
1451	 0.333117742557745 
1452	 0.333121893244708 
1453	 0.333157895152077 
1454	 0.333251029821134 
1455	 0.333305769882334 
1456	 0.333371797996917 
1457	 0.333422189278212 
1458	 0.333431586910627 
1459	 0.333502994176152 
1460	 0.333576591909079 
1461	 0.333695558250884 
1462	 0.333877026185118 
1463	 0.334042097259939 
1464	 0.334238772850012 
1465	 0.334422911177587 
1466	 0.33457506881245 
1467	 0.33478018391423 
1468	 0.334973604632114 
1469	 0.335239372701372 
1470	 0.335578309140836 
1471	 0.335931644982719 
1472	 0.33629977676011 
1473	 0.336698180821959 
1474	 0.337052790624249 
1475	 0.337406865345161 
1476	 0.337788012636495 
1477	 0.338180276753476 
1478	 0.338627763430269 
1479	 0.339104249756602 
1480	 0.339578509062777 
1481	 0.340053560745541 
1482	 0.340509173679642 
1483	 0.340936146389594 
1484	 0.341393628986225 
1485	 0.341850244789562 
1486	 0.342327122248818 
1487	 0.342828624577455 
1488	 0.343313949291813 
1489	 0.343815487550164 
1490	 0.344291624787014 
1491	 0.344753514188233 
1492	 0.345213650578511 
1493	 0.345648241825812 
1494	 0.346104733165615 
1495	 0.346574290558077 
1496	 0.347031178163597 
1497	 0.347501156164678 
1498	 0.347954330605629 
1499	 0.348395223505981 
1500	 0.348828436653038 
1501	 0.349250628511024 
1502	 0.349666679699971 
1503	 0.350072088309351 
1504	 0.350465785419283 
1505	 0.350881607723571 
1506	 0.351295478712295 
1507	 0.351706058708972 
1508	 0.352111196413489 
1509	 0.352469064117248 
1510	 0.352834095792853 
1511	 0.353211687136481 
1512	 0.353575969096089 
1513	 0.353940194769706 
1514	 0.354305861256974 
1515	 0.354678027549256 
1516	 0.355036060515169 
1517	 0.355386938257484 
1518	 0.355746528331209 
1519	 0.356093438998906 
1520	 0.356418155432201 
1521	 0.35674998357733 
1522	 0.357085542155384 
1523	 0.357418393516254 
1524	 0.357741856877746 
1525	 0.35806281362619 
1526	 0.358393329193974 
1527	 0.358709281348358 
1528	 0.359007576468263 
1529	 0.359314758603386 
1530	 0.359621692814929 
1531	 0.359924497538184 
1532	 0.360235773798913 
1533	 0.360531900675602 
1534	 0.360815900995121 
1535	 0.36109885116544 
1536	 0.36137251051372 
1537	 0.361637441764553 
1538	 0.361893883240414 
1539	 0.362159098850364 
1540	 0.362421688346438 
1541	 0.362681412661164 
1542	 0.362950410163642 
1543	 0.363204780623044 
1544	 0.363446784724349 
1545	 0.363689481670853 
1546	 0.36392614639897 
1547	 0.364168831173396 
1548	 0.364387665030145 
1549	 0.364593586539346 
1550	 0.364808767945544 
1551	 0.365008981654496 
1552	 0.365227627614578 
1553	 0.365453566017937 
1554	 0.365674465783308 
1555	 0.365898525039326 
1556	 0.366092408280841 
1557	 0.366295588677262 
1558	 0.366500558316923 
1559	 0.366661979286224 
1560	 0.366841376569226 
1561	 0.367031116570765 
1562	 0.367206421686326 
1563	 0.367359850196877 
1564	 0.367548649434796 
1565	 0.367751953786671 
1566	 0.367944388493873 
1567	 0.368155527163628 
1568	 0.368346989781955 
1569	 0.368533551125496 
1570	 0.368692000330086 
1571	 0.368836533931612 
1572	 0.3689731826524 
1573	 0.369074466579068 
1574	 0.369196654975017 
1575	 0.369319422274946 
1576	 0.369451038288898 
1577	 0.36959071787003 
1578	 0.369727864120585 
1579	 0.369875866090134 
1580	 0.370017743767967 
1581	 0.370160117855551 
1582	 0.370288105399452 
1583	 0.370392822392914 
1584	 0.370525649411709 
1585	 0.370672768829171 
1586	 0.370801774310372 
1587	 0.370946259443232 
1588	 0.371074694797792 
1589	 0.371187137244878 
1590	 0.371285790885718 
1591	 0.37137677414938 
1592	 0.371464887990927 
1593	 0.371525155521105 
1594	 0.371593480149521 
1595	 0.371661296255088 
1596	 0.371741663928083 
1597	 0.371833208722034 
1598	 0.371912507151178 
1599	 0.371992734503372 
1600	 0.372079386996253 
1601	 0.372157892371363 
1602	 0.372242932408573 
1603	 0.372338892602338 
1604	 0.372435386155867 
1605	 0.372533161870728 
1606	 0.372627846786505 
1607	 0.372729668840083 
1608	 0.372826527219481 
1609	 0.372922751876385 
1610	 0.372996271758608 
1611	 0.373064971053292 
1612	 0.373144552616852 
1613	 0.373193362650172 
1614	 0.373239629159382 
1615	 0.373279400606731 
1616	 0.37331341445624 
1617	 0.373359060088748 
1618	 0.373402959045614 
1619	 0.373461996890869 
1620	 0.373517977160554 
1621	 0.373569904451536 
1622	 0.373628904011695 
1623	 0.373674433669075 
1624	 0.373707018261503 
1625	 0.373746085753211 
1626	 0.373774394943064 
1627	 0.373832346318186 
1628	 0.37390711534624 
1629	 0.373966404812135 
1630	 0.374044289483852 
1631	 0.374097206954444 
1632	 0.374127331541359 
1633	 0.374165605962614 
1634	 0.374212969981424 
1635	 0.374224748759527 
1636	 0.374218370801301 
1637	 0.374207547093644 
1638	 0.374159673792116 
1639	 0.374156656639093 
1640	 0.3741583104051 
1641	 0.374190172320942 
1642	 0.374265698614332 
1643	 0.374306339453568 
1644	 0.374362002146999 
1645	 0.374383747527985 
1646	 0.374368480951615 
1647	 0.374375753851631 
1648	 0.374376346502597 
1649	 0.374387209799438 
1650	 0.374414911791917 
1651	 0.374423303895551 
1652	 0.374421312142176 
1653	 0.374429056746538 
1654	 0.374430799638227 
1655	 0.374440154753212 
1656	 0.374475306811481 
1657	 0.374468165089993 
1658	 0.37443583157003 
1659	 0.374416096596594 
1660	 0.374362139734105 
1661	 0.374356928925767 
1662	 0.374396429100337 
1663	 0.374400075102578 
1664	 0.374430810474722 
1665	 0.374399604011534 
1666	 0.374303328019264 
1667	 0.374253182145545 
1668	 0.374192887385631 
1669	 0.37413906975101 
1670	 0.374112780681293 
1671	 0.374070077037753 
1672	 0.373989228900786 
1673	 0.373964521288551 
1674	 0.373976531638035 
1675	 0.373976158073579 
1676	 0.374019853026006 
1677	 0.374005799702988 
1678	 0.373956424820429 
1679	 0.373913648068079 
1680	 0.373837733838868 
1681	 0.373790277773955 
1682	 0.373761616818838 
1683	 0.373718996412552 
1684	 0.373669444683642 
1685	 0.373636196088262 
1686	 0.373613525814814 
1687	 0.373574522342878 
1688	 0.37354270308648 
1689	 0.373502341579129 
1690	 0.373446541081781 
1691	 0.373386250305281 
1692	 0.37332926646789 
1693	 0.373262557619575 
1694	 0.373170741773253 
1695	 0.37309881668765 
1696	 0.373032635620177 
1697	 0.372972577034545 
1698	 0.372929873361926 
1699	 0.372864601204403 
1700	 0.372784484078182 
1701	 0.372725878795545 
1702	 0.37266618499014 
1703	 0.372610541982093 
1704	 0.372586747532477 
1705	 0.372521341011277 
1706	 0.372420667472216 
1707	 0.37234575148975 
1708	 0.372271493411686 
1709	 0.372195515669011 
1710	 0.372132990165894 
1711	 0.372055140594209 
1712	 0.371955485052797 
1713	 0.371873427442059 
1714	 0.371801570892227 
1715	 0.37172215853839 
1716	 0.37165312971106 
1717	 0.371560338168819 
1718	 0.371448126149917 
1719	 0.371344517085162 
1720	 0.371240792432211 
1721	 0.371120130709781 
1722	 0.371002755190298 
1723	 0.370861614281268 
1724	 0.370687326805967 
1725	 0.370526870785326 
1726	 0.370363947264815 
1727	 0.370197436127291 
1728	 0.370025881176998 
1729	 0.369860286289444 
1730	 0.369692619950317 
1731	 0.369529311649849 
1732	 0.369373276689541 
1733	 0.369214742949988 
1734	 0.369062093131833 
1735	 0.368889381145688 
1736	 0.368714659542142 
1737	 0.368521203652074 
1738	 0.368307213818109 
1739	 0.368089297043732 
1740	 0.367850947668269 
1741	 0.367648245619768 
1742	 0.367451580251542 
1743	 0.367255297745608 
1744	 0.367084414987514 
1745	 0.366883880999874 
1746	 0.366662129262652 
1747	 0.366454565930281 
1748	 0.366255360947519 
1749	 0.366073558761386 
1750	 0.365895173960541 
1751	 0.365692255090764 
1752	 0.365471272767272 
1753	 0.365262400524461 
1754	 0.365055041319451 
1755	 0.364844841332726 
1756	 0.364647766451091 
1757	 0.364433949367564 
1758	 0.364213496776309 
1759	 0.364014499363148 
1760	 0.363827929639156 
1761	 0.363638211774436 
1762	 0.363452535293388 
1763	 0.363276623646201 
1764	 0.363106410369789 
1765	 0.362953533136321 
1766	 0.362775351750994 
1767	 0.362561209246551 
1768	 0.362362765976793 
1769	 0.362178707023477 
1770	 0.361995235991847 
1771	 0.361835548375818 
1772	 0.361694399538663 
1773	 0.36154497097862 
1774	 0.36139049089527 
1775	 0.361238817208238 
1776	 0.361052906681781 
1777	 0.360848759941155 
1778	 0.360663045142958 
1779	 0.360476162691429 
1780	 0.360320294552554 
1781	 0.360178318570526 
1782	 0.360054563798958 
1783	 0.359981965523109 
1784	 0.3598787591169 
1785	 0.359768409441146 
1786	 0.359679204808089 
1787	 0.359601577961051 
1788	 0.359502185497483 
1789	 0.35940481133077 
1790	 0.359303545024215 
1791	 0.359171825526815 
1792	 0.359058626942244 
1793	 0.35896344964124 
1794	 0.358887011213101 
1795	 0.358789338912842 
1796	 0.358742403702254 
1797	 0.358760578140646 
1798	 0.358746366880094 
1799	 0.358754418114367 
1800	 0.358731645315331 
1801	 0.349518491089028 
1802	 0.34989655930858 
1803	 0.350334168833872 
1804	 0.350826140537876 
1805	 0.351271310691476 
1806	 0.35167047907956 
1807	 0.352016809506545 
1808	 0.352281358897591 
1809	 0.352445168875668 
1810	 0.352611980368298 
1811	 0.352725061339592 
1812	 0.352824130687212 
1813	 0.352914298568346 
1814	 0.352964056201597 
1815	 0.353010160081976 
1816	 0.353022674063802 
1817	 0.353017672865123 
1818	 0.352979607268101 
1819	 0.352955182774015 
1820	 0.352914203331521 
1821	 0.3528758674047 
1822	 0.352843919926665 
1823	 0.352821264033361 
1824	 0.352796422992769 
1825	 0.352761847816301 
1826	 0.352722174302515 
1827	 0.352630245704944 
1828	 0.352507740694174 
1829	 0.352337829470426 
1830	 0.352163062468977 
1831	 0.351942377548264 
1832	 0.351748629579136 
1833	 0.351575313568624 
1834	 0.35139391172545 
1835	 0.351243882464061 
1836	 0.351104834550636 
1837	 0.350963574332822 
1838	 0.350845242782237 
1839	 0.350746072569368 
1840	 0.350684614268862 
1841	 0.350600630793738 
1842	 0.350499635625658 
1843	 0.350411416258785 
1844	 0.350282222561918 
1845	 0.350137399641421 
1846	 0.350036001023746 
1847	 0.349911458669124 
1848	 0.349731442990042 
1849	 0.349543103893438 
1850	 0.34932212341529 
1851	 0.349063315239579 
1852	 0.348759726581165 
1853	 0.348439982635461 
1854	 0.348082908624966 
1855	 0.347676965483029 
1856	 0.347231115296607 
1857	 0.346757836650799 
1858	 0.346226138766423 
1859	 0.345649554002393 
1860	 0.344977621765336 
1861	 0.344234867091337 
1862	 0.343394162768846 
1863	 0.342466280482589 
1864	 0.341409533007382 
1865	 0.340248832827802 
1866	 0.338951113479158 
1867	 0.337619919824507 
1868	 0.336222667833498 
1869	 0.334742299552451 
1870	 0.333279760248556 
1871	 0.33175213177284 
1872	 0.330163300476654 
1873	 0.328553262837641 
1874	 0.326923079246438 
1875	 0.325233459883814 
1876	 0.323461001103083 
1877	 0.321570651608422 
1878	 0.319542756438024 
1879	 0.317341051224267 
1880	 0.314974725583022 
1881	 0.312416987622306 
1882	 0.309751411783222 
1883	 0.306942892290333 
1884	 0.303948581680887 
1885	 0.300871405507456 
1886	 0.297686104647631 
1887	 0.294337298554194 
1888	 0.29095622294223 
1889	 0.287480598535224 
1890	 0.283947084886951 
1891	 0.280443849932496 
1892	 0.276880501717275 
1893	 0.273368414931692 
1894	 0.269856872554072 
1895	 0.266392465634519 
1896	 0.262962744936085 
1897	 0.259628963084224 
1898	 0.256333323414316 
1899	 0.253169051933624 
1900	 0.250191443999436 
1901	 0.247330117786178 
1902	 0.24466633607342 
1903	 0.242264876061341 
1904	 0.239937801511133 
1905	 0.237719157978416 
1906	 0.235692725612536 
1907	 0.233823036708804 
1908	 0.232056726263925 
1909	 0.230466021982369 
1910	 0.228968842938456 
1911	 0.227561761078592 
1912	 0.226262216551964 
1913	 0.225051521505871 
1914	 0.223929034088235 
1915	 0.222914249927912 
1916	 0.222014908748572 
1917	 0.221169392765434 
1918	 0.22043334626884 
1919	 0.219766648195025 
1920	 0.219182184848463 
1921	 0.218715054160254 
1922	 0.218301557030939 
1923	 0.217958671363502 
1924	 0.217658542282237 
1925	 0.217417506485723 
1926	 0.21721041288285 
1927	 0.21705240310274 
1928	 0.216934020425901 
1929	 0.216857720819156 
1930	 0.216831917345987 
1931	 0.216836500488529 
1932	 0.216881023248383 
1933	 0.216965636413613 
1934	 0.217092226013251 
1935	 0.217254328006831 
1936	 0.217465196705678 
1937	 0.217700192278364 
1938	 0.217958015215785 
1939	 0.218257681662556 
1940	 0.218592269183193 
1941	 0.218965960395152 
1942	 0.219373268366017 
1943	 0.219829209251789 
1944	 0.220317379425596 
1945	 0.220815913068588 
1946	 0.221304510573401 
1947	 0.221797546283623 
1948	 0.222303872836746 
1949	 0.222785818516793 
1950	 0.223316777865533 
1951	 0.223885268686999 
1952	 0.224464101987013 
1953	 0.225047378621392 
1954	 0.225674373864442 
1955	 0.226291527561496 
1956	 0.226926206831655 
1957	 0.227604715414611 
1958	 0.228330953430552 
1959	 0.229045072249103 
1960	 0.229802010828342 
1961	 0.230534186512016 
1962	 0.231243104550649 
1963	 0.231974311274496 
1964	 0.232698458992648 
1965	 0.233455864448319 
1966	 0.234246476969937 
1967	 0.235042545948745 
1968	 0.235824695081811 
1969	 0.236622688102773 
1970	 0.237396910887841 
1971	 0.238142689560123 
1972	 0.23890920120569 
1973	 0.239675167960296 
1974	 0.240449198582163 
1975	 0.24123648341249 
1976	 0.242016920299531 
1977	 0.242784342555504 
1978	 0.243578588286475 
1979	 0.244368216500615 
1980	 0.245158420587493 
1981	 0.245954664208059 
1982	 0.246763183199981 
1983	 0.247566002308042 
1984	 0.248359617504581 
1985	 0.249172387214675 
1986	 0.250015833773245 
1987	 0.250824978608481 
1988	 0.251629750093204 
1989	 0.252432103776313 
1990	 0.25319480676896 
1991	 0.253942424252822 
1992	 0.254713159129377 
1993	 0.255480008026129 
1994	 0.256270313515075 
1995	 0.257096795496909 
1996	 0.257887329739623 
1997	 0.258680358786931 
1998	 0.259457254815088 
1999	 0.260202673336676 
2000	 0.260957445539382 
2001	 0.261711251673142 
2002	 0.262469120287908 
2003	 0.26321922438148 
2004	 0.263965225596612 
2005	 0.264715019170312 
2006	 0.265461069735232 
2007	 0.266219180476743 
2008	 0.266988772532978 
2009	 0.267750311503249 
2010	 0.268535170251739 
2011	 0.269281560163242 
2012	 0.269984595105929 
2013	 0.270714232069939 
2014	 0.271439738254435 
2015	 0.272167805431634 
2016	 0.272900889731576 
2017	 0.273638080698093 
2018	 0.274357119484389 
2019	 0.275051397161279 
2020	 0.275758628981385 
2021	 0.276476977818352 
2022	 0.277173072304345 
2023	 0.277863389995822 
2024	 0.278540254764236 
2025	 0.279191122031128 
2026	 0.279849931755024 
2027	 0.28050498112795 
2028	 0.281161132517988 
2029	 0.281810495217313 
2030	 0.282462326687658 
2031	 0.283097309713049 
2032	 0.283719762519991 
2033	 0.284344689359511 
2034	 0.284963426216504 
2035	 0.285575097473646 
2036	 0.286183857301057 
2037	 0.286786756886731 
2038	 0.287382622595704 
2039	 0.287971428311863 
2040	 0.28855292797827 
2041	 0.289132885236263 
2042	 0.289711537860544 
2043	 0.29028546949763 
2044	 0.290862256554463 
2045	 0.291455322062741 
2046	 0.29201783869073 
2047	 0.292578466669087 
2048	 0.293108526790356 
2049	 0.293598594569102 
2050	 0.294107195572396 
2051	 0.294599913992515 
2052	 0.295097025006707 
2053	 0.295587020571949 
2054	 0.296100366212846 
2055	 0.296614654692262 
2056	 0.297156571549793 
2057	 0.297679530947555 
2058	 0.298230021479834 
2059	 0.298741918162831 
2060	 0.299226160930416 
2061	 0.299708968887683 
2062	 0.300176326252496 
2063	 0.300652061926875 
2064	 0.301136420633011 
2065	 0.301592205528714 
2066	 0.302020189447752 
2067	 0.302470341275383 
2068	 0.302895347567688 
2069	 0.303352069059823 
2070	 0.303807571761411 
2071	 0.30429416491248 
2072	 0.30475580755697 
2073	 0.305211189149959 
2074	 0.305652055610204 
2075	 0.306077950915892 
2076	 0.306522962744098 
2077	 0.306972882886189 
2078	 0.307405486142288 
2079	 0.307843422339326 
2080	 0.308273623048556 
2081	 0.308668474709973 
2082	 0.309086847592029 
2083	 0.309515464559887 
2084	 0.309964613331408 
2085	 0.310392645262568 
2086	 0.310830195274444 
2087	 0.311235471327251 
2088	 0.311620314125706 
2089	 0.312003530586441 
2090	 0.312366058829106 
2091	 0.312732712643212 
2092	 0.313082988554459 
2093	 0.313458853256565 
2094	 0.313850367966678 
2095	 0.314230688744624 
2096	 0.314618306324439 
2097	 0.31500885593868 
2098	 0.315393044944445 
2099	 0.315776435177316 
2100	 0.31616144945977 
2101	 0.316562900194057 
2102	 0.316942793511573 
2103	 0.317299482979492 
2104	 0.317679865945515 
2105	 0.31805373627692 
2106	 0.318454926594583 
2107	 0.318877294259301 
2108	 0.31930364587483 
2109	 0.31976856834558 
2110	 0.320196737096889 
2111	 0.320608445898957 
2112	 0.321026702569883 
2113	 0.321434728255805 
2114	 0.321837623966479 
2115	 0.32222992531638 
2116	 0.322635010933255 
2117	 0.322999149110137 
2118	 0.323327651778081 
2119	 0.323666257178415 
2120	 0.32399459080267 
2121	 0.324317084509663 
2122	 0.324629448004928 
2123	 0.324945765331976 
2124	 0.325262681048388 
2125	 0.325563249005162 
2126	 0.325869059076893 
2127	 0.326153050478063 
2128	 0.326393792184586 
2129	 0.32665919918165 
2130	 0.326931030695796 
2131	 0.327205069309134 
2132	 0.327454067727077 
2133	 0.327706285094369 
2134	 0.327941346282637 
2135	 0.328157178191233 
2136	 0.328351547973852 
2137	 0.328558652671765 
2138	 0.328705482645899 
2139	 0.328804877401015 
2140	 0.328885689816184 
2141	 0.3289230748497 
2142	 0.328955559164167 
2143	 0.328951189472571 
2144	 0.328956733465248 
2145	 0.328959224438196 
2146	 0.328953666241759 
2147	 0.328946804907209 
2148	 0.32892041280886 
2149	 0.328923018495296 
2150	 0.328932886843355 
2151	 0.328931334697412 
2152	 0.328960644466316 
2153	 0.328939989274969 
2154	 0.328898155971438 
2155	 0.328826049603925 
2156	 0.328714416023688 
2157	 0.328609743438382 
2158	 0.328480509176579 
2159	 0.328349187088158 
2160	 0.328219276124211 
2161	 0.328079095125512 
2162	 0.327919094181124 
2163	 0.327762271699703 
2164	 0.327606123706941 
2165	 0.327449524101609 
2166	 0.32727216168301 
2167	 0.327089599852744 
2168	 0.326886751918897 
2169	 0.326649736522728 
2170	 0.326441185312216 
2171	 0.326216230869401 
2172	 0.326029122859194 
2173	 0.325891687176815 
2174	 0.32570819844092 
2175	 0.325505955449675 
2176	 0.325329682705613 
2177	 0.325151708298537 
2178	 0.324965822572102 
2179	 0.324798429231383 
2180	 0.324628507574005 
2181	 0.324454187744256 
2182	 0.324258473967859 
2183	 0.324068826347141 
2184	 0.323860653305358 
2185	 0.323643641119954 
2186	 0.323390197708637 
2187	 0.323152471766219 
2188	 0.322924475165199 
2189	 0.322682252357044 
2190	 0.32241155151377 
2191	 0.322178223100104 
2192	 0.321954964304451 
2193	 0.321739587601621 
2194	 0.321548953568784 
2195	 0.321348768781405 
2196	 0.321105759610576 
2197	 0.32094337651879 
2198	 0.320842201708118 
2199	 0.320725871787462 
2200	 0.320651224586617 
2201	 0.32058066619427 
2202	 0.320500669529449 
2203	 0.320421819946539 
2204	 0.320362791241822 
2205	 0.320341459218082 
2206	 0.320287402858202 
2207	 0.32021926815611 
2208	 0.320163917491392 
2209	 0.320101007977189 
2210	 0.32006425295118 
2211	 0.320030387286595 
2212	 0.320024618658942 
2213	 0.32008108460528 
2214	 0.32007087097798 
2215	 0.320056859825931 
2216	 0.320021403450904 
2217	 0.319925923183866 
2218	 0.319851452893076 
2219	 0.319785000028255 
2220	 0.319712295909523 
2221	 0.31963938850688 
2222	 0.3195532704703 
2223	 0.319472706708245 
2224	 0.319372422181722 
2225	 0.319280903469096 
2226	 0.319178127273039 
2227	 0.319093689359713 
2228	 0.319020273349389 
2229	 0.318946499256889 
2230	 0.318883699360981 
2231	 0.318809897988128 
2232	 0.318730582616181 
2233	 0.318652151110444 
2234	 0.318603715031977 
2235	 0.31848658105799 
2236	 0.318329079160507 
2237	 0.318182780636681 
2238	 0.317964354140743 
2239	 0.317805135489108 
2240	 0.317678436959546 
2241	 0.317563574263953 
2242	 0.317508367990702 
2243	 0.317399600194353 
2244	 0.317262601205243 
2245	 0.317148961556027 
2246	 0.3170031440844 
2247	 0.316881095402655 
2248	 0.316763660899223 
2249	 0.316681177403865 
2250	 0.316567943910883 
2251	 0.316427164324674 
2252	 0.316322418187471 
2253	 0.316233345690361 
2254	 0.316142790254102 
2255	 0.316074326151659 
2256	 0.315983687553865 
2257	 0.315893497655654 
2258	 0.315785914340156 
2259	 0.315655602651383 
2260	 0.315535393725163 
2261	 0.315378375670469 
2262	 0.31527488088872 
2263	 0.315188867011717 
2264	 0.315136037117157 
2265	 0.315175381002238 
2266	 0.315144894637606 
2267	 0.315101323045555 
2268	 0.315052878300116 
2269	 0.314992226508975 
2270	 0.314856755810439 
2271	 0.31479109997136 
2272	 0.314733634310701 
2273	 0.314609414412003 
2274	 0.314516894423402 
2275	 0.314401076378534 
2276	 0.314242405756999 
2277	 0.314125992500987 
2278	 0.31403073479356 
2279	 0.313926934797176 
2280	 0.313823020803493 
2281	 0.313737675447374 
2282	 0.313664748061648 
2283	 0.31359361699948 
2284	 0.313557602553332 
2285	 0.313471195598305 
2286	 0.313345425539802 
2287	 0.313247359436013 
2288	 0.313130054689687 
2289	 0.313043280357742 
2290	 0.313011033550937 
2291	 0.312927170803483 
2292	 0.312821886128995 
2293	 0.312710910596925 
2294	 0.312565097698092 
2295	 0.31244463897572 
2296	 0.312326914107447 
2297	 0.312221020380132 
2298	 0.312150113439239 
2299	 0.312064570647335 
2300	 0.311966099311238 
2301	 0.311836160322675 
2302	 0.311685470217414 
2303	 0.31149807157259 
2304	 0.311310652710527 
2305	 0.311168121956039 
2306	 0.310978625219112 
2307	 0.310758597123435 
2308	 0.310563887843941 
2309	 0.310355555769799 
2310	 0.31016723507456 
2311	 0.310014726569944 
2312	 0.309846929681407 
2313	 0.309692917878677 
2314	 0.309480613350943 
2315	 0.309223108592573 
2316	 0.308993262761436 
2317	 0.308738862387009 
2318	 0.308501324286748 
2319	 0.308288063984215 
2320	 0.308080221336417 
2321	 0.307853756103895 
2322	 0.307648854167329 
2323	 0.307488243642994 
2324	 0.307301427493977 
2325	 0.307088510104569 
2326	 0.306902388312113 
2327	 0.306713989473286 
2328	 0.306554764954512 
2329	 0.306414689104137 
2330	 0.306316552973997 
2331	 0.306165055929225 
2332	 0.305960403060627 
2333	 0.305744463806813 
2334	 0.305515206438841 
2335	 0.305291921292411 
2336	 0.305053032594465 
2337	 0.304803465648199 
2338	 0.304553914017552 
2339	 0.30431441790058 
2340	 0.304070496469868 
2341	 0.303759739468678 
2342	 0.303427209616339 
2343	 0.303152612089777 
2344	 0.302934152534284 
2345	 0.302690343212254 
2346	 0.302552833579237 
2347	 0.302257682789575 
2348	 0.301840826480163 
2349	 0.301477220092551 
2350	 0.301073832118788 
2351	 0.300701774744283 
2352	 0.300355295124142 
2353	 0.299988208332042 
2354	 0.299616219444714 
2355	 0.299227436582844 
2356	 0.298834155601961 
2357	 0.29842532344985 
2358	 0.297978945599324 
2359	 0.297576715545567 
2360	 0.29720726389977 
2361	 0.296807572488305 
2362	 0.296426590539149 
2363	 0.295993831521372 
2364	 0.29547897466442 
2365	 0.29502442515535 
2366	 0.294584480287528 
2367	 0.29414045212301 
2368	 0.293756045518167 
2369	 0.293308616797172 
2370	 0.292777452086148 
2371	 0.292336004136764 
2372	 0.291888215026739 
2373	 0.291446798557154 
2374	 0.291073808513784 
2375	 0.290565802459596 
2376	 0.290081507761503 
2377	 0.289634584827532 
2378	 0.289115039244076 
2379	 0.288666962677159 
2380	 0.288215269426351 
2381	 0.287681556802181 
2382	 0.287130377548626 
2383	 0.286641142512755 
2384	 0.286221631625154 
2385	 0.285701878948099 
2386	 0.285226361486535 
2387	 0.284878193108475 
2388	 0.284392167133166 
2389	 0.283989259348432 
2390	 0.283683033047578 
2391	 0.28319478459815 
2392	 0.282703425247152 
2393	 0.28216030172448 
2394	 0.28153772929887 
2395	 0.280996438770421 
2396	 0.280473026617436 
2397	 0.279982706810962 
2398	 0.279437351465249 
2399	 0.278857353440515 
2400	 0.278334074967511 
2401	 0.277754062227857 
2402	 0.27720415635798 
2403	 0.276703772310154 
2404	 0.276170949113833 
2405	 0.275629982144543 
2406	 0.275088678723955 
2407	 0.274508825564402 
2408	 0.273816280137657 
2409	 0.273100922751896 
2410	 0.272544727737909 
2411	 0.272046205503346 
2412	 0.271553588454857 
2413	 0.271146672114963 
2414	 0.27068258631063 
2415	 0.270059267477532 
2416	 0.269474866519315 
2417	 0.268903857685507 
2418	 0.26835129573894 
2419	 0.267744462331395 
2420	 0.267233003810607 
2421	 0.266821937875089 
2422	 0.26627009156983 
2423	 0.265722124090043 
2424	 0.265111658722171 
2425	 0.264337885271529 
2426	 0.263757573426689 
2427	 0.263263887844372 
2428	 0.262682511259317 
2429	 0.262170067994827 
2430	 0.261593412144781 
2431	 0.260947959438237 
2432	 0.26028069235096 
2433	 0.25958922329483 
2434	 0.258957728283328 
2435	 0.258215243858792 
2436	 0.257649002945696 
2437	 0.257280067574204 
2438	 0.256784306575897 
2439	 0.25630542480483 
2440	 0.25579790874977 
2441	 0.255262086179846 
2442	 0.254717371713596 
2443	 0.254183862570712 
2444	 0.253633985217689 
2445	 0.253017207593602 
2446	 0.252439786386379 
2447	 0.251847169622337 
2448	 0.251278321186953 
2449	 0.250817435424687 
2450	 0.250203309945015 
2451	 0.249508351734259 
2452	 0.248879844651116 
2453	 0.248136995114875 
2454	 0.247477795200148 
2455	 0.246960711612674 
2456	 0.246391815825026 
2457	 0.245774055039733 
2458	 0.245209916254837 
2459	 0.244654588597162 
2460	 0.244098233935472 
2461	 0.243579106755949 
2462	 0.243032992906994 
2463	 0.242504692684922 
2464	 0.242019139609534 
2465	 0.24150201748824 
2466	 0.241013918963252 
2467	 0.240644386124279 
2468	 0.240156413148403 
2469	 0.239563249776192 
2470	 0.238990838642984 
2471	 0.238506954682267 
2472	 0.238176200771107 
2473	 0.237787097117012 
2474	 0.2373805922206 
2475	 0.236959903198948 
2476	 0.236210304547255 
2477	 0.235439295168073 
2478	 0.234883964714396 
2479	 0.234178918873181 
2480	 0.233596038954091 
2481	 0.233293116386572 
2482	 0.233042735432091 
2483	 0.232673846966942 
2484	 0.232226248444119 
2485	 0.23176738412509 
2486	 0.231210441230527 
2487	 0.23077416261984 
2488	 0.23026967914381 
2489	 0.229790214234513 
2490	 0.229501107683269 
2491	 0.229020285881767 
2492	 0.228640354351423 
2493	 0.228254139495889 
2494	 0.227645294271367 
2495	 0.227268802220257 
2496	 0.227095286150963 
2497	 0.226876882655937 
2498	 0.226601662067648 
2499	 0.22615281194098 
2500	 0.225605861639939 
