Wavelength	MM_3500003.asd
350	 4.36558571696485E-02 
351	 5.08665531955969E-02 
352	 4.48680902108595E-02 
353	 2.74178852596923E-02 
354	 2.85688520948626E-02 
355	 3.80170967322095E-02 
356	 4.17527557813805E-02 
357	 3.38190437636271E-02 
358	 4.20202845007274E-02 
359	 4.16655753180533E-02 
360	 3.35068702284349E-02 
361	 0.034097389731065 
362	 3.27087950968498E-02 
363	 3.44066364418147E-02 
364	 3.88971820444827E-02 
365	 3.45963293659949E-02 
366	 3.28951895649706E-02 
367	 0.035524755068186 
368	 3.96322847305975E-02 
369	 3.65115363710867E-02 
370	 3.42232234074596E-02 
371	 3.47675907461394E-02 
372	 3.55349596383278E-02 
373	 3.61428140180536E-02 
374	 3.50832922628898E-02 
375	 3.35543021615467E-02 
376	 3.78879441173496E-02 
377	 3.74497294405017E-02 
378	 3.57460192350773E-02 
379	 3.80035916072241E-02 
380	 3.75804483837196E-02 
381	 3.63526469886681E-02 
382	 3.62396979635128E-02 
383	 3.84424280569444E-02 
384	 3.72652510787706E-02 
385	 3.68279620192738E-02 
386	 3.91426505940128E-02 
387	 3.95910365732755E-02 
388	 0.039799320472058 
389	 4.06615976348267E-02 
390	 4.21778264810977E-02 
391	 4.10068140510476E-02 
392	 4.01126364534401E-02 
393	 0.04143645957808 
394	 4.53539272358023E-02 
395	 4.59854957161763E-02 
396	 4.49653846114136E-02 
397	 4.46486447426483E-02 
398	 4.61258263482014E-02 
399	 4.74784471334727E-02 
400	 4.84730121982841E-02 
401	 4.94265333491317E-02 
402	 5.00462800698161E-02 
403	 0.049068371582361 
404	 4.76586275484342E-02 
405	 4.92386185374897E-02 
406	 5.16316099971224E-02 
407	 5.34122258947052E-02 
408	 5.36725125657337E-02 
409	 5.19413342505453E-02 
410	 5.18037824756263E-02 
411	 5.30867131528091E-02 
412	 0.053896174979744 
413	 5.44440938114111E-02 
414	 5.48082042293911E-02 
415	 5.49119535404335E-02 
416	 5.44282322604356E-02 
417	 5.52508367198808E-02 
418	 5.58313900269723E-02 
419	 5.48844284468847E-02 
420	 5.49425201118805E-02 
421	 5.47280490942478E-02 
422	 5.45453028334824E-02 
423	 5.55113153584363E-02 
424	 0.055645464268883 
425	 5.52615327256316E-02 
426	 5.48822034787487E-02 
427	 5.48962950816642E-02 
428	 0.054038197122261 
429	 5.34239207265383E-02 
430	 5.42152467920573E-02 
431	 0.053859484531245 
432	 5.30876500510234E-02 
433	 5.26475475130135E-02 
434	 5.30649848138291E-02 
435	 5.31025908153125E-02 
436	 5.30863756950526E-02 
437	 5.33807181225102E-02 
438	 5.36380251509254E-02 
439	 0.053623769188075 
440	 5.36595783670675E-02 
441	 5.42207552833876E-02 
442	 5.45279044751815E-02 
443	 5.48824503557378E-02 
444	 5.53610289010868E-02 
445	 5.55264288385164E-02 
446	 5.59851140630451E-02 
447	 5.64240620701566E-02 
448	 5.64775939453026E-02 
449	 5.66859916852253E-02 
450	 5.72293813488948E-02 
451	 0.057885557405575 
452	 5.81310569328213E-02 
453	 5.80815294403834E-02 
454	 5.81094695842178E-02 
455	 5.84320330470085E-02 
456	 5.88493593693032E-02 
457	 5.87855849829009E-02 
458	 5.86865870393468E-02 
459	 5.92551728645542E-02 
460	 5.91998968736826E-02 
461	 5.91230301852122E-02 
462	 0.059331750544408 
463	 5.94801221130419E-02 
464	 5.97807995351608E-02 
465	 6.00123349940831E-02 
466	 5.99768473786202E-02 
467	 6.00235899480938E-02 
468	 6.01631983544424E-02 
469	 6.02935700248807E-02 
470	 6.02433327575794E-02 
471	 6.01303861496791E-02 
472	 6.01419474150032E-02 
473	 6.03389299152196E-02 
474	 6.04762322649306E-02 
475	 6.06634686174247E-02 
476	 6.07714691619117E-02 
477	 6.06435687316813E-02 
478	 6.06592794426863E-02 
479	 6.07829783569907E-02 
480	 6.08634249277364E-02 
481	 6.06339201704716E-02 
482	 6.08885060358251E-02 
483	 6.11983168267816E-02 
484	 6.10444163233844E-02 
485	 0.061025944165799 
486	 0.060910421728292 
487	 6.07579186848264E-02 
488	 6.08633770132774E-02 
489	 6.10287080726323E-02 
490	 6.11905834523247E-02 
491	 0.061298174230614 
492	 6.12552411577271E-02 
493	 6.12477181273764E-02 
494	 6.12895399290959E-02 
495	 6.13279731411075E-02 
496	 6.15173588873993E-02 
497	 6.15420812296515E-02 
498	 6.13760720145765E-02 
499	 6.14781618137651E-02 
500	 0.061594682058722 
501	 6.15967834365756E-02 
502	 6.14767731492775E-02 
503	 6.15912054185391E-02 
504	 6.17626708268961E-02 
505	 6.18165402764907E-02 
506	 6.16247159715293E-02 
507	 6.16205500399524E-02 
508	 6.17437538847076E-02 
509	 0.061840798139152 
510	 6.17718526674382E-02 
511	 6.18703038422696E-02 
512	 6.19602291346685E-02 
513	 6.16902023015018E-02 
514	 6.17798517454929E-02 
515	 6.19237970423738E-02 
516	 6.19475094952115E-02 
517	 6.21100907905351E-02 
518	 6.21834269263519E-02 
519	 6.21316576115583E-02 
520	 6.20201272473863E-02 
521	 6.20597512765904E-02 
522	 6.21759196902323E-02 
523	 0.062242668538241 
524	 6.21078917444747E-02 
525	 6.21007282940895E-02 
526	 6.20968906140228E-02 
527	 6.19892748487343E-02 
528	 6.20649900809165E-02 
529	 6.21647761597503E-02 
530	 6.22351853025279E-02 
531	 6.22921400878172E-02 
532	 6.22712191082658E-02 
533	 6.23005210934848E-02 
534	 6.24309612443036E-02 
535	 6.25094273830142E-02 
536	 6.25236712994046E-02 
537	 6.25586144164703E-02 
538	 6.27026483599258E-02 
539	 6.27679777976688E-02 
540	 6.27059655438775E-02 
541	 6.26201016634997E-02 
542	 6.27965593130101E-02 
543	 6.29237582147823E-02 
544	 6.29984646104148E-02 
545	 6.30828907371708E-02 
546	 6.31416693358016E-02 
547	 0.06317757173208 
548	 6.32249507795342E-02 
549	 6.33374201512232E-02 
550	 6.34239487862653E-02 
551	 6.35000497092261E-02 
552	 6.36078641876928E-02 
553	 6.38212044783858E-02 
554	 6.39496102283787E-02 
555	 0.064017890310935 
556	 6.41575135735035E-02 
557	 6.43150871693778E-02 
558	 6.45431713460221E-02 
559	 6.48206965157573E-02 
560	 6.49757091736556E-02 
561	 6.51674991801471E-02 
562	 6.54065356858658E-02 
563	 6.56517776024579E-02 
564	 6.58832193571507E-02 
565	 6.60892873308536E-02 
566	 6.63001363106066E-02 
567	 6.65884317921716E-02 
568	 6.69183414980678E-02 
569	 6.72615650355874E-02 
570	 6.76066918302275E-02 
571	 6.79987604885337E-02 
572	 6.83963180749208E-02 
573	 6.88110643034522E-02 
574	 6.92794557772205E-02 
575	 6.96251464577737E-02 
576	 7.00060002140445E-02 
577	 7.05092930931523E-02 
578	 7.09550119863686E-02 
579	 7.13983458070199E-02 
580	 7.18313734587906E-02 
581	 7.22441986313123E-02 
582	 7.27728493100414E-02 
583	 7.32720500221038E-02 
584	 7.37175455861737E-02 
585	 7.42918780172609E-02 
586	 7.49036797318084E-02 
587	 7.54938466198346E-02 
588	 7.60369100477182E-02 
589	 0.076619325186789 
590	 7.72505973333843E-02 
591	 7.78895949997164E-02 
592	 7.84592007558245E-02 
593	 7.90129888921769E-02 
594	 7.96496735813864E-02 
595	 0.080372768060867 
596	 8.09148337303301E-02 
597	 0.08144243493326 
598	 8.19799349180016E-02 
599	 8.24820868008356E-02 
600	 8.29707153779675E-02 
601	 8.34452373237366E-02 
602	 8.39064201791325E-02 
603	 8.43647291995775E-02 
604	 8.48235756222561E-02 
605	 8.52660077816103E-02 
606	 8.56779623000807E-02 
607	 8.61035691170118E-02 
608	 0.086521911245748 
609	 8.69396927033586E-02 
610	 8.73967644970512E-02 
611	 8.77437131605054E-02 
612	 8.80652462055882E-02 
613	 8.84398999412158E-02 
614	 8.87268761239181E-02 
615	 0.088964946380903 
616	 8.91900763407446E-02 
617	 8.94348396685214E-02 
618	 8.97369056145119E-02 
619	 8.99842382216651E-02 
620	 9.01345219334924E-02 
621	 9.03362824559042E-02 
622	 9.05636468920554E-02 
623	 9.07745692823096E-02 
624	 9.09329929860924E-02 
625	 9.11282054556033E-02 
626	 9.13141008870004E-02 
627	 0.091467048494091 
628	 9.16069835207646E-02 
629	 9.17453863845692E-02 
630	 9.19132860862783E-02 
631	 9.21133070052231E-02 
632	 9.22193396743478E-02 
633	 0.092358241697803 
634	 9.25227998226008E-02 
635	 9.26042853906809E-02 
636	 9.27659736598939E-02 
637	 9.29505919961809E-02 
638	 9.30921697508286E-02 
639	 9.31944912818042E-02 
640	 9.33246254910206E-02 
641	 9.34681489509389E-02 
642	 9.35834505106012E-02 
643	 0.093758419363791 
644	 9.38898813674958E-02 
645	 9.39601941281668E-02 
646	 9.40999522009008E-02 
647	 0.094246352111499 
648	 9.43863485569661E-02 
649	 9.45227960631569E-02 
650	 9.46680465587555E-02 
651	 9.48317742408337E-02 
652	 9.50062696529788E-02 
653	 9.51696371945027E-02 
654	 9.53222026293948E-02 
655	 0.095476115303456 
656	 0.095642846024891 
657	 9.58263554001679E-02 
658	 9.60142382379361E-02 
659	 0.096200178933148 
660	 9.63780793521246E-02 
661	 9.65145793987877E-02 
662	 9.66943792180524E-02 
663	 9.69340754746046E-02 
664	 9.71374540271087E-02 
665	 9.73411384604285E-02 
666	 0.097531609354731 
667	 9.77019533660333E-02 
668	 9.79239277127417E-02 
669	 9.81262518533478E-02 
670	 9.83062637564102E-02 
671	 9.85204751556121E-02 
672	 9.87801131116009E-02 
673	 9.90557493698304E-02 
674	 0.09931639415656 
675	 9.95486925108138E-02 
676	 9.97450007377641E-02 
677	 9.99529140054024E-02 
678	 0.100226556590964 
679	 0.10047322621369 
680	 0.100748229932403 
681	 0.101056375976352 
682	 0.101321832597276 
683	 0.101593781167256 
684	 0.101858283152974 
685	 0.102102476545941 
686	 0.102370450235469 
687	 0.102672124778633 
688	 0.102993902992656 
689	 0.103301472731701 
690	 0.103531824480336 
691	 0.103778901845563 
692	 0.104094065051282 
693	 0.104398771862964 
694	 0.104717698475167 
695	 0.105051762540561 
696	 0.105388392280086 
697	 0.105687434908751 
698	 0.105957788897329 
699	 0.10623569842964 
700	 0.106578253411663 
701	 0.106914966904839 
702	 0.107222170449785 
703	 0.107506995415487 
704	 0.107835054811437 
705	 0.108131697495452 
706	 0.10840076822922 
707	 0.108688284123852 
708	 0.109022311288699 
709	 0.109337756281243 
710	 0.109610638123022 
711	 0.109889647157359 
712	 0.110232392809379 
713	 0.110535994470246 
714	 0.11072702744704 
715	 0.111020736460094 
716	 0.111338427504649 
717	 0.111621934312749 
718	 0.111842249715292 
719	 0.112075709170509 
720	 0.112342220962378 
721	 0.112620126816931 
722	 0.112826081725199 
723	 0.113027518713504 
724	 0.113243224507288 
725	 0.113464401936706 
726	 0.113626639872982 
727	 0.113829885337269 
728	 0.114060111745336 
729	 0.114198647520726 
730	 0.114356002213488 
731	 0.114523072638505 
732	 0.114677621880571 
733	 0.11482290003893 
734	 0.114929351393144 
735	 0.115016532009127 
736	 0.115117102448944 
737	 0.115200645265028 
738	 0.115276912410739 
739	 0.11535986181998 
740	 0.115462032478084 
741	 0.115484457828406 
742	 0.115479057191187 
743	 0.11550192494934 
744	 0.115531062256909 
745	 0.115515923433172 
746	 0.115485379372087 
747	 0.11549207875096 
748	 0.115455057110371 
749	 0.115399362253381 
750	 0.115338874555275 
751	 0.11526280941096 
752	 0.11518924628422 
753	 0.115132299498051 
754	 0.115083694825862 
755	 0.114974841128202 
756	 0.11485555776203 
757	 0.114750195938543 
758	 0.114662711196387 
759	 0.11456083912663 
760	 0.114415781548588 
761	 0.114241158579069 
762	 0.114100240914574 
763	 0.113970351482182 
764	 0.113823145134574 
765	 0.113644115048988 
766	 0.113460294925725 
767	 0.113296548449642 
768	 0.113136576144796 
769	 0.112946635022876 
770	 0.112742306887288 
771	 0.112538388296582 
772	 0.112343938786886 
773	 0.112161019119209 
774	 0.111992124244431 
775	 0.111807077583411 
776	 0.111589426519282 
777	 0.111377851893365 
778	 0.111156498916291 
779	 0.110950153007506 
780	 0.110782214999811 
781	 0.110551731340972 
782	 0.110333435643313 
783	 0.110132892801555 
784	 0.109875822396387 
785	 0.109696498472632 
786	 0.109506677683249 
787	 0.109245386604986 
788	 0.109012451067547 
789	 0.108855145018012 
790	 0.10869508298348 
791	 0.108442559137704 
792	 0.108242418885712 
793	 0.108024038358864 
794	 0.107792244183706 
795	 0.107617378017912 
796	 0.107421305053672 
797	 0.107200998767833 
798	 0.106980754820283 
799	 0.106811961974593 
800	 0.106633838044417 
801	 0.106431104705231 
802	 0.1062155084035 
803	 0.106044932346701 
804	 0.105842634954482 
805	 0.105642796145316 
806	 0.105525548629212 
807	 0.105313130196094 
808	 0.105104918431659 
809	 0.104940442648847 
810	 0.104743217877496 
811	 0.104616397877457 
812	 0.104479964754589 
813	 0.104280181969688 
814	 0.104149251807716 
815	 0.10400214324254 
816	 0.103824692791044 
817	 0.103644045403162 
818	 0.103540213496406 
819	 0.103416782198621 
820	 0.103240226362404 
821	 0.103048740795383 
822	 0.102938432334801 
823	 0.10284288819958 
824	 0.102718988360578 
825	 0.102606287276603 
826	 0.102480544901341 
827	 0.102363399590624 
828	 0.102265173238683 
829	 0.102118832211118 
830	 0.101982874869022 
831	 0.101894090178735 
832	 0.101847891863588 
833	 0.101674450417269 
834	 0.101540425690789 
835	 0.101485337679536 
836	 0.101409746646806 
837	 0.10135183810981 
838	 0.10130431800551 
839	 0.101235206538651 
840	 0.101080311829432 
841	 0.100997658897879 
842	 0.100957556502965 
843	 0.100898375241868 
844	 0.100839805953636 
845	 0.100795171283157 
846	 0.100747601805531 
847	 0.100676711788722 
848	 0.100626572620912 
849	 0.100596578196662 
850	 0.100544685892322 
851	 0.100419170674267 
852	 0.100421757314072 
853	 0.100444808478947 
854	 0.10041727110175 
855	 0.100388712208663 
856	 0.100353686492881 
857	 0.100355114335068 
858	 0.100392639711824 
859	 0.100327383051682 
860	 0.100301068446261 
861	 0.100298048143638 
862	 0.100267041530807 
863	 0.100262162334903 
864	 0.100285802996037 
865	 0.100309299096629 
866	 0.100296985561378 
867	 0.100298834562544 
868	 0.100323996685741 
869	 0.100367168887957 
870	 0.100412212776664 
871	 0.100451457320603 
872	 0.100495941602561 
873	 0.100538793211863 
874	 0.100540400448063 
875	 0.100551526333749 
876	 0.100609939914083 
877	 0.100708597366901 
878	 0.10073544768531 
879	 0.100794124651443 
880	 0.100842392202761 
881	 0.10084341706961 
882	 0.101006206684126 
883	 0.101083085072941 
884	 0.101063658920568 
885	 0.101082155657346 
886	 0.101211844504334 
887	 0.10128960574081 
888	 0.101328145014377 
889	 0.101480443917032 
890	 0.101575130371854 
891	 0.101660402414737 
892	 0.101768989471263 
893	 0.101876642970082 
894	 0.101928222771109 
895	 0.102002011657603 
896	 0.102140824512187 
897	 0.102276267975428 
898	 0.10242957679971 
899	 0.102560260483369 
900	 0.102644984017213 
901	 0.102737311717703 
902	 0.102868591361531 
903	 0.103006188484407 
904	 0.103117805143708 
905	 0.103270240686807 
906	 0.10341585175637 
907	 0.103557691927425 
908	 0.103717321340142 
909	 0.10386956945644 
910	 0.104042179625103 
911	 0.104220784552958 
912	 0.104377426671048 
913	 0.104612729495923 
914	 0.10476192417391 
915	 0.10484559902464 
916	 0.105043210858068 
917	 0.105213171740545 
918	 0.105407786035459 
919	 0.105614339232819 
920	 0.105734940108911 
921	 0.105922136350857 
922	 0.106129875000139 
923	 0.106326875734923 
924	 0.106553295961532 
925	 0.106772410935383 
926	 0.107012211165286 
927	 0.10724364344435 
928	 0.107314131501346 
929	 0.107547459344484 
930	 0.107829889127814 
931	 0.108033152252685 
932	 0.108265841881598 
933	 0.108612329632843 
934	 0.108893426118359 
935	 0.109000647841876 
936	 0.109260412439707 
937	 0.109489134601197 
938	 0.109669671687888 
939	 0.109869573567561 
940	 0.110255111621468 
941	 0.110532938959391 
942	 0.11075824987506 
943	 0.111064942306603 
944	 0.111279469759455 
945	 0.111552224482221 
946	 0.111842215566246 
947	 0.112051421318539 
948	 0.112258312642204 
949	 0.112497355090027 
950	 0.112797460350666 
951	 0.113155166401019 
952	 0.11345505104664 
953	 0.113758913760331 
954	 0.114032587887956 
955	 0.114233190650444 
956	 0.114586836304973 
957	 0.114885474411903 
958	 0.115120070408507 
959	 0.115409963344388 
960	 0.115762695448783 
961	 0.116033067990143 
962	 0.116280136128254 
963	 0.116639334766666 
964	 0.116812654402863 
965	 0.11712800245108 
966	 0.117533256877873 
967	 0.117760906780912 
968	 0.11805901592616 
969	 0.11842952192141 
970	 0.11876874665496 
971	 0.11897291990651 
972	 0.119301146835997 
973	 0.119644467252446 
974	 0.119986656414586 
975	 0.120367967015759 
976	 0.120678345614523 
977	 0.120917953040578 
978	 0.121128651064032 
979	 0.121380348943814 
980	 0.121764198949114 
981	 0.122131459739486 
982	 0.122421396299967 
983	 0.122665042892678 
984	 0.122966861016071 
985	 0.123233233834127 
986	 0.123448367825981 
987	 0.123678923486993 
988	 0.124112051373071 
989	 0.124464334726836 
990	 0.1247240455832 
991	 0.124996959316039 
992	 0.125136388126709 
993	 0.1253970233619 
994	 0.125749576792375 
995	 0.126035321297325 
996	 0.12618735470529 
997	 0.126539083473502 
998	 0.126876675381481 
999	 0.127000277086806 
1000	 0.127596454396623 
1001	 0.126918116958145 
1002	 0.127186957999257 
1003	 0.127479893532075 
1004	 0.127750800271796 
1005	 0.128021779997471 
1006	 0.128291966836778 
1007	 0.12857461823485 
1008	 0.128784546206691 
1009	 0.128985393088488 
1010	 0.129220395233637 
1011	 0.129423974194512 
1012	 0.129628277736881 
1013	 0.12989378177805 
1014	 0.130118851407065 
1015	 0.130291980994136 
1016	 0.130458818521551 
1017	 0.13062279956991 
1018	 0.13075509545462 
1019	 0.130909454711198 
1020	 0.131117868773187 
1021	 0.131355535378205 
1022	 0.13158474471709 
1023	 0.131761376149634 
1024	 0.131889577891351 
1025	 0.132034197433462 
1026	 0.132192811988014 
1027	 0.132352540161975 
1028	 0.132556007521621 
1029	 0.13273281621611 
1030	 0.13289101001849 
1031	 0.133038469049006 
1032	 0.13318806791658 
1033	 0.133297585571197 
1034	 0.133411154062734 
1035	 0.133524077132273 
1036	 0.133669795386903 
1037	 0.133827688217893 
1038	 0.133938877726816 
1039	 0.134040572084161 
1040	 0.13417275911292 
1041	 0.134300274757375 
1042	 0.134421172298947 
1043	 0.13455176992311 
1044	 0.134673287554726 
1045	 0.134759307038165 
1046	 0.134870565311635 
1047	 0.135026577944307 
1048	 0.135178468888784 
1049	 0.135337753683096 
1050	 0.1354550880298 
1051	 0.135529583009165 
1052	 0.135652221376771 
1053	 0.135789561607412 
1054	 0.135943288199503 
1055	 0.136150829845114 
1056	 0.13629704041691 
1057	 0.136420197315605 
1058	 0.136513025862247 
1059	 0.13661346143793 
1060	 0.136667957022044 
1061	 0.13677232369332 
1062	 0.136924759518909 
1063	 0.137001491650256 
1064	 0.137125642351809 
1065	 0.137298782460891 
1066	 0.137422401907184 
1067	 0.137548756611789 
1068	 0.13765818230824 
1069	 0.137740952068806 
1070	 0.137837638427315 
1071	 0.137944033850732 
1072	 0.13803152024113 
1073	 0.13809238839318 
1074	 0.138191970798752 
1075	 0.138285238629758 
1076	 0.13840365119309 
1077	 0.138572408429279 
1078	 0.138710981137771 
1079	 0.138804774809471 
1080	 0.138888037975914 
1081	 0.1389759634465 
1082	 0.139040981593845 
1083	 0.139101345244256 
1084	 0.13916120969277 
1085	 0.139230290518756 
1086	 0.139276731678109 
1087	 0.139347274453368 
1088	 0.139451208748458 
1089	 0.139516597932997 
1090	 0.139584878223141 
1091	 0.139661843107014 
1092	 0.139735283734945 
1093	 0.139815535340966 
1094	 0.139866572947864 
1095	 0.139919629961906 
1096	 0.139983412756109 
1097	 0.1400417096479 
1098	 0.140122954957564 
1099	 0.14024622416018 
1100	 0.140333534131502 
1101	 0.140425190203441 
1102	 0.140495082175387 
1103	 0.140539788098343 
1104	 0.140575329500358 
1105	 0.140663902194465 
1106	 0.140746163882304 
1107	 0.14081842911634 
1108	 0.140930777105749 
1109	 0.140984650671659 
1110	 0.14099166505566 
1111	 0.14103639951832 
1112	 0.141074269516045 
1113	 0.141140239223109 
1114	 0.141244763956918 
1115	 0.141320539925731 
1116	 0.141390173676417 
1117	 0.141470116826231 
1118	 0.141538375987653 
1119	 0.141617505716234 
1120	 0.141715305899771 
1121	 0.14180795552535 
1122	 0.141897427350124 
1123	 0.141965126076671 
1124	 0.142025746342673 
1125	 0.142075350039844 
1126	 0.142131548490023 
1127	 0.14218320772877 
1128	 0.142232646194725 
1129	 0.142281645368205 
1130	 0.142332228430781 
1131	 0.142360470174339 
1132	 0.142410880423828 
1133	 0.142490148798843 
1134	 0.142555671112731 
1135	 0.142615948855245 
1136	 0.142697458379449 
1137	 0.142760810501893 
1138	 0.142795454054329 
1139	 0.142838581220381 
1140	 0.142870960182195 
1141	 0.1429205042536 
1142	 0.142980236111916 
1143	 0.143022392700922 
1144	 0.143077787053282 
1145	 0.143106075621149 
1146	 0.143095003594366 
1147	 0.143114221094016 
1148	 0.143137464893706 
1149	 0.1431594114411 
1150	 0.143186429789148 
1151	 0.143226486905672 
1152	 0.143256014673773 
1153	 0.143278972939642 
1154	 0.143317005838098 
1155	 0.143373110574102 
1156	 0.143404626565726 
1157	 0.143425123726612 
1158	 0.143460249398374 
1159	 0.143485561617988 
1160	 0.143520533017455 
1161	 0.143586518069583 
1162	 0.143625260968231 
1163	 0.143640366699047 
1164	 0.143671256587901 
1165	 0.143710324742124 
1166	 0.14372389657101 
1167	 0.143768223684825 
1168	 0.143819927605363 
1169	 0.143858097555237 
1170	 0.143893692114558 
1171	 0.14392985943856 
1172	 0.143957056176999 
1173	 0.14399168686128 
1174	 0.14403161878331 
1175	 0.144070446532338 
1176	 0.144112376652387 
1177	 0.144150288119457 
1178	 0.144182886670304 
1179	 0.144222043583728 
1180	 0.144263187996517 
1181	 0.144303517607609 
1182	 0.144351524965296 
1183	 0.144392731378124 
1184	 0.144434613831281 
1185	 0.144469367262612 
1186	 0.144516633929342 
1187	 0.144578130352603 
1188	 0.144617684516954 
1189	 0.144651888430043 
1190	 0.144686835751584 
1191	 0.144703053871549 
1192	 0.144734319163248 
1193	 0.144783337254803 
1194	 0.144818728233227 
1195	 0.144849728179564 
1196	 0.144879896598227 
1197	 0.144899866316549 
1198	 0.144926654607857 
1199	 0.144955958277686 
1200	 0.144988196088546 
1201	 0.145019542551096 
1202	 0.14505262890622 
1203	 0.145088467525948 
1204	 0.14513142979893 
1205	 0.145160561286889 
1206	 0.145181027395488 
1207	 0.145211837717772 
1208	 0.14523880991231 
1209	 0.145267205462222 
1210	 0.145311710804326 
1211	 0.145341883866489 
1212	 0.145351727288555 
1213	 0.145376429054993 
1214	 0.145413094927073 
1215	 0.145438108982357 
1216	 0.145460903205459 
1217	 0.14548740380612 
1218	 0.14550878455277 
1219	 0.145514611578361 
1220	 0.145538053274394 
1221	 0.14557633157875 
1222	 0.14560067288386 
1223	 0.145626902080314 
1224	 0.145644486405282 
1225	 0.145650885753613 
1226	 0.145660133379455 
1227	 0.145654463707985 
1228	 0.145671708310426 
1229	 0.145717409414203 
1230	 0.145734884759129 
1231	 0.145742349535852 
1232	 0.145760665028235 
1233	 0.145776064431078 
1234	 0.145766343131256 
1235	 0.145789118036217 
1236	 0.14584333857234 
1237	 0.14587117249754 
1238	 0.145898624195524 
1239	 0.14591447555837 
1240	 0.145905967124167 
1241	 0.145926370074534 
1242	 0.145965915584977 
1243	 0.145982116817452 
1244	 0.145996179947709 
1245	 0.146017250803957 
1246	 0.146028885149251 
1247	 0.146035873826984 
1248	 0.14604895561086 
1249	 0.146064870462571 
1250	 0.146072485277389 
1251	 0.146085992306859 
1252	 0.146097856063082 
1253	 0.146119209843205 
1254	 0.146143696555208 
1255	 0.146172174128277 
1256	 0.146182282635178 
1257	 0.146194598147105 
1258	 0.146204901029472 
1259	 0.146194609132532 
1260	 0.146191489749471 
1261	 0.146200206948078 
1262	 0.146203692642085 
1263	 0.146208103774647 
1264	 0.146194962719528 
1265	 0.146152039076536 
1266	 0.146142820379775 
1267	 0.146133899619124 
1268	 0.146137565900251 
1269	 0.146146011511528 
1270	 0.146195562086446 
1271	 0.146202566393455 
1272	 0.146184824360582 
1273	 0.146178494984291 
1274	 0.146163540248693 
1275	 0.146161216047258 
1276	 0.146151948405522 
1277	 0.146168421955326 
1278	 0.146213854723614 
1279	 0.146240465502715 
1280	 0.146274646383733 
1281	 0.146306804965691 
1282	 0.146319426199991 
1283	 0.146348164765053 
1284	 0.14639135170335 
1285	 0.146437333644497 
1286	 0.146478299420887 
1287	 0.146514046062773 
1288	 0.146548463919114 
1289	 0.146575735128361 
1290	 0.146612636486203 
1291	 0.146652509345403 
1292	 0.146692914241136 
1293	 0.146747117357238 
1294	 0.14677169249213 
1295	 0.146768439378898 
1296	 0.146797887911484 
1297	 0.146846011394545 
1298	 0.146861727568452 
1299	 0.146871539812256 
1300	 0.146891420297373 
1301	 0.146893971397685 
1302	 0.146887478219128 
1303	 0.146880408168421 
1304	 0.14690025728358 
1305	 0.146893893900097 
1306	 0.146882638521145 
1307	 0.146890672504831 
1308	 0.146902187934047 
1309	 0.146910211828564 
1310	 0.146912997765744 
1311	 0.14690251576492 
1312	 0.146896212337752 
1313	 0.146876923723009 
1314	 0.146827820791495 
1315	 0.146799936304982 
1316	 0.146786395368499 
1317	 0.146760868762318 
1318	 0.146731535690324 
1319	 0.146704143494861 
1320	 0.146669671189535 
1321	 0.146638917071865 
1322	 0.146610879315519 
1323	 0.146587249784798 
1324	 0.146551595251943 
1325	 0.146520754415696 
1326	 0.146488133555504 
1327	 0.146445170676285 
1328	 0.146408184622007 
1329	 0.146376435528431 
1330	 0.146343583529077 
1331	 0.146309404103838 
1332	 0.146278617836357 
1333	 0.146253964888442 
1334	 0.146220070437613 
1335	 0.146180692416849 
1336	 0.146150478956848 
1337	 0.146118565258445 
1338	 0.146089249576804 
1339	 0.146070462214491 
1340	 0.146042126539674 
1341	 0.14600435575915 
1342	 0.145976395529483 
1343	 0.14594021300365 
1344	 0.145925386908129 
1345	 0.145937526671838 
1346	 0.145928378853484 
1347	 0.145904107470172 
1348	 0.145871090482551 
1349	 0.145822757643267 
1350	 0.145784998791104 
1351	 0.145763906180116 
1352	 0.145775118698943 
1353	 0.14575603566112 
1354	 0.145728030176574 
1355	 0.145707803482098 
1356	 0.145676211273589 
1357	 0.145655646086479 
1358	 0.145645942804582 
1359	 0.145635142477682 
1360	 0.145636109645402 
1361	 0.145618849772213 
1362	 0.145594331096822 
1363	 0.145572353200736 
1364	 0.145530592232658 
1365	 0.145504285403555 
1366	 0.145498641192627 
1367	 0.145482213534945 
1368	 0.145449344570299 
1369	 0.145398450683588 
1370	 0.145329130428626 
1371	 0.145256056582941 
1372	 0.145190894430329 
1373	 0.145126623505484 
1374	 0.145040046508949 
1375	 0.144941084670316 
1376	 0.144839121962017 
1377	 0.144713466050755 
1378	 0.144604157477624 
1379	 0.144507572538437 
1380	 0.144391647057386 
1381	 0.144282433279817 
1382	 0.144141386617627 
1383	 0.143978416335305 
1384	 0.143811146278838 
1385	 0.143634533349726 
1386	 0.14343609563323 
1387	 0.143232948578178 
1388	 0.143001956063738 
1389	 0.142741751668762 
1390	 0.142466291765291 
1391	 0.142192180453655 
1392	 0.141876765625248 
1393	 0.14153533224258 
1394	 0.141186642646994 
1395	 0.14079188085072 
1396	 0.140388706994141 
1397	 0.139997752972791 
1398	 0.139610636181978 
1399	 0.139198167493149 
1400	 0.138780655757297 
1401	 0.138360271346923 
1402	 0.137909273730177 
1403	 0.137483251314547 
1404	 0.13707028394376 
1405	 0.136661834466326 
1406	 0.136244660125182 
1407	 0.135859362228055 
1408	 0.135482650398217 
1409	 0.13513595459221 
1410	 0.134812659852155 
1411	 0.134517902754819 
1412	 0.134244182022978 
1413	 0.134002745590085 
1414	 0.133800943096354 
1415	 0.133604919054079 
1416	 0.133442599975402 
1417	 0.133314963720093 
1418	 0.133197783683992 
1419	 0.133092004579805 
1420	 0.132994821242556 
1421	 0.132890668772891 
1422	 0.132781677728042 
1423	 0.132684999571154 
1424	 0.132596967232026 
1425	 0.132518495880034 
1426	 0.132441691800327 
1427	 0.132373190975068 
1428	 0.132304951388612 
1429	 0.132235017955662 
1430	 0.132171837727772 
1431	 0.132117118121544 
1432	 0.132062799468077 
1433	 0.132004329943021 
1434	 0.131964106345684 
1435	 0.131931174185782 
1436	 0.131906634396537 
1437	 0.131908045439023 
1438	 0.131891984615258 
1439	 0.131866442508818 
1440	 0.131851384176444 
1441	 0.131841153179099 
1442	 0.131827192810172 
1443	 0.131829954870196 
1444	 0.131838273531357 
1445	 0.131832023724963 
1446	 0.131830356247677 
1447	 0.131831283524926 
1448	 0.131822747270373 
1449	 0.131820428840713 
1450	 0.131822391270786 
1451	 0.131819325494284 
1452	 0.13181182885343 
1453	 0.13181147409833 
1454	 0.131810265697583 
1455	 0.131815242460571 
1456	 0.131833840370937 
1457	 0.131838980212528 
1458	 0.131839900456188 
1459	 0.131838330936063 
1460	 0.131819847822213 
1461	 0.131823731068782 
1462	 0.131841821706808 
1463	 0.131853364916848 
1464	 0.131862367322694 
1465	 0.131890669796418 
1466	 0.131922115824716 
1467	 0.131963396431069 
1468	 0.132036657760606 
1469	 0.132091446605835 
1470	 0.132141137265424 
1471	 0.13218381259664 
1472	 0.132220247478747 
1473	 0.132278752275465 
1474	 0.132354193836907 
1475	 0.132427136645103 
1476	 0.132508803261404 
1477	 0.13258736154809 
1478	 0.132658252483481 
1479	 0.132748924650848 
1480	 0.132856798104521 
1481	 0.132960231767015 
1482	 0.133058404813525 
1483	 0.133161362765825 
1484	 0.133254314930539 
1485	 0.133333351907233 
1486	 0.133423110270823 
1487	 0.133512492570439 
1488	 0.133602818998535 
1489	 0.133701330023361 
1490	 0.133791371968883 
1491	 0.133872638161657 
1492	 0.133967402374537 
1493	 0.134069428787542 
1494	 0.13415961240152 
1495	 0.134258293098528 
1496	 0.134343043587936 
1497	 0.134406609832064 
1498	 0.134480538319227 
1499	 0.134554029735793 
1500	 0.134629036060435 
1501	 0.13470259011836 
1502	 0.134781280510983 
1503	 0.134863651580727 
1504	 0.134953630601074 
1505	 0.135025694420097 
1506	 0.135096633319844 
1507	 0.135162369332969 
1508	 0.135205648715663 
1509	 0.135272933984684 
1510	 0.135351971352737 
1511	 0.135411248530071 
1512	 0.135489481124896 
1513	 0.135559312410712 
1514	 0.135602742080772 
1515	 0.135664132285145 
1516	 0.135733786586305 
1517	 0.135795045020731 
1518	 0.13586217014577 
1519	 0.135914307389088 
1520	 0.135949477481332 
1521	 0.135994620746973 
1522	 0.136033595643986 
1523	 0.13608036892263 
1524	 0.136135631083842 
1525	 0.136195307791874 
1526	 0.13625665594864 
1527	 0.136318913486522 
1528	 0.136393803041949 
1529	 0.136452051371525 
1530	 0.136505441565519 
1531	 0.136553483891547 
1532	 0.136589516476681 
1533	 0.136630341809516 
1534	 0.136669659968337 
1535	 0.136707225759876 
1536	 0.136742431777435 
1537	 0.136779091440184 
1538	 0.136800980295677 
1539	 0.1368482955182 
1540	 0.13692747410272 
1541	 0.136977625516185 
1542	 0.137032607100141 
1543	 0.137077773604723 
1544	 0.137094948663252 
1545	 0.137119829767474 
1546	 0.137154636689266 
1547	 0.137173286247569 
1548	 0.137190847225559 
1549	 0.137209011755347 
1550	 0.137214659703271 
1551	 0.137228497336692 
1552	 0.137266248040106 
1553	 0.137293487655711 
1554	 0.137316567163801 
1555	 0.13736052014691 
1556	 0.137388509650842 
1557	 0.137407884662076 
1558	 0.137439993834513 
1559	 0.137462207256764 
1560	 0.137491257538395 
1561	 0.137516463076587 
1562	 0.137540490491794 
1563	 0.137570896398578 
1564	 0.137598944813968 
1565	 0.137615768921079 
1566	 0.137644612414051 
1567	 0.137691615011207 
1568	 0.137711417243582 
1569	 0.137717889743709 
1570	 0.137732488750366 
1571	 0.13773767991224 
1572	 0.137743275501482 
1573	 0.137759867908935 
1574	 0.137766015549204 
1575	 0.13775302221482 
1576	 0.137757731643426 
1577	 0.137762161903431 
1578	 0.137780063551528 
1579	 0.137818723684622 
1580	 0.137841914675674 
1581	 0.137868258259121 
1582	 0.137892458157075 
1583	 0.137911642530439 
1584	 0.137921280641928 
1585	 0.137929770556497 
1586	 0.137935308458023 
1587	 0.137921072843466 
1588	 0.137923700127909 
1589	 0.137944233794911 
1590	 0.137950332437983 
1591	 0.13794513162023 
1592	 0.137950599268188 
1593	 0.137958968755867 
1594	 0.137963060873479 
1595	 0.137976918043802 
1596	 0.137983026700082 
1597	 0.137976037131209 
1598	 0.137974029034816 
1599	 0.137971215688527 
1600	 0.137975254216242 
1601	 0.137990524362811 
1602	 0.137991880078365 
1603	 0.13798700492988 
1604	 0.137984135222038 
1605	 0.137968225269673 
1606	 0.137961748584675 
1607	 0.137957569855278 
1608	 0.137969072731754 
1609	 0.137983650059163 
1610	 0.137989998975267 
1611	 0.137988713567057 
1612	 0.137979815294795 
1613	 0.137954425196296 
1614	 0.137949554977432 
1615	 0.13796479955177 
1616	 0.137963056329965 
1617	 0.13796162389141 
1618	 0.137957700453908 
1619	 0.137950143760921 
1620	 0.137954199536312 
1621	 0.137948968077304 
1622	 0.137946392884593 
1623	 0.137946919609471 
1624	 0.137946351711475 
1625	 0.137932062797029 
1626	 0.137920369994985 
1627	 0.137902238211399 
1628	 0.137861310984295 
1629	 0.137844776694376 
1630	 0.137841610993125 
1631	 0.137834031766455 
1632	 0.137832605410875 
1633	 0.137824116696715 
1634	 0.137808271032392 
1635	 0.137810961058407 
1636	 0.137822662437693 
1637	 0.137820423451491 
1638	 0.137833142023381 
1639	 0.137817308617049 
1640	 0.137768779105765 
1641	 0.137748458021577 
1642	 0.137728487648103 
1643	 0.137716045317538 
1644	 0.137718566958245 
1645	 0.137713276663763 
1646	 0.137707054391916 
1647	 0.137700394833498 
1648	 0.13769962325917 
1649	 0.137683847440879 
1650	 0.137663166671818 
1651	 0.137633331825483 
1652	 0.137588040585304 
1653	 0.137550199345444 
1654	 0.137501222588427 
1655	 0.137473511450665 
1656	 0.137457237888244 
1657	 0.137439719454524 
1658	 0.137442400208627 
1659	 0.137420920852069 
1660	 0.137376365944284 
1661	 0.137360156030865 
1662	 0.137347322677161 
1663	 0.137337786849245 
1664	 0.137358198713005 
1665	 0.137346295967919 
1666	 0.137309354835923 
1667	 0.137289821670716 
1668	 0.137270391516449 
1669	 0.137246001735847 
1670	 0.137223696470179 
1671	 0.137204791327182 
1672	 0.137184586322187 
1673	 0.1371567039395 
1674	 0.137134864200524 
1675	 0.137103816920597 
1676	 0.137042515311273 
1677	 0.137020171122103 
1678	 0.137029548309355 
1679	 0.137009209539491 
1680	 0.137001921604928 
1681	 0.136968708577368 
1682	 0.136893198076394 
1683	 0.136848112619815 
1684	 0.136800799950497 
1685	 0.136775155168418 
1686	 0.13677845158797 
1687	 0.136760317961843 
1688	 0.136748641322266 
1689	 0.136725865569022 
1690	 0.136683476753501 
1691	 0.136653626174112 
1692	 0.136618742471481 
1693	 0.136604190347334 
1694	 0.136614152466996 
1695	 0.136595273331113 
1696	 0.136583138606352 
1697	 0.136553412497304 
1698	 0.136491338987975 
1699	 0.136444449392791 
1700	 0.136388035219642 
1701	 0.136358836758932 
1702	 0.136353832030634 
1703	 0.136324296296853 
1704	 0.136309943606041 
1705	 0.136272138336158 
1706	 0.136193725397924 
1707	 0.136145173044327 
1708	 0.136108172408219 
1709	 0.136068256714784 
1710	 0.136029469673478 
1711	 0.136001368758479 
1712	 0.135982336944938 
1713	 0.135952427103761 
1714	 0.135932851482489 
1715	 0.135897215652998 
1716	 0.13584088325489 
1717	 0.135797615732951 
1718	 0.135752782900086 
1719	 0.135718885482544 
1720	 0.135701503713116 
1721	 0.135662313112239 
1722	 0.135621118332554 
1723	 0.135569242052957 
1724	 0.135500860791667 
1725	 0.135429654121844 
1726	 0.135351631595075 
1727	 0.135281970992226 
1728	 0.135200951542476 
1729	 0.135136108031433 
1730	 0.135084783875344 
1731	 0.135032270051556 
1732	 0.134987504445338 
1733	 0.134937929856159 
1734	 0.134894779251478 
1735	 0.134839652789155 
1736	 0.134779181644688 
1737	 0.134706436217837 
1738	 0.134622714117455 
1739	 0.13454014080025 
1740	 0.134441903972932 
1741	 0.134370378686778 
1742	 0.134311132660446 
1743	 0.134249482859122 
1744	 0.134196699166248 
1745	 0.13413683746029 
1746	 0.134070661051359 
1747	 0.134003555004263 
1748	 0.13396636113941 
1749	 0.133895532498962 
1750	 0.133814982444669 
1751	 0.13374169908762 
1752	 0.13367359151708 
1753	 0.133625518287291 
1754	 0.133579909935903 
1755	 0.133514842992445 
1756	 0.133428620474719 
1757	 0.133349868806362 
1758	 0.133292269437303 
1759	 0.133257777307293 
1760	 0.133237782796522 
1761	 0.1331921642965 
1762	 0.133123783847735 
1763	 0.133023044802361 
1764	 0.132906086040012 
1765	 0.132836249811388 
1766	 0.132787116248551 
1767	 0.132745428849718 
1768	 0.132710239911883 
1769	 0.132639349044988 
1770	 0.132560316460132 
1771	 0.132499644520067 
1772	 0.132442286612489 
1773	 0.132385622598945 
1774	 0.132323421532034 
1775	 0.132264896676598 
1776	 0.13220799997857 
1777	 0.132162967528878 
1778	 0.132113378749922 
1779	 0.13205358813874 
1780	 0.132018187928705 
1781	 0.131973484672697 
1782	 0.131928741835629 
1783	 0.131887074295465 
1784	 0.131823360988629 
1785	 0.131718043475256 
1786	 0.131672290128824 
1787	 0.131662971427545 
1788	 0.131632226621533 
1789	 0.131621944466721 
1790	 0.131600509582142 
1791	 0.131545580689816 
1792	 0.131529415264851 
1793	 0.131565590438694 
1794	 0.131551483132403 
1795	 0.13151381252383 
1796	 0.131474163386033 
1797	 0.131395267247937 
1798	 0.131371444404563 
1799	 0.131390694386168 
1800	 0.13137429525618 
1801	 0.128831014476501 
1802	 0.128813663469857 
1803	 0.128806473008137 
1804	 0.128837361109321 
1805	 0.128829749330269 
1806	 0.128805439858078 
1807	 0.128780574436226 
1808	 0.12876052042128 
1809	 0.12872932836216 
1810	 0.128711549873946 
1811	 0.128705939579202 
1812	 0.128695192821522 
1813	 0.128684653108493 
1814	 0.128677061102792 
1815	 0.128679179976895 
1816	 0.128690842365323 
1817	 0.128673962325414 
1818	 0.128633943408669 
1819	 0.128598467216953 
1820	 0.128537665038877 
1821	 0.128509110004725 
1822	 0.12849850099496 
1823	 0.128521344321621 
1824	 0.128534753221772 
1825	 0.128537683223337 
1826	 0.128542801063992 
1827	 0.128509823028288 
1828	 0.12848535070698 
1829	 0.12846282625119 
1830	 0.128431422255333 
1831	 0.128374337977534 
1832	 0.128365120336537 
1833	 0.128348363561799 
1834	 0.128302121945642 
1835	 0.128255866000349 
1836	 0.128179313026559 
1837	 0.128102521922745 
1838	 0.128033569704781 
1839	 0.127974665424509 
1840	 0.12791994279158 
1841	 0.127893660153354 
1842	 0.127853405630621 
1843	 0.127806590178304 
1844	 0.127764618943215 
1845	 0.127709678463728 
1846	 0.127672573795941 
1847	 0.127623131102884 
1848	 0.127546933473701 
1849	 0.12747832762832 
1850	 0.127404018080711 
1851	 0.127312350584765 
1852	 0.12721899400781 
1853	 0.127151103712553 
1854	 0.127066560116042 
1855	 0.126978138032768 
1856	 0.126911260587708 
1857	 0.126793588073266 
1858	 0.126665422164906 
1859	 0.126542096747562 
1860	 0.126390799469944 
1861	 0.126203595755365 
1862	 0.126043692108159 
1863	 0.125884859023567 
1864	 0.125693539033523 
1865	 0.125493636854994 
1866	 0.125271616308521 
1867	 0.125042873780356 
1868	 0.124827785628043 
1869	 0.124600978516921 
1870	 0.124342009627376 
1871	 0.124057221667315 
1872	 0.1237514014816 
1873	 0.123401937374158 
1874	 0.123018408028092 
1875	 0.122628935004742 
1876	 0.122204515586628 
1877	 0.121741278707819 
1878	 0.121262211778354 
1879	 0.120751964757416 
1880	 0.120206588306302 
1881	 0.119632545249137 
1882	 0.119024559940605 
1883	 0.118380925088218 
1884	 0.117694765535154 
1885	 0.11698115575065 
1886	 0.116234737091707 
1887	 0.11544252895661 
1888	 0.114630264213819 
1889	 0.113786367405316 
1890	 0.112898098234991 
1891	 0.112004472767497 
1892	 0.111078713329473 
1893	 0.110146094192994 
1894	 0.109198679589289 
1895	 0.108244386361444 
1896	 0.107260492087974 
1897	 0.106279531207101 
1898	 0.105306439815746 
1899	 0.104355752740149 
1900	 0.103448605713805 
1901	 0.102563584523461 
1902	 0.101704366537897 
1903	 0.100877476661307 
1904	 0.100080808069392 
1905	 9.93085297655128E-02 
1906	 9.85674859541143E-02 
1907	 9.78655747288403E-02 
1908	 9.72044395189908E-02 
1909	 9.65741340087814E-02 
1910	 9.59764374667952E-02 
1911	 9.54384138724611E-02 
1912	 9.49365689032499E-02 
1913	 9.44523903692435E-02 
1914	 9.39989297552239E-02 
1915	 9.35811590245047E-02 
1916	 0.093189031241793 
1917	 9.28144672251926E-02 
1918	 9.24987849346279E-02 
1919	 0.092210367841074 
1920	 9.19495795201157E-02 
1921	 9.17324649753534E-02 
1922	 9.15313848387081E-02 
1923	 9.13507587705127E-02 
1924	 9.11771803818616E-02 
1925	 9.10018512758704E-02 
1926	 9.08615664542467E-02 
1927	 9.07444520161295E-02 
1928	 0.090644189699097 
1929	 9.05488407569124E-02 
1930	 9.05036959864244E-02 
1931	 0.090460180554173 
1932	 9.04229760763559E-02 
1933	 9.04236830940792E-02 
1934	 0.090432311948742 
1935	 9.04413871529522E-02 
1936	 0.090452539660911 
1937	 9.04779284304404E-02 
1938	 9.05115456384254E-02 
1939	 9.05500544291547E-02 
1940	 9.05954738167696E-02 
1941	 9.06560399568559E-02 
1942	 0.09070960164031 
1943	 9.07852137393653E-02 
1944	 9.08923752628856E-02 
1945	 9.10018949531196E-02 
1946	 9.11141896472346E-02 
1947	 9.12452794011283E-02 
1948	 9.13688792508541E-02 
1949	 9.14855506646163E-02 
1950	 9.16130556239255E-02 
1951	 9.17483923136566E-02 
1952	 0.091881216850565 
1953	 9.20316488901498E-02 
1954	 9.21865115244631E-02 
1955	 9.23451837796988E-02 
1956	 9.25291732189892E-02 
1957	 9.26879597928023E-02 
1958	 9.28211098920421E-02 
1959	 9.29882607745187E-02 
1960	 9.31582164834728E-02 
1961	 9.33333240896065E-02 
1962	 9.35440537286685E-02 
1963	 9.37394066967077E-02 
1964	 9.39129321002759E-02 
1965	 9.41123984544972E-02 
1966	 9.43278013059241E-02 
1967	 9.45228198539652E-02 
1968	 9.47192114507921E-02 
1969	 9.49157942739526E-02 
1970	 0.095110280343081 
1971	 9.52931612684704E-02 
1972	 9.54896155230236E-02 
1973	 9.56996353269019E-02 
1974	 9.59038488046212E-02 
1975	 9.61031214840573E-02 
1976	 9.63126103773393E-02 
1977	 9.65136715665593E-02 
1978	 9.67269235488481E-02 
1979	 9.69800589151587E-02 
1980	 9.72134305330268E-02 
1981	 9.74342465196094E-02 
1982	 9.76550393130918E-02 
1983	 9.78735166945753E-02 
1984	 9.80651555105953E-02 
1985	 9.82747657626016E-02 
1986	 9.85059440719193E-02 
1987	 9.87213679500418E-02 
1988	 9.89251452755774E-02 
1989	 9.91366196295329E-02 
1990	 9.93412481157814E-02 
1991	 0.099547762253044 
1992	 9.97606060581351E-02 
1993	 9.99762124523594E-02 
1994	 0.100196313887638 
1995	 0.100430318874101 
1996	 0.100644193849053 
1997	 0.100845105306784 
1998	 0.101060520626182 
1999	 0.101270078061064 
2000	 0.10148746543265 
2001	 0.101723499360168 
2002	 0.101951267642931 
2003	 0.102169692690862 
2004	 0.102398593178728 
2005	 0.102621837508648 
2006	 0.1028580535029 
2007	 0.103063336712916 
2008	 0.103244703611365 
2009	 0.103440249611302 
2010	 0.103620320173158 
2011	 0.103810506063324 
2012	 0.104015858672068 
2013	 0.104215381950857 
2014	 0.104416403509537 
2015	 0.104608073032598 
2016	 0.104794847846118 
2017	 0.104986614558337 
2018	 0.105173019699087 
2019	 0.105338218590892 
2020	 0.105539651488321 
2021	 0.105771626641299 
2022	 0.105973634146746 
2023	 0.106193168404491 
2024	 0.106383887246797 
2025	 0.106526484439469 
2026	 0.106695621226738 
2027	 0.106873611941624 
2028	 0.10705101526007 
2029	 0.107209355774813 
2030	 0.107365530688305 
2031	 0.107522011133675 
2032	 0.107653709949446 
2033	 0.107806043936944 
2034	 0.107980220482753 
2035	 0.10813714680368 
2036	 0.108284557987884 
2037	 0.108441582336426 
2038	 0.108599742848603 
2039	 0.108755733126971 
2040	 0.108918143772776 
2041	 0.109076472715265 
2042	 0.109225185975169 
2043	 0.10936945138087 
2044	 0.109517741486626 
2045	 0.109669876331768 
2046	 0.109808863484469 
2047	 0.10995181572075 
2048	 0.110075348460575 
2049	 0.110158086355386 
2050	 0.110284254321356 
2051	 0.110442707135014 
2052	 0.110564883846119 
2053	 0.110696470977399 
2054	 0.110815107443044 
2055	 0.110898597511306 
2056	 0.110970498332333 
2057	 0.111073459060833 
2058	 0.111201679230239 
2059	 0.111307850331752 
2060	 0.111404405032986 
2061	 0.111523788622752 
2062	 0.111648095108571 
2063	 0.11177048366393 
2064	 0.111918093499003 
2065	 0.11204849886383 
2066	 0.112161981416989 
2067	 0.11227953536493 
2068	 0.112397128321246 
2069	 0.112517233511092 
2070	 0.112626398027551 
2071	 0.112725349246281 
2072	 0.112833608005488 
2073	 0.112946073554661 
2074	 0.113042467951952 
2075	 0.113130238450667 
2076	 0.113229119696547 
2077	 0.113324113945799 
2078	 0.113414361386679 
2079	 0.113519315440615 
2080	 0.113609418633159 
2081	 0.113664599680679 
2082	 0.113748627702005 
2083	 0.113851146134604 
2084	 0.113948154345768 
2085	 0.114041368040566 
2086	 0.114142462398135 
2087	 0.114241387685645 
2088	 0.114337220826033 
2089	 0.114421616347644 
2090	 0.114507654481623 
2091	 0.114589958562903 
2092	 0.114647557383389 
2093	 0.114725928467595 
2094	 0.114818555850059 
2095	 0.114908611880473 
2096	 0.114999858421113 
2097	 0.115095371847631 
2098	 0.115194853445423 
2099	 0.115300161134905 
2100	 0.115396109823613 
2101	 0.115495422461631 
2102	 0.115582949631464 
2103	 0.115651870682211 
2104	 0.115743410298285 
2105	 0.115845742944892 
2106	 0.115935312785533 
2107	 0.116033288899206 
2108	 0.116122452223419 
2109	 0.116194524230322 
2110	 0.116273181045709 
2111	 0.11635034999088 
2112	 0.116433315805652 
2113	 0.116508227233345 
2114	 0.11660335796364 
2115	 0.116697200833986 
2116	 0.116800760898396 
2117	 0.11690386529021 
2118	 0.11701641520596 
2119	 0.117112790359883 
2120	 0.117213531929197 
2121	 0.117296649249367 
2122	 0.117358134730779 
2123	 0.117426902650394 
2124	 0.117486763600018 
2125	 0.117551661220322 
2126	 0.117622893557801 
2127	 0.117687530502672 
2128	 0.117759906617518 
2129	 0.117814979532698 
2130	 0.117853769862203 
2131	 0.117885612774853 
2132	 0.117936137580553 
2133	 0.117991769858642 
2134	 0.118029471034425 
2135	 0.118085657906829 
2136	 0.118104957386132 
2137	 0.118078937919424 
2138	 0.1180813937749 
2139	 0.118079364740276 
2140	 0.118085098463549 
2141	 0.118125801788658 
2142	 0.118119514094404 
2143	 0.118080687313043 
2144	 0.11805675611363 
2145	 0.118027858904262 
2146	 0.117975522493013 
2147	 0.117895531315911 
2148	 0.117856687213788 
2149	 0.11780290047396 
2150	 0.117725651068524 
2151	 0.117661894940426 
2152	 0.117631719764387 
2153	 0.11755943965826 
2154	 0.117461329149068 
2155	 0.117362327409508 
2156	 0.117230509241483 
2157	 0.117135813382942 
2158	 0.117062485613604 
2159	 0.116967836804067 
2160	 0.116892679787688 
2161	 0.116801061773852 
2162	 0.116660077636013 
2163	 0.116553937348019 
2164	 0.116488926696838 
2165	 0.11639276063859 
2166	 0.116282662088263 
2167	 0.116167923928227 
2168	 0.116062774220435 
2169	 0.115925053299003 
2170	 0.115827189170008 
2171	 0.115778490777737 
2172	 0.11568512138121 
2173	 0.115594806282302 
2174	 0.115473356251852 
2175	 0.115300384867591 
2176	 0.11516756760413 
2177	 0.115031131699959 
2178	 0.114902845207286 
2179	 0.114817849794152 
2180	 0.11469999573237 
2181	 0.114563800265961 
2182	 0.114422900842675 
2183	 0.114262850144208 
2184	 0.114105854751943 
2185	 0.113948602364969 
2186	 0.113773104818375 
2187	 0.113639729957328 
2188	 0.11352769808874 
2189	 0.11340976983145 
2190	 0.113316644437172 
2191	 0.113213618663742 
2192	 0.113101418728894 
2193	 0.112994837451135 
2194	 0.112889220077419 
2195	 0.112796393030214 
2196	 0.112705681328377 
2197	 0.11262106815898 
2198	 0.112542836506967 
2199	 0.112482123108007 
2200	 0.112444171972223 
2201	 0.112393485974075 
2202	 0.112344072274612 
2203	 0.112303356703261 
2204	 0.112275420363035 
2205	 0.112233391950864 
2206	 0.112224574036407 
2207	 0.11224600260515 
2208	 0.112272742815904 
2209	 0.11232163515059 
2210	 0.112355064075527 
2211	 0.112400443047833 
2212	 0.112433948393376 
2213	 0.112441979797604 
2214	 0.112476201794537 
2215	 0.112524631961922 
2216	 0.112577162886569 
2217	 0.112660928462266 
2218	 0.112704889076085 
2219	 0.112728768614732 
2220	 0.112754867115008 
2221	 0.11274311042917 
2222	 0.112765948099191 
2223	 0.112794287621313 
2224	 0.112806668020687 
2225	 0.112837374109328 
2226	 0.11288335809343 
2227	 0.11289451672451 
2228	 0.112897386602399 
2229	 0.112906912612655 
2230	 0.112891934934538 
2231	 0.112893721664335 
2232	 0.112911589245634 
2233	 0.112931156129679 
2234	 0.112962874779602 
2235	 0.112962869258572 
2236	 0.112970483444685 
2237	 0.112949098914714 
2238	 0.112874636325192 
2239	 0.11282670959567 
2240	 0.112776709571644 
2241	 0.11273270498285 
2242	 0.112690050745091 
2243	 0.112655713899418 
2244	 0.112611165204667 
2245	 0.112609706966664 
2246	 0.112608307799676 
2247	 0.112588356297993 
2248	 0.112578202822099 
2249	 0.112575194499037 
2250	 0.11254908114132 
2251	 0.112516255544684 
2252	 0.112487411146486 
2253	 0.112450051339926 
2254	 0.112405252677508 
2255	 0.112367916564422 
2256	 0.112304990839279 
2257	 0.11218491620238 
2258	 0.112139709129063 
2259	 0.112120208781118 
2260	 0.112108242972045 
2261	 0.112160974332418 
2262	 0.112167264961244 
2263	 0.112146094672496 
2264	 0.112135897134528 
2265	 0.112117140516443 
2266	 0.112100710245886 
2267	 0.112100211114347 
2268	 0.112078958847683 
2269	 0.112020884961597 
2270	 0.111996773572825 
2271	 0.112005692851427 
2272	 0.112029604088842 
2273	 0.112075328448503 
2274	 0.112139629180305 
2275	 0.112165236352618 
2276	 0.112151825923138 
2277	 0.112166156053036 
2278	 0.112174735572056 
2279	 0.112210481938508 
2280	 0.112277998959114 
2281	 0.11231291232729 
2282	 0.112358670047066 
2283	 0.112364119435227 
2284	 0.112320993839948 
2285	 0.11231488993647 
2286	 0.112301866687487 
2287	 0.112309629062272 
2288	 0.112360666531647 
2289	 0.11236407940017 
2290	 0.112348383719372 
2291	 0.112333009461239 
2292	 0.112272255294905 
2293	 0.112250596400855 
2294	 0.112271101825981 
2295	 0.112263159439466 
2296	 0.112249893065818 
2297	 0.112254008751183 
2298	 0.112219174964201 
2299	 0.112157408424972 
2300	 0.112131725031491 
2301	 0.112142265270782 
2302	 0.112155475567991 
2303	 0.112153644192743 
2304	 0.112101905438529 
2305	 0.112006681259515 
2306	 0.111933383187262 
2307	 0.111825551249935 
2308	 0.111763913364263 
2309	 0.111733396175916 
2310	 0.111705297093696 
2311	 0.111707383482404 
2312	 0.111671772137537 
2313	 0.111623657726804 
2314	 0.11157609234755 
2315	 0.111490352626472 
2316	 0.111444927381454 
2317	 0.111462542330679 
2318	 0.111407728188955 
2319	 0.111314314854364 
2320	 0.111252477084885 
2321	 0.111154045532175 
2322	 0.111073127256866 
2323	 0.111025369718236 
2324	 0.110979324470034 
2325	 0.110915127143586 
2326	 0.110888108136549 
2327	 0.110916110090171 
2328	 0.110914782009824 
2329	 0.110879159402711 
2330	 0.110802911473917 
2331	 0.110692922540384 
2332	 0.110580603130099 
2333	 0.110493127214391 
2334	 0.110452977415724 
2335	 0.110427370449176 
2336	 0.110401027950098 
2337	 0.110401654105811 
2338	 0.110366967083502 
2339	 0.11028192860759 
2340	 0.110195392944235 
2341	 0.110109709346039 
2342	 0.11005280065147 
2343	 0.109949265519393 
2344	 0.10980693438726 
2345	 0.109713536339748 
2346	 0.109587330012819 
2347	 0.109491591964719 
2348	 0.109480975034395 
2349	 0.109409159893449 
2350	 0.109293681435676 
2351	 0.109206836281266 
2352	 0.109115728074395 
2353	 0.109030081169355 
2354	 0.108984193102822 
2355	 0.108880374244603 
2356	 0.10873596149635 
2357	 0.108611126872188 
2358	 0.10843158540629 
2359	 0.108306433150129 
2360	 0.108239704718603 
2361	 0.108146067779582 
2362	 0.108092432608433 
2363	 0.10799097882646 
2364	 0.107847869200588 
2365	 0.107710775872586 
2366	 0.107518427900824 
2367	 0.107363082206278 
2368	 0.10722880858485 
2369	 0.107100277006176 
2370	 0.106986430507823 
2371	 0.106897168552188 
2372	 0.106829333228183 
2373	 0.106761021523958 
2374	 0.106668804070402 
2375	 0.106599553880137 
2376	 0.106456678293049 
2377	 0.106271949145347 
2378	 0.106156505644911 
2379	 0.10601736805539 
2380	 0.105849348978299 
2381	 0.105735990431541 
2382	 0.105633361316335 
2383	 0.105508365822879 
2384	 0.105398824239984 
2385	 0.105305089298053 
2386	 0.105153995573206 
2387	 0.105000626280335 
2388	 0.104888502129547 
2389	 0.104717345558719 
2390	 0.104581118009034 
2391	 0.104423621919279 
2392	 0.10417150696096 
2393	 0.104011294248448 
2394	 0.103838331108541 
2395	 0.10360551011958 
2396	 0.103464268652405 
2397	 0.10328762250169 
2398	 0.103087013107572 
2399	 0.102948980521191 
2400	 0.102814047042706 
2401	 0.102716920346207 
2402	 0.10263716617111 
2403	 0.102522467400675 
2404	 0.102346384171888 
2405	 0.10214829683701 
2406	 0.101946226386568 
2407	 0.101720409090825 
2408	 0.101552094021981 
2409	 0.101458272505726 
2410	 0.101355844288635 
2411	 0.101234576934214 
2412	 0.10113075779788 
2413	 0.100989169487376 
2414	 0.100785926099965 
2415	 0.100552150790007 
2416	 0.10031716334062 
2417	 0.100019026282566 
2418	 9.97947795505505E-02 
2419	 9.96062902990662E-02 
2420	 9.94461173927132E-02 
2421	 9.93391777530384E-02 
2422	 9.91841233211075E-02 
2423	 9.90203467911543E-02 
2424	 0.098864332229282 
2425	 9.86974340236526E-02 
2426	 9.85424752695344E-02 
2427	 9.84269869571584E-02 
2428	 9.82902991070627E-02 
2429	 9.81304489568326E-02 
2430	 9.79520067601562E-02 
2431	 0.09772105543074 
2432	 9.75725322660688E-02 
2433	 9.75000067422973E-02 
2434	 9.72546226098546E-02 
2435	 9.69963264956897E-02 
2436	 9.67748598327596E-02 
2437	 9.63802865136709E-02 
2438	 9.61742655951839E-02 
2439	 9.61811247388891E-02 
2440	 9.59914202493189E-02 
2441	 9.57187091598234E-02 
2442	 9.55428480365116E-02 
2443	 9.53476051950857E-02 
2444	 9.51444455979218E-02 
2445	 9.49683854138402E-02 
2446	 9.48220810729032E-02 
2447	 9.46572558125141E-02 
2448	 9.45575309657762E-02 
2449	 0.094688046888484 
2450	 9.44766500382106E-02 
2451	 9.39857807643769E-02 
2452	 9.37118531190108E-02 
2453	 9.33743956134144E-02 
2454	 9.30548082495754E-02 
2455	 0.092866030792099 
2456	 9.26858237084616E-02 
2457	 9.23597820282787E-02 
2458	 9.22559630239779E-02 
2459	 9.24803855589462E-02 
2460	 9.24564164194565E-02 
2461	 9.23575683107643E-02 
2462	 0.092307249144037 
2463	 9.21562139119419E-02 
2464	 9.21006327218056E-02 
2465	 9.21817983234014E-02 
2466	 0.092094716907317 
2467	 9.18982221400863E-02 
2468	 0.09170958748164 
2469	 0.091513371079186 
2470	 9.11815826964373E-02 
2471	 9.09549520062688E-02 
2472	 9.06839981495629E-02 
2473	 9.04570330601235E-02 
2474	 9.02290176162728E-02 
2475	 9.00131714637444E-02 
2476	 8.99201505927679E-02 
2477	 8.97757773679942E-02 
2478	 8.96237353951777E-02 
2479	 8.94866174483097E-02 
2480	 8.93973475990053E-02 
2481	 8.91984376229461E-02 
2482	 8.90701172355817E-02 
2483	 8.90529546634493E-02 
2484	 8.89746454137153E-02 
2485	 8.89539079897927E-02 
2486	 8.87829836188433E-02 
2487	 0.088504601936088 
2488	 8.81398273450092E-02 
2489	 8.77198648278863E-02 
2490	 8.75138363237289E-02 
2491	 8.73247024990447E-02 
2492	 8.72305820031305E-02 
2493	 8.72165576337352E-02 
2494	 8.70848366761779E-02 
2495	 8.71314950443416E-02 
2496	 8.71412182519914E-02 
2497	 8.68112332570765E-02 
2498	 8.65626542216001E-02 
2499	 8.64364844010802E-02 
2500	 8.63273272216138E-02 
