Wavelength	MM_3100008.asd
350	 4.62180122838939E-02 
351	 4.44521103725813E-02 
352	 3.82719778137535E-02 
353	 3.09285723385051E-02 
354	 4.29140175254466E-02 
355	 4.64743735873494E-02 
356	 4.13941281733933E-02 
357	 3.62329957954173E-02 
358	 4.29866111184045E-02 
359	 4.54810043037494E-02 
360	 4.46882899112334E-02 
361	 5.09955706544626E-02 
362	 4.52895548770368E-02 
363	 4.06258772441477E-02 
364	 0.044275462377667 
365	 4.92123526248483E-02 
366	 4.63242115648116E-02 
367	 4.24956913134596E-02 
368	 4.58499143089414E-02 
369	 0.050804387012447 
370	 5.17046255133876E-02 
371	 4.92488261154577E-02 
372	 4.84943557695119E-02 
373	 5.10917050783453E-02 
374	 0.051828132856089 
375	 5.01872652676643E-02 
376	 5.56015243372104E-02 
377	 0.055968133049274 
378	 5.46628952689634E-02 
379	 5.66822436433274E-02 
380	 5.25960954693584E-02 
381	 5.08346305639987E-02 
382	 5.38204578867685E-02 
383	 5.82877901905843E-02 
384	 5.61723348017449E-02 
385	 5.47775859948447E-02 
386	 5.76652492573975E-02 
387	 5.68776550270583E-02 
388	 5.77720301356099E-02 
389	 5.89089019881533E-02 
390	 5.78955898682359E-02 
391	 5.80893376634429E-02 
392	 5.96933267959454E-02 
393	 6.11607302820823E-02 
394	 5.99749231517044E-02 
395	 0.059529855007092 
396	 5.95625831540486E-02 
397	 6.00416097720349E-02 
398	 6.32979295588215E-02 
399	 6.37557387998664E-02 
400	 6.30864570157981E-02 
401	 0.064824062815975 
402	 0.06658373117022 
403	 6.64594128122969E-02 
404	 6.46556956707683E-02 
405	 6.33950849313478E-02 
406	 6.47075741077882E-02 
407	 6.69654258049181E-02 
408	 6.80235237472531E-02 
409	 6.61147469699978E-02 
410	 6.58958086635805E-02 
411	 6.71355510147383E-02 
412	 0.067480850458183 
413	 6.78159719406151E-02 
414	 6.80587969515824E-02 
415	 6.81456601010801E-02 
416	 0.068119671998679 
417	 6.79723417521378E-02 
418	 6.82484735931756E-02 
419	 6.91436258835591E-02 
420	 6.93882937704507E-02 
421	 0.069185205402429 
422	 6.88291747918266E-02 
423	 6.86698425202439E-02 
424	 6.92412798308243E-02 
425	 6.95410693183723E-02 
426	 6.91608998509885E-02 
427	 6.90506964991189E-02 
428	 6.90830069586052E-02 
429	 6.93600965137157E-02 
430	 6.98769448229542E-02 
431	 6.99465284061534E-02 
432	 6.97350132147191E-02 
433	 6.95197537972052E-02 
434	 6.96101224713659E-02 
435	 6.96888017166773E-02 
436	 6.98395135558461E-02 
437	 0.070084654736866 
438	 7.00180508952401E-02 
439	 7.04119633250709E-02 
440	 7.10518890103772E-02 
441	 7.12761092681466E-02 
442	 7.11888633021825E-02 
443	 7.11237424829352E-02 
444	 7.12482903613389E-02 
445	 7.14555990248262E-02 
446	 7.16903218347167E-02 
447	 7.18433061918333E-02 
448	 7.18324748330471E-02 
449	 7.16447607562508E-02 
450	 7.19545448897929E-02 
451	 7.26376491928269E-02 
452	 7.29146237172857E-02 
453	 7.31202706552909E-02 
454	 7.29588338555326E-02 
455	 7.25374201967277E-02 
456	 7.32614194785494E-02 
457	 7.35080989208232E-02 
458	 0.073402544962065 
459	 7.37264105054844E-02 
460	 7.37035946979605E-02 
461	 7.36706022195106E-02 
462	 7.38337614919373E-02 
463	 7.40857277607751E-02 
464	 7.42747242433182E-02 
465	 7.44942424039254E-02 
466	 7.48188765187648E-02 
467	 0.074931765824007 
468	 7.51793006253524E-02 
469	 7.54361355836899E-02 
470	 7.52488865443119E-02 
471	 7.54616169263933E-02 
472	 0.075588550903188 
473	 7.53316517626851E-02 
474	 7.53273027388285E-02 
475	 7.56225494439284E-02 
476	 7.60192124980045E-02 
477	 7.62254870743825E-02 
478	 7.63387586235366E-02 
479	 7.63733891825634E-02 
480	 7.63882674852472E-02 
481	 7.65060452437657E-02 
482	 7.66982066212953E-02 
483	 7.69828428394462E-02 
484	 7.73229261325659E-02 
485	 7.74543757879833E-02 
486	 7.74251799149621E-02 
487	 7.74114826799147E-02 
488	 7.76503575561412E-02 
489	 7.76558090539044E-02 
490	 7.76779871574762E-02 
491	 7.78789265635234E-02 
492	 7.78789468777046E-02 
493	 7.78956863326945E-02 
494	 7.79290702161079E-02 
495	 7.79200084802926E-02 
496	 7.81546514115778E-02 
497	 7.83816608695601E-02 
498	 7.84886421530788E-02 
499	 7.86496466564782E-02 
500	 7.86024772346449E-02 
501	 7.85901223958597E-02 
502	 7.88464258092161E-02 
503	 7.88894512719285E-02 
504	 7.89451552522495E-02 
505	 7.90608546649035E-02 
506	 7.91049464688445E-02 
507	 7.91378550575675E-02 
508	 7.92339331608983E-02 
509	 0.079398455091453 
510	 7.94601198838044E-02 
511	 7.94083712177147E-02 
512	 7.93705177959509E-02 
513	 7.95088432570809E-02 
514	 7.95584094884176E-02 
515	 0.0795527203933 
516	 7.95819658806479E-02 
517	 7.97917452350187E-02 
518	 7.98094549767106E-02 
519	 7.97548232798415E-02 
520	 0.079858402305929 
521	 8.00081036011892E-02 
522	 8.00564571701989E-02 
523	 8.00191033279533E-02 
524	 8.00794520535313E-02 
525	 8.02355422377293E-02 
526	 8.03103165176502E-02 
527	 8.02215695948706E-02 
528	 8.03196330059251E-02 
529	 8.03438245572872E-02 
530	 8.03116065027056E-02 
531	 0.080410530436325 
532	 8.05253664150582E-02 
533	 8.06206475933806E-02 
534	 8.06657921271449E-02 
535	 8.05874156253579E-02 
536	 8.06660292270264E-02 
537	 0.080801215022922 
538	 8.07885225999952E-02 
539	 8.08675587947126E-02 
540	 8.09234801634408E-02 
541	 8.09307749961179E-02 
542	 8.10177294297885E-02 
543	 8.10905356567903E-02 
544	 8.11366954283166E-02 
545	 8.11781733647882E-02 
546	 8.12902513277963E-02 
547	 8.13496121928107E-02 
548	 8.13607845114035E-02 
549	 8.14338526638846E-02 
550	 8.14564886784129E-02 
551	 0.081475890713758 
552	 8.15431057433973E-02 
553	 8.16593846335874E-02 
554	 8.16706455594635E-02 
555	 8.16647733937493E-02 
556	 8.18285747257795E-02 
557	 8.19703448642016E-02 
558	 8.20586125936921E-02 
559	 0.082125304784082 
560	 8.22874646007479E-02 
561	 8.23400577153036E-02 
562	 8.23720158155831E-02 
563	 8.25148633013414E-02 
564	 8.25361952244286E-02 
565	 8.25102531548848E-02 
566	 8.24982872519239E-02 
567	 8.25254327065781E-02 
568	 8.26147103789416E-02 
569	 8.28060258585164E-02 
570	 8.30860713238484E-02 
571	 0.083269755007865 
572	 8.34442011559639E-02 
573	 8.35959229761773E-02 
574	 8.36527969468377E-02 
575	 0.083755752075901 
576	 8.39071692945523E-02 
577	 8.40463821319319E-02 
578	 8.40112776986069E-02 
579	 8.40254547126152E-02 
580	 8.40447689323426E-02 
581	 8.39464597309135E-02 
582	 8.39251548939505E-02 
583	 8.38998553752872E-02 
584	 0.083869465207874 
585	 8.39789205383306E-02 
586	 8.41822370556335E-02 
587	 8.43769258113808E-02 
588	 8.44924976612058E-02 
589	 8.46912880716051E-02 
590	 8.48482467138946E-02 
591	 8.49593446720597E-02 
592	 0.085133947387477 
593	 8.52828381785308E-02 
594	 8.54225598379076E-02 
595	 8.55672940730297E-02 
596	 8.56813613556076E-02 
597	 8.56868464577227E-02 
598	 8.56221723788463E-02 
599	 8.55889437960832E-02 
600	 8.56031824615571E-02 
601	 8.56443047066604E-02 
602	 8.56869040232724E-02 
603	 8.57066409678322E-02 
604	 8.57308405778798E-02 
605	 0.085784595907976 
606	 8.58686071075368E-02 
607	 8.58516506658931E-02 
608	 8.58897668961156E-02 
609	 8.60115985019488E-02 
610	 8.60835057083515E-02 
611	 0.086111621129858 
612	 8.61279850338286E-02 
613	 8.61604278645241E-02 
614	 8.61928377201874E-02 
615	 8.61882199943348E-02 
616	 8.61569936299721E-02 
617	 0.086147133888625 
618	 0.086232197249448 
619	 8.62671139321091E-02 
620	 8.61999070082719E-02 
621	 8.62525316863785E-02 
622	 8.62876724752823E-02 
623	 8.62856403711495E-02 
624	 8.62769936072536E-02 
625	 8.63120767879438E-02 
626	 8.63528710594949E-02 
627	 8.63788353084273E-02 
628	 8.64027320656096E-02 
629	 8.64110704104742E-02 
630	 8.64138792643881E-02 
631	 8.64299249896149E-02 
632	 0.086492219713354 
633	 8.65064182715739E-02 
634	 8.64873074568756E-02 
635	 8.65329363975454E-02 
636	 8.65383699924812E-02 
637	 8.65276877622899E-02 
638	 8.65356559787799E-02 
639	 8.65717836603041E-02 
640	 8.65844617850863E-02 
641	 0.086597555017371 
642	 8.66571079008091E-02 
643	 8.66839959208451E-02 
644	 8.66943694057504E-02 
645	 8.67075954494661E-02 
646	 8.67340377136366E-02 
647	 0.086754196220487 
648	 8.67858349792055E-02 
649	 8.68392769863817E-02 
650	 8.68474289015966E-02 
651	 8.68539517050316E-02 
652	 8.68769625014407E-02 
653	 8.69097912607088E-02 
654	 8.69732364351797E-02 
655	 0.086994621068457 
656	 8.69608740618373E-02 
657	 8.70552837736664E-02 
658	 8.71152540314425E-02 
659	 8.71106172977266E-02 
660	 8.70828473971122E-02 
661	 8.70947571564459E-02 
662	 8.71332179206351E-02 
663	 8.71807933835098E-02 
664	 8.72274563159709E-02 
665	 8.72642644609991E-02 
666	 8.72795087911356E-02 
667	 8.72754694212379E-02 
668	 8.73069055251869E-02 
669	 8.73481787808148E-02 
670	 8.73673552690798E-02 
671	 8.73372809500436E-02 
672	 8.73612166372179E-02 
673	 8.74049224622633E-02 
674	 8.74373848785589E-02 
675	 8.75000843891717E-02 
676	 8.75454569452545E-02 
677	 8.75492154304772E-02 
678	 8.75126344510053E-02 
679	 8.75204779781854E-02 
680	 8.75600703988046E-02 
681	 8.76074468935302E-02 
682	 8.76367807623486E-02 
683	 8.76867817414777E-02 
684	 8.77466092994607E-02 
685	 8.77887835894327E-02 
686	 8.77680387249363E-02 
687	 8.77991050275056E-02 
688	 8.78646524075338E-02 
689	 0.087860223785583 
690	 8.78634751782111E-02 
691	 8.78766189984561E-02 
692	 8.78910048767334E-02 
693	 8.78982482566966E-02 
694	 8.78997869098772E-02 
695	 8.79143980638982E-02 
696	 8.79547828705852E-02 
697	 8.79630404367189E-02 
698	 8.79906588497334E-02 
699	 8.80191410900942E-02 
700	 8.79571190603633E-02 
701	 8.79717043011086E-02 
702	 8.80297451008935E-02 
703	 8.80670026950087E-02 
704	 8.80608888104604E-02 
705	 8.80478173091866E-02 
706	 8.80525205684753E-02 
707	 8.80832414895408E-02 
708	 8.80725529258255E-02 
709	 0.088081704369287 
710	 8.81155880400798E-02 
711	 0.088077494390723 
712	 8.80843280592623E-02 
713	 8.81038817861573E-02 
714	 8.80864048690535E-02 
715	 8.80810229083512E-02 
716	 8.80951495426501E-02 
717	 8.80987539080042E-02 
718	 8.80460026287101E-02 
719	 8.80409529460251E-02 
720	 8.80409229159727E-02 
721	 0.088020198864791 
722	 8.80311262788943E-02 
723	 0.088013303621031 
724	 8.79916553447915E-02 
725	 8.79982115868492E-02 
726	 8.79418748171538E-02 
727	 8.79082416421391E-02 
728	 8.79108447361434E-02 
729	 8.78914201224365E-02 
730	 8.78910967389724E-02 
731	 8.78767136362881E-02 
732	 8.78293376136341E-02 
733	 8.77914712719067E-02 
734	 8.77651676618792E-02 
735	 8.77406728415794E-02 
736	 8.77075477157104E-02 
737	 8.76964647521835E-02 
738	 8.76665118677477E-02 
739	 8.76220040099555E-02 
740	 8.76187756016356E-02 
741	 8.75728174362118E-02 
742	 8.75289159812166E-02 
743	 8.75233507598461E-02 
744	 8.74979592634162E-02 
745	 8.74234687386498E-02 
746	 8.73630910970456E-02 
747	 8.73918552058059E-02 
748	 8.73210054030083E-02 
749	 8.72610129513627E-02 
750	 8.72538439367422E-02 
751	 8.72270508129077E-02 
752	 8.71783488040155E-02 
753	 8.71266244399713E-02 
754	 8.70835236819542E-02 
755	 8.70149194919598E-02 
756	 8.69814255884711E-02 
757	 8.69620422432177E-02 
758	 8.69048956410332E-02 
759	 8.68758677123441E-02 
760	 8.68239413968683E-02 
761	 8.67536720085915E-02 
762	 8.67492345620225E-02 
763	 8.66971110964019E-02 
764	 8.66473409738299E-02 
765	 8.66427529550243E-02 
766	 8.65859908289179E-02 
767	 8.65442126586721E-02 
768	 8.65099642750892E-02 
769	 8.64459805614472E-02 
770	 8.63877073097513E-02 
771	 8.63595656419592E-02 
772	 8.63491987358343E-02 
773	 8.63040162574569E-02 
774	 8.62524223553911E-02 
775	 8.61997691027913E-02 
776	 8.61516054864151E-02 
777	 8.61326420378736E-02 
778	 8.60661639105975E-02 
779	 8.59995108887356E-02 
780	 8.60078813413968E-02 
781	 8.59465031540334E-02 
782	 8.58954134890361E-02 
783	 8.58700259318131E-02 
784	 0.085803112072844 
785	 0.085748812232965 
786	 8.56972775810752E-02 
787	 8.56394461644728E-02 
788	 8.55949761745433E-02 
789	 8.55862760319752E-02 
790	 8.55653650201201E-02 
791	 0.0854816003132 
792	 8.54213520300491E-02 
793	 8.53715682520952E-02 
794	 8.53244838648173E-02 
795	 8.52804780618818E-02 
796	 8.52287703036653E-02 
797	 8.51981881695941E-02 
798	 8.51898011618535E-02 
799	 0.085144299177742 
800	 0.085081968857761 
801	 8.50368948311907E-02 
802	 8.50234241657121E-02 
803	 8.49612614210309E-02 
804	 8.49106930642822E-02 
805	 8.48708148183272E-02 
806	 8.48075911440644E-02 
807	 8.47748750611417E-02 
808	 8.47204215727283E-02 
809	 8.46449850292253E-02 
810	 8.46293803698611E-02 
811	 8.46059339597784E-02 
812	 8.45493028691899E-02 
813	 8.44703638927477E-02 
814	 8.44503000684895E-02 
815	 8.44162857459498E-02 
816	 8.43539459066645E-02 
817	 8.42833737762804E-02 
818	 8.42651960256812E-02 
819	 8.42284409790364E-02 
820	 8.41684514211081E-02 
821	 8.41390182272164E-02 
822	 0.084096395638863 
823	 8.40733479870471E-02 
824	 8.40698839763794E-02 
825	 8.40155466560299E-02 
826	 8.39869122662881E-02 
827	 8.39456235238664E-02 
828	 8.38631888516068E-02 
829	 8.38476419705346E-02 
830	 8.37962000972148E-02 
831	 8.37282656667427E-02 
832	 8.37088965709689E-02 
833	 8.36804769059792E-02 
834	 8.36500104555015E-02 
835	 8.36134878513838E-02 
836	 8.35583817314119E-02 
837	 8.35527090835926E-02 
838	 8.35430873975077E-02 
839	 8.34945994671445E-02 
840	 8.34377228163928E-02 
841	 8.34073617344822E-02 
842	 8.33908525310499E-02 
843	 8.33649401489995E-02 
844	 8.33201299654036E-02 
845	 8.33068609465312E-02 
846	 8.32987237641331E-02 
847	 8.32486550916936E-02 
848	 8.32213792588949E-02 
849	 8.31649675539252E-02 
850	 8.30980955161113E-02 
851	 8.30927186828625E-02 
852	 8.30580228807565E-02 
853	 8.30386876862296E-02 
854	 8.30366891959187E-02 
855	 8.29686485599202E-02 
856	 8.29790688998704E-02 
857	 8.29994636354298E-02 
858	 8.29579720880507E-02 
859	 8.29031836437028E-02 
860	 8.28809766906465E-02 
861	 8.28675186205978E-02 
862	 8.28260221716082E-02 
863	 8.27912611085222E-02 
864	 8.27794031569201E-02 
865	 8.27737465638469E-02 
866	 8.27442293921768E-02 
867	 8.27199809862848E-02 
868	 8.27147042207363E-02 
869	 8.27079991400798E-02 
870	 8.26542162969434E-02 
871	 8.26175066831768E-02 
872	 8.26248126774276E-02 
873	 8.26514183220889E-02 
874	 8.26056816864111E-02 
875	 8.25834968569897E-02 
876	 8.25642379945508E-02 
877	 8.25166550094503E-02 
878	 8.24527736977742E-02 
879	 8.24495290082531E-02 
880	 8.24740524933819E-02 
881	 8.24693770337326E-02 
882	 8.24716418918374E-02 
883	 8.24213569217244E-02 
884	 8.23583203237592E-02 
885	 8.23629577026937E-02 
886	 8.23974026716323E-02 
887	 8.23774065435419E-02 
888	 8.23357751998569E-02 
889	 8.23828369605865E-02 
890	 8.23369705107028E-02 
891	 8.22756746120418E-02 
892	 8.22580800805543E-02 
893	 8.22734795079847E-02 
894	 8.22876827098466E-02 
895	 8.22790927538898E-02 
896	 8.22512906313042E-02 
897	 8.22441280167592E-02 
898	 8.22465845935503E-02 
899	 8.22635472756359E-02 
900	 8.22800219815354E-02 
901	 8.22163891461842E-02 
902	 8.21951152437494E-02 
903	 8.21720016029552E-02 
904	 8.20993153103971E-02 
905	 8.21448280384639E-02 
906	 8.21812827577384E-02 
907	 8.21815357836642E-02 
908	 0.082165792260819 
909	 8.21045354998762E-02 
910	 8.20692046380399E-02 
911	 8.20827677608305E-02 
912	 8.21196550564711E-02 
913	 0.082104334394614 
914	 8.21051518436176E-02 
915	 8.20972335322206E-02 
916	 8.19924833129425E-02 
917	 0.082020460597526 
918	 8.20325406136682E-02 
919	 8.19900464178861E-02 
920	 8.20258646182548E-02 
921	 8.20459191285145E-02 
922	 8.20421339241637E-02 
923	 8.20288537486559E-02 
924	 8.20305287213326E-02 
925	 8.20474406382776E-02 
926	 8.20488376448256E-02 
927	 8.20162051427076E-02 
928	 8.19652877853304E-02 
929	 8.19860758386202E-02 
930	 8.20432686683358E-02 
931	 8.20688968921526E-02 
932	 8.20008761589159E-02 
933	 8.20605678774591E-02 
934	 8.20914867313545E-02 
935	 8.19676462090413E-02 
936	 8.19920276097278E-02 
937	 8.19192070667634E-02 
938	 0.081846614749592 
939	 8.19094967232576E-02 
940	 8.19709436260953E-02 
941	 8.19962934754535E-02 
942	 8.20120161290967E-02 
943	 8.20419235674605E-02 
944	 8.19773987441038E-02 
945	 8.19589987299132E-02 
946	 8.19836423343164E-02 
947	 8.19905630022839E-02 
948	 8.20101013640313E-02 
949	 8.19673282921472E-02 
950	 8.18785223403146E-02 
951	 8.18269944168482E-02 
952	 8.19594409486247E-02 
953	 8.19677219804405E-02 
954	 8.19089541422869E-02 
955	 8.19890608346155E-02 
956	 8.19328848688663E-02 
957	 8.19151588643225E-02 
958	 8.19462479184476E-02 
959	 8.19356801830525E-02 
960	 8.19212767426932E-02 
961	 8.19750841497231E-02 
962	 8.20358772183018E-02 
963	 8.19824184222969E-02 
964	 8.18676474878273E-02 
965	 8.19176578942437E-02 
966	 0.082036432815617 
967	 8.19777328549395E-02 
968	 8.20428025661559E-02 
969	 0.082056121748636 
970	 8.19633001298373E-02 
971	 8.18507387185468E-02 
972	 8.19446120722543E-02 
973	 0.082027579677075 
974	 8.20136408763167E-02 
975	 0.081958758013595 
976	 8.20135135378884E-02 
977	 8.20002947318941E-02 
978	 8.18920854885529E-02 
979	 8.18112862005445E-02 
980	 8.20182731595612E-02 
981	 8.20459299474979E-02 
982	 8.18842924921857E-02 
983	 8.18182733549617E-02 
984	 8.18516789181228E-02 
985	 8.18447924073422E-02 
986	 8.18113193687922E-02 
987	 8.18329427927472E-02 
988	 8.18202570492971E-02 
989	 8.17854308891399E-02 
990	 8.17568178836707E-02 
991	 8.17709337323465E-02 
992	 0.081894224842707 
993	 8.17412460906227E-02 
994	 8.16262702657024E-02 
995	 8.19337943135739E-02 
996	 8.19707689136303E-02 
997	 8.18998542075793E-02 
998	 8.18186325429839E-02 
999	 8.17922564854679E-02 
1000	 0.08186816459258 
1001	 0.080641096920763 
1002	 8.06598752793182E-02 
1003	 8.06770870293695E-02 
1004	 8.07079616586511E-02 
1005	 8.07872237648058E-02 
1006	 8.07638449375138E-02 
1007	 8.06963779896618E-02 
1008	 8.06461945893327E-02 
1009	 8.05294706563763E-02 
1010	 8.04705571546711E-02 
1011	 8.05180597747071E-02 
1012	 0.080553598141977 
1013	 8.05505021359616E-02 
1014	 8.04818476962228E-02 
1015	 8.04533127127975E-02 
1016	 8.04414775526867E-02 
1017	 8.04479214127846E-02 
1018	 8.05006857694352E-02 
1019	 8.05951980433604E-02 
1020	 8.05790572629135E-02 
1021	 8.05657997391831E-02 
1022	 8.05339942487524E-02 
1023	 8.04499493750901E-02 
1024	 8.04257273922465E-02 
1025	 8.03748601163883E-02 
1026	 8.03694548377596E-02 
1027	 8.04010993589794E-02 
1028	 0.080388695282279 
1029	 8.03968945968182E-02 
1030	 8.03620011156093E-02 
1031	 8.03212564087669E-02 
1032	 8.02465038434092E-02 
1033	 8.02005903757902E-02 
1034	 8.01965271620241E-02 
1035	 8.02145148732162E-02 
1036	 8.01975730483652E-02 
1037	 0.080175076449633 
1038	 8.01122528891093E-02 
1039	 8.00573722465093E-02 
1040	 8.00729723505559E-02 
1041	 8.01205649976876E-02 
1042	 8.01547840880284E-02 
1043	 8.01389345106328E-02 
1044	 0.080121458183531 
1045	 8.00834443447151E-02 
1046	 0.080013379222883 
1047	 7.99928160546674E-02 
1048	 8.00049959707796E-02 
1049	 7.99758260607909E-02 
1050	 7.99941453471775E-02 
1051	 0.079977142408179 
1052	 7.99588455481436E-02 
1053	 7.99861377058225E-02 
1054	 8.00000745038553E-02 
1055	 8.00524029844582E-02 
1056	 0.080075405080398 
1057	 8.00835016008048E-02 
1058	 8.00866805954917E-02 
1059	 8.00899674816016E-02 
1060	 8.00656221099402E-02 
1061	 0.080060029192713 
1062	 8.00709452172121E-02 
1063	 0.080036892215073 
1064	 0.080012426324943 
1065	 8.00467560939286E-02 
1066	 8.00757741330639E-02 
1067	 8.01253058096338E-02 
1068	 8.01875064231711E-02 
1069	 8.01896907447196E-02 
1070	 8.01906804174485E-02 
1071	 8.01716388903757E-02 
1072	 8.01661315327708E-02 
1073	 8.01423998730098E-02 
1074	 0.080145505855193 
1075	 8.01650427542339E-02 
1076	 8.01841382707673E-02 
1077	 0.08021603516329 
1078	 8.02304044379208E-02 
1079	 8.02229788043039E-02 
1080	 8.02020613105996E-02 
1081	 8.01628196885423E-02 
1082	 8.01217361214078E-02 
1083	 8.01165902533791E-02 
1084	 0.080142699321661 
1085	 0.080143567092153 
1086	 8.01727584880363E-02 
1087	 8.01776634416783E-02 
1088	 8.01613537641117E-02 
1089	 0.080121460503245 
1090	 0.080116475389192 
1091	 8.01080540262651E-02 
1092	 8.01308502222229E-02 
1093	 0.080142737034771 
1094	 8.00978323391673E-02 
1095	 8.00762942002542E-02 
1096	 8.00048473318098E-02 
1097	 7.99173899747224E-02 
1098	 7.98954725646832E-02 
1099	 7.99193985105026E-02 
1100	 7.99243544700738E-02 
1101	 7.99687744619066E-02 
1102	 7.99968972853231E-02 
1103	 8.00237040877418E-02 
1104	 8.00396259712391E-02 
1105	 8.00287335243767E-02 
1106	 8.00194289532056E-02 
1107	 8.00027821384463E-02 
1108	 0.079999914502544 
1109	 0.0800292497762 
1110	 8.00383188518965E-02 
1111	 8.00444255830418E-02 
1112	 8.00471918770368E-02 
1113	 0.080044133862052 
1114	 8.00367880796503E-02 
1115	 8.00252555568889E-02 
1116	 7.99825341339068E-02 
1117	 7.99824693856555E-02 
1118	 7.99906260179152E-02 
1119	 8.00234630329473E-02 
1120	 8.00665879987807E-02 
1121	 8.01333721051503E-02 
1122	 8.01580748192825E-02 
1123	 0.080132325295784 
1124	 0.080143709369046 
1125	 8.01525453826171E-02 
1126	 8.01507498357604E-02 
1127	 8.01625360818974E-02 
1128	 8.01754056814747E-02 
1129	 0.080171937517683 
1130	 8.01798515095834E-02 
1131	 8.01912971522834E-02 
1132	 8.02088335476075E-02 
1133	 0.080233583088065 
1134	 8.02524430678875E-02 
1135	 8.02813470631509E-02 
1136	 8.03115134558072E-02 
1137	 8.03221472578174E-02 
1138	 8.03307643870287E-02 
1139	 8.03295746378335E-02 
1140	 8.03202667020988E-02 
1141	 8.03113593949318E-02 
1142	 0.080289937924145 
1143	 8.02787440579608E-02 
1144	 8.02645617118922E-02 
1145	 8.02658797890943E-02 
1146	 8.02767515976934E-02 
1147	 8.02883282529969E-02 
1148	 8.03224319524385E-02 
1149	 8.03336239036943E-02 
1150	 8.03338479102278E-02 
1151	 8.03374030222148E-02 
1152	 8.03194844418959E-02 
1153	 8.02937322536666E-02 
1154	 0.080288002785838 
1155	 8.02916199467532E-02 
1156	 0.080287841393943 
1157	 8.02816482597649E-02 
1158	 8.02939497276465E-02 
1159	 8.03161943843578E-02 
1160	 0.080327778868358 
1161	 0.080362077646524 
1162	 8.03722144672278E-02 
1163	 8.03539433176701E-02 
1164	 8.03450947979298E-02 
1165	 8.03281981940179E-02 
1166	 8.03230256921311E-02 
1167	 8.03103735599418E-02 
1168	 8.03076560535382E-02 
1169	 8.03147458225584E-02 
1170	 8.03266430596131E-02 
1171	 8.03427192515157E-02 
1172	 8.03808011042768E-02 
1173	 8.03946464389922E-02 
1174	 8.03981300230886E-02 
1175	 8.04096810206792E-02 
1176	 8.04152536780833E-02 
1177	 8.04206872646066E-02 
1178	 8.04285636516246E-02 
1179	 8.04380112801187E-02 
1180	 8.04345877045085E-02 
1181	 8.04482912135878E-02 
1182	 8.04798750984832E-02 
1183	 8.05123961645822E-02 
1184	 8.05277247601977E-02 
1185	 8.05411785923603E-02 
1186	 8.05564485171468E-02 
1187	 8.05563492359169E-02 
1188	 8.05674261299496E-02 
1189	 0.080590725520279 
1190	 0.080607644153023 
1191	 8.06206956005053E-02 
1192	 0.080634085887395 
1193	 8.06537172305468E-02 
1194	 8.06648717670652E-02 
1195	 8.06578252277141E-02 
1196	 8.06698030139638E-02 
1197	 8.06947295475973E-02 
1198	 8.07110007935158E-02 
1199	 8.07283444904469E-02 
1200	 8.07548128271195E-02 
1201	 8.07748384012492E-02 
1202	 8.07868148397154E-02 
1203	 8.08006614478985E-02 
1204	 8.08173559241594E-02 
1205	 8.08347883533573E-02 
1206	 8.08461216165225E-02 
1207	 8.08634538567225E-02 
1208	 0.080890550083382 
1209	 8.09108908458518E-02 
1210	 8.09238392849664E-02 
1211	 8.09448429447446E-02 
1212	 8.09622350032899E-02 
1213	 8.09909415184943E-02 
1214	 8.10440590193455E-02 
1215	 8.10772290832829E-02 
1216	 8.11048389689649E-02 
1217	 8.11334687562248E-02 
1218	 8.11529408206734E-02 
1219	 8.11526934960688E-02 
1220	 8.11674138656366E-02 
1221	 8.11892393306826E-02 
1222	 8.12044342196222E-02 
1223	 8.12204818901694E-02 
1224	 8.12318593330531E-02 
1225	 8.12336902698231E-02 
1226	 8.12448848532057E-02 
1227	 8.12527024863304E-02 
1228	 8.12707810296273E-02 
1229	 8.13015980290902E-02 
1230	 0.081329153225707 
1231	 8.13641524835942E-02 
1232	 8.13941213746917E-02 
1233	 8.14219543245364E-02 
1234	 8.14515561792168E-02 
1235	 0.081468265278137 
1236	 8.14775891783041E-02 
1237	 8.14855508886494E-02 
1238	 8.14783613803719E-02 
1239	 0.08148626768614 
1240	 8.14932027984245E-02 
1241	 0.081514728296118 
1242	 0.081564091362488 
1243	 8.15833144344596E-02 
1244	 8.15918957591064E-02 
1245	 8.16066402034454E-02 
1246	 8.16045971695515E-02 
1247	 8.16096577615918E-02 
1248	 8.16166402306849E-02 
1249	 8.16419522509785E-02 
1250	 8.16701923386894E-02 
1251	 0.08168445604312 
1252	 0.081696647824193 
1253	 8.17115531154336E-02 
1254	 8.17249765590656E-02 
1255	 8.17277213541512E-02 
1256	 8.17363651098448E-02 
1257	 8.17520648830776E-02 
1258	 8.17651424595592E-02 
1259	 8.17695951043182E-02 
1260	 0.081782346084496 
1261	 8.18098428598111E-02 
1262	 8.18240524059187E-02 
1263	 8.18404385449797E-02 
1264	 8.18435088679861E-02 
1265	 8.18222451751087E-02 
1266	 8.18164467465517E-02 
1267	 8.18045538921863E-02 
1268	 8.18052120332241E-02 
1269	 8.18131415356032E-02 
1270	 8.18349463054584E-02 
1271	 8.18550796082674E-02 
1272	 8.18884358260605E-02 
1273	 8.18992391583658E-02 
1274	 8.18959345027207E-02 
1275	 8.19115525498649E-02 
1276	 8.19124043843977E-02 
1277	 8.19405930847276E-02 
1278	 8.20097263718218E-02 
1279	 8.20496577011263E-02 
1280	 8.20793384257828E-02 
1281	 8.21176678093935E-02 
1282	 8.21410095835346E-02 
1283	 8.21840588858559E-02 
1284	 8.22421322438085E-02 
1285	 8.23121570131542E-02 
1286	 8.23762260834892E-02 
1287	 8.24274697636834E-02 
1288	 8.24877416466731E-02 
1289	 8.25438555286356E-02 
1290	 8.26042864370342E-02 
1291	 8.26842698397328E-02 
1292	 8.27289561249457E-02 
1293	 8.27522730547935E-02 
1294	 8.27871850067562E-02 
1295	 8.27990609522354E-02 
1296	 0.082835050062823 
1297	 8.28970324488454E-02 
1298	 8.29411924004814E-02 
1299	 8.29870500234661E-02 
1300	 8.30238052481824E-02 
1301	 8.30571490520723E-02 
1302	 8.30767887552565E-02 
1303	 8.30722264089659E-02 
1304	 0.083091580177146 
1305	 8.31038991259012E-02 
1306	 8.30991010902584E-02 
1307	 8.31132739230774E-02 
1308	 8.31109930447328E-02 
1309	 8.31122375150334E-02 
1310	 8.31076645250302E-02 
1311	 8.31086993594886E-02 
1312	 8.31122971639428E-02 
1313	 8.31139194835317E-02 
1314	 8.31175310274922E-02 
1315	 8.31120659113883E-02 
1316	 8.30948108631073E-02 
1317	 8.30937221181543E-02 
1318	 8.30919635064326E-02 
1319	 8.30974529543331E-02 
1320	 8.31278478227654E-02 
1321	 8.31389958494181E-02 
1322	 8.31453544029767E-02 
1323	 8.31377891628825E-02 
1324	 8.31425370989989E-02 
1325	 0.083148153053783 
1326	 8.31546854936287E-02 
1327	 0.083171161189324 
1328	 8.31776465662167E-02 
1329	 8.31834528812347E-02 
1330	 8.31998861460877E-02 
1331	 8.32290508140527E-02 
1332	 0.083243008304522 
1333	 8.32606385547608E-02 
1334	 8.32683687649318E-02 
1335	 8.32505475963794E-02 
1336	 8.32615661400402E-02 
1337	 8.32884126407631E-02 
1338	 8.33061606660363E-02 
1339	 8.33362917792308E-02 
1340	 8.33562929464453E-02 
1341	 8.33551951751725E-02 
1342	 8.33739498847477E-02 
1343	 8.33985030096276E-02 
1344	 8.34311421017546E-02 
1345	 8.34763456333747E-02 
1346	 8.35185271048611E-02 
1347	 0.08353908880292 
1348	 8.35539912518623E-02 
1349	 0.083568583009046 
1350	 8.35920576027632E-02 
1351	 8.36301423657189E-02 
1352	 8.36947716390583E-02 
1353	 0.083731344746342 
1354	 8.37612503528655E-02 
1355	 0.083798949487315 
1356	 8.38350389369416E-02 
1357	 8.38619131466784E-02 
1358	 8.38909187436539E-02 
1359	 8.39167211340744E-02 
1360	 8.39186681782099E-02 
1361	 8.39429190703213E-02 
1362	 8.39945813396538E-02 
1363	 8.40253125689094E-02 
1364	 8.40537721581967E-02 
1365	 8.40729674673411E-02 
1366	 8.40743077336095E-02 
1367	 8.40829445870815E-02 
1368	 8.40949391340642E-02 
1369	 8.41103055000375E-02 
1370	 8.41238665010472E-02 
1371	 8.41385974987381E-02 
1372	 8.41358352201394E-02 
1373	 8.41302307203253E-02 
1374	 8.41282485942639E-02 
1375	 8.41198603998423E-02 
1376	 8.41151054586181E-02 
1377	 8.41136022095047E-02 
1378	 8.41161484624629E-02 
1379	 8.41291403479144E-02 
1380	 0.084123237033201 
1381	 8.41135378504262E-02 
1382	 8.40992028103058E-02 
1383	 8.40677332498794E-02 
1384	 8.40406219944113E-02 
1385	 8.40158363884563E-02 
1386	 8.39922456524572E-02 
1387	 8.39628320110488E-02 
1388	 8.39377886139323E-02 
1389	 8.39219268531048E-02 
1390	 8.39029434743341E-02 
1391	 8.38671118005729E-02 
1392	 8.38220967383778E-02 
1393	 8.37678703417825E-02 
1394	 8.37105123719419E-02 
1395	 8.36593528935626E-02 
1396	 8.36076938024959E-02 
1397	 8.35565504801097E-02 
1398	 8.35098321806982E-02 
1399	 8.34504652206504E-02 
1400	 8.33920272264713E-02 
1401	 8.33213942027929E-02 
1402	 8.32303660372038E-02 
1403	 8.31559734774758E-02 
1404	 8.30760397008679E-02 
1405	 8.30081335636414E-02 
1406	 8.29628019082365E-02 
1407	 8.28984919731193E-02 
1408	 0.08282336045171 
1409	 8.27601091231717E-02 
1410	 8.26818413229244E-02 
1411	 8.26278384040463E-02 
1412	 8.25892145757844E-02 
1413	 8.25693838495355E-02 
1414	 8.25392731960558E-02 
1415	 8.25188544647467E-02 
1416	 8.24987208757048E-02 
1417	 8.24606910954732E-02 
1418	 0.082431815687393 
1419	 8.24064543248701E-02 
1420	 0.08239435598929 
1421	 8.23885308324712E-02 
1422	 8.23932806023287E-02 
1423	 0.082405346066969 
1424	 8.24010182340657E-02 
1425	 8.23838394437535E-02 
1426	 8.23783783676309E-02 
1427	 8.23640948034207E-02 
1428	 8.23673722002315E-02 
1429	 8.23845763845193E-02 
1430	 8.24025409461249E-02 
1431	 8.24275989122818E-02 
1432	 8.24504630118577E-02 
1433	 8.24772989162315E-02 
1434	 8.25026125367617E-02 
1435	 0.082533012293767 
1436	 8.25571961261251E-02 
1437	 8.25718799633903E-02 
1438	 0.082594771385442 
1439	 0.082618588257526 
1440	 8.26427251393864E-02 
1441	 8.26698565055885E-02 
1442	 8.27027316714612E-02 
1443	 8.27260886458858E-02 
1444	 8.27490369072558E-02 
1445	 8.27770575066443E-02 
1446	 8.28033639460115E-02 
1447	 8.28288581698525E-02 
1448	 8.28486684435701E-02 
1449	 8.28805408919691E-02 
1450	 8.29218123957867E-02 
1451	 8.29509747772223E-02 
1452	 8.29876961358018E-02 
1453	 8.30089833145607E-02 
1454	 8.30060074826053E-02 
1455	 8.30240194598681E-02 
1456	 8.30443961657806E-02 
1457	 8.30768170148015E-02 
1458	 8.31240821989896E-02 
1459	 8.31624067121951E-02 
1460	 8.32063546273541E-02 
1461	 0.083240602639771 
1462	 8.32686816634728E-02 
1463	 8.33019703078744E-02 
1464	 8.33326020687179E-02 
1465	 8.33639204861823E-02 
1466	 8.33971913066913E-02 
1467	 8.34269114877188E-02 
1468	 8.34538218750095E-02 
1469	 0.083486349362292 
1470	 8.35175095053823E-02 
1471	 8.35503861355234E-02 
1472	 8.36056284510016E-02 
1473	 8.36558364555854E-02 
1474	 8.37015194037119E-02 
1475	 0.083755945821769 
1476	 0.083806357159365 
1477	 8.38413489509289E-02 
1478	 8.38833919890291E-02 
1479	 8.39332104083074E-02 
1480	 8.39734221293344E-02 
1481	 8.40148473219371E-02 
1482	 8.40499434939232E-02 
1483	 8.40797783371654E-02 
1484	 0.084114325787451 
1485	 8.41355639346816E-02 
1486	 8.41883435128876E-02 
1487	 8.42738905459297E-02 
1488	 8.43203084232484E-02 
1489	 8.43663278949112E-02 
1490	 8.44061831405076E-02 
1491	 8.44120593320583E-02 
1492	 8.44448014854049E-02 
1493	 8.44975974098099E-02 
1494	 8.45403973078027E-02 
1495	 8.45834095083655E-02 
1496	 0.084622743459378 
1497	 8.46625808281356E-02 
1498	 8.46998052695526E-02 
1499	 8.47267952339647E-02 
1500	 0.084761978264513 
1501	 0.084809713417325 
1502	 8.48414369080656E-02 
1503	 8.48565527130884E-02 
1504	 8.48962957665268E-02 
1505	 8.49284662776681E-02 
1506	 8.49482537830031E-02 
1507	 8.50042140569559E-02 
1508	 8.50594181710728E-02 
1509	 8.50971401622718E-02 
1510	 8.51300991887619E-02 
1511	 8.51469499174973E-02 
1512	 8.51645638157898E-02 
1513	 8.51829679703359E-02 
1514	 8.52023369542947E-02 
1515	 8.52267749062491E-02 
1516	 8.52490632679935E-02 
1517	 8.52895295401956E-02 
1518	 8.53562739766165E-02 
1519	 8.53866994240161E-02 
1520	 8.54142423152461E-02 
1521	 8.54383727662113E-02 
1522	 8.54313854149947E-02 
1523	 0.085453899510102 
1524	 8.54945258966821E-02 
1525	 8.55253716611875E-02 
1526	 8.55639740042651E-02 
1527	 8.55911241217699E-02 
1528	 8.56131833572118E-02 
1529	 8.56319875694057E-02 
1530	 8.56380041529217E-02 
1531	 8.56552887209036E-02 
1532	 0.085677258679737 
1533	 0.08569912595403 
1534	 8.57272554496372E-02 
1535	 8.57492601506913E-02 
1536	 8.57637119130573E-02 
1537	 0.085787370197263 
1538	 8.58123268206627E-02 
1539	 8.58397250246971E-02 
1540	 8.58759486242743E-02 
1541	 8.59073476970854E-02 
1542	 8.59389318253002E-02 
1543	 8.59664913610011E-02 
1544	 0.085994330093915 
1545	 8.60187168679119E-02 
1546	 8.60353031934831E-02 
1547	 8.60558596012505E-02 
1548	 0.086077781851165 
1549	 8.60956310457444E-02 
1550	 8.61287489969073E-02 
1551	 8.61543223954726E-02 
1552	 8.61591913334298E-02 
1553	 8.61647123576116E-02 
1554	 8.61685891385946E-02 
1555	 8.61708243177265E-02 
1556	 8.62001768438115E-02 
1557	 8.62294365002067E-02 
1558	 8.62417882735085E-02 
1559	 8.62716761609318E-02 
1560	 8.62920821103368E-02 
1561	 8.63054998400424E-02 
1562	 8.63297782238763E-02 
1563	 8.63609149351332E-02 
1564	 8.63796528738007E-02 
1565	 8.63965416420088E-02 
1566	 8.64181262804997E-02 
1567	 8.64383812361453E-02 
1568	 8.64502544488229E-02 
1569	 8.64658267019125E-02 
1570	 8.64755528227454E-02 
1571	 8.64661068056445E-02 
1572	 8.64741376734409E-02 
1573	 8.64924850147762E-02 
1574	 8.65066959142838E-02 
1575	 8.65266168407287E-02 
1576	 8.65387170307591E-02 
1577	 8.65435488206819E-02 
1578	 0.086557206373027 
1579	 8.65712506952422E-02 
1580	 8.65847843730245E-02 
1581	 8.66095458343285E-02 
1582	 8.66230937258835E-02 
1583	 8.66213190209635E-02 
1584	 8.66348791327677E-02 
1585	 8.66553877089467E-02 
1586	 8.66682629702537E-02 
1587	 8.66858998951111E-02 
1588	 8.67012730582043E-02 
1589	 8.67077613907777E-02 
1590	 8.67195904378093E-02 
1591	 0.086739504847341 
1592	 8.67515528284847E-02 
1593	 8.67507594762653E-02 
1594	 8.67650224838285E-02 
1595	 8.67880010495819E-02 
1596	 8.68081902869507E-02 
1597	 8.68451781665481E-02 
1598	 8.68659975459518E-02 
1599	 8.68720211357957E-02 
1600	 8.68787582477403E-02 
1601	 0.086876707930182 
1602	 8.68779079975304E-02 
1603	 8.68831756558796E-02 
1604	 0.086883724428692 
1605	 8.68844987281335E-02 
1606	 8.68804820408101E-02 
1607	 8.68628586859887E-02 
1608	 8.68536922583294E-02 
1609	 8.68650959726587E-02 
1610	 8.68733889893836E-02 
1611	 8.68970701610136E-02 
1612	 8.69214047080866E-02 
1613	 8.69212663968301E-02 
1614	 8.69199166130597E-02 
1615	 8.69175419756737E-02 
1616	 8.69096056067202E-02 
1617	 0.086900765856902 
1618	 8.68952286695538E-02 
1619	 8.69061265875335E-02 
1620	 8.69244480424593E-02 
1621	 8.69357917164213E-02 
1622	 8.69575619937849E-02 
1623	 8.69747084917726E-02 
1624	 8.69808004212737E-02 
1625	 8.69958577755224E-02 
1626	 8.70230819923383E-02 
1627	 8.70378993535171E-02 
1628	 0.087046684955629 
1629	 8.70562050143869E-02 
1630	 8.70646231053333E-02 
1631	 8.70697891359128E-02 
1632	 8.70677908734745E-02 
1633	 8.70771306702188E-02 
1634	 8.70888800157693E-02 
1635	 0.08710318417419 
1636	 8.71293188705788E-02 
1637	 8.71395210293006E-02 
1638	 8.71429873419214E-02 
1639	 8.71474691692828E-02 
1640	 8.71413452416064E-02 
1641	 8.71490705451232E-02 
1642	 8.71645809165072E-02 
1643	 8.71759174845875E-02 
1644	 0.087195867176187 
1645	 8.72017882477688E-02 
1646	 0.087196851438397 
1647	 8.71987770703644E-02 
1648	 8.71982668994533E-02 
1649	 8.71968610462031E-02 
1650	 8.71975252698242E-02 
1651	 8.71980608896834E-02 
1652	 8.71961021182929E-02 
1653	 0.087193539025388 
1654	 0.087190022983485 
1655	 0.087192744322868 
1656	 8.71949597846611E-02 
1657	 8.71993184780502E-02 
1658	 8.72149145415102E-02 
1659	 8.72197265220714E-02 
1660	 8.72138875452049E-02 
1661	 8.72195550951206E-02 
1662	 8.72302353564715E-02 
1663	 8.72352512412375E-02 
1664	 8.72399866261224E-02 
1665	 8.72509015960257E-02 
1666	 8.72652779646012E-02 
1667	 8.72694270027729E-02 
1668	 8.72723074878687E-02 
1669	 8.72807524001147E-02 
1670	 8.72835418180375E-02 
1671	 8.72853774950577E-02 
1672	 8.72983404538034E-02 
1673	 0.087300503825317 
1674	 8.72852613521165E-02 
1675	 8.72838266863687E-02 
1676	 8.72861954101666E-02 
1677	 8.72938160323018E-02 
1678	 8.73154048799457E-02 
1679	 8.73176459332713E-02 
1680	 8.73124109544765E-02 
1681	 8.73129331691437E-02 
1682	 8.72976219924235E-02 
1683	 8.73014567955145E-02 
1684	 8.73277241045773E-02 
1685	 0.087337044510237 
1686	 8.73444052551108E-02 
1687	 0.087348347541697 
1688	 8.73399557675908E-02 
1689	 8.73443501958836E-02 
1690	 0.087351687440802 
1691	 0.087364870311331 
1692	 8.73881553570808E-02 
1693	 8.74057346977035E-02 
1694	 8.74293150262681E-02 
1695	 8.74438387792713E-02 
1696	 8.74542986525271E-02 
1697	 8.74583253133425E-02 
1698	 8.74452600687712E-02 
1699	 8.74520625215323E-02 
1700	 8.74643768241325E-02 
1701	 8.74790200516202E-02 
1702	 8.75186178929016E-02 
1703	 8.75267881450005E-02 
1704	 8.75167681651688E-02 
1705	 8.75093712586623E-02 
1706	 8.74877342824248E-02 
1707	 8.74708034313493E-02 
1708	 8.74524138002934E-02 
1709	 8.74414708671342E-02 
1710	 8.74243065299071E-02 
1711	 8.74257267702863E-02 
1712	 8.74467189777828E-02 
1713	 8.74601450728737E-02 
1714	 8.74810556621918E-02 
1715	 8.74964792630493E-02 
1716	 8.75113060442422E-02 
1717	 8.75135732823493E-02 
1718	 8.75108436649808E-02 
1719	 8.75074983537277E-02 
1720	 8.74889474761403E-02 
1721	 8.74882643463237E-02 
1722	 8.74963055547796E-02 
1723	 8.75006278300854E-02 
1724	 8.75160216957197E-02 
1725	 8.75154999365611E-02 
1726	 8.75068962488185E-02 
1727	 8.74956864740698E-02 
1728	 8.74669834817604E-02 
1729	 8.74644016836148E-02 
1730	 8.74726869471414E-02 
1731	 8.74848056383956E-02 
1732	 8.75223554283706E-02 
1733	 8.75190108595145E-02 
1734	 0.087496734566392 
1735	 8.74783255925328E-02 
1736	 8.74372579164141E-02 
1737	 8.74227601288168E-02 
1738	 8.74298433763964E-02 
1739	 8.74144749916249E-02 
1740	 8.73933735422269E-02 
1741	 8.73728659895048E-02 
1742	 8.73329141732146E-02 
1743	 0.087324969958148 
1744	 8.73452417722946E-02 
1745	 8.73294081452927E-02 
1746	 8.73079547521596E-02 
1747	 8.72784960536953E-02 
1748	 8.72614775221958E-02 
1749	 8.72809267600931E-02 
1750	 8.72889284380038E-02 
1751	 0.087265016854422 
1752	 8.72445804067393E-02 
1753	 8.72232152918356E-02 
1754	 8.72144982035081E-02 
1755	 0.087210695238273 
1756	 8.71900389858201E-02 
1757	 0.087182454718319 
1758	 8.71653561129538E-02 
1759	 8.71381019311236E-02 
1760	 8.71211002696966E-02 
1761	 8.70844738975472E-02 
1762	 8.70567790640587E-02 
1763	 8.70643210856409E-02 
1764	 0.087066869874122 
1765	 8.70545728900954E-02 
1766	 0.087033399512672 
1767	 8.70170805559377E-02 
1768	 8.70130418918638E-02 
1769	 8.70091348548769E-02 
1770	 0.087017073174989 
1771	 8.70174763013509E-02 
1772	 8.70155045999387E-02 
1773	 0.08702911206037 
1774	 8.70324631473959E-02 
1775	 8.70423841235907E-02 
1776	 8.70283786821747E-02 
1777	 8.69761979396263E-02 
1778	 0.086934153838526 
1779	 8.68944706694967E-02 
1780	 8.68692033334151E-02 
1781	 8.68851165915827E-02 
1782	 8.69263344547172E-02 
1783	 8.69505606434872E-02 
1784	 0.086951480098856 
1785	 8.69312629760911E-02 
1786	 0.086920857530677 
1787	 8.68890460948959E-02 
1788	 8.68865619958161E-02 
1789	 8.69118220186138E-02 
1790	 8.69280991338826E-02 
1791	 8.69572542896182E-02 
1792	 8.69729443543535E-02 
1793	 8.69802035395858E-02 
1794	 8.69909911664116E-02 
1795	 8.69976104294243E-02 
1796	 8.70102693962349E-02 
1797	 0.087027555683657 
1798	 8.70336523892447E-02 
1799	 8.70397229184213E-02 
1800	 8.70388871258949E-02 
1801	 8.32491481776538E-02 
1802	 8.32854533768106E-02 
1803	 8.32848990300589E-02 
1804	 8.32917350180665E-02 
1805	 8.33419292534507E-02 
1806	 8.34024871688629E-02 
1807	 8.34264785978865E-02 
1808	 8.34559291652783E-02 
1809	 8.34950326373435E-02 
1810	 8.35162134166869E-02 
1811	 8.35007055140648E-02 
1812	 8.35369360851443E-02 
1813	 8.35664833486166E-02 
1814	 8.35823903923983E-02 
1815	 8.36294278463624E-02 
1816	 8.36368204525316E-02 
1817	 8.36510260789175E-02 
1818	 8.36747920392661E-02 
1819	 8.36875872663244E-02 
1820	 8.36800040403667E-02 
1821	 8.36873532643112E-02 
1822	 8.37249477723079E-02 
1823	 0.08372844512872 
1824	 8.37264246375391E-02 
1825	 8.37593190624671E-02 
1826	 8.37632553783252E-02 
1827	 8.37629663132283E-02 
1828	 8.37706698922578E-02 
1829	 0.083787128412256 
1830	 8.37867419166254E-02 
1831	 8.37712242465647E-02 
1832	 8.37779364747906E-02 
1833	 8.38066754969224E-02 
1834	 8.38245809851065E-02 
1835	 8.38355265558445E-02 
1836	 0.08386125192004 
1837	 8.38651274742326E-02 
1838	 8.38486759743016E-02 
1839	 8.38489907757106E-02 
1840	 8.38636761417642E-02 
1841	 8.38724634834127E-02 
1842	 8.38873356847132E-02 
1843	 8.39393279662643E-02 
1844	 8.39822078448295E-02 
1845	 8.39932695133054E-02 
1846	 8.39808407270104E-02 
1847	 8.39487395602012E-02 
1848	 8.39237196057652E-02 
1849	 8.39023435049495E-02 
1850	 0.083890690527803 
1851	 8.38869811282506E-02 
1852	 8.38957404325272E-02 
1853	 8.38940053080983E-02 
1854	 8.38985604478274E-02 
1855	 8.38971761754362E-02 
1856	 8.38693763720445E-02 
1857	 8.38329652229614E-02 
1858	 0.083804378600612 
1859	 8.37841974269984E-02 
1860	 8.37611343835941E-02 
1861	 8.37434289130154E-02 
1862	 8.37249018351117E-02 
1863	 8.36983951135177E-02 
1864	 8.36552567828383E-02 
1865	 8.35992411223871E-02 
1866	 8.35564990570446E-02 
1867	 8.34996096294158E-02 
1868	 8.34323211296771E-02 
1869	 8.33701525421393E-02 
1870	 8.32945213964144E-02 
1871	 8.32068022896968E-02 
1872	 8.31106835047623E-02 
1873	 8.30057616166502E-02 
1874	 8.28944266572889E-02 
1875	 8.27611718490131E-02 
1876	 8.26169073410944E-02 
1877	 0.082485378563595 
1878	 8.23291798286063E-02 
1879	 8.21694458787929E-02 
1880	 8.19948124887998E-02 
1881	 8.18018124080627E-02 
1882	 8.15956488002118E-02 
1883	 8.13805606962256E-02 
1884	 8.11474576714001E-02 
1885	 8.08954231207465E-02 
1886	 8.06583321181525E-02 
1887	 8.03902078642968E-02 
1888	 8.01061809243986E-02 
1889	 7.98213285113781E-02 
1890	 7.95175924024697E-02 
1891	 7.92138036346613E-02 
1892	 7.89075172170855E-02 
1893	 7.85901853204354E-02 
1894	 7.82525160477242E-02 
1895	 7.79362058828098E-02 
1896	 7.76214868947368E-02 
1897	 7.72973871071979E-02 
1898	 7.70042609394945E-02 
1899	 7.67094592243151E-02 
1900	 7.63869776771156E-02 
1901	 7.60816281639096E-02 
1902	 7.57916783455401E-02 
1903	 7.54969523863264E-02 
1904	 0.075228446747899 
1905	 7.49857199559275E-02 
1906	 0.074757128632257 
1907	 7.45334264388054E-02 
1908	 7.43303384736692E-02 
1909	 7.41343047176878E-02 
1910	 7.39442433462296E-02 
1911	 7.37597992965884E-02 
1912	 7.35816173936503E-02 
1913	 7.34309134166816E-02 
1914	 7.33101439916539E-02 
1915	 7.31806726539011E-02 
1916	 7.30672699762069E-02 
1917	 7.29561363510318E-02 
1918	 7.28295378875337E-02 
1919	 7.27198919911062E-02 
1920	 7.26502208168859E-02 
1921	 7.25937850888227E-02 
1922	 7.25411843762842E-02 
1923	 7.24965044776632E-02 
1924	 7.24613141763446E-02 
1925	 7.24332239929588E-02 
1926	 7.24023748059767E-02 
1927	 7.23804964372035E-02 
1928	 7.23658787923566E-02 
1929	 7.23328311125507E-02 
1930	 7.23002912313849E-02 
1931	 7.23027982049775E-02 
1932	 0.072309477996376 
1933	 7.23136928442352E-02 
1934	 7.23431238687679E-02 
1935	 7.23703815375671E-02 
1936	 7.23962209913254E-02 
1937	 7.24300423508825E-02 
1938	 7.24839877262876E-02 
1939	 0.072521360288529 
1940	 7.25544006766451E-02 
1941	 7.25815750659085E-02 
1942	 7.26031668110081E-02 
1943	 7.26432688206545E-02 
1944	 7.27038897167836E-02 
1945	 7.27811632682982E-02 
1946	 7.28530518560362E-02 
1947	 7.29392554644552E-02 
1948	 7.30162404918938E-02 
1949	 7.30848792505967E-02 
1950	 7.31586103351898E-02 
1951	 7.32309379643295E-02 
1952	 7.33171218539004E-02 
1953	 7.34054995549632E-02 
1954	 7.34870048156137E-02 
1955	 7.35638690846379E-02 
1956	 7.36371556681863E-02 
1957	 7.37261065670582E-02 
1958	 0.073818608209619 
1959	 7.39131722228223E-02 
1960	 7.40287236489877E-02 
1961	 7.41307889600371E-02 
1962	 7.42172632521695E-02 
1963	 7.43150841867628E-02 
1964	 7.44212320061763E-02 
1965	 7.45161945390843E-02 
1966	 7.46307015350042E-02 
1967	 7.47467097696748E-02 
1968	 7.48439171135654E-02 
1969	 7.49342919796697E-02 
1970	 7.50282663417433E-02 
1971	 7.51009159558475E-02 
1972	 7.51933218313807E-02 
1973	 7.52992707336922E-02 
1974	 7.54015205311812E-02 
1975	 7.55093046485861E-02 
1976	 7.56222534518647E-02 
1977	 7.57039774340394E-02 
1978	 0.07578521477006 
1979	 7.58794505991259E-02 
1980	 7.59749475798138E-02 
1981	 7.60799629437043E-02 
1982	 7.62154683461432E-02 
1983	 7.63318218387203E-02 
1984	 7.64422518100554E-02 
1985	 0.07654508214072 
1986	 7.66463972174107E-02 
1987	 7.67425749314202E-02 
1988	 7.68190866511854E-02 
1989	 0.076908076881675 
1990	 7.70270373233863E-02 
1991	 7.71264184930956E-02 
1992	 7.72321863313653E-02 
1993	 7.73495375817979E-02 
1994	 0.077465088068995 
1995	 7.75834674648901E-02 
1996	 7.76871254572553E-02 
1997	 7.77959242400222E-02 
1998	 7.78907078639965E-02 
1999	 7.79507396549884E-02 
2000	 7.80330999387201E-02 
2001	 7.81224962096542E-02 
2002	 7.82123878070006E-02 
2003	 7.83207277474263E-02 
2004	 7.84329279689918E-02 
2005	 7.85303472192113E-02 
2006	 7.86247601888938E-02 
2007	 7.87226841532317E-02 
2008	 7.88072246876661E-02 
2009	 7.89024099446482E-02 
2010	 7.90028358778464E-02 
2011	 7.91105987918855E-02 
2012	 7.92317855486323E-02 
2013	 7.93407785238463E-02 
2014	 7.94515035973656E-02 
2015	 7.95653304564607E-02 
2016	 7.96644852063187E-02 
2017	 0.079739497705736 
2018	 7.98417273991873E-02 
2019	 7.99636901419568E-02 
2020	 8.00601770350087E-02 
2021	 8.01567787665979E-02 
2022	 8.02482873634248E-02 
2023	 8.03158174552767E-02 
2024	 8.03952510774501E-02 
2025	 8.04773597082478E-02 
2026	 8.05687254770436E-02 
2027	 8.06754438708662E-02 
2028	 8.07647544656812E-02 
2029	 0.080849861911612 
2030	 8.09396029071662E-02 
2031	 8.10178561724901E-02 
2032	 0.081074235729011 
2033	 8.11471779592706E-02 
2034	 8.12276149378963E-02 
2035	 8.13051639724608E-02 
2036	 8.13830707073755E-02 
2037	 8.14616403855789E-02 
2038	 8.15391052553823E-02 
2039	 8.16179962417538E-02 
2040	 8.17027241699775E-02 
2041	 0.081783436375951 
2042	 8.18480903638006E-02 
2043	 8.19122537906787E-02 
2044	 8.19794086187754E-02 
2045	 8.20421412231307E-02 
2046	 8.20956476424598E-02 
2047	 0.08215918870763 
2048	 8.22027013773401E-02 
2049	 8.22078590051588E-02 
2050	 8.22490546243464E-02 
2051	 8.22959368209173E-02 
2052	 8.23488655824565E-02 
2053	 8.24250839407333E-02 
2054	 8.24949964404249E-02 
2055	 8.25648744053992E-02 
2056	 8.26404742486635E-02 
2057	 8.27015494044791E-02 
2058	 8.27547708626634E-02 
2059	 8.28165218712974E-02 
2060	 8.28683015255759E-02 
2061	 8.29324274877595E-02 
2062	 8.30176439491589E-02 
2063	 0.083082980296698 
2064	 8.31325716375949E-02 
2065	 0.083198080708792 
2066	 0.08326868834574 
2067	 8.33333085872318E-02 
2068	 8.34170498009426E-02 
2069	 8.34813687753459E-02 
2070	 8.35245127305852E-02 
2071	 8.35357981585516E-02 
2072	 8.35828138086358E-02 
2073	 8.36198186671085E-02 
2074	 8.36790732817039E-02 
2075	 8.37751715908991E-02 
2076	 8.38470380622417E-02 
2077	 8.39121466285287E-02 
2078	 8.39800014881171E-02 
2079	 8.40345166876186E-02 
2080	 8.41086800871696E-02 
2081	 8.42060962215382E-02 
2082	 8.42854459797053E-02 
2083	 8.43826531378764E-02 
2084	 8.44493132722199E-02 
2085	 8.45099412648453E-02 
2086	 8.45524401559661E-02 
2087	 8.45912838093052E-02 
2088	 8.46092936740126E-02 
2089	 8.46519130918969E-02 
2090	 8.46965171866163E-02 
2091	 8.47389603880336E-02 
2092	 0.08478629547725 
2093	 0.084846136111772 
2094	 8.49057593332526E-02 
2095	 8.49696943430402E-02 
2096	 8.50702267540623E-02 
2097	 8.51396012210657E-02 
2098	 8.51939455326412E-02 
2099	 8.52302011588259E-02 
2100	 8.52822155265651E-02 
2101	 8.53226415740012E-02 
2102	 0.085378130924962 
2103	 8.54531810492927E-02 
2104	 8.55117748099849E-02 
2105	 8.55722234611802E-02 
2106	 0.085617949889475 
2107	 8.56368817847705E-02 
2108	 8.56849447428054E-02 
2109	 8.57424703023691E-02 
2110	 8.57939475939522E-02 
2111	 8.58570133345023E-02 
2112	 8.59221273967338E-02 
2113	 0.085983642034113 
2114	 0.086041366498135 
2115	 8.61010643232338E-02 
2116	 8.61715739128974E-02 
2117	 8.62357982068759E-02 
2118	 8.62876410333468E-02 
2119	 8.63539731864428E-02 
2120	 8.64399390188094E-02 
2121	 8.65019390700582E-02 
2122	 8.65663088126877E-02 
2123	 8.66085368803972E-02 
2124	 0.086624355833463 
2125	 8.66480529523309E-02 
2126	 8.66543155664672E-02 
2127	 8.66737388179156E-02 
2128	 8.66921619328219E-02 
2129	 8.67230500781764E-02 
2130	 8.67732496998955E-02 
2131	 8.68156384103614E-02 
2132	 8.68545571332603E-02 
2133	 0.086901182749133 
2134	 8.69372544054527E-02 
2135	 8.69649217399442E-02 
2136	 8.69862106012993E-02 
2137	 8.70056864763491E-02 
2138	 8.70173358739839E-02 
2139	 8.70158081201788E-02 
2140	 0.087015527751443 
2141	 8.70155345436843E-02 
2142	 0.087008229330349 
2143	 8.69881248147621E-02 
2144	 8.69752757165276E-02 
2145	 8.69617178707518E-02 
2146	 8.69464563481924E-02 
2147	 8.69226582713094E-02 
2148	 8.69290956856481E-02 
2149	 0.086904743410639 
2150	 8.68671807639922E-02 
2151	 8.68391881932932E-02 
2152	 8.68030665351878E-02 
2153	 8.67712791087642E-02 
2154	 8.67560910361681E-02 
2155	 8.67183010515711E-02 
2156	 8.66696678148152E-02 
2157	 8.66163821639353E-02 
2158	 8.65382778516111E-02 
2159	 8.64805494441465E-02 
2160	 8.64352500235673E-02 
2161	 8.63794737187143E-02 
2162	 8.63314217314237E-02 
2163	 8.62775252042708E-02 
2164	 8.62054746623423E-02 
2165	 8.61374588589043E-02 
2166	 8.60890611756379E-02 
2167	 8.60571208206556E-02 
2168	 8.60077369250133E-02 
2169	 8.59731149378057E-02 
2170	 8.59106498347009E-02 
2171	 8.58023004048851E-02 
2172	 8.57508893444894E-02 
2173	 8.57303647736109E-02 
2174	 8.56835185032096E-02 
2175	 8.56550116956901E-02 
2176	 0.08561546707325 
2177	 8.55595268194562E-02 
2178	 0.085489332560715 
2179	 8.54090447570545E-02 
2180	 0.085341862879441 
2181	 8.52388900184207E-02 
2182	 8.51711014980064E-02 
2183	 8.51373822924785E-02 
2184	 0.085117141888731 
2185	 8.50880679189171E-02 
2186	 0.085073242688959 
2187	 8.50380536793942E-02 
2188	 8.49842059128327E-02 
2189	 8.49532214224724E-02 
2190	 8.49378188695121E-02 
2191	 8.48975194543769E-02 
2192	 8.48592288213359E-02 
2193	 8.48135208276935E-02 
2194	 0.08472812414191 
2195	 8.46752594706391E-02 
2196	 8.46391412726945E-02 
2197	 8.46095241229135E-02 
2198	 8.46016785507462E-02 
2199	 8.45833417547954E-02 
2200	 0.084566555494112 
2201	 8.45493791136758E-02 
2202	 8.45323872708546E-02 
2203	 8.45028918151588E-02 
2204	 8.44852003672112E-02 
2205	 8.44650752096385E-02 
2206	 0.08447112532489 
2207	 8.44940061204224E-02 
2208	 8.45087244440148E-02 
2209	 8.45672358664754E-02 
2210	 8.45539774082029E-02 
2211	 8.44770619430743E-02 
2212	 8.44530887676812E-02 
2213	 8.44098904471897E-02 
2214	 8.43893604913279E-02 
2215	 8.44232787954786E-02 
2216	 8.44266270253922E-02 
2217	 8.44064721898153E-02 
2218	 0.084402819826424 
2219	 8.44003543239314E-02 
2220	 8.44049874077747E-02 
2221	 8.44196931877917E-02 
2222	 0.084434603580973 
2223	 8.44568989178198E-02 
2224	 0.08447755302413 
2225	 8.44897939734769E-02 
2226	 8.44973171204747E-02 
2227	 8.45061739524382E-02 
2228	 8.45064330439816E-02 
2229	 8.45166605493069E-02 
2230	 8.45397989001147E-02 
2231	 8.45448708122687E-02 
2232	 8.45328493050833E-02 
2233	 8.45457925255744E-02 
2234	 8.45691116590274E-02 
2235	 8.45812551249121E-02 
2236	 8.46076723340714E-02 
2237	 8.46228204113856E-02 
2238	 8.46107747738276E-02 
2239	 8.46162641007906E-02 
2240	 8.46297305664164E-02 
2241	 8.46491188332549E-02 
2242	 8.46665183855829E-02 
2243	 8.47000707593301E-02 
2244	 8.47533142901196E-02 
2245	 8.48175724665341E-02 
2246	 8.48269169826271E-02 
2247	 8.48511214216787E-02 
2248	 8.48614472228262E-02 
2249	 8.48236960389899E-02 
2250	 8.48406101266736E-02 
2251	 8.48947436600734E-02 
2252	 8.49200031993702E-02 
2253	 8.49526549697053E-02 
2254	 8.49760896524989E-02 
2255	 8.49822066146574E-02 
2256	 0.084998367277481 
2257	 8.50254869986029E-02 
2258	 8.50302205006193E-02 
2259	 8.50197854369963E-02 
2260	 8.50234882942982E-02 
2261	 8.50081545127386E-02 
2262	 0.085018280448429 
2263	 8.50554540948026E-02 
2264	 8.50854070749147E-02 
2265	 8.51238697931744E-02 
2266	 8.51595993681986E-02 
2267	 8.52004032107241E-02 
2268	 8.52332684759479E-02 
2269	 8.52680396761039E-02 
2270	 8.52942792703531E-02 
2271	 8.52978660922687E-02 
2272	 8.52827178453894E-02 
2273	 8.52560265495979E-02 
2274	 8.52530919595752E-02 
2275	 8.52583601765849E-02 
2276	 8.52848874556977E-02 
2277	 8.52925779525263E-02 
2278	 8.52972784599248E-02 
2279	 8.53065754338215E-02 
2280	 8.53008187061256E-02 
2281	 8.53299815506424E-02 
2282	 8.53862374537952E-02 
2283	 8.54284423620268E-02 
2284	 8.54956470463213E-02 
2285	 8.55322752434338E-02 
2286	 8.55391081205636E-02 
2287	 8.55678746601254E-02 
2288	 8.56010364964827E-02 
2289	 8.56207065860169E-02 
2290	 8.56395811049038E-02 
2291	 8.56651520519637E-02 
2292	 8.56700847724801E-02 
2293	 8.56958998539709E-02 
2294	 0.085756350158803 
2295	 8.57950971583962E-02 
2296	 8.58227983103921E-02 
2297	 8.58686972091819E-02 
2298	 8.58726439369565E-02 
2299	 8.58887346759468E-02 
2300	 8.59235872118447E-02 
2301	 8.59349144339874E-02 
2302	 8.59817064158496E-02 
2303	 8.59980248203931E-02 
2304	 8.60020625860672E-02 
2305	 8.59838399964461E-02 
2306	 8.59687914130452E-02 
2307	 8.59410422082014E-02 
2308	 0.085923902450729 
2309	 8.59055071365787E-02 
2310	 8.59024603924475E-02 
2311	 8.59131139874889E-02 
2312	 8.59046940650478E-02 
2313	 8.58897617476636E-02 
2314	 8.58888005886451E-02 
2315	 8.58768006399302E-02 
2316	 8.58816652082241E-02 
2317	 8.59193956823722E-02 
2318	 8.59346783153657E-02 
2319	 8.59360730090085E-02 
2320	 8.59482119520231E-02 
2321	 8.59661071034581E-02 
2322	 8.59686459075292E-02 
2323	 8.59592103618739E-02 
2324	 8.59754679617212E-02 
2325	 8.59996762605031E-02 
2326	 8.60154130213361E-02 
2327	 8.60477364567393E-02 
2328	 8.60701082587802E-02 
2329	 8.60871091149546E-02 
2330	 8.60628278817866E-02 
2331	 8.60701934124051E-02 
2332	 8.61214162571656E-02 
2333	 8.61284144210987E-02 
2334	 8.61415892703265E-02 
2335	 8.61284038015041E-02 
2336	 8.60827982104339E-02 
2337	 8.61133551967846E-02 
2338	 8.61800232526867E-02 
2339	 8.62504994997963E-02 
2340	 8.63047654686373E-02 
2341	 8.62957052766738E-02 
2342	 0.08626776855384 
2343	 8.62417496634154E-02 
2344	 8.62306073550674E-02 
2345	 8.62403045212286E-02 
2346	 8.62885377553986E-02 
2347	 8.62961831022914E-02 
2348	 0.086285203324238 
2349	 8.63007125039152E-02 
2350	 8.63142097899819E-02 
2351	 0.086311378786388 
2352	 8.63449301182412E-02 
2353	 8.63280435237324E-02 
2354	 8.62450940115577E-02 
2355	 0.086208170391104 
2356	 8.61738982297491E-02 
2357	 8.61489406822019E-02 
2358	 8.61391425656996E-02 
2359	 8.61283192414953E-02 
2360	 8.61113327490776E-02 
2361	 8.61240102799867E-02 
2362	 8.61775475094279E-02 
2363	 8.62000549438177E-02 
2364	 8.62509457160468E-02 
2365	 8.62482630072286E-02 
2366	 8.61855305827267E-02 
2367	 8.61233287453021E-02 
2368	 8.60197770174415E-02 
2369	 0.085941857163667 
2370	 8.58319400230965E-02 
2371	 0.085819816682042 
2372	 8.58649959691686E-02 
2373	 8.58383402411525E-02 
2374	 8.58130749624223E-02 
2375	 8.57809497812046E-02 
2376	 8.56834570738559E-02 
2377	 8.56530499626381E-02 
2378	 8.57171278807295E-02 
2379	 8.57910985650717E-02 
2380	 8.58356200958106E-02 
2381	 8.57838810310929E-02 
2382	 8.57293465649372E-02 
2383	 8.57192163616463E-02 
2384	 8.56796413682095E-02 
2385	 0.085751539200256 
2386	 8.58424349503489E-02 
2387	 8.57956649888575E-02 
2388	 8.57833820762424E-02 
2389	 8.57287714125031E-02 
2390	 8.55832862202239E-02 
2391	 8.54945131491697E-02 
2392	 0.085439312378423 
2393	 8.53877240126929E-02 
2394	 8.53524193655552E-02 
2395	 8.53154273578899E-02 
2396	 8.52637033426934E-02 
2397	 8.52196390603182E-02 
2398	 8.51274129932914E-02 
2399	 8.50606697885807E-02 
2400	 8.50614097205963E-02 
2401	 8.50458888362848E-02 
2402	 8.50391947138834E-02 
2403	 0.08506762046675 
2404	 8.51986134724361E-02 
2405	 8.52942499068987E-02 
2406	 8.53037916741719E-02 
2407	 8.52684436789641E-02 
2408	 8.50666877997619E-02 
2409	 8.48754589340046E-02 
2410	 8.47791372379581E-02 
2411	 8.47095453641642E-02 
2412	 8.46788927402998E-02 
2413	 8.45830857361926E-02 
2414	 8.44587332508864E-02 
2415	 8.44139035852532E-02 
2416	 8.43886198078066E-02 
2417	 8.43935312466323E-02 
2418	 8.43671040714942E-02 
2419	 8.43834206245059E-02 
2420	 8.43472895045865E-02 
2421	 8.42029110101375E-02 
2422	 8.41842028343176E-02 
2423	 8.42588850033762E-02 
2424	 8.42736219203711E-02 
2425	 8.43133627216903E-02 
2426	 8.43317852643626E-02 
2427	 8.43278311086228E-02 
2428	 8.42590506243879E-02 
2429	 8.41989900366083E-02 
2430	 8.40753947289365E-02 
2431	 8.38106372574359E-02 
2432	 8.36867068480485E-02 
2433	 8.35974392373708E-02 
2434	 8.34805641958769E-02 
2435	 8.34208491278017E-02 
2436	 8.33322092520321E-02 
2437	 0.083177326082245 
2438	 8.31104366037921E-02 
2439	 8.31046173287052E-02 
2440	 8.30779942676958E-02 
2441	 8.30674394055638E-02 
2442	 0.083090259265078 
2443	 8.31100152444426E-02 
2444	 0.083150522150822 
2445	 8.33368312826652E-02 
2446	 8.33763278404527E-02 
2447	 8.33519301024567E-02 
2448	 8.33012375034673E-02 
2449	 8.30573868807943E-02 
2450	 0.082862614543314 
2451	 8.27109221994512E-02 
2452	 0.082563764466729 
2453	 8.24394785303806E-02 
2454	 8.23992705806829E-02 
2455	 8.23819749436884E-02 
2456	 8.23616091481451E-02 
2457	 8.23589279602295E-02 
2458	 8.23659370869572E-02 
2459	 8.23905093835449E-02 
2460	 8.24453097979471E-02 
2461	 8.26346550101325E-02 
2462	 8.26427035111063E-02 
2463	 8.25924174849157E-02 
2464	 8.24608410701978E-02 
2465	 8.20657381812408E-02 
2466	 8.18600753621178E-02 
2467	 8.16901213189293E-02 
2468	 8.15819395338977E-02 
2469	 8.16380524480934E-02 
2470	 8.16318663410587E-02 
2471	 8.16013374434961E-02 
2472	 0.081464750890632 
2473	 8.13386176312283E-02 
2474	 8.13340369495277E-02 
2475	 8.12757839981121E-02 
2476	 8.11640679154937E-02 
2477	 0.081214435420736 
2478	 0.0812679993632 
2479	 8.12147444638042E-02 
2480	 8.13656421005082E-02 
2481	 8.13999616649694E-02 
2482	 8.11923842319106E-02 
2483	 8.10351505455445E-02 
2484	 8.08507971486331E-02 
2485	 8.08470783035148E-02 
2486	 8.09184317628171E-02 
2487	 8.11151337937353E-02 
2488	 8.12963322316988E-02 
2489	 8.11032527752218E-02 
2490	 8.10806698124289E-02 
2491	 8.09201965880161E-02 
2492	 8.06957850566212E-02 
2493	 8.07820116336929E-02 
2494	 8.07675783735621E-02 
2495	 8.09496293530361E-02 
2496	 8.10623028685446E-02 
2497	 8.10112292939223E-02 
2498	 8.09284902045335E-02 
2499	 8.07373963894982E-02 
2500	 8.07974679782004E-02 
