Wavelength	MM_3200004.asd
350	 4.58766826695657E-02 
351	 4.99754319824769E-02 
352	 4.12253514698902E-02 
353	 2.81770834099285E-02 
354	 3.48385356979371E-02 
355	 3.98785931712989E-02 
356	 4.00362497333055E-02 
357	 3.78742616898158E-02 
358	 3.83402415605762E-02 
359	 3.84781627000573E-02 
360	 3.64412498762159E-02 
361	 3.20755371386507E-02 
362	 3.28071706697603E-02 
363	 3.34813950446604E-02 
364	 3.16979343665943E-02 
365	 3.16208081652666E-02 
366	 3.31538279487356E-02 
367	 0.035152966272139 
368	 3.62500858819555E-02 
369	 3.57897212291469E-02 
370	 3.49641400627999E-02 
371	 3.44436221630091E-02 
372	 3.46063548157318E-02 
373	 3.82844211647012E-02 
374	 3.91108843122061E-02 
375	 3.50117501140624E-02 
376	 3.27834929626868E-02 
377	 3.28864472631091E-02 
378	 3.52208831435118E-02 
379	 0.038511982927071 
380	 3.92214388203693E-02 
381	 0.03689312945629 
382	 3.55353149683963E-02 
383	 4.11357174701197E-02 
384	 4.23372065319034E-02 
385	 4.01518585658456E-02 
386	 3.82066420736337E-02 
387	 4.17008472419079E-02 
388	 4.27368798417628E-02 
389	 4.19740527572836E-02 
390	 4.22274886055917E-02 
391	 4.22125358651195E-02 
392	 4.21567350081783E-02 
393	 4.25964761496751E-02 
394	 4.41271682961581E-02 
395	 4.46193177726124E-02 
396	 4.63695684535012E-02 
397	 4.94882078577437E-02 
398	 4.76582594974517E-02 
399	 4.64874020147148E-02 
400	 4.66597802449181E-02 
401	 4.71393361445595E-02 
402	 4.84382218778271E-02 
403	 4.89762410130957E-02 
404	 4.87476169972365E-02 
405	 4.93495541598446E-02 
406	 4.96406385282775E-02 
407	 5.02174288384807E-02 
408	 5.10871687695462E-02 
409	 4.96305954842568E-02 
410	 0.049948476870237 
411	 0.051908954407584 
412	 5.32750892667299E-02 
413	 5.25212253104507E-02 
414	 5.21846881161463E-02 
415	 5.30561031621218E-02 
416	 5.32763102536491E-02 
417	 5.38044613633415E-02 
418	 5.43128514017917E-02 
419	 5.44398533000567E-02 
420	 5.47715143804856E-02 
421	 0.054553041983331 
422	 0.054107701620056 
423	 0.054378870784068 
424	 5.50951634200837E-02 
425	 5.53312336441681E-02 
426	 5.49941566977912E-02 
427	 5.56568080717335E-02 
428	 5.57094084519719E-02 
429	 5.57097742560117E-02 
430	 5.64598613814641E-02 
431	 5.63913313337437E-02 
432	 5.60023504847036E-02 
433	 5.59110462518525E-02 
434	 5.66824637720391E-02 
435	 0.057400784610916 
436	 0.057787251849091 
437	 5.78417116151023E-02 
438	 5.78481731058713E-02 
439	 5.78862659746874E-02 
440	 5.81524089015299E-02 
441	 5.87437933317644E-02 
442	 5.85336650419464E-02 
443	 5.85629770587466E-02 
444	 5.91151841542231E-02 
445	 5.90135314729792E-02 
446	 5.93598458804354E-02 
447	 5.97307366327131E-02 
448	 0.059562466999919 
449	 5.95577109737218E-02 
450	 5.99252486722123E-02 
451	 6.03415602075696E-02 
452	 6.01274706974504E-02 
453	 6.03165847823038E-02 
454	 6.06158006882412E-02 
455	 0.060710624660891 
456	 6.08143353306167E-02 
457	 6.09610053188681E-02 
458	 6.11115060243889E-02 
459	 6.11922660383339E-02 
460	 6.11978356209846E-02 
461	 6.12134052498015E-02 
462	 6.13251892667507E-02 
463	 6.16142961829673E-02 
464	 6.17824727716543E-02 
465	 6.19576361566586E-02 
466	 6.22543238961761E-02 
467	 6.22084449434155E-02 
468	 6.22899776489192E-02 
469	 6.24410663308733E-02 
470	 6.22239390087619E-02 
471	 6.25198174351835E-02 
472	 6.28602047285743E-02 
473	 6.28673405704527E-02 
474	 6.28966001079888E-02 
475	 6.30383289695321E-02 
476	 6.31736490265406E-02 
477	 6.31347275118449E-02 
478	 6.32238499671538E-02 
479	 6.32790354472825E-02 
480	 6.32980125496915E-02 
481	 0.063550759042993 
482	 6.39698355685578E-02 
483	 6.41112434592095E-02 
484	 6.37663057566573E-02 
485	 6.41062496673035E-02 
486	 6.41291767263029E-02 
487	 6.38149699237236E-02 
488	 6.39638607783512E-02 
489	 6.42312616959737E-02 
490	 6.44384470359602E-02 
491	 6.45273972454938E-02 
492	 6.46895587779488E-02 
493	 6.46396798015952E-02 
494	 6.45637681560916E-02 
495	 6.47975659566233E-02 
496	 6.49976011611545E-02 
497	 6.50130079210975E-02 
498	 6.49418082447783E-02 
499	 6.52186128858691E-02 
500	 6.54199263701114E-02 
501	 6.55171013211907E-02 
502	 6.55794593405389E-02 
503	 6.55572250551187E-02 
504	 6.55262098230601E-02 
505	 6.55609645452604E-02 
506	 6.57175988565559E-02 
507	 6.57502498493538E-02 
508	 6.57755235260355E-02 
509	 6.58790946648519E-02 
510	 0.065856200527433 
511	 6.58810913507565E-02 
512	 6.59530912256655E-02 
513	 6.59809115218041E-02 
514	 0.065945693870664 
515	 6.60169114912437E-02 
516	 6.62235808046734E-02 
517	 6.63332673025715E-02 
518	 6.63702179878272E-02 
519	 0.06639101259934 
520	 6.64419711411876E-02 
521	 6.64125784786077E-02 
522	 6.63885276706648E-02 
523	 6.64279076138142E-02 
524	 6.65453029856009E-02 
525	 6.65189360534845E-02 
526	 6.64600483112048E-02 
527	 6.65031999279827E-02 
528	 6.66152926983631E-02 
529	 6.66475059874549E-02 
530	 6.66417220743139E-02 
531	 6.67447112136534E-02 
532	 6.67115804752871E-02 
533	 0.066758562144121 
534	 0.066960295146114 
535	 6.69511432342878E-02 
536	 6.70505121096748E-02 
537	 6.71720723385582E-02 
538	 6.71240841442246E-02 
539	 0.067134346279688 
540	 6.71527378264178E-02 
541	 0.067152012222008 
542	 6.71631685135512E-02 
543	 6.72431896512881E-02 
544	 6.73209022516245E-02 
545	 6.73287396333688E-02 
546	 6.73691670574011E-02 
547	 6.73841450206602E-02 
548	 0.06738251326966 
549	 6.74285227796845E-02 
550	 0.067462024113825 
551	 6.74922102560329E-02 
552	 6.75409173277482E-02 
553	 6.76369406579339E-02 
554	 0.067696509202759 
555	 6.77253434014116E-02 
556	 6.77781954088088E-02 
557	 6.78808729532173E-02 
558	 6.79585702676476E-02 
559	 6.79977654856352E-02 
560	 6.81191181399717E-02 
561	 6.81457032886294E-02 
562	 6.81533608323519E-02 
563	 6.82651993083228E-02 
564	 0.068360827414409 
565	 6.83467410745988E-02 
566	 6.82630961963793E-02 
567	 6.82925646205072E-02 
568	 6.84680367957635E-02 
569	 6.86213417160359E-02 
570	 6.86382041992982E-02 
571	 0.068761243759153 
572	 6.88972615194761E-02 
573	 6.90023120414052E-02 
574	 6.90740037100205E-02 
575	 6.91611065785291E-02 
576	 0.069244234760368 
577	 6.93034984370076E-02 
578	 6.93387429350451E-02 
579	 0.069397274971949 
580	 6.94250066473859E-02 
581	 6.93557637195392E-02 
582	 6.93676370944163E-02 
583	 6.94035178230145E-02 
584	 6.94373126145947E-02 
585	 6.95173351348622E-02 
586	 6.96298388053876E-02 
587	 6.97365572880126E-02 
588	 6.98107722706601E-02 
589	 6.99111934247994E-02 
590	 7.00213009078087E-02 
591	 7.01134857246933E-02 
592	 7.01593022838189E-02 
593	 7.02808191463582E-02 
594	 7.04491680073985E-02 
595	 7.05970142701977E-02 
596	 7.06433352651632E-02 
597	 7.06434815128707E-02 
598	 7.06395910189171E-02 
599	 7.06631787427974E-02 
600	 7.07100891687832E-02 
601	 7.07379883967879E-02 
602	 7.07418511972568E-02 
603	 7.07946810174746E-02 
604	 7.08002932532778E-02 
605	 7.08146495575758E-02 
606	 0.070914501518152 
607	 7.09814136169882E-02 
608	 7.10134425981618E-02 
609	 7.10414478014324E-02 
610	 0.071123201546129 
611	 7.11696946783145E-02 
612	 7.11839555105095E-02 
613	 7.11934153196265E-02 
614	 7.12302851163087E-02 
615	 7.12209153391627E-02 
616	 7.11846869312955E-02 
617	 7.12039263347503E-02 
618	 7.12774810320315E-02 
619	 7.13172846925927E-02 
620	 0.071289764844899 
621	 7.13046059379111E-02 
622	 7.13225980681391E-02 
623	 0.071317050670165 
624	 7.12848255093753E-02 
625	 7.13647050992588E-02 
626	 7.14191238138746E-02 
627	 7.14054082460373E-02 
628	 7.14339325288852E-02 
629	 7.14625970931052E-02 
630	 0.07149163511534 
631	 7.15200565486906E-02 
632	 0.071498047834134 
633	 7.15138294715345E-02 
634	 7.15652758393759E-02 
635	 7.15764329294947E-02 
636	 7.15626064104001E-02 
637	 7.15851398137994E-02 
638	 7.16563371883859E-02 
639	 7.16439173397256E-02 
640	 7.16672137840222E-02 
641	 7.17214118325628E-02 
642	 7.17466163432668E-02 
643	 7.17349317046699E-02 
644	 7.17302204152396E-02 
645	 7.17499042823088E-02 
646	 7.17648892383859E-02 
647	 7.18112882332984E-02 
648	 7.18590685277471E-02 
649	 7.18732758031482E-02 
650	 0.07188127034887 
651	 7.19033534856318E-02 
652	 7.19286374257936E-02 
653	 7.19245421450809E-02 
654	 7.19787656916634E-02 
655	 7.20173211084669E-02 
656	 7.19971917119658E-02 
657	 7.20229397720547E-02 
658	 7.20901184749493E-02 
659	 7.21323207672885E-02 
660	 7.20789045697738E-02 
661	 7.20905705681397E-02 
662	 7.21230996449606E-02 
663	 7.21526560990776E-02 
664	 0.07221628197219 
665	 7.22469626380535E-02 
666	 7.22482059353492E-02 
667	 0.072247662125916 
668	 7.22741539428302E-02 
669	 7.23079394779782E-02 
670	 7.23420076415182E-02 
671	 7.23798642758038E-02 
672	 7.23988219378222E-02 
673	 7.24122805817442E-02 
674	 7.24339083228771E-02 
675	 7.24648192211261E-02 
676	 7.24812059575856E-02 
677	 0.072484352465137 
678	 0.072488907901334 
679	 7.25102143783872E-02 
680	 7.25409496676647E-02 
681	 7.25605613449443E-02 
682	 7.25340290866691E-02 
683	 7.25835615599021E-02 
684	 0.072656857527373 
685	 7.26810605549396E-02 
686	 7.26848288142471E-02 
687	 0.072724338934447 
688	 7.27792043491312E-02 
689	 7.27786277454912E-02 
690	 7.27506548530708E-02 
691	 7.27525404652914E-02 
692	 7.28004384032811E-02 
693	 7.28243173835686E-02 
694	 7.28240215994658E-02 
695	 7.28272587487714E-02 
696	 7.28610729419287E-02 
697	 7.28732755782787E-02 
698	 7.28912912970382E-02 
699	 7.29216572389549E-02 
700	 7.29442646100232E-02 
701	 7.29499109125412E-02 
702	 7.29471151803936E-02 
703	 7.29477940501619E-02 
704	 7.29636418471962E-02 
705	 7.29559554124604E-02 
706	 7.29326005817161E-02 
707	 7.29264523066757E-02 
708	 7.29458930870413E-02 
709	 7.29903181431527E-02 
710	 7.30277798105851E-02 
711	 7.29823921310115E-02 
712	 7.29902854815964E-02 
713	 7.30231432553655E-02 
714	 7.30272146612255E-02 
715	 7.30437951509429E-02 
716	 0.073059912094428 
717	 0.073062312625347 
718	 7.30435761045747E-02 
719	 7.30584121267152E-02 
720	 7.30810719214008E-02 
721	 7.30920857351607E-02 
722	 7.31107493243625E-02 
723	 0.073093696072858 
724	 7.30699500856484E-02 
725	 7.30771798294754E-02 
726	 7.30576507435819E-02 
727	 7.30564905572077E-02 
728	 7.30669943296841E-02 
729	 7.30359275091323E-02 
730	 7.30510918014397E-02 
731	 7.30675044726005E-02 
732	 7.30519416736768E-02 
733	 7.30592424952319E-02 
734	 7.30565971608688E-02 
735	 7.30366607037265E-02 
736	 7.30045615790532E-02 
737	 7.29700199584442E-02 
738	 0.072961341439116 
739	 7.29757779942678E-02 
740	 7.29763955846776E-02 
741	 7.29624171831262E-02 
742	 7.29385158365799E-02 
743	 7.29101466787125E-02 
744	 7.28762626400134E-02 
745	 7.28525671997292E-02 
746	 7.28521557926717E-02 
747	 7.28726365772594E-02 
748	 7.28260359585522E-02 
749	 7.27685386861092E-02 
750	 0.072738507150813 
751	 7.27351128194799E-02 
752	 7.27160771172577E-02 
753	 7.26977073553323E-02 
754	 7.26975482759582E-02 
755	 7.26961475783161E-02 
756	 7.26690799571232E-02 
757	 7.26488067694328E-02 
758	 0.072679477100518 
759	 7.26612312581891E-02 
760	 7.25996732323294E-02 
761	 7.25347201159803E-02 
762	 7.25325445640453E-02 
763	 7.25206555074779E-02 
764	 7.24998140206807E-02 
765	 0.072480578954213 
766	 7.24479800056008E-02 
767	 7.24172727452312E-02 
768	 7.23942407127658E-02 
769	 7.23761291448534E-02 
770	 7.23368713493246E-02 
771	 7.23231111187416E-02 
772	 7.23304834530663E-02 
773	 7.22892056925049E-02 
774	 7.22757188401695E-02 
775	 7.22640516298593E-02 
776	 7.22245976063931E-02 
777	 7.21792583001031E-02 
778	 7.21428696486616E-02 
779	 0.072125960510682 
780	 7.21268527002229E-02 
781	 7.20912188444044E-02 
782	 7.20779470226731E-02 
783	 7.20854929640638E-02 
784	 7.20432717342962E-02 
785	 7.20028698295727E-02 
786	 7.19763291128371E-02 
787	 7.19600760510302E-02 
788	 7.19305743466925E-02 
789	 0.071922200062849 
790	 7.19075025833063E-02 
791	 7.18533844859963E-02 
792	 7.18241228546251E-02 
793	 7.18099764540639E-02 
794	 7.17965974898944E-02 
795	 7.17694786491635E-02 
796	 7.17211182413736E-02 
797	 0.071685564996485 
798	 7.16739209406266E-02 
799	 7.16435653370318E-02 
800	 0.071621991957319 
801	 7.16105777007916E-02 
802	 7.15981051249425E-02 
803	 7.15565641374986E-02 
804	 7.15170641489571E-02 
805	 7.14936822962514E-02 
806	 7.14822147326743E-02 
807	 7.14343288900415E-02 
808	 7.14026557963919E-02 
809	 7.13992068793636E-02 
810	 7.13704276042378E-02 
811	 7.13911202310671E-02 
812	 7.13744178909963E-02 
813	 7.12774746957109E-02 
814	 7.12738846316017E-02 
815	 7.12546991808055E-02 
816	 7.12160990464352E-02 
817	 7.11947422224216E-02 
818	 7.12010207211137E-02 
819	 7.12045666841895E-02 
820	 7.11763508159601E-02 
821	 7.11010812113357E-02 
822	 7.10659046367358E-02 
823	 7.10618434283127E-02 
824	 7.10695499948029E-02 
825	 7.10810515443845E-02 
826	 7.10509478432051E-02 
827	 7.10041060031286E-02 
828	 7.09731902082015E-02 
829	 7.09446084548394E-02 
830	 7.09203014414187E-02 
831	 7.09100001817824E-02 
832	 7.09190148058877E-02 
833	 7.09035846207426E-02 
834	 7.09002505721386E-02 
835	 7.08995454297372E-02 
836	 7.08536369048142E-02 
837	 7.08777789939422E-02 
838	 7.08896623624697E-02 
839	 0.07084001628293 
840	 7.07905864963946E-02 
841	 7.07546553180551E-02 
842	 7.07491402563391E-02 
843	 7.07659730561435E-02 
844	 7.07257142564441E-02 
845	 7.06968924021137E-02 
846	 7.06795612471085E-02 
847	 7.06552640112657E-02 
848	 7.07039689659545E-02 
849	 7.07022853444292E-02 
850	 7.06445751520176E-02 
851	 7.06294804781506E-02 
852	 7.06188424737616E-02 
853	 7.05990659234288E-02 
854	 7.05834191437168E-02 
855	 0.070617831416374 
856	 7.06231103292962E-02 
857	 7.06292904934998E-02 
858	 7.06563837812157E-02 
859	 7.06308363690281E-02 
860	 7.05825726060425E-02 
861	 7.05581135945663E-02 
862	 7.05838418540826E-02 
863	 7.05744599160328E-02 
864	 7.05596615972031E-02 
865	 7.05422034891896E-02 
866	 7.05127850898789E-02 
867	 7.05104210121981E-02 
868	 7.05117713790793E-02 
869	 7.05043731770549E-02 
870	 7.04930922865156E-02 
871	 7.04720646493814E-02 
872	 7.04650713992339E-02 
873	 7.04750691895168E-02 
874	 7.04651931760225E-02 
875	 7.05097741895662E-02 
876	 7.05079860405033E-02 
877	 7.04066256525187E-02 
878	 7.03815413745524E-02 
879	 7.04312542828769E-02 
880	 7.04637952694376E-02 
881	 7.04083226745115E-02 
882	 7.04388834709919E-02 
883	 7.04359869707004E-02 
884	 7.03986625736657E-02 
885	 7.03902050037293E-02 
886	 7.03993667434524E-02 
887	 0.070426973470379 
888	 0.070440320382227 
889	 7.03956181533732E-02 
890	 7.04176761497905E-02 
891	 7.04415571112192E-02 
892	 7.04228984796669E-02 
893	 7.03780864499686E-02 
894	 7.03392776732995E-02 
895	 7.03411455962267E-02 
896	 7.03764904691836E-02 
897	 7.03685790726354E-02 
898	 0.070367623295216 
899	 0.070363613997952 
900	 7.03497228794675E-02 
901	 7.03711852242001E-02 
902	 7.03549958937055E-02 
903	 7.03435563225191E-02 
904	 7.03855432208089E-02 
905	 7.03966294075673E-02 
906	 7.04040046627605E-02 
907	 7.04144111444075E-02 
908	 7.04240488826697E-02 
909	 0.070430646716786 
910	 7.04227941657549E-02 
911	 7.04395593355209E-02 
912	 7.05203703615231E-02 
913	 7.04762841925665E-02 
914	 7.04784080771777E-02 
915	 0.070516969638518 
916	 7.04257325924328E-02 
917	 7.04045670234737E-02 
918	 7.04203266879464E-02 
919	 7.04201544128825E-02 
920	 0.070376971733925 
921	 7.04475810992802E-02 
922	 7.05142752405959E-02 
923	 7.04950351605806E-02 
924	 7.04359344590481E-02 
925	 7.04222561555411E-02 
926	 7.05081940463576E-02 
927	 7.06194672275614E-02 
928	 7.04832122770615E-02 
929	 7.04700729222348E-02 
930	 7.05393402899749E-02 
931	 7.05775668921394E-02 
932	 7.05622476247818E-02 
933	 7.06362667446659E-02 
934	 7.06584021623287E-02 
935	 7.05389692641167E-02 
936	 7.05828456761222E-02 
937	 7.06046294468785E-02 
938	 7.05456477219302E-02 
939	 7.04409504913085E-02 
940	 7.04760460250337E-02 
941	 7.05548768956906E-02 
942	 7.06428769155592E-02 
943	 7.07135293527968E-02 
944	 7.06739092193312E-02 
945	 7.06534928441698E-02 
946	 7.06454274135808E-02 
947	 0.070603344440385 
948	 7.06138805133952E-02 
949	 7.06847210125878E-02 
950	 0.070696158269729 
951	 7.05652148184696E-02 
952	 0.070694827265003 
953	 7.07440883416581E-02 
954	 7.06591626838173E-02 
955	 7.05822621470245E-02 
956	 7.05973695270896E-02 
957	 7.07219470526931E-02 
958	 7.07752506902398E-02 
959	 7.05920976318872E-02 
960	 7.07469136443964E-02 
961	 0.07081898042547 
962	 7.07646228554608E-02 
963	 7.07917300325593E-02 
964	 7.07536882156952E-02 
965	 7.08520684520875E-02 
966	 7.09501274164779E-02 
967	 7.07782315654078E-02 
968	 0.070761400775205 
969	 7.08379769804752E-02 
970	 7.08743394817823E-02 
971	 7.07671489998742E-02 
972	 7.07175573649944E-02 
973	 7.08083479517061E-02 
974	 7.08994755666036E-02 
975	 7.08004128270982E-02 
976	 7.09122738376353E-02 
977	 7.08849812986239E-02 
978	 7.07860086879423E-02 
979	 7.09018021927128E-02 
980	 7.09245522880691E-02 
981	 7.09689580991644E-02 
982	 7.09838998251609E-02 
983	 7.08811837407471E-02 
984	 7.10196324915995E-02 
985	 7.09925249229541E-02 
986	 7.08607957968443E-02 
987	 7.09062921362396E-02 
988	 7.09437743411942E-02 
989	 7.09251668256716E-02 
990	 7.09153298945511E-02 
991	 7.10206893167077E-02 
992	 7.12747142769279E-02 
993	 7.13264061266607E-02 
994	 7.12095105998955E-02 
995	 7.11413251102787E-02 
996	 7.12165218493329E-02 
997	 7.12507647042283E-02 
998	 7.11590293003882E-02 
999	 7.10051568521334E-02 
1000	 7.11582060501739E-02 
1001	 7.01802429527827E-02 
1002	 7.01865149307129E-02 
1003	 7.01901365695836E-02 
1004	 7.02131052956684E-02 
1005	 7.02760321744572E-02 
1006	 7.03079208312795E-02 
1007	 7.03438884958374E-02 
1008	 7.03626594072233E-02 
1009	 7.03621759377489E-02 
1010	 7.03364192949375E-02 
1011	 7.03600572937724E-02 
1012	 7.04240338610372E-02 
1013	 0.070447767823556 
1014	 7.04811239322851E-02 
1015	 7.04940733929726E-02 
1016	 7.04465759281053E-02 
1017	 7.04253281859158E-02 
1018	 7.03973938216737E-02 
1019	 7.03927229562323E-02 
1020	 7.03692648768957E-02 
1021	 7.03562008995115E-02 
1022	 7.03636390125756E-02 
1023	 7.03116384581798E-02 
1024	 7.02842618850635E-02 
1025	 0.070312772881166 
1026	 7.03317820698194E-02 
1027	 7.04216801109424E-02 
1028	 0.070484317673984 
1029	 7.04520906937947E-02 
1030	 0.070425309516118 
1031	 7.04102243308044E-02 
1032	 0.070356363195798 
1033	 7.03495298177018E-02 
1034	 7.03957547958134E-02 
1035	 7.03949252270025E-02 
1036	 7.03631499709131E-02 
1037	 7.03144066927239E-02 
1038	 7.02760364396689E-02 
1039	 7.03022952356786E-02 
1040	 0.070353555867207 
1041	 7.03573660394584E-02 
1042	 7.03237328585773E-02 
1043	 7.02706403186897E-02 
1044	 7.02517764472519E-02 
1045	 7.02163315365611E-02 
1046	 7.02372029281123E-02 
1047	 0.070258392011132 
1048	 7.02765381411523E-02 
1049	 7.03121829917081E-02 
1050	 7.03142911198976E-02 
1051	 7.03316922104957E-02 
1052	 7.03652531691159E-02 
1053	 7.03437190397342E-02 
1054	 7.03198814202693E-02 
1055	 7.03175405204785E-02 
1056	 7.03517562803633E-02 
1057	 7.03804011662523E-02 
1058	 0.070406694524088 
1059	 7.04411376446447E-02 
1060	 0.070510254200791 
1061	 7.05212581384791E-02 
1062	 7.05152610574273E-02 
1063	 7.05764865883213E-02 
1064	 7.05335332424347E-02 
1065	 7.04855221042694E-02 
1066	 7.05148987334479E-02 
1067	 7.05206466277326E-02 
1068	 7.05822106055083E-02 
1069	 7.06829368223899E-02 
1070	 7.07402165507901E-02 
1071	 7.07578107045657E-02 
1072	 7.07959466942786E-02 
1073	 0.070861954403882 
1074	 7.08830533246753E-02 
1075	 7.08820605107624E-02 
1076	 7.08752794138709E-02 
1077	 7.08729311418841E-02 
1078	 7.08371941998043E-02 
1079	 7.08681782525741E-02 
1080	 7.09012858023085E-02 
1081	 7.08685927663714E-02 
1082	 7.08714889866044E-02 
1083	 7.08764824671775E-02 
1084	 7.08689073189891E-02 
1085	 7.08677166444762E-02 
1086	 7.08817930382332E-02 
1087	 7.08966624784803E-02 
1088	 0.070905586509262 
1089	 7.09117685221616E-02 
1090	 7.09470674777696E-02 
1091	 7.09684300999706E-02 
1092	 7.09855153197138E-02 
1093	 7.10180189146996E-02 
1094	 7.10186428678766E-02 
1095	 7.10227204595537E-02 
1096	 7.10091448815143E-02 
1097	 7.09733000544332E-02 
1098	 7.09555459240847E-02 
1099	 7.09479684222425E-02 
1100	 7.09347084977076E-02 
1101	 7.09136235213254E-02 
1102	 7.09149032654078E-02 
1103	 7.09243830433426E-02 
1104	 0.070940277933966 
1105	 7.09658194453482E-02 
1106	 0.071001329316625 
1107	 7.09945189040471E-02 
1108	 7.09626760904671E-02 
1109	 0.070995709377749 
1110	 7.09960615069778E-02 
1111	 7.10041314294918E-02 
1112	 7.10637559504968E-02 
1113	 7.10673592639795E-02 
1114	 7.10058262183921E-02 
1115	 7.09951669479214E-02 
1116	 7.09867559660675E-02 
1117	 7.09881044321127E-02 
1118	 0.071011609053303 
1119	 7.10386496317261E-02 
1120	 7.10590304394273E-02 
1121	 7.10613190379434E-02 
1122	 7.10685022170396E-02 
1123	 7.11049909394618E-02 
1124	 7.11125327570331E-02 
1125	 7.11054899908349E-02 
1126	 7.11105931275285E-02 
1127	 7.11115712779332E-02 
1128	 7.11131540978595E-02 
1129	 7.11292910119177E-02 
1130	 7.11368222388647E-02 
1131	 0.071118594044252 
1132	 0.071122732642131 
1133	 7.11623018825857E-02 
1134	 7.11630866303722E-02 
1135	 7.11375815336792E-02 
1136	 7.11395915842664E-02 
1137	 7.11411607145726E-02 
1138	 7.11240442168413E-02 
1139	 7.11182399030809E-02 
1140	 7.11388362016951E-02 
1141	 7.11431480575137E-02 
1142	 7.11336022571028E-02 
1143	 7.11234656715236E-02 
1144	 7.11123917669638E-02 
1145	 7.11075693524811E-02 
1146	 7.10997373512689E-02 
1147	 7.10900866754281E-02 
1148	 7.10946931639884E-02 
1149	 7.10855710197313E-02 
1150	 7.10500752666245E-02 
1151	 7.10333529515143E-02 
1152	 7.10264167934458E-02 
1153	 0.071026670154032 
1154	 7.10350594206744E-02 
1155	 7.10652706292203E-02 
1156	 7.10711989003886E-02 
1157	 0.071074796282283 
1158	 7.10727770831809E-02 
1159	 7.10575677692027E-02 
1160	 7.10515545045483E-02 
1161	 0.071044341445389 
1162	 0.0710379131914 
1163	 7.10328477385394E-02 
1164	 7.10285439431579E-02 
1165	 7.10113235672338E-02 
1166	 7.10253598644013E-02 
1167	 7.10339180934419E-02 
1168	 7.10317264959004E-02 
1169	 7.10374653780449E-02 
1170	 7.10440179628651E-02 
1171	 7.10539373611653E-02 
1172	 7.10673660748822E-02 
1173	 7.10819062633379E-02 
1174	 7.11028438685109E-02 
1175	 7.11147260219421E-02 
1176	 7.11206189672504E-02 
1177	 7.11331692537086E-02 
1178	 7.11416566663634E-02 
1179	 7.11545903910911E-02 
1180	 7.11761542662394E-02 
1181	 7.11958661190698E-02 
1182	 7.12104471728518E-02 
1183	 7.12350663054358E-02 
1184	 7.12562650194933E-02 
1185	 7.12812666768615E-02 
1186	 7.12972892816253E-02 
1187	 0.071310411819285 
1188	 7.13237998432389E-02 
1189	 7.13284206635085E-02 
1190	 7.13441659892088E-02 
1191	 0.071366745261781 
1192	 7.13851657996336E-02 
1193	 7.14050403861062E-02 
1194	 7.14263074785305E-02 
1195	 7.14502095645527E-02 
1196	 0.071469125157079 
1197	 7.14863411397471E-02 
1198	 0.071505085482839 
1199	 0.071522681691695 
1200	 7.15349933028351E-02 
1201	 7.15510232998893E-02 
1202	 7.15686385000434E-02 
1203	 7.15903363578314E-02 
1204	 7.16176939499598E-02 
1205	 7.16341451163211E-02 
1206	 0.071639780903595 
1207	 7.16663551285946E-02 
1208	 0.071703895390489 
1209	 7.17267310175154E-02 
1210	 7.17501329326144E-02 
1211	 7.17844228999173E-02 
1212	 7.18158901179866E-02 
1213	 7.18412737167211E-02 
1214	 7.18902816157867E-02 
1215	 7.19197611904027E-02 
1216	 7.19359879267542E-02 
1217	 0.071922758831231 
1218	 7.19342834771552E-02 
1219	 7.19458067788345E-02 
1220	 7.19630666472636E-02 
1221	 7.19959668545153E-02 
1222	 7.20095278830231E-02 
1223	 7.20121739731725E-02 
1224	 7.20244082157089E-02 
1225	 7.20333097793961E-02 
1226	 7.20414314968787E-02 
1227	 7.20534164299877E-02 
1228	 7.20675229657647E-02 
1229	 7.20785382141676E-02 
1230	 7.20906262355108E-02 
1231	 7.21064414557012E-02 
1232	 7.21251564004121E-02 
1233	 7.21447421137858E-02 
1234	 7.21600807226565E-02 
1235	 7.21840469637978E-02 
1236	 7.22221298503944E-02 
1237	 7.22410168131291E-02 
1238	 7.22548292528233E-02 
1239	 7.22675392394571E-02 
1240	 7.22668043951678E-02 
1241	 7.22766716815465E-02 
1242	 7.22901826009845E-02 
1243	 7.23043414762333E-02 
1244	 7.23275098692787E-02 
1245	 0.072338976597956 
1246	 7.23397654954663E-02 
1247	 7.23516515593111E-02 
1248	 7.23616980873039E-02 
1249	 7.23753849557169E-02 
1250	 7.23985298111719E-02 
1251	 7.24062531172885E-02 
1252	 7.24204371071739E-02 
1253	 7.24259098949121E-02 
1254	 7.24422486537945E-02 
1255	 7.24734711094811E-02 
1256	 7.24859841161948E-02 
1257	 7.24927952555441E-02 
1258	 7.24972500949848E-02 
1259	 7.24899683454928E-02 
1260	 0.072487447076839 
1261	 0.072483878572083 
1262	 7.24840437982615E-02 
1263	 7.24845849528703E-02 
1264	 7.24852865582034E-02 
1265	 7.24935254083718E-02 
1266	 0.072495918176685 
1267	 0.072488207567196 
1268	 7.24923519686257E-02 
1269	 7.24905483084058E-02 
1270	 7.24830268939789E-02 
1271	 7.24846200962029E-02 
1272	 0.072485168660984 
1273	 7.24994710100008E-02 
1274	 7.25249422060135E-02 
1275	 7.25493294436892E-02 
1276	 7.25904024537075E-02 
1277	 7.26127288847626E-02 
1278	 7.26213030423115E-02 
1279	 0.07264196074646 
1280	 0.072651496366705 
1281	 7.26775858905408E-02 
1282	 7.27181358917132E-02 
1283	 0.072764888931554 
1284	 7.28327315969054E-02 
1285	 7.28847065038497E-02 
1286	 7.29318925011957E-02 
1287	 7.29633415571459E-02 
1288	 7.30122177672592E-02 
1289	 7.30521897234851E-02 
1290	 7.31078728551717E-02 
1291	 0.073190976479984 
1292	 7.32473073180991E-02 
1293	 7.32875943190934E-02 
1294	 7.33384592871936E-02 
1295	 7.33893087343145E-02 
1296	 7.34373437288784E-02 
1297	 7.34883606034799E-02 
1298	 7.35372047746943E-02 
1299	 7.35851317671779E-02 
1300	 7.36246232193561E-02 
1301	 7.36589813233848E-02 
1302	 0.073696458097481 
1303	 7.37342600545303E-02 
1304	 7.37600982163028E-02 
1305	 7.37871247019082E-02 
1306	 0.073804237470748 
1307	 7.38041814486253E-02 
1308	 7.38173005964487E-02 
1309	 7.38274765149649E-02 
1310	 7.38418302672555E-02 
1311	 7.38469979055228E-02 
1312	 7.38428590705684E-02 
1313	 7.38519421304732E-02 
1314	 7.38649993305708E-02 
1315	 7.38780099242753E-02 
1316	 0.073902211694933 
1317	 7.39133766606398E-02 
1318	 7.39256351750146E-02 
1319	 7.39227941860233E-02 
1320	 7.38985699810159E-02 
1321	 7.38885211202821E-02 
1322	 7.38772361062824E-02 
1323	 7.38608194857443E-02 
1324	 7.38482393210481E-02 
1325	 7.38594338272517E-02 
1326	 7.38620378052142E-02 
1327	 7.38454706881474E-02 
1328	 7.38425828094465E-02 
1329	 7.38354645689338E-02 
1330	 7.38197389484768E-02 
1331	 7.37980239557437E-02 
1332	 7.37770868918657E-02 
1333	 7.37378481714623E-02 
1334	 7.37269302886434E-02 
1335	 7.37274559078747E-02 
1336	 7.37302570141984E-02 
1337	 7.37628421417724E-02 
1338	 7.37665825227334E-02 
1339	 7.37583971009155E-02 
1340	 7.37454431684879E-02 
1341	 7.37123670356499E-02 
1342	 7.36926000282463E-02 
1343	 7.36685932230028E-02 
1344	 7.36595219538014E-02 
1345	 7.36657282097812E-02 
1346	 7.36568784001894E-02 
1347	 7.36534757867272E-02 
1348	 7.36563263504901E-02 
1349	 0.073655171021481 
1350	 7.36485846771297E-02 
1351	 7.36473291468908E-02 
1352	 7.36519779932055E-02 
1353	 7.36475941020763E-02 
1354	 7.36389301811756E-02 
1355	 7.36355403219756E-02 
1356	 0.073628023257766 
1357	 7.36247503992987E-02 
1358	 7.36281688882189E-02 
1359	 7.36280162318615E-02 
1360	 7.36299203348085E-02 
1361	 7.36220208463426E-02 
1362	 7.36124765216429E-02 
1363	 7.35998984252347E-02 
1364	 7.35701725885496E-02 
1365	 7.35568921971335E-02 
1366	 7.35555453040998E-02 
1367	 7.35467414702158E-02 
1368	 7.35424196212025E-02 
1369	 7.35306648347816E-02 
1370	 7.34916787659989E-02 
1371	 7.34491661283195E-02 
1372	 7.34115259997846E-02 
1373	 7.33628731002185E-02 
1374	 7.33181888316051E-02 
1375	 7.32837687699565E-02 
1376	 7.32313298728001E-02 
1377	 7.31683041137132E-02 
1378	 7.31046742983362E-02 
1379	 7.30328094063899E-02 
1380	 7.29590703328515E-02 
1381	 7.28866908147377E-02 
1382	 7.28031329570871E-02 
1383	 7.27165322540116E-02 
1384	 7.26177872634016E-02 
1385	 7.25043980087401E-02 
1386	 7.23921361763055E-02 
1387	 7.22767106423661E-02 
1388	 7.21547144990165E-02 
1389	 7.20346631614988E-02 
1390	 7.18988638561739E-02 
1391	 7.17510431895059E-02 
1392	 7.15922098733162E-02 
1393	 7.14266463736358E-02 
1394	 7.12635323915638E-02 
1395	 7.10965638726285E-02 
1396	 7.09197737965043E-02 
1397	 7.07398894343181E-02 
1398	 7.05518507204696E-02 
1399	 7.03638939855453E-02 
1400	 7.01767691812462E-02 
1401	 6.99832774962297E-02 
1402	 6.97799461737854E-02 
1403	 0.069579743072719 
1404	 6.93689773540457E-02 
1405	 6.91796471334584E-02 
1406	 6.89976738732506E-02 
1407	 6.88262320803612E-02 
1408	 6.86670870159223E-02 
1409	 6.85120276980894E-02 
1410	 6.83574047397151E-02 
1411	 6.82256736279028E-02 
1412	 6.81104315509951E-02 
1413	 0.068003413891092 
1414	 6.79168862596485E-02 
1415	 6.78180119252437E-02 
1416	 0.067721009517333 
1417	 6.76305346231284E-02 
1418	 6.75437042183129E-02 
1419	 6.74797395334278E-02 
1420	 0.067420153944757 
1421	 6.73710205932979E-02 
1422	 6.73318354763197E-02 
1423	 6.72802082211263E-02 
1424	 6.72361148871117E-02 
1425	 6.71918089826871E-02 
1426	 6.71619107315903E-02 
1427	 6.71392285668813E-02 
1428	 0.067122550377243 
1429	 6.71217273577334E-02 
1430	 6.71125712585504E-02 
1431	 6.70989091256642E-02 
1432	 0.067089795241515 
1433	 6.70830483931084E-02 
1434	 6.70810076493862E-02 
1435	 6.70781821441046E-02 
1436	 6.70867791271877E-02 
1437	 6.71041921875784E-02 
1438	 6.71197994731418E-02 
1439	 6.71390130911713E-02 
1440	 6.71688573146061E-02 
1441	 6.71901383577539E-02 
1442	 6.72144050760017E-02 
1443	 0.06724088073457 
1444	 6.72617937966059E-02 
1445	 6.72875155353734E-02 
1446	 6.73186997157445E-02 
1447	 6.73446387420165E-02 
1448	 6.73611116984379E-02 
1449	 6.73787856085478E-02 
1450	 6.73955052701449E-02 
1451	 6.74176048443821E-02 
1452	 6.74455363328912E-02 
1453	 6.74777163487428E-02 
1454	 6.75145841349309E-02 
1455	 6.75439740570413E-02 
1456	 6.75739673261299E-02 
1457	 6.76064829474187E-02 
1458	 0.067638159523744 
1459	 0.0676689464302 
1460	 6.77009515313016E-02 
1461	 6.77336076278138E-02 
1462	 6.77550702238583E-02 
1463	 0.067793275447449 
1464	 6.78507244506646E-02 
1465	 6.78964227845844E-02 
1466	 6.79347128369486E-02 
1467	 6.79875166890612E-02 
1468	 6.80452900749078E-02 
1469	 6.81022295079597E-02 
1470	 6.81703328285259E-02 
1471	 6.82419679535661E-02 
1472	 6.82934539444229E-02 
1473	 0.068345465257548 
1474	 6.84110433155955E-02 
1475	 6.84741955494902E-02 
1476	 0.068545043617502 
1477	 6.86219232786815E-02 
1478	 6.86891164488545E-02 
1479	 6.87547007744528E-02 
1480	 0.068827738775106 
1481	 6.88943941952099E-02 
1482	 6.89627886274916E-02 
1483	 0.069035016435697 
1484	 6.91069230341427E-02 
1485	 6.91745234446517E-02 
1486	 6.92452931737326E-02 
1487	 6.93233302131698E-02 
1488	 6.93896415953367E-02 
1489	 6.94467322969781E-02 
1490	 6.95150666231663E-02 
1491	 6.95801517451924E-02 
1492	 6.96544203802413E-02 
1493	 6.97520656259327E-02 
1494	 6.98218287087146E-02 
1495	 6.98703098523457E-02 
1496	 0.069937479589066 
1497	 6.99991622550606E-02 
1498	 7.00657550410255E-02 
1499	 0.070155854209457 
1500	 7.02273916155478E-02 
1501	 7.02866839962845E-02 
1502	 7.03471505555313E-02 
1503	 7.04008581683902E-02 
1504	 7.04583352871173E-02 
1505	 7.05141380914503E-02 
1506	 0.070572055813315 
1507	 7.06548229894406E-02 
1508	 7.07331277619908E-02 
1509	 7.07981129019356E-02 
1510	 7.08563570119801E-02 
1511	 7.08977381973686E-02 
1512	 7.09404964535927E-02 
1513	 7.09984611048036E-02 
1514	 7.10584146989073E-02 
1515	 7.11227222106088E-02 
1516	 0.071183814407208 
1517	 7.12373409731327E-02 
1518	 7.12901322442603E-02 
1519	 7.13403280986098E-02 
1520	 7.13785302558015E-02 
1521	 7.14245319450318E-02 
1522	 0.071471391648183 
1523	 7.15220671658399E-02 
1524	 7.15793676074627E-02 
1525	 7.16322819287024E-02 
1526	 7.16881215994183E-02 
1527	 7.17384424147038E-02 
1528	 7.17808593785692E-02 
1529	 7.18249302793718E-02 
1530	 7.18710525801644E-02 
1531	 7.19160188288411E-02 
1532	 7.19553152444052E-02 
1533	 7.20005124091921E-02 
1534	 7.20532410910565E-02 
1535	 7.20958787509279E-02 
1536	 0.072135393261659 
1537	 7.21763384288418E-02 
1538	 7.22009641499266E-02 
1539	 7.22458437424231E-02 
1540	 7.23174011342417E-02 
1541	 7.23672086251482E-02 
1542	 7.24141461145122E-02 
1543	 7.24584326421348E-02 
1544	 7.24911714909695E-02 
1545	 7.25190764316594E-02 
1546	 7.25408662995547E-02 
1547	 7.25742490774053E-02 
1548	 0.072593807160176 
1549	 7.26208665849588E-02 
1550	 7.26637695167582E-02 
1551	 7.26940241930702E-02 
1552	 7.27358342632544E-02 
1553	 7.27641378927544E-02 
1554	 7.27795579228841E-02 
1555	 0.072824779859321 
1556	 7.28660956616115E-02 
1557	 7.28924673290662E-02 
1558	 0.072919934851458 
1559	 7.29435709927263E-02 
1560	 7.29680385710913E-02 
1561	 0.072979005284867 
1562	 7.30093391268119E-02 
1563	 7.30573975467684E-02 
1564	 7.30876188576736E-02 
1565	 7.31134818557156E-02 
1566	 7.31437765028773E-02 
1567	 7.31697090359605E-02 
1568	 7.31947618591126E-02 
1569	 7.32290568285825E-02 
1570	 7.32499462305317E-02 
1571	 0.073251999146612 
1572	 7.32723798910415E-02 
1573	 7.33001933948036E-02 
1574	 7.33212337541171E-02 
1575	 7.33470430158387E-02 
1576	 7.33727152738673E-02 
1577	 7.33908780951843E-02 
1578	 7.34116048998947E-02 
1579	 7.34399772613057E-02 
1580	 7.34665236731161E-02 
1581	 7.34900674729337E-02 
1582	 7.35125162382054E-02 
1583	 7.35384211274795E-02 
1584	 7.35582740590184E-02 
1585	 0.073569227742977 
1586	 7.35861943037978E-02 
1587	 0.073604138374998 
1588	 7.36228485732021E-02 
1589	 7.36479751855312E-02 
1590	 7.36648967891252E-02 
1591	 7.36760832331963E-02 
1592	 7.36913628475413E-02 
1593	 7.37014903012702E-02 
1594	 7.37162847197726E-02 
1595	 7.37395590619509E-02 
1596	 7.37570578112312E-02 
1597	 7.37728946832161E-02 
1598	 7.37871199199981E-02 
1599	 7.37933434121857E-02 
1600	 7.38074179836418E-02 
1601	 7.38292735236401E-02 
1602	 7.38457964151012E-02 
1603	 7.38687184851875E-02 
1604	 7.38839483421322E-02 
1605	 7.38910478699895E-02 
1606	 7.38937559216541E-02 
1607	 7.38882580507608E-02 
1608	 7.38837468760847E-02 
1609	 7.38792894036604E-02 
1610	 7.38842848604148E-02 
1611	 7.39066365785791E-02 
1612	 7.39436649212723E-02 
1613	 7.39722947735129E-02 
1614	 7.39867235559996E-02 
1615	 7.39983409529454E-02 
1616	 7.40047171054421E-02 
1617	 7.40143674309898E-02 
1618	 7.40353689041406E-02 
1619	 7.40383085413173E-02 
1620	 7.40297424958545E-02 
1621	 7.40492287298282E-02 
1622	 7.40804374870619E-02 
1623	 0.074094392596173 
1624	 7.41260622885935E-02 
1625	 7.41283891843655E-02 
1626	 7.40951983719589E-02 
1627	 7.40973973253597E-02 
1628	 7.41089498704355E-02 
1629	 7.41163863106409E-02 
1630	 7.41294331850297E-02 
1631	 7.41498379244072E-02 
1632	 7.41739886127974E-02 
1633	 7.41909507347978E-02 
1634	 7.42206028588968E-02 
1635	 7.42291679133336E-02 
1636	 7.42169066666297E-02 
1637	 7.42169541531427E-02 
1638	 7.42175367247585E-02 
1639	 7.42154414539207E-02 
1640	 7.42137469159584E-02 
1641	 7.42100939965264E-02 
1642	 7.41984658262578E-02 
1643	 7.41996368674706E-02 
1644	 7.42084247421561E-02 
1645	 7.42127487908396E-02 
1646	 0.074223082592593 
1647	 7.42270123970321E-02 
1648	 7.42276447846127E-02 
1649	 7.42231507416557E-02 
1650	 0.074211144209702 
1651	 7.42097654201639E-02 
1652	 7.42087425822459E-02 
1653	 7.42071554147053E-02 
1654	 7.42135296583089E-02 
1655	 7.42150931600373E-02 
1656	 7.42084990507314E-02 
1657	 7.42099266183793E-02 
1658	 7.42147267670594E-02 
1659	 0.074224104719681 
1660	 7.42402758051497E-02 
1661	 7.42492584392155E-02 
1662	 0.07426163170695 
1663	 7.42684303836742E-02 
1664	 0.074272371531517 
1665	 7.42666495135462E-02 
1666	 7.42471777689922E-02 
1667	 7.42456227554956E-02 
1668	 7.42440370215089E-02 
1669	 7.42439106411521E-02 
1670	 7.42681041011555E-02 
1671	 7.42619959026224E-02 
1672	 7.42232531369829E-02 
1673	 7.42179234088128E-02 
1674	 7.42180695484034E-02 
1675	 7.42195464332006E-02 
1676	 7.42466814385473E-02 
1677	 7.42511307358886E-02 
1678	 0.074235763412593 
1679	 7.42334485048355E-02 
1680	 7.42400195058381E-02 
1681	 0.074230077954854 
1682	 7.42072541405455E-02 
1683	 7.42013811793115E-02 
1684	 7.41886732908794E-02 
1685	 7.41889931265136E-02 
1686	 7.42159388381741E-02 
1687	 7.42239971821167E-02 
1688	 7.42286700140342E-02 
1689	 7.42242423888661E-02 
1690	 7.42096927594105E-02 
1691	 7.41986156627672E-02 
1692	 7.41762431145008E-02 
1693	 7.41678195918269E-02 
1694	 7.41710114693898E-02 
1695	 7.41641913011595E-02 
1696	 7.41613918968435E-02 
1697	 7.41513744038471E-02 
1698	 7.41287491379691E-02 
1699	 7.41177234807971E-02 
1700	 7.41098264639334E-02 
1701	 7.41021666631532E-02 
1702	 7.40978522856206E-02 
1703	 7.40918845294079E-02 
1704	 7.40804959962125E-02 
1705	 0.074083718879956 
1706	 0.074100004117958 
1707	 0.074108594853432 
1708	 7.41303842561762E-02 
1709	 7.41270757196387E-02 
1710	 7.40984416109158E-02 
1711	 7.40880849897613E-02 
1712	 7.40765737324495E-02 
1713	 7.40664700985821E-02 
1714	 7.40662458123481E-02 
1715	 7.40624281844335E-02 
1716	 7.40610180621905E-02 
1717	 7.40396143155617E-02 
1718	 0.074005676290995 
1719	 7.39803386156153E-02 
1720	 7.39356235416518E-02 
1721	 7.39186931414172E-02 
1722	 7.39350824128139E-02 
1723	 7.39237900779332E-02 
1724	 7.38988058106524E-02 
1725	 7.38887848180873E-02 
1726	 7.38795489056285E-02 
1727	 0.073860763193281 
1728	 7.38484886117969E-02 
1729	 7.38391630887078E-02 
1730	 7.38225972440836E-02 
1731	 7.38018479216942E-02 
1732	 7.37856882452894E-02 
1733	 7.37691871576644E-02 
1734	 7.37431247069054E-02 
1735	 7.37139580645392E-02 
1736	 7.36941364086306E-02 
1737	 7.36733237587001E-02 
1738	 0.073634193589145 
1739	 0.073608027168763 
1740	 7.36024167528388E-02 
1741	 7.35734492043291E-02 
1742	 7.35258659869065E-02 
1743	 7.35061584986816E-02 
1744	 7.34935228887949E-02 
1745	 0.073476130200023 
1746	 7.34786781042424E-02 
1747	 7.34566125236622E-02 
1748	 7.34051351259781E-02 
1749	 7.33714829003538E-02 
1750	 7.33471465806335E-02 
1751	 7.33194862220272E-02 
1752	 7.32983571778647E-02 
1753	 7.32613622764574E-02 
1754	 7.32225770840516E-02 
1755	 0.073186771316331 
1756	 7.31553668595137E-02 
1757	 0.073153629881008 
1758	 7.31327442045631E-02 
1759	 7.31073293342103E-02 
1760	 7.30901401101517E-02 
1761	 0.073041183530204 
1762	 7.30050635632591E-02 
1763	 7.29946898442001E-02 
1764	 7.29780523175327E-02 
1765	 0.072957133559728 
1766	 7.29378995441675E-02 
1767	 7.29007202527003E-02 
1768	 7.28632380080072E-02 
1769	 7.28407032632065E-02 
1770	 7.28204195522682E-02 
1771	 7.28024666705237E-02 
1772	 7.27698673448245E-02 
1773	 7.27253402485812E-02 
1774	 7.26815240938695E-02 
1775	 7.26295099224542E-02 
1776	 7.25875046775403E-02 
1777	 7.25797773216454E-02 
1778	 7.25746104565648E-02 
1779	 7.25753482033593E-02 
1780	 7.25783389460265E-02 
1781	 7.25586696581897E-02 
1782	 7.25342751492936E-02 
1783	 0.072455446478356 
1784	 7.24275938625991E-02 
1785	 7.24241769217467E-02 
1786	 7.24126897021409E-02 
1787	 7.24410759921394E-02 
1788	 7.24488821098962E-02 
1789	 7.24306644690088E-02 
1790	 7.24150170503884E-02 
1791	 0.072393268244355 
1792	 7.23852297688146E-02 
1793	 7.23819550954191E-02 
1794	 7.23806625370724E-02 
1795	 7.24014966846998E-02 
1796	 7.23877351033129E-02 
1797	 7.23378834980008E-02 
1798	 7.23346910712644E-02 
1799	 7.23414736803952E-02 
1800	 7.23505714057654E-02 
1801	 6.91945352713665E-02 
1802	 6.91840327386006E-02 
1803	 6.91602816318415E-02 
1804	 6.91868563314752E-02 
1805	 6.92176065841656E-02 
1806	 6.92532029521497E-02 
1807	 6.92899185483799E-02 
1808	 6.93145428452438E-02 
1809	 0.069318925096321 
1810	 6.93609434860877E-02 
1811	 6.94195845208455E-02 
1812	 6.94642918344088E-02 
1813	 0.06952969533864 
1814	 6.95492434014299E-02 
1815	 6.95383714665662E-02 
1816	 6.95347771578468E-02 
1817	 6.95368709325734E-02 
1818	 6.95437881801157E-02 
1819	 6.95514399020222E-02 
1820	 6.95596309704702E-02 
1821	 6.95703306622141E-02 
1822	 6.95716265762522E-02 
1823	 6.95759964054824E-02 
1824	 6.95972232908703E-02 
1825	 6.96111904627854E-02 
1826	 0.069630601765499 
1827	 6.96281487398496E-02 
1828	 6.96190024339597E-02 
1829	 6.95820432604996E-02 
1830	 6.95663209306933E-02 
1831	 6.95500958582151E-02 
1832	 0.069546435588909 
1833	 6.95395320514653E-02 
1834	 6.95350310599182E-02 
1835	 6.95353824765951E-02 
1836	 6.95435899634991E-02 
1837	 6.95527437542096E-02 
1838	 0.069541568060627 
1839	 6.95301023315777E-02 
1840	 6.95102217584488E-02 
1841	 6.94826807753432E-02 
1842	 0.069451807863686 
1843	 6.94512677220631E-02 
1844	 6.94586758929768E-02 
1845	 0.069453901742776 
1846	 6.94441600485791E-02 
1847	 6.94074907380742E-02 
1848	 0.069357231572276 
1849	 6.93092851437729E-02 
1850	 6.92646765156997E-02 
1851	 6.92274077994916E-02 
1852	 6.91896461480399E-02 
1853	 6.91305451325602E-02 
1854	 6.90744516148503E-02 
1855	 6.90164224512984E-02 
1856	 6.89471454921063E-02 
1857	 6.88857253237326E-02 
1858	 6.88105306270457E-02 
1859	 6.87211250651538E-02 
1860	 6.86282940164911E-02 
1861	 6.85346589663511E-02 
1862	 6.84191329947118E-02 
1863	 6.83018318146462E-02 
1864	 6.81853120278879E-02 
1865	 6.80376495165716E-02 
1866	 6.79043512745109E-02 
1867	 6.77772382544037E-02 
1868	 0.067611794862953 
1869	 6.74277755163998E-02 
1870	 6.72386977068707E-02 
1871	 6.70245453186944E-02 
1872	 6.67871696868594E-02 
1873	 6.65153842498104E-02 
1874	 0.06624759953455 
1875	 6.59535710461147E-02 
1876	 6.56273557603886E-02 
1877	 6.53371590282826E-02 
1878	 6.50056958884545E-02 
1879	 6.46192217713013E-02 
1880	 0.064232825018566 
1881	 0.063814485235806 
1882	 6.33854182799559E-02 
1883	 6.29390661483955E-02 
1884	 6.25030080611904E-02 
1885	 0.062043189520526 
1886	 6.15422860701664E-02 
1887	 6.10109307761316E-02 
1888	 6.04785195905882E-02 
1889	 5.99315956792337E-02 
1890	 5.93707322753058E-02 
1891	 5.88103481504368E-02 
1892	 5.82415621841491E-02 
1893	 5.76742084787395E-02 
1894	 5.70912820360069E-02 
1895	 5.65298467270904E-02 
1896	 5.59785106771323E-02 
1897	 5.54560240971813E-02 
1898	 5.49379913279086E-02 
1899	 5.44167459557386E-02 
1900	 5.39222187837737E-02 
1901	 0.053447299633536 
1902	 5.30066545654416E-02 
1903	 5.26129215923365E-02 
1904	 5.22281578314589E-02 
1905	 5.18640244199998E-02 
1906	 5.15220310004907E-02 
1907	 5.12065925526876E-02 
1908	 5.09025723867693E-02 
1909	 5.06274195258643E-02 
1910	 5.03775306812385E-02 
1911	 5.01496550747648E-02 
1912	 4.99482279349493E-02 
1913	 4.97518049661699E-02 
1914	 4.95750054066756E-02 
1915	 4.94028893191648E-02 
1916	 4.92347877349758E-02 
1917	 4.90785571668365E-02 
1918	 4.89489101184382E-02 
1919	 0.048846747649199 
1920	 4.87675839401495E-02 
1921	 4.86960768250416E-02 
1922	 4.86250243558609E-02 
1923	 4.85724108588699E-02 
1924	 0.048525618347897 
1925	 4.84915203833639E-02 
1926	 4.84564217452616E-02 
1927	 4.84263298457087E-02 
1928	 4.84044080298492E-02 
1929	 4.83817038830891E-02 
1930	 4.83587937784747E-02 
1931	 4.83802532432441E-02 
1932	 4.84071166295897E-02 
1933	 4.84227302326818E-02 
1934	 4.84579555469699E-02 
1935	 4.84825189770417E-02 
1936	 4.84704753161649E-02 
1937	 4.85089925143631E-02 
1938	 0.048586771525936 
1939	 4.86430049228126E-02 
1940	 4.87056762446397E-02 
1941	 0.048785674109187 
1942	 4.88445929886584E-02 
1943	 4.88997767273102E-02 
1944	 4.89925541504864E-02 
1945	 4.90919510390028E-02 
1946	 4.91843156580502E-02 
1947	 4.92781827498982E-02 
1948	 0.049377962481997 
1949	 4.94881577549194E-02 
1950	 4.95839232328682E-02 
1951	 4.96768278462336E-02 
1952	 4.97679253696716E-02 
1953	 4.98574328201985E-02 
1954	 4.99393102650763E-02 
1955	 5.00370240310178E-02 
1956	 5.01496436028416E-02 
1957	 5.02542908194882E-02 
1958	 0.050349737442085 
1959	 5.04612352699052E-02 
1960	 5.05756688922048E-02 
1961	 5.07049297688992E-02 
1962	 5.08499904344939E-02 
1963	 5.09985335605082E-02 
1964	 5.11721174700922E-02 
1965	 5.13222426458403E-02 
1966	 5.14528349638792E-02 
1967	 5.15938179093024E-02 
1968	 5.17334804165925E-02 
1969	 0.051862981788728 
1970	 5.19946250318682E-02 
1971	 5.21282249685171E-02 
1972	 0.05227128343344 
1973	 5.24090436697772E-02 
1974	 5.25483849649447E-02 
1975	 5.27034795973333E-02 
1976	 5.28567384398597E-02 
1977	 5.29922191600364E-02 
1978	 5.31333209313712E-02 
1979	 5.32761197927318E-02 
1980	 5.34082084591182E-02 
1981	 0.053537587002736 
1982	 5.36514062549401E-02 
1983	 0.053787501293074 
1984	 5.39301411732733E-02 
1985	 5.40743415938473E-02 
1986	 5.42340404676736E-02 
1987	 5.43815062383342E-02 
1988	 5.45220469500656E-02 
1989	 5.46646059604883E-02 
1990	 5.48047360543404E-02 
1991	 5.49497639437172E-02 
1992	 5.50982989494991E-02 
1993	 5.52539987941878E-02 
1994	 5.54036997665788E-02 
1995	 5.55711355872768E-02 
1996	 5.57025322470014E-02 
1997	 5.58049789393139E-02 
1998	 5.59188765398091E-02 
1999	 5.59907321596721E-02 
2000	 5.61089245851848E-02 
2001	 0.056252178211796 
2002	 5.64161407319681E-02 
2003	 5.65864210326715E-02 
2004	 5.67699607244159E-02 
2005	 5.69154416959095E-02 
2006	 5.70435164513183E-02 
2007	 5.71669582928579E-02 
2008	 5.72547617312519E-02 
2009	 5.73691785555266E-02 
2010	 5.74900069465253E-02 
2011	 5.76134153649801E-02 
2012	 5.77563044635257E-02 
2013	 5.78828207458026E-02 
2014	 5.80105306274749E-02 
2015	 5.81202527947865E-02 
2016	 5.82158040198037E-02 
2017	 5.83283242192803E-02 
2018	 0.058441055569431 
2019	 5.85574722537492E-02 
2020	 5.86736813778198E-02 
2021	 5.87945425040612E-02 
2022	 5.89131733534225E-02 
2023	 5.90243322018387E-02 
2024	 5.91481917184512E-02 
2025	 5.92849711511885E-02 
2026	 0.059413749420997 
2027	 5.95476716247321E-02 
2028	 5.96853690587334E-02 
2029	 5.97969806312152E-02 
2030	 5.98828251691282E-02 
2031	 5.99993088733063E-02 
2032	 6.01168321449118E-02 
2033	 6.02279843186447E-02 
2034	 6.03593548666883E-02 
2035	 6.04731888460874E-02 
2036	 6.05589250016666E-02 
2037	 6.06622017798986E-02 
2038	 6.07803353678774E-02 
2039	 6.08861929518825E-02 
2040	 0.060976819041843 
2041	 6.10920043611421E-02 
2042	 6.12022336583306E-02 
2043	 6.12818246413927E-02 
2044	 0.061376973306334 
2045	 6.14678063411113E-02 
2046	 6.15708036199212E-02 
2047	 6.16873068661895E-02 
2048	 6.17893021585475E-02 
2049	 6.19041936430074E-02 
2050	 6.19922721137394E-02 
2051	 6.20407698435905E-02 
2052	 6.21177756639684E-02 
2053	 6.21986717776696E-02 
2054	 6.22782753300673E-02 
2055	 6.23636001742257E-02 
2056	 0.062464805890831 
2057	 6.25565369219164E-02 
2058	 6.26396188595754E-02 
2059	 6.27291853910516E-02 
2060	 6.28316919317062E-02 
2061	 6.29162309422703E-02 
2062	 6.29885961220036E-02 
2063	 6.30675755092173E-02 
2064	 6.31468660280763E-02 
2065	 6.32194542864249E-02 
2066	 6.32777951218046E-02 
2067	 6.33553251169513E-02 
2068	 6.34501751844519E-02 
2069	 6.35202736906312E-02 
2070	 6.36018261245973E-02 
2071	 6.37060928237239E-02 
2072	 0.063780134299383 
2073	 6.38267580905082E-02 
2074	 0.063899290584257 
2075	 6.39779156821354E-02 
2076	 6.40496580902434E-02 
2077	 6.41237770957309E-02 
2078	 6.42028527604054E-02 
2079	 0.064281268556794 
2080	 6.43567274420669E-02 
2081	 6.44424115635293E-02 
2082	 6.45203609766476E-02 
2083	 6.45890443539022E-02 
2084	 0.064653701299182 
2085	 6.47214520917574E-02 
2086	 6.47921052446213E-02 
2087	 0.064856818186001 
2088	 6.49135777317981E-02 
2089	 0.064979974559957 
2090	 6.50434187144124E-02 
2091	 6.51187717941731E-02 
2092	 6.52109990245689E-02 
2093	 6.52910688259152E-02 
2094	 6.53701441365554E-02 
2095	 6.54509917904007E-02 
2096	 6.55310905932315E-02 
2097	 6.56066030032793E-02 
2098	 6.56779200058906E-02 
2099	 0.065754816227498 
2100	 6.58348690560033E-02 
2101	 6.59184608457989E-02 
2102	 6.59819101057968E-02 
2103	 6.60403181038392E-02 
2104	 6.61049985588851E-02 
2105	 6.61433203667749E-02 
2106	 6.62146275596674E-02 
2107	 6.63262737109457E-02 
2108	 6.64055088199966E-02 
2109	 6.64877035952554E-02 
2110	 6.65513705967091E-02 
2111	 6.65795149489419E-02 
2112	 6.66289047441645E-02 
2113	 6.66629927791208E-02 
2114	 6.67297425847102E-02 
2115	 6.67966179060753E-02 
2116	 6.68802124295225E-02 
2117	 6.69580530606131E-02 
2118	 6.70438554392776E-02 
2119	 6.71196345376439E-02 
2120	 6.71967232790814E-02 
2121	 6.72665645076641E-02 
2122	 6.73340295417798E-02 
2123	 6.73926149897174E-02 
2124	 6.74446464360529E-02 
2125	 6.74905937118893E-02 
2126	 6.75207224817538E-02 
2127	 6.75579889074524E-02 
2128	 6.75936208617704E-02 
2129	 6.76321740033642E-02 
2130	 6.76782438497286E-02 
2131	 6.77181306985563E-02 
2132	 6.77534416407472E-02 
2133	 6.77889335351223E-02 
2134	 6.78103313364192E-02 
2135	 6.78164725024234E-02 
2136	 6.78346134552383E-02 
2137	 6.78495496085937E-02 
2138	 6.78660153358683E-02 
2139	 6.78964298886094E-02 
2140	 6.79085355828192E-02 
2141	 6.79026184219206E-02 
2142	 6.79073959108815E-02 
2143	 6.79241994289895E-02 
2144	 6.79154866403746E-02 
2145	 6.78837602532739E-02 
2146	 6.78720754378924E-02 
2147	 6.78557638673758E-02 
2148	 6.78357886127836E-02 
2149	 6.78198927703203E-02 
2150	 6.78295886946197E-02 
2151	 0.067811786590785 
2152	 6.77680203883908E-02 
2153	 6.77444023465608E-02 
2154	 6.77275448008242E-02 
2155	 6.77045040858943E-02 
2156	 6.76909199882214E-02 
2157	 6.76610373170862E-02 
2158	 6.76212627773943E-02 
2159	 6.75782269230386E-02 
2160	 6.75176676370368E-02 
2161	 6.74685866759158E-02 
2162	 6.74256258917692E-02 
2163	 6.73771580676295E-02 
2164	 6.73318001283905E-02 
2165	 0.067282170878424 
2166	 6.72333367684512E-02 
2167	 6.71748272900319E-02 
2168	 6.71311112288463E-02 
2169	 6.70968823608006E-02 
2170	 0.067056754573286 
2171	 0.0670253084674 
2172	 6.69799761865723E-02 
2173	 6.69250501254018E-02 
2174	 6.68743601001932E-02 
2175	 6.68132938688231E-02 
2176	 6.67631720722996E-02 
2177	 6.67209830601747E-02 
2178	 6.66765641138568E-02 
2179	 6.66287058859833E-02 
2180	 6.65930070093643E-02 
2181	 6.65683067297839E-02 
2182	 6.65381294909696E-02 
2183	 6.65220444548663E-02 
2184	 6.64922672894693E-02 
2185	 0.066459309020792 
2186	 6.64139014467308E-02 
2187	 6.63807068291547E-02 
2188	 6.63597338377587E-02 
2189	 6.63114871733003E-02 
2190	 6.62459819804438E-02 
2191	 6.61968017692239E-02 
2192	 6.61308176314703E-02 
2193	 6.60827047185686E-02 
2194	 6.60581988565197E-02 
2195	 6.60271496215352E-02 
2196	 6.59998238948004E-02 
2197	 6.59651895731076E-02 
2198	 6.59325956045392E-02 
2199	 6.58987402663286E-02 
2200	 6.58315934674621E-02 
2201	 6.58022872517993E-02 
2202	 6.57989595241632E-02 
2203	 6.58028818605559E-02 
2204	 6.58008118929097E-02 
2205	 6.58326071179982E-02 
2206	 6.58148214378281E-02 
2207	 6.57554706373393E-02 
2208	 6.57344267859683E-02 
2209	 6.57024022013811E-02 
2210	 6.56974737293742E-02 
2211	 0.065732774368251 
2212	 6.57373186596919E-02 
2213	 6.57366248306294E-02 
2214	 6.57386983374568E-02 
2215	 6.57239540378408E-02 
2216	 6.57289992138844E-02 
2217	 6.57441303826916E-02 
2218	 0.065766165880126 
2219	 6.58194536067599E-02 
2220	 6.58396951261726E-02 
2221	 6.58500310902377E-02 
2222	 6.58545623710664E-02 
2223	 6.58443122024483E-02 
2224	 6.58210023128395E-02 
2225	 6.58061318157626E-02 
2226	 6.57934238568053E-02 
2227	 0.065787481057075 
2228	 6.57722680206756E-02 
2229	 6.57836011805533E-02 
2230	 6.58291566087598E-02 
2231	 6.58370824100962E-02 
2232	 6.58223170029308E-02 
2233	 6.58491198740926E-02 
2234	 6.58832472563385E-02 
2235	 6.59136406065467E-02 
2236	 6.59934146401275E-02 
2237	 6.60225901828785E-02 
2238	 6.60124912727514E-02 
2239	 0.066004916397703 
2240	 6.59718119198636E-02 
2241	 6.59592284854749E-02 
2242	 6.59423208106041E-02 
2243	 6.59358619968251E-02 
2244	 6.59500031296422E-02 
2245	 6.59655712499666E-02 
2246	 6.59634986064792E-02 
2247	 6.59435530077415E-02 
2248	 6.59327314861435E-02 
2249	 6.59030048112265E-02 
2250	 6.59091407386547E-02 
2251	 6.59423320545237E-02 
2252	 6.59567771690715E-02 
2253	 6.59851444315671E-02 
2254	 6.59844693827634E-02 
2255	 6.59517365294814E-02 
2256	 0.065947503449891 
2257	 0.065937252211449 
2258	 6.59443943567942E-02 
2259	 6.59898984589163E-02 
2260	 6.60020430752696E-02 
2261	 6.59937895388172E-02 
2262	 6.60047365521347E-02 
2263	 0.066013831864739 
2264	 6.60181952587479E-02 
2265	 6.60327151532822E-02 
2266	 6.60489925716964E-02 
2267	 6.60703891302255E-02 
2268	 6.60710560266761E-02 
2269	 6.60614254594605E-02 
2270	 6.60510192827213E-02 
2271	 6.60647191157839E-02 
2272	 0.066054728275289 
2273	 6.60563635695265E-02 
2274	 6.60735182765798E-02 
2275	 6.60610404570284E-02 
2276	 6.60053294323104E-02 
2277	 6.59856855174441E-02 
2278	 6.59759216430767E-02 
2279	 6.59685683938582E-02 
2280	 6.59668499130612E-02 
2281	 0.065970408382843 
2282	 0.065986715888714 
2283	 6.59928194613086E-02 
2284	 6.60066369451423E-02 
2285	 0.066009188932128 
2286	 6.59893203538731E-02 
2287	 6.59865943884258E-02 
2288	 6.59894644859807E-02 
2289	 0.065983871551401 
2290	 6.59965257318176E-02 
2291	 6.59891401334067E-02 
2292	 6.59596471278615E-02 
2293	 6.59387850863172E-02 
2294	 0.065904300521405 
2295	 6.58787197932279E-02 
2296	 6.58484040219501E-02 
2297	 6.58414172823484E-02 
2298	 6.58519657407417E-02 
2299	 6.58729165946183E-02 
2300	 6.58908532097606E-02 
2301	 6.58998981734942E-02 
2302	 6.58675977732572E-02 
2303	 6.58308640623353E-02 
2304	 6.57945938567926E-02 
2305	 6.57374066729197E-02 
2306	 6.57183192231073E-02 
2307	 6.57317140112239E-02 
2308	 6.56984451263259E-02 
2309	 6.56681008956275E-02 
2310	 6.56263518100093E-02 
2311	 6.55216322357504E-02 
2312	 6.54904570792263E-02 
2313	 6.55172315961569E-02 
2314	 6.55138679514138E-02 
2315	 6.55257067909713E-02 
2316	 6.55274989127196E-02 
2317	 6.55059938634157E-02 
2318	 6.54879010321191E-02 
2319	 6.54747834581082E-02 
2320	 6.54550897014468E-02 
2321	 6.54444760107352E-02 
2322	 6.54212706957115E-02 
2323	 6.53821548735281E-02 
2324	 6.53620836466843E-02 
2325	 6.53186642974133E-02 
2326	 6.52976800702431E-02 
2327	 6.53092788374579E-02 
2328	 0.065312530095501 
2329	 6.52979880576989E-02 
2330	 0.065292166446312 
2331	 6.52380727049032E-02 
2332	 6.51977384572237E-02 
2333	 6.52166511282054E-02 
2334	 6.52245121667866E-02 
2335	 6.52366880514632E-02 
2336	 6.52128438282567E-02 
2337	 6.51002578411689E-02 
2338	 0.0650624319595 
2339	 6.50355314303205E-02 
2340	 6.49791708348977E-02 
2341	 0.064986751891188 
2342	 6.49059737238375E-02 
2343	 6.48068571616472E-02 
2344	 6.47825257326621E-02 
2345	 6.47352919298361E-02 
2346	 6.46954924472816E-02 
2347	 6.46520798890141E-02 
2348	 6.45862762605369E-02 
2349	 6.45602139786727E-02 
2350	 6.45817874711452E-02 
2351	 6.45492512130296E-02 
2352	 6.45176947328365E-02 
2353	 6.44957885827294E-02 
2354	 6.44248606640341E-02 
2355	 6.43783252319578E-02 
2356	 6.43876448150897E-02 
2357	 6.43277609148676E-02 
2358	 6.42205883116765E-02 
2359	 6.41502140395136E-02 
2360	 6.40447713271245E-02 
2361	 6.39888855169587E-02 
2362	 6.39953894492435E-02 
2363	 6.39528838973864E-02 
2364	 6.39112688493241E-02 
2365	 6.38700076610199E-02 
2366	 6.38002306046797E-02 
2367	 6.37364139663563E-02 
2368	 6.36731438893826E-02 
2369	 6.36276540607877E-02 
2370	 6.35958759259696E-02 
2371	 6.35593474624531E-02 
2372	 6.34838137173741E-02 
2373	 6.33806528467277E-02 
2374	 6.32488763355104E-02 
2375	 6.31206920610375E-02 
2376	 6.30436678985875E-02 
2377	 6.29781529984927E-02 
2378	 6.29297645105261E-02 
2379	 6.28877619051363E-02 
2380	 6.28672088297259E-02 
2381	 6.28224270231411E-02 
2382	 6.27331566221069E-02 
2383	 6.26663547795369E-02 
2384	 6.25526979400878E-02 
2385	 6.24567216395837E-02 
2386	 0.062413539849246 
2387	 6.23315386439954E-02 
2388	 6.22450929070477E-02 
2389	 6.21776637444145E-02 
2390	 0.062128395979128 
2391	 6.21353826701831E-02 
2392	 6.21099261605082E-02 
2393	 0.062052360020439 
2394	 6.19451353755936E-02 
2395	 6.17215053615397E-02 
2396	 0.061614813832684 
2397	 6.15684210339961E-02 
2398	 6.14974500480154E-02 
2399	 6.15114163807256E-02 
2400	 6.14594272833299E-02 
2401	 0.06141164545417 
2402	 6.13909226238867E-02 
2403	 6.13091204411921E-02 
2404	 6.12484767919653E-02 
2405	 6.10796795458793E-02 
2406	 6.08995178497357E-02 
2407	 6.08787791512508E-02 
2408	 0.06079464316706 
2409	 6.07152176424678E-02 
2410	 6.07284004872323E-02 
2411	 6.06146430997259E-02 
2412	 0.060513387600519 
2413	 6.04769743625756E-02 
2414	 6.03654703309017E-02 
2415	 6.02728995947768E-02 
2416	 6.01850327567466E-02 
2417	 6.00768460027059E-02 
2418	 6.00112980102645E-02 
2419	 0.060006287466076 
2420	 5.99337168771027E-02 
2421	 5.98582855105449E-02 
2422	 5.97577491562653E-02 
2423	 5.95942870187462E-02 
2424	 5.94614857963878E-02 
2425	 5.93013831489782E-02 
2426	 5.92179290995272E-02 
2427	 5.92108036302145E-02 
2428	 5.91384243448173E-02 
2429	 5.91057534373095E-02 
2430	 5.90185730454747E-02 
2431	 5.88108349657498E-02 
2432	 5.86960300781146E-02 
2433	 5.86038528093579E-02 
2434	 5.85416820874305E-02 
2435	 5.85959695263652E-02 
2436	 5.85673517868355E-02 
2437	 5.85217459353496E-02 
2438	 5.84199039985249E-02 
2439	 0.058217012051735 
2440	 5.80277393095244E-02 
2441	 5.77922812310903E-02 
2442	 5.76863536889964E-02 
2443	 5.76574418863492E-02 
2444	 0.057572842344713 
2445	 5.75057270399939E-02 
2446	 5.74583096841194E-02 
2447	 0.057421751683171 
2448	 5.73554890425004E-02 
2449	 5.73635355222769E-02 
2450	 5.72805419302138E-02 
2451	 5.71246888666494E-02 
2452	 5.69336287551329E-02 
2453	 5.65689228080846E-02 
2454	 5.64019671657564E-02 
2455	 5.62864868451558E-02 
2456	 5.61580597213924E-02 
2457	 5.62300029072092E-02 
2458	 5.61734956230076E-02 
2459	 5.60264034281492E-02 
2460	 0.055896632998074 
2461	 5.57066343357747E-02 
2462	 5.56666430145137E-02 
2463	 5.56516658443539E-02 
2464	 5.55967332279547E-02 
2465	 5.56796168802008E-02 
2466	 5.55985353977847E-02 
2467	 5.53870638124688E-02 
2468	 5.53157319658834E-02 
2469	 5.53435597049387E-02 
2470	 5.52690973899436E-02 
2471	 5.48998082854107E-02 
2472	 5.46216075551259E-02 
2473	 5.43534594378266E-02 
2474	 5.41636714760199E-02 
2475	 5.41863682702731E-02 
2476	 5.41084825252004E-02 
2477	 5.39461000541556E-02 
2478	 5.38298043005115E-02 
2479	 5.36975775206367E-02 
2480	 5.33349567628036E-02 
2481	 5.31954605925183E-02 
2482	 5.32475627094693E-02 
2483	 5.32418817464286E-02 
2484	 0.053672340295559 
2485	 5.38639687273065E-02 
2486	 5.36543724150097E-02 
2487	 5.36005259323932E-02 
2488	 5.34361931198266E-02 
2489	 5.31734875645246E-02 
2490	 5.30262855437732E-02 
2491	 5.30013955515805E-02 
2492	 5.28771841120117E-02 
2493	 0.052789851254537 
2494	 5.27532178671127E-02 
2495	 5.26124077343693E-02 
2496	 0.052568771964199 
2497	 5.25419041360047E-02 
2498	 5.25791081659859E-02 
2499	 5.26561424008005E-02 
2500	 5.26217979208406E-02 
