Wavelength	MM_3100003.asd
350	 4.50094472154354E-02 
351	 0.048379359938576 
352	 4.29339779698889E-02 
353	 3.66799874398877E-02 
354	 4.07416855141825E-02 
355	 4.41464928753222E-02 
356	 0.044351083459891 
357	 4.29389831932564E-02 
358	 4.85968663468759E-02 
359	 4.57472139203652E-02 
360	 0.041798784018602 
361	 5.50482848362844E-02 
362	 4.97006118662679E-02 
363	 4.36000226585715E-02 
364	 4.73546200671545E-02 
365	 5.03744234837576E-02 
366	 4.98114522378421E-02 
367	 4.89278306508016E-02 
368	 5.13658590084196E-02 
369	 5.49774439984457E-02 
370	 5.29002020129402E-02 
371	 4.89672387782559E-02 
372	 5.29721812340668E-02 
373	 5.44931972418707E-02 
374	 0.054601831017578 
375	 5.51603190025691E-02 
376	 5.68904009350589E-02 
377	 5.46733164061093E-02 
378	 5.38537691432076E-02 
379	 5.90701543329324E-02 
380	 5.89293072676729E-02 
381	 5.54857374028206E-02 
382	 5.37082978352684E-02 
383	 5.91460456264335E-02 
384	 6.10091479440385E-02 
385	 5.92504000810204E-02 
386	 5.67185793631017E-02 
387	 5.85027611812241E-02 
388	 6.02918392023076E-02 
389	 6.09889095753214E-02 
390	 6.06584471397568E-02 
391	 5.95509638781423E-02 
392	 5.96826089175702E-02 
393	 6.09778481811188E-02 
394	 6.16520131598369E-02 
395	 6.28322425727998E-02 
396	 6.31000919585067E-02 
397	 6.23019403777775E-02 
398	 6.38490118961972E-02 
399	 6.51020367129456E-02 
400	 6.61860468366659E-02 
401	 6.77162748316763E-02 
402	 6.71633590710131E-02 
403	 6.64520434144395E-02 
404	 6.63208520886499E-02 
405	 6.60669059116216E-02 
406	 6.70980782268656E-02 
407	 6.76746595516705E-02 
408	 6.67925023406065E-02 
409	 6.67889944001038E-02 
410	 6.67472968419087E-02 
411	 6.67289147073298E-02 
412	 6.72376508345922E-02 
413	 0.068829371504779 
414	 6.93252677952423E-02 
415	 6.86031539861682E-02 
416	 6.93707022258601E-02 
417	 6.93653111913181E-02 
418	 6.94241749425119E-02 
419	 7.03434611669709E-02 
420	 7.03166468258981E-02 
421	 6.96624844057453E-02 
422	 6.93833145728871E-02 
423	 7.05742616495374E-02 
424	 0.070703760526928 
425	 7.04859344103055E-02 
426	 0.070588807811997 
427	 7.08531679969897E-02 
428	 7.06292529868135E-02 
429	 7.02068033639297E-02 
430	 7.01522324514865E-02 
431	 7.07497479787927E-02 
432	 7.09032695903977E-02 
433	 7.07419391507563E-02 
434	 7.15299248107313E-02 
435	 7.15315877519234E-02 
436	 0.071201940931217 
437	 7.11567307192774E-02 
438	 7.12528080870077E-02 
439	 7.15863816532656E-02 
440	 7.18977498184171E-02 
441	 7.18551976668455E-02 
442	 7.20944591748586E-02 
443	 7.22124496354038E-02 
444	 7.20677150326174E-02 
445	 7.20345710046531E-02 
446	 7.24774175638879E-02 
447	 7.29251844408163E-02 
448	 7.29145266725597E-02 
449	 0.073151012928601 
450	 7.33701016435336E-02 
451	 7.36293520607805E-02 
452	 7.42197007488883E-02 
453	 7.41301439254807E-02 
454	 7.37340809232035E-02 
455	 7.36315976870906E-02 
456	 7.44450647764413E-02 
457	 7.48210780298093E-02 
458	 0.074756186766331 
459	 7.48525742409751E-02 
460	 7.50864664797305E-02 
461	 0.075123816456409 
462	 7.50044223184268E-02 
463	 7.53288678143986E-02 
464	 7.55336393830108E-02 
465	 7.56963947914608E-02 
466	 7.59682981333704E-02 
467	 7.60483298613981E-02 
468	 7.62374865729317E-02 
469	 7.64764018526634E-02 
470	 7.64406085349241E-02 
471	 7.65787411673391E-02 
472	 7.67559215216105E-02 
473	 7.68239421489726E-02 
474	 7.68116656760327E-02 
475	 7.69907945294064E-02 
476	 7.72310629548969E-02 
477	 7.72664930655116E-02 
478	 7.72775843194059E-02 
479	 7.75152706627139E-02 
480	 7.78971958532268E-02 
481	 7.78791102429718E-02 
482	 7.80828315347479E-02 
483	 7.82930397633892E-02 
484	 7.82520346901115E-02 
485	 7.85322143057816E-02 
486	 0.078587809124233 
487	 7.84017800348613E-02 
488	 0.07841158100565 
489	 7.86898204275336E-02 
490	 7.89125134462803E-02 
491	 7.89062153837942E-02 
492	 7.90533794133417E-02 
493	 7.90714350424045E-02 
494	 7.91275201611764E-02 
495	 7.94956604973007E-02 
496	 7.95831884161127E-02 
497	 7.95642017911887E-02 
498	 7.96183464108272E-02 
499	 7.98239599614461E-02 
500	 7.99601880519541E-02 
501	 7.99788803000529E-02 
502	 7.99353965970599E-02 
503	 0.080063478404938 
504	 8.02156915103545E-02 
505	 8.02874952479207E-02 
506	 0.080240197187691 
507	 0.080321218323458 
508	 8.04763112816856E-02 
509	 8.05852496056621E-02 
510	 8.05107822392021E-02 
511	 0.080476407271105 
512	 8.05188832395179E-02 
513	 8.05758281527634E-02 
514	 8.06796698779063E-02 
515	 8.08354349581052E-02 
516	 8.10193835416629E-02 
517	 8.11765750098765E-02 
518	 0.081171200920877 
519	 8.11367564094891E-02 
520	 8.12332862710325E-02 
521	 8.12243218043761E-02 
522	 0.081314525635096 
523	 8.14844624921079E-02 
524	 8.14649735226042E-02 
525	 8.14778563210291E-02 
526	 8.14689050527126E-02 
527	 8.14113090194318E-02 
528	 8.15748698957737E-02 
529	 8.16585988456522E-02 
530	 8.16435382296179E-02 
531	 8.16953896338677E-02 
532	 8.17886395807645E-02 
533	 8.18705269939977E-02 
534	 0.08190711613734 
535	 8.19072821232236E-02 
536	 8.19073521222849E-02 
537	 8.19620479499472E-02 
538	 8.20965590589228E-02 
539	 8.21132236631142E-02 
540	 8.21046952855221E-02 
541	 8.21418981212801E-02 
542	 8.22344569574259E-02 
543	 8.23682080418804E-02 
544	 8.24438222197568E-02 
545	 8.24158290758948E-02 
546	 8.25478390061218E-02 
547	 8.26130232832409E-02 
548	 8.25910330745624E-02 
549	 8.26400579842661E-02 
550	 8.26466505642579E-02 
551	 8.26748447941469E-02 
552	 8.27688938627099E-02 
553	 8.28479097965523E-02 
554	 8.28939829094741E-02 
555	 0.082943385521958 
556	 8.30563180265151E-02 
557	 8.32107206108871E-02 
558	 8.33332432480604E-02 
559	 8.34050587514555E-02 
560	 8.35121508667321E-02 
561	 8.35801401152154E-02 
562	 8.36406147372946E-02 
563	 8.37401399739383E-02 
564	 8.38095507884225E-02 
565	 8.38005039321829E-02 
566	 8.37679130600385E-02 
567	 8.38743682037919E-02 
568	 8.39734497030619E-02 
569	 8.41131027845295E-02 
570	 8.43309491078513E-02 
571	 8.44802150556482E-02 
572	 8.46224162179779E-02 
573	 8.47692699340051E-02 
574	 8.48934572794657E-02 
575	 8.49390030205226E-02 
576	 8.50232367148104E-02 
577	 8.51899849821455E-02 
578	 8.52672557352103E-02 
579	 8.53061033936093E-02 
580	 8.52891415735758E-02 
581	 8.51892212597501E-02 
582	 8.50629596617999E-02 
583	 8.50271563215114E-02 
584	 8.51232678632757E-02 
585	 8.52870734572898E-02 
586	 8.54473354156185E-02 
587	 8.56008138417059E-02 
588	 8.57586435072826E-02 
589	 8.58809673198542E-02 
590	 0.086001654291788 
591	 8.61459470429966E-02 
592	 8.63246540159903E-02 
593	 0.086445691030215 
594	 8.66019388092614E-02 
595	 8.68243623407626E-02 
596	 0.086883339055671 
597	 8.68746019295898E-02 
598	 8.68410423014677E-02 
599	 8.67987023075864E-02 
600	 0.086746522658068 
601	 8.67631724931907E-02 
602	 8.68512756579943E-02 
603	 8.68645892159129E-02 
604	 0.086881346433696 
605	 8.69309177671809E-02 
606	 0.08700832697996 
607	 8.70044640175606E-02 
608	 8.70173883080633E-02 
609	 8.71010526826852E-02 
610	 8.72428978022166E-02 
611	 0.087307359241099 
612	 8.73291205534486E-02 
613	 8.73587687008261E-02 
614	 8.73339085921332E-02 
615	 8.73344124249236E-02 
616	 8.73661303836233E-02 
617	 8.73851850746222E-02 
618	 8.74354020673087E-02 
619	 8.74604933942764E-02 
620	 8.74372503024527E-02 
621	 8.74406557829157E-02 
622	 8.74606496607226E-02 
623	 0.087480760384274 
624	 8.74845933076435E-02 
625	 8.74921841896981E-02 
626	 0.087531688656561 
627	 8.75868922624972E-02 
628	 8.75839389724897E-02 
629	 8.75604615043285E-02 
630	 8.75667901063997E-02 
631	 8.76304985364368E-02 
632	 8.76853268599665E-02 
633	 0.087690563682656 
634	 8.76626726168003E-02 
635	 8.76644466169406E-02 
636	 8.77119760273783E-02 
637	 8.77507605880894E-02 
638	 0.087752207646626 
639	 8.77860232850619E-02 
640	 8.77924206321044E-02 
641	 8.77961721757423E-02 
642	 8.78496507076288E-02 
643	 8.79011836054959E-02 
644	 8.79243222894327E-02 
645	 8.79176227380021E-02 
646	 8.79102619318637E-02 
647	 8.79229895738455E-02 
648	 8.79589613351173E-02 
649	 8.80054654446835E-02 
650	 8.80155592411067E-02 
651	 8.80450395809321E-02 
652	 8.80841307674402E-02 
653	 8.80721036678192E-02 
654	 8.81418891723844E-02 
655	 8.81973989467489E-02 
656	 8.81785336552137E-02 
657	 8.82208857281426E-02 
658	 8.82639100138767E-02 
659	 8.82801065409047E-02 
660	 8.82675191427737E-02 
661	 8.83043241202698E-02 
662	 8.83523473949231E-02 
663	 8.83922598258861E-02 
664	 8.84507059926671E-02 
665	 0.088463074298939 
666	 8.84552575676554E-02 
667	 8.84664706572389E-02 
668	 8.84687270782712E-02 
669	 8.84857326014327E-02 
670	 8.85138644056697E-02 
671	 8.85285258861251E-02 
672	 8.85628925437642E-02 
673	 8.86233171317724E-02 
674	 8.86908585797797E-02 
675	 8.86959910373091E-02 
676	 8.87069959516174E-02 
677	 8.87331731574348E-02 
678	 8.87596584170049E-02 
679	 8.87973084428006E-02 
680	 8.88191709055814E-02 
681	 8.88287667711352E-02 
682	 8.88724624322094E-02 
683	 8.89072855165664E-02 
684	 8.89335788837109E-02 
685	 8.89595516309387E-02 
686	 0.088975049749297 
687	 8.90211879672735E-02 
688	 8.90749167921573E-02 
689	 8.90713118540433E-02 
690	 8.90241705740037E-02 
691	 8.90222164222308E-02 
692	 8.90918112476606E-02 
693	 8.91183179851839E-02 
694	 8.91293786508873E-02 
695	 8.91310649302784E-02 
696	 0.089131337342655 
697	 8.91716636404025E-02 
698	 8.92014139268755E-02 
699	 8.92039381964653E-02 
700	 8.92050917649181E-02 
701	 8.92546502827117E-02 
702	 8.92766384933271E-02 
703	 8.92306932931811E-02 
704	 8.92533492246338E-02 
705	 8.92814057048148E-02 
706	 8.92818964571614E-02 
707	 8.92505978087744E-02 
708	 8.92858444812798E-02 
709	 8.93157446165823E-02 
710	 8.93082498595996E-02 
711	 8.93144670845068E-02 
712	 8.93448441174089E-02 
713	 8.93507216361445E-02 
714	 0.089301586540232 
715	 8.92996902549954E-02 
716	 8.93251218499009E-02 
717	 8.93330280657917E-02 
718	 8.92744441458625E-02 
719	 8.92585899294843E-02 
720	 8.92540993994918E-02 
721	 8.92394252257688E-02 
722	 8.92565337063537E-02 
723	 8.92478818843192E-02 
724	 8.92282114162535E-02 
725	 8.92230414570264E-02 
726	 0.089170800743614 
727	 8.91588999898653E-02 
728	 8.91828162443844E-02 
729	 8.91520646894604E-02 
730	 8.91339170924267E-02 
731	 8.91173608556515E-02 
732	 0.089091006495287 
733	 8.90778478306316E-02 
734	 0.089049983929421 
735	 8.90055949869926E-02 
736	 8.89542560526994E-02 
737	 8.88961511911979E-02 
738	 0.088863716438207 
739	 8.88554348915101E-02 
740	 8.88321146535114E-02 
741	 8.88285587141408E-02 
742	 8.88071203244226E-02 
743	 8.87436935518589E-02 
744	 8.86879436676977E-02 
745	 8.86361425417783E-02 
746	 8.86137858590558E-02 
747	 8.86399227480764E-02 
748	 8.86076752233464E-02 
749	 8.85414207745627E-02 
750	 8.84805126794078E-02 
751	 8.84646324999341E-02 
752	 8.84111098570166E-02 
753	 8.83514679881382E-02 
754	 8.83175205858708E-02 
755	 8.82575309753464E-02 
756	 8.82158501006245E-02 
757	 8.81844252217849E-02 
758	 8.81381883225937E-02 
759	 8.81497388389454E-02 
760	 8.81076546288492E-02 
761	 8.80042786297847E-02 
762	 8.79786984707668E-02 
763	 8.79425423751268E-02 
764	 8.78921028980824E-02 
765	 8.78447076028284E-02 
766	 0.087823679133054 
767	 0.087794486115582 
768	 8.77465893522521E-02 
769	 8.76855130289458E-02 
770	 8.76276588061499E-02 
771	 8.75821766295532E-02 
772	 8.75508864247533E-02 
773	 8.75279628149743E-02 
774	 8.75019436998487E-02 
775	 8.74602409070924E-02 
776	 0.087401887672123 
777	 8.73557488917408E-02 
778	 8.72971157015091E-02 
779	 0.087252940562525 
780	 8.72528923935778E-02 
781	 8.71878168474113E-02 
782	 8.71429788223898E-02 
783	 8.71260112112078E-02 
784	 8.70512910249354E-02 
785	 8.69721819580527E-02 
786	 8.69346143408452E-02 
787	 8.69362814384895E-02 
788	 8.68591976802979E-02 
789	 8.68381296384381E-02 
790	 8.68221516486931E-02 
791	 8.67273915274227E-02 
792	 8.66897691614668E-02 
793	 8.66376255938776E-02 
794	 8.65685589014435E-02 
795	 8.65410007820697E-02 
796	 8.64727254303968E-02 
797	 8.64098877148058E-02 
798	 8.63808813186723E-02 
799	 8.63449035142705E-02 
800	 8.63149639513602E-02 
801	 8.62763126323181E-02 
802	 8.62228910900326E-02 
803	 8.62132327554157E-02 
804	 8.61849239941631E-02 
805	 8.61262216046292E-02 
806	 8.60626707773297E-02 
807	 8.60204687470276E-02 
808	 8.59665932476905E-02 
809	 8.58971456437555E-02 
810	 8.58538411810524E-02 
811	 8.58373248258598E-02 
812	 8.58112410175123E-02 
813	 8.57544393302134E-02 
814	 8.57089045237061E-02 
815	 0.085673818528416 
816	 8.56293489026916E-02 
817	 0.085563417354094 
818	 8.55580170431579E-02 
819	 8.55221566706268E-02 
820	 8.54394847851542E-02 
821	 8.53673541429423E-02 
822	 8.53323541116122E-02 
823	 8.53068500444471E-02 
824	 8.52731724495376E-02 
825	 8.52463417945626E-02 
826	 8.52113458983868E-02 
827	 8.51725718904239E-02 
828	 8.51374697218396E-02 
829	 8.51060930833257E-02 
830	 8.50649629199852E-02 
831	 8.50194267048892E-02 
832	 8.49842946692731E-02 
833	 0.084970235903621 
834	 8.49343782447838E-02 
835	 8.48763552685089E-02 
836	 8.48392786183889E-02 
837	 8.48425178022536E-02 
838	 8.48336203624625E-02 
839	 8.47788914460654E-02 
840	 8.46966301632424E-02 
841	 0.084647799997377 
842	 8.46345054735889E-02 
843	 8.46324815809391E-02 
844	 8.45973485678857E-02 
845	 8.45910013226426E-02 
846	 8.45916064798686E-02 
847	 8.45503767170905E-02 
848	 8.45100691165119E-02 
849	 8.44633519764945E-02 
850	 8.44200166658452E-02 
851	 8.44003348546676E-02 
852	 8.43494129630207E-02 
853	 8.43383948792556E-02 
854	 8.43580923374631E-02 
855	 8.42643707504661E-02 
856	 8.42257966527205E-02 
857	 8.42514968047293E-02 
858	 0.084285357373453 
859	 8.42065591587402E-02 
860	 8.41380404768259E-02 
861	 8.41142009500875E-02 
862	 8.41233704394077E-02 
863	 8.41122690057225E-02 
864	 8.40994389439205E-02 
865	 8.40794868638183E-02 
866	 8.40370954965628E-02 
867	 8.39963336718932E-02 
868	 8.39924082559753E-02 
869	 8.40050525839859E-02 
870	 8.39670285454834E-02 
871	 8.39710040378817E-02 
872	 8.39735610683097E-02 
873	 8.39389015849243E-02 
874	 8.38805822559948E-02 
875	 8.38305187278043E-02 
876	 8.38037423353104E-02 
877	 8.37913122213945E-02 
878	 8.37342524236633E-02 
879	 8.37205212212566E-02 
880	 0.083748870970012 
881	 8.37793912939657E-02 
882	 8.37646573462641E-02 
883	 8.37579325516674E-02 
884	 8.37436438101681E-02 
885	 8.36854585872471E-02 
886	 8.36786191681859E-02 
887	 8.36568823833715E-02 
888	 8.36268680920676E-02 
889	 8.36547470816003E-02 
890	 8.36696619436622E-02 
891	 8.36069935933541E-02 
892	 8.35081560703223E-02 
893	 8.35294820281433E-02 
894	 8.35476488986971E-02 
895	 8.35154927019834E-02 
896	 8.34649470680777E-02 
897	 8.35384657423189E-02 
898	 8.35210442768013E-02 
899	 8.34773651721781E-02 
900	 8.34900853676421E-02 
901	 8.34846430776095E-02 
902	 8.34626084512252E-02 
903	 8.34567100896455E-02 
904	 8.34812227525004E-02 
905	 8.34316853173274E-02 
906	 0.083429336530981 
907	 8.34597746624907E-02 
908	 8.34555834767181E-02 
909	 8.34629925395823E-02 
910	 8.34177143761835E-02 
911	 8.33635609869895E-02 
912	 8.33894201346952E-02 
913	 8.33543698780572E-02 
914	 8.33384646002825E-02 
915	 8.33577820255283E-02 
916	 8.33574997031157E-02 
917	 8.33388679574895E-02 
918	 8.33385212703881E-02 
919	 8.33426054984051E-02 
920	 8.32853254839235E-02 
921	 0.083278549994048 
922	 8.32970011203412E-02 
923	 8.33296587961965E-02 
924	 8.34158290178857E-02 
925	 8.33914058865552E-02 
926	 0.083373215503311 
927	 8.34112406741711E-02 
928	 8.33233007918203E-02 
929	 8.33078055661959E-02 
930	 8.33075307062162E-02 
931	 8.32784633415408E-02 
932	 0.083363862917787 
933	 8.33651414427639E-02 
934	 8.32993408234462E-02 
935	 8.32486956428164E-02 
936	 8.32839584390075E-02 
937	 8.32424682616964E-02 
938	 8.31853539141089E-02 
939	 8.32085835345601E-02 
940	 8.32456775285293E-02 
941	 8.32820470909055E-02 
942	 8.33109711981532E-02 
943	 8.33169526959507E-02 
944	 8.32139399989725E-02 
945	 8.32618382538505E-02 
946	 8.33427236228827E-02 
947	 8.32511415264122E-02 
948	 8.32373551941012E-02 
949	 8.32630623317431E-02 
950	 8.32643051750043E-02 
951	 8.32093235387591E-02 
952	 8.32720673085394E-02 
953	 8.32685868488783E-02 
954	 8.32284730451408E-02 
955	 8.32730145097474E-02 
956	 8.32642414262309E-02 
957	 8.32614798801685E-02 
958	 8.32510471132364E-02 
959	 8.32014748647037E-02 
960	 8.32803020278594E-02 
961	 8.32855475030484E-02 
962	 8.32350873244869E-02 
963	 8.32691839174531E-02 
964	 8.32481098460749E-02 
965	 8.32280501507844E-02 
966	 8.32422117343068E-02 
967	 8.32839782137178E-02 
968	 8.32738394362419E-02 
969	 8.32830953737858E-02 
970	 8.32827500720214E-02 
971	 8.32087178476379E-02 
972	 8.32507340784784E-02 
973	 8.33024392237373E-02 
974	 8.33230603974873E-02 
975	 8.33303917790196E-02 
976	 8.33070170938143E-02 
977	 8.32923108619104E-02 
978	 8.32511828199106E-02 
979	 8.31561845193242E-02 
980	 8.33262329778251E-02 
981	 8.33215583673025E-02 
982	 8.31809126263647E-02 
983	 8.32125004659571E-02 
984	 0.083273792339424 
985	 8.32477667000455E-02 
986	 8.31404181002868E-02 
987	 8.30565228354276E-02 
988	 8.31807264716501E-02 
989	 8.31511006651672E-02 
990	 8.30748989309425E-02 
991	 8.32114307830686E-02 
992	 8.32698104583175E-02 
993	 8.31888111656263E-02 
994	 8.31517421161505E-02 
995	 8.32981785707004E-02 
996	 8.31426583161234E-02 
997	 8.30621596038363E-02 
998	 8.31260107238479E-02 
999	 8.32427180136111E-02 
1000	 8.32923099562974E-02 
1001	 0.081923297591767 
1002	 0.081943132351824 
1003	 8.18769975416231E-02 
1004	 8.18486280862603E-02 
1005	 8.18045346476381E-02 
1006	 8.18082748947517E-02 
1007	 8.18424721614531E-02 
1008	 8.18844344236634E-02 
1009	 8.19096480905205E-02 
1010	 8.19107730905783E-02 
1011	 8.18263009603107E-02 
1012	 8.17426435300424E-02 
1013	 8.17409350085657E-02 
1014	 8.17307201500678E-02 
1015	 8.17546372862169E-02 
1016	 8.18084057514612E-02 
1017	 8.18111184064002E-02 
1018	 8.17772176863551E-02 
1019	 8.17640636956011E-02 
1020	 8.17796233548846E-02 
1021	 8.17728036185987E-02 
1022	 8.18143411058942E-02 
1023	 8.18058948723215E-02 
1024	 8.17312972704151E-02 
1025	 8.17162791982294E-02 
1026	 8.17204265169853E-02 
1027	 8.16808614956638E-02 
1028	 8.16408888746541E-02 
1029	 8.15845875823648E-02 
1030	 8.15143936906126E-02 
1031	 8.14835831484245E-02 
1032	 8.14924883995842E-02 
1033	 0.081489096333553 
1034	 8.14563085495983E-02 
1035	 8.14382471085222E-02 
1036	 8.13761318612066E-02 
1037	 8.13128201648071E-02 
1038	 8.13113359083089E-02 
1039	 8.13115851794481E-02 
1040	 8.13147137723222E-02 
1041	 8.13180961277507E-02 
1042	 0.081298093884097 
1043	 8.12861512425893E-02 
1044	 8.12866576593548E-02 
1045	 8.12925431689798E-02 
1046	 8.13075927748576E-02 
1047	 0.08132352372252 
1048	 8.13339999285422E-02 
1049	 8.12977430089035E-02 
1050	 0.08128067631414 
1051	 8.13373813766954E-02 
1052	 8.13555631192261E-02 
1053	 8.13330719328129E-02 
1054	 8.13249382076946E-02 
1055	 8.12786077528362E-02 
1056	 8.12128837797657E-02 
1057	 8.12171185275024E-02 
1058	 0.081322908059701 
1059	 0.081358246517784 
1060	 8.13869340003167E-02 
1061	 8.14361170224782E-02 
1062	 8.14219882715743E-02 
1063	 0.081397833680471 
1064	 8.14207103625303E-02 
1065	 8.14295140735102E-02 
1066	 8.14672270615793E-02 
1067	 8.14952043398629E-02 
1068	 8.14977227923308E-02 
1069	 8.15100699414851E-02 
1070	 8.14915101605049E-02 
1071	 8.14097252428089E-02 
1072	 8.14130229293062E-02 
1073	 8.14607432194752E-02 
1074	 8.14770434438902E-02 
1075	 8.15294454040224E-02 
1076	 8.15517326303398E-02 
1077	 8.15481921770676E-02 
1078	 8.14949914128435E-02 
1079	 8.14839160526027E-02 
1080	 8.15583801623026E-02 
1081	 8.15820708442504E-02 
1082	 8.15659201078329E-02 
1083	 8.15542760120309E-02 
1084	 8.15036533070429E-02 
1085	 8.14789719174573E-02 
1086	 8.14672153479657E-02 
1087	 8.14598452200107E-02 
1088	 8.14599327916338E-02 
1089	 8.14598110442337E-02 
1090	 8.14443035998738E-02 
1091	 8.14660480638199E-02 
1092	 8.14841499966848E-02 
1093	 8.14465674804502E-02 
1094	 8.14289759739811E-02 
1095	 8.14189888334074E-02 
1096	 8.14034861940854E-02 
1097	 8.14298181256262E-02 
1098	 8.14464618911912E-02 
1099	 8.14888710331218E-02 
1100	 0.081482398887578 
1101	 8.14478403945292E-02 
1102	 0.081436086926382 
1103	 8.14207123309971E-02 
1104	 8.13875590535416E-02 
1105	 8.13637588250782E-02 
1106	 8.13554637309723E-02 
1107	 8.13404573205112E-02 
1108	 8.13540211337965E-02 
1109	 8.13814176645628E-02 
1110	 8.13897535978085E-02 
1111	 8.13919592815913E-02 
1112	 8.13726585640576E-02 
1113	 8.13560718387107E-02 
1114	 8.13274735832093E-02 
1115	 8.13337252443073E-02 
1116	 8.13409455506908E-02 
1117	 0.081362835792359 
1118	 8.14344417435851E-02 
1119	 8.14676747026028E-02 
1120	 8.14571649600281E-02 
1121	 0.081466650458764 
1122	 8.14688286085855E-02 
1123	 8.14466206235961E-02 
1124	 0.081462335159161 
1125	 8.15176605920762E-02 
1126	 8.15401866847113E-02 
1127	 0.0815590697593 
1128	 8.15776562232711E-02 
1129	 8.15869908038124E-02 
1130	 8.15879875278039E-02 
1131	 8.15836635746168E-02 
1132	 8.15897907580394E-02 
1133	 8.15897303713601E-02 
1134	 8.15930247964401E-02 
1135	 8.15997489781152E-02 
1136	 8.16217036647969E-02 
1137	 8.16463059593736E-02 
1138	 8.16483696202574E-02 
1139	 8.16348256635506E-02 
1140	 8.16030028509472E-02 
1141	 8.15896084001474E-02 
1142	 8.15504056279161E-02 
1143	 8.15490390894215E-02 
1144	 8.15966698119841E-02 
1145	 8.16040341894037E-02 
1146	 8.15946812441278E-02 
1147	 8.15998974189589E-02 
1148	 8.15975624017704E-02 
1149	 8.15979656632992E-02 
1150	 8.16083128623524E-02 
1151	 8.16267904464569E-02 
1152	 8.16254556158311E-02 
1153	 0.081620731220663 
1154	 8.16205874506914E-02 
1155	 8.16167975387189E-02 
1156	 8.16262571038672E-02 
1157	 0.081650551307718 
1158	 8.16529939317407E-02 
1159	 8.16485891359512E-02 
1160	 8.16509117193796E-02 
1161	 0.081645262355532 
1162	 8.16422374340073E-02 
1163	 8.16509555629565E-02 
1164	 8.16535428640787E-02 
1165	 8.16466757017573E-02 
1166	 8.16401995269885E-02 
1167	 8.16370043471018E-02 
1168	 8.16391749661938E-02 
1169	 8.16418749669179E-02 
1170	 8.16430912577735E-02 
1171	 8.16484745774384E-02 
1172	 8.16594919643397E-02 
1173	 8.16681963058774E-02 
1174	 8.16832675409622E-02 
1175	 8.16891446475941E-02 
1176	 8.16836497897312E-02 
1177	 8.16916582725794E-02 
1178	 8.17033322848033E-02 
1179	 8.17108125032997E-02 
1180	 8.17233788185781E-02 
1181	 8.17369454544638E-02 
1182	 0.081742076153216 
1183	 8.17559912322207E-02 
1184	 0.081771471198292 
1185	 8.17984301552096E-02 
1186	 8.18105443337451E-02 
1187	 0.081810068432224 
1188	 8.18294479755766E-02 
1189	 8.18519246399646E-02 
1190	 8.18765089133597E-02 
1191	 8.19196780010829E-02 
1192	 8.19489337055927E-02 
1193	 8.19761802529081E-02 
1194	 8.19929138518539E-02 
1195	 8.19959958512002E-02 
1196	 8.20072628945088E-02 
1197	 8.20048890499215E-02 
1198	 8.20169405643216E-02 
1199	 8.20375534413443E-02 
1200	 0.082070669646494 
1201	 8.21021081941948E-02 
1202	 8.21560031556823E-02 
1203	 8.21657381366922E-02 
1204	 8.21425181954827E-02 
1205	 8.21598009665799E-02 
1206	 8.21688164935889E-02 
1207	 8.21875976699245E-02 
1208	 8.22480337595149E-02 
1209	 8.22818166672047E-02 
1210	 8.22906454516118E-02 
1211	 8.23110861653673E-02 
1212	 0.082336283943465 
1213	 8.23616901561838E-02 
1214	 8.23969985563247E-02 
1215	 0.082417133287406 
1216	 8.24309878675749E-02 
1217	 8.24413515546277E-02 
1218	 8.24491296053603E-02 
1219	 8.24400669149515E-02 
1220	 8.24473044101223E-02 
1221	 8.24548518864182E-02 
1222	 0.082478595507134 
1223	 8.25257711926281E-02 
1224	 8.25472775755879E-02 
1225	 8.25683304501898E-02 
1226	 8.25877317277907E-02 
1227	 8.25781524355454E-02 
1228	 8.25938567896874E-02 
1229	 8.26392642645663E-02 
1230	 8.26652100335076E-02 
1231	 8.26889446101767E-02 
1232	 8.27114844588393E-02 
1233	 0.082729419053447 
1234	 8.27328159193242E-02 
1235	 0.082750653013127 
1236	 8.27744852452193E-02 
1237	 8.27972467566863E-02 
1238	 8.28260004077918E-02 
1239	 8.28466283443271E-02 
1240	 8.28720091938022E-02 
1241	 8.28810646681655E-02 
1242	 8.28626356400253E-02 
1243	 8.28733123658989E-02 
1244	 8.28935504325808E-02 
1245	 8.29091677083519E-02 
1246	 8.29520525506233E-02 
1247	 8.29708265247446E-02 
1248	 8.29743551507001E-02 
1249	 8.29588914481455E-02 
1250	 8.29619106648494E-02 
1251	 8.29781806144681E-02 
1252	 8.29971504353799E-02 
1253	 8.30357471442841E-02 
1254	 0.083057174593539 
1255	 8.30763248523522E-02 
1256	 0.083088801491765 
1257	 8.30961462297818E-02 
1258	 8.31027209017557E-02 
1259	 0.083101863723483 
1260	 8.31023962779091E-02 
1261	 8.30995383307734E-02 
1262	 8.30997223112955E-02 
1263	 8.30999203033044E-02 
1264	 8.31035065414929E-02 
1265	 8.31101544167768E-02 
1266	 8.31182675696901E-02 
1267	 0.083136170931676 
1268	 8.31380022569626E-02 
1269	 8.31449736937686E-02 
1270	 8.31526147905659E-02 
1271	 8.31591273127429E-02 
1272	 8.31618157301544E-02 
1273	 8.31702985203211E-02 
1274	 8.31702024313839E-02 
1275	 8.31988903371564E-02 
1276	 0.083253948753122 
1277	 8.32841074779666E-02 
1278	 8.33188392665156E-02 
1279	 8.33555701881384E-02 
1280	 8.33678216791556E-02 
1281	 8.34030504015534E-02 
1282	 8.34639537846818E-02 
1283	 8.35183084387113E-02 
1284	 8.35650668136921E-02 
1285	 8.36301393946612E-02 
1286	 8.37184348246084E-02 
1287	 8.37780352033215E-02 
1288	 8.38305862020625E-02 
1289	 8.38819166722897E-02 
1290	 0.083924308323814 
1291	 8.39385028954141E-02 
1292	 0.083980443392576 
1293	 0.084035834293214 
1294	 8.40859164465693E-02 
1295	 8.41474963610633E-02 
1296	 8.41941193940327E-02 
1297	 8.42327098315553E-02 
1298	 8.42704528934765E-02 
1299	 8.42994728728997E-02 
1300	 8.43294043082174E-02 
1301	 8.43645209251275E-02 
1302	 8.43889686799375E-02 
1303	 8.44013460973011E-02 
1304	 0.084422293157104 
1305	 8.44338999578355E-02 
1306	 8.44355485763751E-02 
1307	 8.44418937803223E-02 
1308	 8.44532072071518E-02 
1309	 8.44702682601723E-02 
1310	 8.44993806729327E-02 
1311	 8.45122404400005E-02 
1312	 8.45229595392239E-02 
1313	 8.45291060547669E-02 
1314	 8.45181369003592E-02 
1315	 8.45231189750234E-02 
1316	 8.45400822499476E-02 
1317	 8.45474349177294E-02 
1318	 8.45582997901809E-02 
1319	 8.45629885397841E-02 
1320	 8.45475714549627E-02 
1321	 0.084553900385712 
1322	 8.45763932667446E-02 
1323	 0.084587616078635 
1324	 8.45917507778767E-02 
1325	 8.46116295648311E-02 
1326	 8.46204679930244E-02 
1327	 0.084617185747567 
1328	 8.46395128543751E-02 
1329	 8.46488163720817E-02 
1330	 8.46611065724178E-02 
1331	 8.46740068599668E-02 
1332	 8.46864028103236E-02 
1333	 8.46999690557477E-02 
1334	 8.47109600474565E-02 
1335	 8.47143770233259E-02 
1336	 8.47258131234433E-02 
1337	 8.47417697384918E-02 
1338	 8.47533773737011E-02 
1339	 8.47621532755777E-02 
1340	 8.47815221936923E-02 
1341	 8.48105984105013E-02 
1342	 0.084827050196455 
1343	 8.48414980519396E-02 
1344	 8.48610985664332E-02 
1345	 8.48762418645944E-02 
1346	 8.48882058544061E-02 
1347	 8.49343198435225E-02 
1348	 8.49766384816838E-02 
1349	 8.49945877715286E-02 
1350	 8.50301089176633E-02 
1351	 8.50526482075476E-02 
1352	 8.50547379754065E-02 
1353	 8.50813816267646E-02 
1354	 8.51171322557035E-02 
1355	 8.51485278987639E-02 
1356	 8.51926849139814E-02 
1357	 8.52287833870364E-02 
1358	 8.52625982519287E-02 
1359	 8.52915802231394E-02 
1360	 8.53165231926073E-02 
1361	 8.53364092964088E-02 
1362	 8.53501104685388E-02 
1363	 8.53664823133012E-02 
1364	 8.53839950013004E-02 
1365	 8.53944559631179E-02 
1366	 0.085397623273852 
1367	 8.54030757209621E-02 
1368	 8.54174619630025E-02 
1369	 8.54312935837835E-02 
1370	 8.54498894006858E-02 
1371	 8.54723139133257E-02 
1372	 8.54702465204744E-02 
1373	 0.085467518942101 
1374	 0.085466247287307 
1375	 8.54550596914237E-02 
1376	 8.54563259547244E-02 
1377	 8.54694029462917E-02 
1378	 8.54733312569949E-02 
1379	 0.085482540258973 
1380	 8.54814995384866E-02 
1381	 8.54666698286385E-02 
1382	 8.54590028647401E-02 
1383	 8.54546702304967E-02 
1384	 8.54442306273696E-02 
1385	 8.54374457440933E-02 
1386	 8.54216994383009E-02 
1387	 8.53928395384889E-02 
1388	 8.53699482651859E-02 
1389	 8.53526846934685E-02 
1390	 8.53173895360044E-02 
1391	 8.52938738374474E-02 
1392	 8.52699923450854E-02 
1393	 8.52292689881436E-02 
1394	 8.52032747960993E-02 
1395	 8.51722969835966E-02 
1396	 8.51253282146783E-02 
1397	 8.50794652250468E-02 
1398	 8.50346575707085E-02 
1399	 8.49763404233292E-02 
1400	 8.49023961059904E-02 
1401	 8.48461207791969E-02 
1402	 8.47874795506861E-02 
1403	 0.084732900198704 
1404	 0.084690410773777 
1405	 0.084640938741599 
1406	 8.45883894710889E-02 
1407	 8.45377051611612E-02 
1408	 8.44900421516013E-02 
1409	 8.44395826493146E-02 
1410	 8.43829509459566E-02 
1411	 8.43294004764227E-02 
1412	 8.42685219162041E-02 
1413	 8.42255261092566E-02 
1414	 8.41871102702357E-02 
1415	 8.41726858243601E-02 
1416	 8.41824630931216E-02 
1417	 8.41753515247374E-02 
1418	 8.41646583506438E-02 
1419	 8.41645356335777E-02 
1420	 8.41652943374183E-02 
1421	 8.41644192142267E-02 
1422	 8.41650904705199E-02 
1423	 8.41701179542495E-02 
1424	 0.084178026549224 
1425	 8.41809575938984E-02 
1426	 8.41939811028682E-02 
1427	 8.42197888825607E-02 
1428	 8.42395865886346E-02 
1429	 8.42611363229474E-02 
1430	 8.42797979030888E-02 
1431	 8.43011368812891E-02 
1432	 0.084315291468994 
1433	 8.43167761415943E-02 
1434	 8.43290107780001E-02 
1435	 8.43366073090781E-02 
1436	 8.43570106670539E-02 
1437	 8.43965503935701E-02 
1438	 8.44297189107063E-02 
1439	 8.44723896632127E-02 
1440	 8.44962133401438E-02 
1441	 8.45306475969224E-02 
1442	 8.45670348697426E-02 
1443	 8.45885712693962E-02 
1444	 8.46259176961938E-02 
1445	 8.46576718429169E-02 
1446	 8.46631915352449E-02 
1447	 8.46872796575429E-02 
1448	 8.47228542449956E-02 
1449	 8.47424159341602E-02 
1450	 8.47750741678619E-02 
1451	 8.48101343297126E-02 
1452	 8.48476325749074E-02 
1453	 8.48751456872637E-02 
1454	 8.49091821931363E-02 
1455	 8.49313057237245E-02 
1456	 8.49325522713286E-02 
1457	 8.49558422921731E-02 
1458	 8.49894578151989E-02 
1459	 8.50197347701066E-02 
1460	 8.50550040705498E-02 
1461	 8.50856695677576E-02 
1462	 8.51136962307377E-02 
1463	 8.51426363575112E-02 
1464	 0.085175500198542 
1465	 8.52044183294955E-02 
1466	 8.52273018143323E-02 
1467	 8.52531857955992E-02 
1468	 8.52730065942695E-02 
1469	 0.085304814267436 
1470	 8.53489215427955E-02 
1471	 8.53871292924999E-02 
1472	 8.54283795612542E-02 
1473	 8.54598999247271E-02 
1474	 8.54795752783646E-02 
1475	 0.085512436802073 
1476	 8.55489473754154E-02 
1477	 0.085593051107752 
1478	 8.56433918222729E-02 
1479	 0.085689672851825 
1480	 8.57303482003296E-02 
1481	 8.57595445110913E-02 
1482	 8.57907070220349E-02 
1483	 8.58103572185757E-02 
1484	 8.58423096196076E-02 
1485	 8.58805813576995E-02 
1486	 8.59190811803075E-02 
1487	 8.59627090668573E-02 
1488	 0.086002782948211 
1489	 8.60436451204974E-02 
1490	 8.60809870096663E-02 
1491	 8.61149092314305E-02 
1492	 8.61476145559615E-02 
1493	 8.61788469275539E-02 
1494	 8.62099967241896E-02 
1495	 8.62377062684628E-02 
1496	 8.62704185329375E-02 
1497	 8.63095260511647E-02 
1498	 8.63421990446729E-02 
1499	 8.63705652204012E-02 
1500	 8.64024636820262E-02 
1501	 8.64287489797087E-02 
1502	 8.64604748855261E-02 
1503	 8.64995482652056E-02 
1504	 8.65402546194555E-02 
1505	 8.65682804748842E-02 
1506	 8.65953593619762E-02 
1507	 8.66240403484552E-02 
1508	 8.66477228818593E-02 
1509	 8.66796386556842E-02 
1510	 8.67115369022211E-02 
1511	 8.67276984281854E-02 
1512	 8.67561043549901E-02 
1513	 0.086768662968679 
1514	 0.086783237350913 
1515	 8.68321960416183E-02 
1516	 8.68621322503225E-02 
1517	 8.68891883221077E-02 
1518	 8.69229857416113E-02 
1519	 8.69556075054828E-02 
1520	 8.69794296217618E-02 
1521	 8.69988778467027E-02 
1522	 8.70218414627205E-02 
1523	 8.70474259252111E-02 
1524	 8.70528620559118E-02 
1525	 8.70826584364092E-02 
1526	 8.71448498942581E-02 
1527	 8.71807521291135E-02 
1528	 8.72126830236791E-02 
1529	 8.72355335243581E-02 
1530	 0.08724122988083 
1531	 8.72560368682574E-02 
1532	 0.087267405944609 
1533	 8.72826015423173E-02 
1534	 8.73008700101566E-02 
1535	 8.73217732710353E-02 
1536	 8.73451068871157E-02 
1537	 0.087370525486869 
1538	 8.74027567374739E-02 
1539	 8.74290441188195E-02 
1540	 8.74544764846416E-02 
1541	 0.087478784088794 
1542	 0.087493505363782 
1543	 8.75175995209526E-02 
1544	 8.75485528884203E-02 
1545	 8.75751726864879E-02 
1546	 8.76063641316709E-02 
1547	 8.76389628195972E-02 
1548	 8.76481366231607E-02 
1549	 8.76616612826517E-02 
1550	 8.76790836427008E-02 
1551	 8.76863996088273E-02 
1552	 8.76968251046897E-02 
1553	 8.77121496784986E-02 
1554	 8.77230074326451E-02 
1555	 8.77323877966767E-02 
1556	 8.77395709912002E-02 
1557	 8.77381737287163E-02 
1558	 8.77380923834301E-02 
1559	 8.77471878082132E-02 
1560	 8.77681141664119E-02 
1561	 8.78132112985497E-02 
1562	 8.78339178901914E-02 
1563	 0.087848343187937 
1564	 8.78696082144354E-02 
1565	 8.78873430411902E-02 
1566	 0.08789897400904 
1567	 8.79192850959868E-02 
1568	 8.79268365487925E-02 
1569	 8.79088774252464E-02 
1570	 8.79184165765925E-02 
1571	 8.79448869748315E-02 
1572	 8.79506248234282E-02 
1573	 8.79529232793001E-02 
1574	 8.79674755153955E-02 
1575	 8.79758570095452E-02 
1576	 8.79879653364987E-02 
1577	 8.80139986021275E-02 
1578	 8.80369061375766E-02 
1579	 8.80557136965627E-02 
1580	 8.80718417817682E-02 
1581	 0.088097913422312 
1582	 8.81093639368672E-02 
1583	 8.81011344640571E-02 
1584	 8.81058629386007E-02 
1585	 8.81148658991876E-02 
1586	 8.81201287467552E-02 
1587	 8.81177208616247E-02 
1588	 8.81332578316383E-02 
1589	 8.81605911236151E-02 
1590	 8.81801483746459E-02 
1591	 8.82199437316075E-02 
1592	 8.82361026088174E-02 
1593	 8.82220733306743E-02 
1594	 8.82277517070698E-02 
1595	 8.82356119846607E-02 
1596	 8.82430231034054E-02 
1597	 8.82621258070636E-02 
1598	 8.82732904751201E-02 
1599	 8.82761903323713E-02 
1600	 8.82828803618145E-02 
1601	 8.82904045009263E-02 
1602	 8.82960998611575E-02 
1603	 8.83043680272161E-02 
1604	 8.83081327084863E-02 
1605	 8.83050776699515E-02 
1606	 8.83065084903208E-02 
1607	 8.83118575613439E-02 
1608	 8.83042911240191E-02 
1609	 0.088316095745279 
1610	 0.0883423261859 
1611	 8.83609664221535E-02 
1612	 8.83821772168252E-02 
1613	 8.83984860822184E-02 
1614	 8.84005939292542E-02 
1615	 8.84133348253149E-02 
1616	 8.84344689417282E-02 
1617	 8.84340897891579E-02 
1618	 8.84252916151137E-02 
1619	 8.84315679573434E-02 
1620	 8.84370771724672E-02 
1621	 8.84503806889246E-02 
1622	 8.84869039357788E-02 
1623	 8.84984289858698E-02 
1624	 8.84983737750534E-02 
1625	 8.84996742354781E-02 
1626	 8.84938069063991E-02 
1627	 8.84940470900294E-02 
1628	 8.84936207723579E-02 
1629	 8.84946558551217E-02 
1630	 8.84968097164706E-02 
1631	 8.85036067144203E-02 
1632	 0.088507250834389 
1633	 8.85277432549661E-02 
1634	 8.85697175201256E-02 
1635	 8.85808411377229E-02 
1636	 8.85886697755434E-02 
1637	 8.85925114961334E-02 
1638	 8.85707087618589E-02 
1639	 8.85737761303233E-02 
1640	 8.85969846877587E-02 
1641	 8.85992161449004E-02 
1642	 8.85939662952722E-02 
1643	 8.85949201361093E-02 
1644	 8.85841883975796E-02 
1645	 8.85943164060204E-02 
1646	 0.088622741933761 
1647	 8.86389312327502E-02 
1648	 8.86613769219967E-02 
1649	 8.86734125558649E-02 
1650	 8.86737025732907E-02 
1651	 8.86835136658365E-02 
1652	 0.088698708373276 
1653	 8.87022326326559E-02 
1654	 8.87008604151936E-02 
1655	 8.87045611771388E-02 
1656	 8.86992760961097E-02 
1657	 8.87041077408578E-02 
1658	 0.088719183947211 
1659	 8.87323591964387E-02 
1660	 8.87474578234206E-02 
1661	 0.088760494286924 
1662	 0.088775273266758 
1663	 8.87899217556295E-02 
1664	 8.88053780300906E-02 
1665	 0.088814139396442 
1666	 8.88236633426612E-02 
1667	 8.88267187881718E-02 
1668	 0.088817195670658 
1669	 8.88165317388883E-02 
1670	 8.88180370119317E-02 
1671	 8.88186570475766E-02 
1672	 8.88235685565312E-02 
1673	 8.88221607505663E-02 
1674	 8.88084285732518E-02 
1675	 8.88152493060109E-02 
1676	 8.88356813813508E-02 
1677	 0.0888426027689 
1678	 8.88591640085742E-02 
1679	 8.88635635529131E-02 
1680	 8.88531292983564E-02 
1681	 8.88419280799082E-02 
1682	 8.88173035229381E-02 
1683	 8.88186616406842E-02 
1684	 8.88217123124718E-02 
1685	 8.88369815149425E-02 
1686	 8.88891363865837E-02 
1687	 8.89104479735224E-02 
1688	 8.89306540759715E-02 
1689	 8.89247122393144E-02 
1690	 8.88780677161846E-02 
1691	 8.88736272036645E-02 
1692	 8.88711509255394E-02 
1693	 8.88734689403307E-02 
1694	 0.088916134180495 
1695	 8.89204996750159E-02 
1696	 8.88921863111487E-02 
1697	 8.88857034631598E-02 
1698	 8.88740721605623E-02 
1699	 8.88764039379037E-02 
1700	 8.88976171799272E-02 
1701	 0.08890664406976 
1702	 8.89139928598487E-02 
1703	 8.89260547431264E-02 
1704	 8.89444817516158E-02 
1705	 0.08894460770854 
1706	 8.89464369813448E-02 
1707	 8.89300279214809E-02 
1708	 8.88709567646521E-02 
1709	 8.88614843646185E-02 
1710	 8.88696945491813E-02 
1711	 8.88798141113906E-02 
1712	 0.08892293193455 
1713	 8.89392241100147E-02 
1714	 8.89379711841514E-02 
1715	 0.088945620290722 
1716	 0.088961084551758 
1717	 8.89611348988099E-02 
1718	 8.89513294932386E-02 
1719	 8.89442502509256E-02 
1720	 8.89174620988874E-02 
1721	 8.89192612805591E-02 
1722	 8.89419081778075E-02 
1723	 8.89594908605433E-02 
1724	 8.89981419160667E-02 
1725	 8.90017393975067E-02 
1726	 8.89885749347036E-02 
1727	 8.89718945847279E-02 
1728	 8.89306386087618E-02 
1729	 8.89141167605044E-02 
1730	 8.88961443692161E-02 
1731	 8.88980426469829E-02 
1732	 8.89301286441316E-02 
1733	 8.89289449957786E-02 
1734	 8.89297677906783E-02 
1735	 8.89179792714865E-02 
1736	 8.88708651413542E-02 
1737	 8.88559422012299E-02 
1738	 8.88610602318547E-02 
1739	 8.88445386725697E-02 
1740	 8.88276616548318E-02 
1741	 8.88154865459178E-02 
1742	 8.87870923341626E-02 
1743	 8.87767686010096E-02 
1744	 8.87893686163876E-02 
1745	 8.87797243955917E-02 
1746	 8.87587698540491E-02 
1747	 0.088754408290487 
1748	 8.87430298588265E-02 
1749	 8.87321593327213E-02 
1750	 8.87314429657906E-02 
1751	 8.87254690073924E-02 
1752	 8.87206392312338E-02 
1753	 8.87261532060542E-02 
1754	 8.87353256825501E-02 
1755	 8.87173483417475E-02 
1756	 8.86937321274682E-02 
1757	 8.86662783250854E-02 
1758	 8.86354454416236E-02 
1759	 8.86441802195444E-02 
1760	 8.86445286350097E-02 
1761	 8.86295564429508E-02 
1762	 8.86263944180033E-02 
1763	 8.86204765415918E-02 
1764	 0.088613349469787 
1765	 8.85856057490256E-02 
1766	 8.85426563132829E-02 
1767	 8.85042863504803E-02 
1768	 8.84704157896788E-02 
1769	 8.84879084964331E-02 
1770	 8.85294093117161E-02 
1771	 8.85210596463692E-02 
1772	 8.84964944454817E-02 
1773	 8.84654854770805E-02 
1774	 8.84380194250054E-02 
1775	 8.84481249112648E-02 
1776	 8.84583497060571E-02 
1777	 8.84592007319389E-02 
1778	 8.84451029051823E-02 
1779	 8.84167733488875E-02 
1780	 8.84166781476387E-02 
1781	 8.84162195907792E-02 
1782	 0.088399435512976 
1783	 0.088365996517486 
1784	 8.83444767633766E-02 
1785	 8.83254526034434E-02 
1786	 8.83202606802791E-02 
1787	 8.83347497080058E-02 
1788	 8.83400057542604E-02 
1789	 8.83323757934752E-02 
1790	 8.83387944833876E-02 
1791	 8.83718866785416E-02 
1792	 8.83691126795218E-02 
1793	 8.83447375797828E-02 
1794	 8.83544880011979E-02 
1795	 8.83551877117439E-02 
1796	 8.83616843877517E-02 
1797	 8.83945887785484E-02 
1798	 8.84143853443451E-02 
1799	 8.84225759765848E-02 
1800	 8.84397175301242E-02 
1801	 8.44872868276526E-02 
1802	 8.45238907495783E-02 
1803	 8.45463461937186E-02 
1804	 8.45429954236508E-02 
1805	 8.45636554903993E-02 
1806	 8.45668551527354E-02 
1807	 8.45632809549621E-02 
1808	 8.45963858226147E-02 
1809	 8.46801997994982E-02 
1810	 8.47157907131328E-02 
1811	 8.47472300308619E-02 
1812	 8.47838692881872E-02 
1813	 8.47787477809401E-02 
1814	 8.47837697462992E-02 
1815	 8.48207665134129E-02 
1816	 0.084849136194796 
1817	 8.48872129431629E-02 
1818	 8.49517169554607E-02 
1819	 8.49832237243246E-02 
1820	 8.49978818071503E-02 
1821	 8.50239527512905E-02 
1822	 8.50398612103108E-02 
1823	 8.50635285713388E-02 
1824	 8.50867834338119E-02 
1825	 8.51138709839364E-02 
1826	 8.51333689048269E-02 
1827	 0.085129796879404 
1828	 8.51432226385327E-02 
1829	 8.51542557701005E-02 
1830	 8.51759410544894E-02 
1831	 8.52131917996083E-02 
1832	 8.52503696965955E-02 
1833	 8.52638785319524E-02 
1834	 8.52768931799325E-02 
1835	 0.085289598574442 
1836	 8.52866778603947E-02 
1837	 8.52898283162385E-02 
1838	 8.53100861810419E-02 
1839	 0.085323732125081 
1840	 8.53321373870185E-02 
1841	 8.53502285146515E-02 
1842	 8.53659788890248E-02 
1843	 8.53526442708955E-02 
1844	 8.53576032945023E-02 
1845	 8.53653852592577E-02 
1846	 8.53485137517754E-02 
1847	 8.53537181826481E-02 
1848	 8.53567355541181E-02 
1849	 8.53505907283094E-02 
1850	 8.53578784077599E-02 
1851	 8.53882362288542E-02 
1852	 8.54144991290876E-02 
1853	 8.54017419823808E-02 
1854	 0.085370554179858 
1855	 0.085344506717713 
1856	 8.53004422121388E-02 
1857	 8.52690199382793E-02 
1858	 8.52514378967259E-02 
1859	 8.52147824122571E-02 
1860	 8.51813174886991E-02 
1861	 8.51446407474134E-02 
1862	 0.085112837113954 
1863	 8.50833040170715E-02 
1864	 0.085052650625283 
1865	 8.50394386745045E-02 
1866	 0.085021646778396 
1867	 8.49814568973604E-02 
1868	 8.49605921880064E-02 
1869	 8.49236376032575E-02 
1870	 8.48666337607456E-02 
1871	 8.47989779520231E-02 
1872	 8.47352673385707E-02 
1873	 0.084632589631017 
1874	 8.45018429280244E-02 
1875	 8.43721805421564E-02 
1876	 8.42515404495682E-02 
1877	 8.41287427487004E-02 
1878	 8.40040924851995E-02 
1879	 8.38817785619972E-02 
1880	 8.37432811475536E-02 
1881	 8.35865116070127E-02 
1882	 8.34204593943864E-02 
1883	 8.32494831979614E-02 
1884	 8.30683408885358E-02 
1885	 8.28451843542476E-02 
1886	 8.26431045907341E-02 
1887	 8.24273528852557E-02 
1888	 8.21812760652886E-02 
1889	 0.081953761558346 
1890	 0.081703275383236 
1891	 8.14411836483763E-02 
1892	 8.11604390248525E-02 
1893	 8.08809814253034E-02 
1894	 8.05819724762656E-02 
1895	 8.02921597973502E-02 
1896	 8.00242409185425E-02 
1897	 7.97794740729002E-02 
1898	 7.95292291848268E-02 
1899	 7.92718181088369E-02 
1900	 7.90013061360874E-02 
1901	 7.87237197385316E-02 
1902	 7.84673954773899E-02 
1903	 7.82197716635094E-02 
1904	 7.79900851678357E-02 
1905	 0.077779799548108 
1906	 7.75772866952736E-02 
1907	 7.73695156176734E-02 
1908	 7.71857866252572E-02 
1909	 7.70144310050886E-02 
1910	 7.68520892772288E-02 
1911	 7.67129525756238E-02 
1912	 7.65734648682773E-02 
1913	 7.64385133783356E-02 
1914	 7.63076286514374E-02 
1915	 7.61775445536114E-02 
1916	 7.60410739714832E-02 
1917	 7.59280043497365E-02 
1918	 7.58394373073518E-02 
1919	 7.57418621525706E-02 
1920	 7.56612604603299E-02 
1921	 7.56095720172943E-02 
1922	 7.55484372384802E-02 
1923	 7.55087827846112E-02 
1924	 7.54750674173988E-02 
1925	 7.54636447119266E-02 
1926	 7.54411584295371E-02 
1927	 7.54194849030541E-02 
1928	 7.54028214833698E-02 
1929	 0.075380943571704 
1930	 7.53507525402746E-02 
1931	 7.53368254310475E-02 
1932	 7.53192347932456E-02 
1933	 7.53150959434163E-02 
1934	 7.53426011787828E-02 
1935	 7.53622868042731E-02 
1936	 7.53913369061277E-02 
1937	 7.54180007886534E-02 
1938	 7.54414424620899E-02 
1939	 7.54722578268608E-02 
1940	 7.55092686786333E-02 
1941	 7.55443321823457E-02 
1942	 7.55840434165401E-02 
1943	 7.56237196037943E-02 
1944	 7.56728760139735E-02 
1945	 7.57440348941177E-02 
1946	 7.58031207319159E-02 
1947	 7.58718463764504E-02 
1948	 7.59310974271216E-02 
1949	 0.07597811765941 
1950	 7.60294176566705E-02 
1951	 7.60711875184257E-02 
1952	 7.61374453384462E-02 
1953	 7.62081749107977E-02 
1954	 7.62724340033421E-02 
1955	 0.076356604833445 
1956	 7.64250535153101E-02 
1957	 7.64999117733188E-02 
1958	 7.65760796736891E-02 
1959	 7.66566264396528E-02 
1960	 7.67404153788581E-02 
1961	 7.68241875823431E-02 
1962	 7.69080868587999E-02 
1963	 7.69916917878368E-02 
1964	 7.70772230765912E-02 
1965	 7.71630082205601E-02 
1966	 7.72385176325671E-02 
1967	 7.73170874944662E-02 
1968	 7.74061302658826E-02 
1969	 7.74912118237254E-02 
1970	 7.75908121895927E-02 
1971	 7.77236721083478E-02 
1972	 7.78235753309297E-02 
1973	 7.79087398764271E-02 
1974	 7.80010765514206E-02 
1975	 7.80872207851827E-02 
1976	 7.81622318878745E-02 
1977	 7.82532180942782E-02 
1978	 7.83514892404044E-02 
1979	 7.84510405912332E-02 
1980	 7.85488663665298E-02 
1981	 7.86446410568392E-02 
1982	 7.87377757096304E-02 
1983	 7.88410003826993E-02 
1984	 0.078946779600664 
1985	 7.90488398567933E-02 
1986	 7.91744483820062E-02 
1987	 7.92711289310406E-02 
1988	 7.93408380666816E-02 
1989	 7.94178159453335E-02 
1990	 7.95020872108153E-02 
1991	 7.95778515217749E-02 
1992	 7.96706715067692E-02 
1993	 7.97902795559813E-02 
1994	 7.98838505312662E-02 
1995	 7.99710623916929E-02 
1996	 8.00559027524648E-02 
1997	 8.01172404966112E-02 
1998	 0.080206629929724 
1999	 8.03125113890322E-02 
2000	 8.04148642788131E-02 
2001	 0.080532686405491 
2002	 8.06392747071827E-02 
2003	 8.07604385046471E-02 
2004	 8.08670241371167E-02 
2005	 8.09660438148434E-02 
2006	 8.10656327991858E-02 
2007	 8.11602058474329E-02 
2008	 0.081235892892553 
2009	 8.13178744294408E-02 
2010	 8.14007468798802E-02 
2011	 8.14877009640833E-02 
2012	 8.15844709860669E-02 
2013	 8.16647196776208E-02 
2014	 8.17381199211409E-02 
2015	 0.081816051163946 
2016	 8.18814409759841E-02 
2017	 8.19237755295449E-02 
2018	 8.19893199304104E-02 
2019	 8.20566696016516E-02 
2020	 8.21383461202275E-02 
2021	 8.22468197739701E-02 
2022	 8.23332140923373E-02 
2023	 8.24194684112926E-02 
2024	 8.25053254760943E-02 
2025	 8.25683693204754E-02 
2026	 8.26459964230885E-02 
2027	 8.27331206777891E-02 
2028	 8.28335618970907E-02 
2029	 8.29187472561265E-02 
2030	 8.30042885661978E-02 
2031	 8.30842553614502E-02 
2032	 8.31483018115445E-02 
2033	 8.32338885021142E-02 
2034	 0.083342649092373 
2035	 0.083419456718973 
2036	 8.34771631846513E-02 
2037	 8.35561562599479E-02 
2038	 8.36287201213014E-02 
2039	 8.37013685822234E-02 
2040	 8.37921011949217E-02 
2041	 8.38913821552834E-02 
2042	 0.083945608046358 
2043	 8.39770349418387E-02 
2044	 8.40317998597523E-02 
2045	 0.084082110323748 
2046	 8.41387345531783E-02 
2047	 8.42064738690399E-02 
2048	 8.42737183033044E-02 
2049	 0.084336593385914 
2050	 8.44070213368302E-02 
2051	 8.44984683200849E-02 
2052	 8.45708357516131E-02 
2053	 8.46314214555603E-02 
2054	 8.46966185941531E-02 
2055	 8.47731255586013E-02 
2056	 8.48177739655912E-02 
2057	 8.48613976865929E-02 
2058	 8.48923735088721E-02 
2059	 8.49460204061747E-02 
2060	 8.49918553937806E-02 
2061	 0.085049009113416 
2062	 8.51454509093599E-02 
2063	 8.52042886109879E-02 
2064	 8.52342612947069E-02 
2065	 8.52814410337994E-02 
2066	 8.53224334540922E-02 
2067	 8.53668439205268E-02 
2068	 8.54148138684288E-02 
2069	 8.54721405073918E-02 
2070	 8.55271672761594E-02 
2071	 8.55790911022597E-02 
2072	 8.56413726216505E-02 
2073	 0.085718740989217 
2074	 8.57773939360914E-02 
2075	 8.58321637486839E-02 
2076	 8.58852287241512E-02 
2077	 8.59276726651961E-02 
2078	 8.59732066838746E-02 
2079	 0.086013443727192 
2080	 0.086066610019662 
2081	 8.61277104987183E-02 
2082	 0.086183769255593 
2083	 8.62519453563861E-02 
2084	 8.63116787925057E-02 
2085	 8.63652910143529E-02 
2086	 8.64076072163183E-02 
2087	 8.64552116588464E-02 
2088	 8.65048331180711E-02 
2089	 8.65472062869217E-02 
2090	 8.65838335350404E-02 
2091	 8.66226886841721E-02 
2092	 8.66460282783757E-02 
2093	 8.66914096744428E-02 
2094	 8.67593580156232E-02 
2095	 8.68104623796656E-02 
2096	 8.68619392983458E-02 
2097	 8.69170766750334E-02 
2098	 8.69626255656746E-02 
2099	 8.70152062318977E-02 
2100	 8.70583142421886E-02 
2101	 0.087097927837244 
2102	 8.71561923109356E-02 
2103	 8.72245181186784E-02 
2104	 8.72677084326445E-02 
2105	 8.73175694302093E-02 
2106	 8.73627075409721E-02 
2107	 8.73660285910085E-02 
2108	 8.74065651390478E-02 
2109	 8.74757362008345E-02 
2110	 8.75405450550931E-02 
2111	 8.76243489732414E-02 
2112	 8.76897929662433E-02 
2113	 8.77400953695809E-02 
2114	 0.087804214780502 
2115	 8.78744962162983E-02 
2116	 8.79393212063839E-02 
2117	 8.80115356460517E-02 
2118	 8.81102198195822E-02 
2119	 8.81766640326574E-02 
2120	 0.088226136214249 
2121	 8.82755331062957E-02 
2122	 8.83131460229037E-02 
2123	 8.83553790811014E-02 
2124	 8.83940806227591E-02 
2125	 0.088433575227134 
2126	 8.84764080816401E-02 
2127	 8.85129884989849E-02 
2128	 8.85450889213729E-02 
2129	 8.85766333293873E-02 
2130	 8.86030262487592E-02 
2131	 8.86367246866539E-02 
2132	 8.86524279626252E-02 
2133	 8.86540422932309E-02 
2134	 8.86757544409492E-02 
2135	 8.86978624433328E-02 
2136	 8.87126776523299E-02 
2137	 8.87436899528413E-02 
2138	 8.87565718362942E-02 
2139	 8.87504102971689E-02 
2140	 0.088748221182182 
2141	 8.87451479323328E-02 
2142	 8.87388370531364E-02 
2143	 8.87356230491595E-02 
2144	 8.87133163714624E-02 
2145	 8.86681232254604E-02 
2146	 8.86420557101861E-02 
2147	 8.86214446006252E-02 
2148	 8.85814151842675E-02 
2149	 8.85552895723098E-02 
2150	 8.85477330514464E-02 
2151	 8.85241252132287E-02 
2152	 8.85001398887059E-02 
2153	 8.84565751227516E-02 
2154	 8.83957900316526E-02 
2155	 8.83503979732346E-02 
2156	 8.82945846020008E-02 
2157	 8.82412020846031E-02 
2158	 8.82084715282079E-02 
2159	 8.81591502486199E-02 
2160	 8.80868123616606E-02 
2161	 8.80264478499953E-02 
2162	 8.79666079537108E-02 
2163	 8.79127415766704E-02 
2164	 8.78712864482372E-02 
2165	 8.78208194751683E-02 
2166	 8.77672523601462E-02 
2167	 8.77162300573062E-02 
2168	 8.76567077556856E-02 
2169	 8.75839356762877E-02 
2170	 8.75217353170935E-02 
2171	 8.74625274852698E-02 
2172	 8.74005173616614E-02 
2173	 8.73409108959377E-02 
2174	 8.72792602192746E-02 
2175	 8.72065930030149E-02 
2176	 8.71495942282663E-02 
2177	 8.70999629402538E-02 
2178	 8.70512424014642E-02 
2179	 8.70175257561962E-02 
2180	 8.69751538749738E-02 
2181	 8.69357255644266E-02 
2182	 8.68850385998479E-02 
2183	 8.68229794106754E-02 
2184	 0.086761773615958 
2185	 8.67001447388128E-02 
2186	 0.086634539079179 
2187	 8.65635888186291E-02 
2188	 8.64749892236822E-02 
2189	 0.086427254413193 
2190	 8.63993923674434E-02 
2191	 8.63554686504619E-02 
2192	 0.086334261974372 
2193	 8.63021049102886E-02 
2194	 8.62327660394649E-02 
2195	 8.62007564559782E-02 
2196	 8.62040029984597E-02 
2197	 8.61938303499009E-02 
2198	 8.61957660014447E-02 
2199	 8.61845786155328E-02 
2200	 8.61664199987257E-02 
2201	 8.61451778839671E-02 
2202	 8.61119895110257E-02 
2203	 8.60814119354102E-02 
2204	 8.60621653268615E-02 
2205	 8.60379176312403E-02 
2206	 8.60376603105874E-02 
2207	 8.60583985458851E-02 
2208	 8.60745516862152E-02 
2209	 8.61201029336016E-02 
2210	 8.61215258328606E-02 
2211	 8.61014819157292E-02 
2212	 8.60853849233202E-02 
2213	 8.60241721697328E-02 
2214	 8.60151630048254E-02 
2215	 8.60516249410267E-02 
2216	 8.60589051436631E-02 
2217	 8.60849085123428E-02 
2218	 8.60870742566948E-02 
2219	 8.60286598643158E-02 
2220	 8.60252357539453E-02 
2221	 8.60444949786938E-02 
2222	 8.60799217528951E-02 
2223	 8.61158637198753E-02 
2224	 8.61322260210273E-02 
2225	 8.61365051429719E-02 
2226	 8.60975514328127E-02 
2227	 8.60978070887541E-02 
2228	 8.61161351446084E-02 
2229	 8.61261727050902E-02 
2230	 8.61348004592556E-02 
2231	 8.61575765943671E-02 
2232	 8.61929635032928E-02 
2233	 8.62116818124839E-02 
2234	 8.62275651910723E-02 
2235	 8.62540313069825E-02 
2236	 8.62757380364608E-02 
2237	 8.62962599336767E-02 
2238	 8.63643581748686E-02 
2239	 8.63663934434154E-02 
2240	 8.62848879451457E-02 
2241	 8.62681101805732E-02 
2242	 8.62416951505946E-02 
2243	 8.62335161587394E-02 
2244	 8.62603430143025E-02 
2245	 8.63283051328437E-02 
2246	 8.63572607743098E-02 
2247	 8.63758562624802E-02 
2248	 8.64031682433491E-02 
2249	 8.64385425155062E-02 
2250	 8.64608600142899E-02 
2251	 8.64747693924438E-02 
2252	 8.64936734248262E-02 
2253	 8.65155838812786E-02 
2254	 8.65252046888075E-02 
2255	 0.086526671388845 
2256	 0.086539756498397 
2257	 8.65461381431637E-02 
2258	 8.65546875898732E-02 
2259	 8.65657699581389E-02 
2260	 8.65890824490379E-02 
2261	 8.66227825210458E-02 
2262	 8.66439113251764E-02 
2263	 0.086676613805624 
2264	 8.67037102126244E-02 
2265	 8.67100371953791E-02 
2266	 8.67256785083719E-02 
2267	 8.67415437713233E-02 
2268	 8.67712028423332E-02 
2269	 8.68038743419948E-02 
2270	 8.68505204775423E-02 
2271	 8.69195454815902E-02 
2272	 8.69364703889386E-02 
2273	 8.69512202454338E-02 
2274	 8.69929902939776E-02 
2275	 8.70159088192937E-02 
2276	 8.70469144013906E-02 
2277	 8.70541964910937E-02 
2278	 8.70290658491214E-02 
2279	 8.70327709742068E-02 
2280	 8.70297738087127E-02 
2281	 8.70494589607409E-02 
2282	 8.70946330626298E-02 
2283	 8.71346912180148E-02 
2284	 0.087187855088557 
2285	 8.72244827905238E-02 
2286	 8.72725731809832E-02 
2287	 8.72912718424501E-02 
2288	 8.72664409516339E-02 
2289	 8.72857961659071E-02 
2290	 8.73185953834927E-02 
2291	 8.73392787319474E-02 
2292	 8.73713299909487E-02 
2293	 8.74034103741522E-02 
2294	 0.087409095002276 
2295	 8.74410144065012E-02 
2296	 8.75073876823093E-02 
2297	 8.75714823497422E-02 
2298	 8.76142918557872E-02 
2299	 8.76680182350989E-02 
2300	 8.76812632715151E-02 
2301	 8.77064211610168E-02 
2302	 8.77295499470596E-02 
2303	 8.76892392653602E-02 
2304	 8.76426388460664E-02 
2305	 8.76045933883122E-02 
2306	 8.76018659315169E-02 
2307	 8.76097879130883E-02 
2308	 8.76366321829166E-02 
2309	 8.77413997559195E-02 
2310	 8.77413499488406E-02 
2311	 8.76756395779874E-02 
2312	 8.76549971698831E-02 
2313	 8.75998752220255E-02 
2314	 8.75808379308661E-02 
2315	 8.76103208437729E-02 
2316	 0.087620589280609 
2317	 8.76252066467997E-02 
2318	 8.76235480686287E-02 
2319	 8.76164242209116E-02 
2320	 8.76307181072949E-02 
2321	 8.76378872596179E-02 
2322	 8.76590588771013E-02 
2323	 8.77060386017032E-02 
2324	 8.77608510749534E-02 
2325	 8.78391512258941E-02 
2326	 8.78950240675166E-02 
2327	 0.087967361421616 
2328	 8.80036364277091E-02 
2329	 8.79971970742018E-02 
2330	 8.79679865298664E-02 
2331	 8.79345262025146E-02 
2332	 8.78795016650308E-02 
2333	 8.78469376246336E-02 
2334	 8.78871390245132E-02 
2335	 8.79519403650275E-02 
2336	 8.80223316521736E-02 
2337	 8.81002684143249E-02 
2338	 8.81158306092404E-02 
2339	 8.80854447826995E-02 
2340	 8.80406273483818E-02 
2341	 8.80193628635587E-02 
2342	 8.80583437472008E-02 
2343	 8.80713896230766E-02 
2344	 8.81186710315725E-02 
2345	 0.088145425837012 
2346	 8.81438713850748E-02 
2347	 8.81443528687624E-02 
2348	 8.81547087242782E-02 
2349	 8.81418184714681E-02 
2350	 8.81091026068931E-02 
2351	 8.80787100249215E-02 
2352	 8.80481746072382E-02 
2353	 8.80115836949515E-02 
2354	 8.79294032676531E-02 
2355	 8.79369440663031E-02 
2356	 0.087999163436501 
2357	 0.088027059697341 
2358	 8.81169637438902E-02 
2359	 8.81343141275213E-02 
2360	 0.088085725895035 
2361	 8.80611323002228E-02 
2362	 8.80176120535077E-02 
2363	 8.79959340225659E-02 
2364	 8.79774759856054E-02 
2365	 8.79617903089154E-02 
2366	 8.79815768245793E-02 
2367	 8.79661012799194E-02 
2368	 8.79115470692868E-02 
2369	 8.78882324385107E-02 
2370	 0.087858321440871 
2371	 8.78369826086665E-02 
2372	 8.78717595201261E-02 
2373	 8.79218378801442E-02 
2374	 8.79346923816133E-02 
2375	 8.78858399877351E-02 
2376	 8.77905422435383E-02 
2377	 8.77010007234439E-02 
2378	 8.76753009934973E-02 
2379	 8.76893112949884E-02 
2380	 8.77327614324342E-02 
2381	 8.77803015539281E-02 
2382	 8.77215646648458E-02 
2383	 8.76370397830202E-02 
2384	 0.087603268095433 
2385	 8.75423961146401E-02 
2386	 8.74833371073621E-02 
2387	 8.75362491769959E-02 
2388	 8.75955568597584E-02 
2389	 8.76215924342213E-02 
2390	 8.76692273244777E-02 
2391	 8.76851031232033E-02 
2392	 8.76580174249012E-02 
2393	 8.75829572026205E-02 
2394	 8.75870534593263E-02 
2395	 8.76003753572038E-02 
2396	 8.74900949496146E-02 
2397	 8.74353598056989E-02 
2398	 8.73530188136246E-02 
2399	 8.71424680151228E-02 
2400	 8.71169717341098E-02 
2401	 8.72039999212512E-02 
2402	 8.71889765630864E-02 
2403	 8.72600468841172E-02 
2404	 8.72804394742288E-02 
2405	 0.087125711425431 
2406	 8.69727920779479E-02 
2407	 8.68711983330259E-02 
2408	 8.68198844256782E-02 
2409	 8.67616735354226E-02 
2410	 8.67517726082183E-02 
2411	 8.68413573311808E-02 
2412	 8.68452490250777E-02 
2413	 8.68145624165602E-02 
2414	 8.68998309347833E-02 
2415	 8.68678481975749E-02 
2416	 0.086776851338812 
2417	 8.66148465655266E-02 
2418	 8.65633559789528E-02 
2419	 0.086460174896063 
2420	 0.086423061117449 
2421	 0.086500091159683 
2422	 8.64832722152796E-02 
2423	 0.086400811378209 
2424	 8.64303238864453E-02 
2425	 8.65672267143023E-02 
2426	 8.66128836178265E-02 
2427	 8.66837698253604E-02 
2428	 8.66041573412333E-02 
2429	 8.63044922392601E-02 
2430	 8.62341881875717E-02 
2431	 8.62794476147421E-02 
2432	 8.62159748469851E-02 
2433	 8.61988163802739E-02 
2434	 8.61619027216291E-02 
2435	 8.59511986203573E-02 
2436	 8.58868372219181E-02 
2437	 8.60313603392405E-02 
2438	 8.59406510939509E-02 
2439	 8.57442045653729E-02 
2440	 8.56743521154954E-02 
2441	 8.55390138926875E-02 
2442	 8.54909338015828E-02 
2443	 8.55247297593806E-02 
2444	 8.55399199166657E-02 
2445	 8.56318045848346E-02 
2446	 8.55884279629869E-02 
2447	 0.085502797733227 
2448	 8.54919634676299E-02 
2449	 8.53844798194319E-02 
2450	 8.52913444067855E-02 
2451	 8.53604439465275E-02 
2452	 8.52983239234703E-02 
2453	 8.51162722308518E-02 
2454	 8.49339341148689E-02 
2455	 8.46876151510318E-02 
2456	 8.44799108938966E-02 
2457	 8.41305204369956E-02 
2458	 8.40205632306311E-02 
2459	 8.41647697558279E-02 
2460	 8.41268100501625E-02 
2461	 8.40985564644655E-02 
2462	 8.41374521342329E-02 
2463	 0.084154079658371 
2464	 8.41870467199988E-02 
2465	 8.43551343331538E-02 
2466	 8.42803355667747E-02 
2467	 8.39200104271336E-02 
2468	 8.37972223246388E-02 
2469	 8.37813073378727E-02 
2470	 0.083783065043055 
2471	 8.38494537972711E-02 
2472	 8.38053799294891E-02 
2473	 8.35905496601064E-02 
2474	 8.36498323604349E-02 
2475	 8.36326788770239E-02 
2476	 8.35822096734015E-02 
2477	 8.36650605158278E-02 
2478	 8.34971536130577E-02 
2479	 8.34137974536407E-02 
2480	 8.34675898334405E-02 
2481	 8.33175186938489E-02 
2482	 8.33306217201442E-02 
2483	 0.083495437377716 
2484	 8.34823397926392E-02 
2485	 8.34497643475391E-02 
2486	 8.35058137935906E-02 
2487	 8.35260088909989E-02 
2488	 8.34998570949742E-02 
2489	 8.35950356639604E-02 
2490	 8.36405738450924E-02 
2491	 8.34840874675878E-02 
2492	 8.34094103419656E-02 
2493	 0.083510103063161 
2494	 8.35418515260323E-02 
2495	 8.36094548813725E-02 
2496	 8.36918234866079E-02 
2497	 8.34463837136928E-02 
2498	 8.32242165216276E-02 
2499	 8.31109379105249E-02 
2500	 8.31221710685458E-02 
