Wavelength	MM_3200007.asd
350	 3.49324950035902E-02 
351	 0.038495145237055 
352	 3.52725627666541E-02 
353	 2.76234231315786E-02 
354	 2.93119797835204E-02 
355	 3.04848122589472E-02 
356	 0.029455025389605 
357	 2.88296755409013E-02 
358	 4.07650906157779E-02 
359	 3.81544546886453E-02 
360	 2.67955650572844E-02 
361	 3.14761108167254E-02 
362	 3.30756780948887E-02 
363	 0.033897045441721 
364	 3.49361714485318E-02 
365	 3.08059959105567E-02 
366	 2.83706844294944E-02 
367	 2.96970531032622E-02 
368	 3.35291802407203E-02 
369	 3.26273668880371E-02 
370	 3.07546055528507E-02 
371	 3.05102696800965E-02 
372	 3.29476414973868E-02 
373	 3.43692613956229E-02 
374	 3.55548857675446E-02 
375	 3.69964922604574E-02 
376	 3.77848332268478E-02 
377	 3.41719861550282E-02 
378	 3.23868277723553E-02 
379	 3.75740344216805E-02 
380	 3.80598057689087E-02 
381	 3.51849836935996E-02 
382	 3.38127517304975E-02 
383	 3.97903220441783E-02 
384	 4.12634224392535E-02 
385	 3.96307161483919E-02 
386	 3.78585836368944E-02 
387	 3.76973341468991E-02 
388	 4.05141356775345E-02 
389	 4.31109855263475E-02 
390	 0.042163814617993 
391	 0.041356865638322 
392	 4.14598974212045E-02 
393	 4.27067638388347E-02 
394	 4.48281189898331E-02 
395	 4.52825985183131E-02 
396	 4.50523855874622E-02 
397	 4.54159083818126E-02 
398	 4.71970216532035E-02 
399	 4.72857521799794E-02 
400	 4.65352872159883E-02 
401	 4.71570510027298E-02 
402	 5.00793628322682E-02 
403	 5.07098592912889E-02 
404	 4.85985311324081E-02 
405	 4.76558286282149E-02 
406	 4.92106544784843E-02 
407	 5.08115174446102E-02 
408	 5.06625096054078E-02 
409	 5.06020664274414E-02 
410	 5.09360300782674E-02 
411	 5.09641356061942E-02 
412	 4.99294035556961E-02 
413	 5.03795106527928E-02 
414	 5.13946273872966E-02 
415	 5.21910159081332E-02 
416	 0.052586374397698 
417	 5.28458833794339E-02 
418	 5.32183091910624E-02 
419	 5.37179909345503E-02 
420	 5.36101488401751E-02 
421	 5.35019463354012E-02 
422	 5.37996127701919E-02 
423	 5.46168749482338E-02 
424	 5.45989171403415E-02 
425	 5.45832292348273E-02 
426	 5.50742812003291E-02 
427	 5.55146605336013E-02 
428	 5.55809739614679E-02 
429	 5.54878169790124E-02 
430	 5.55883342039119E-02 
431	 5.58818498531977E-02 
432	 5.59805732716496E-02 
433	 5.59430925994394E-02 
434	 5.62479354212902E-02 
435	 5.67934958122657E-02 
436	 5.73247892196474E-02 
437	 5.75723256972856E-02 
438	 5.71904870612042E-02 
439	 5.73139830779825E-02 
440	 5.78846451054796E-02 
441	 5.82612616710582E-02 
442	 5.85140238391627E-02 
443	 5.87622764717456E-02 
444	 5.89439511999646E-02 
445	 5.86771847705976E-02 
446	 5.89952378531899E-02 
447	 5.93685420462078E-02 
448	 5.91370065889686E-02 
449	 5.90657204564902E-02 
450	 5.95902366249976E-02 
451	 6.03280258746359E-02 
452	 6.02910958594321E-02 
453	 6.02426973020875E-02 
454	 6.01745256344853E-02 
455	 6.01256694402835E-02 
456	 6.06554844790773E-02 
457	 6.07942963166118E-02 
458	 0.060642244527936 
459	 6.07435691218519E-02 
460	 6.09210071917254E-02 
461	 6.09062640645461E-02 
462	 0.06080887950061 
463	 0.061280545513189 
464	 6.14181126963055E-02 
465	 6.15410150915653E-02 
466	 0.062031151246319 
467	 6.21033008144555E-02 
468	 0.062118920232351 
469	 6.22188394252358E-02 
470	 6.23427905787234E-02 
471	 6.25465725856768E-02 
472	 0.062615966380137 
473	 6.25024605667582E-02 
474	 6.26348318583025E-02 
475	 6.28476652391821E-02 
476	 6.29830901939665E-02 
477	 6.29337907365124E-02 
478	 6.29723130034277E-02 
479	 6.31383391039959E-02 
480	 6.33801286858871E-02 
481	 6.35613506015291E-02 
482	 6.35734462463774E-02 
483	 6.35627016483597E-02 
484	 6.36859940436208E-02 
485	 6.38347311666388E-02 
486	 6.38553371069935E-02 
487	 6.38150866339022E-02 
488	 6.39520032075372E-02 
489	 6.41613968708899E-02 
490	 6.43360261867559E-02 
491	 6.44204535174757E-02 
492	 6.44918599023253E-02 
493	 6.44316811473138E-02 
494	 6.44028658740067E-02 
495	 6.46372217737251E-02 
496	 6.48186206521632E-02 
497	 6.48749264641898E-02 
498	 6.48656336329403E-02 
499	 6.50020869890578E-02 
500	 6.51377731629577E-02 
501	 0.065255422525783 
502	 6.53601919724373E-02 
503	 0.065388513984504 
504	 0.065433679320013 
505	 6.54642498122148E-02 
506	 6.53503413202585E-02 
507	 6.55020530075276E-02 
508	 6.56756575358725E-02 
509	 6.56682413375369E-02 
510	 6.57489254260287E-02 
511	 6.56971643174038E-02 
512	 6.56265864297501E-02 
513	 0.065781581918307 
514	 6.58805231143306E-02 
515	 0.0658807993155 
516	 0.065867738269683 
517	 6.61119290691557E-02 
518	 6.61908276707097E-02 
519	 6.61268051004082E-02 
520	 6.60949556406907E-02 
521	 6.62190110671585E-02 
522	 6.62902894416783E-02 
523	 6.62734653918399E-02 
524	 0.066330287491579 
525	 6.63075420128675E-02 
526	 0.066296732009772 
527	 6.63900166523472E-02 
528	 6.65344736979815E-02 
529	 6.65313137859547E-02 
530	 6.64782829716779E-02 
531	 6.66325141107857E-02 
532	 6.66272454207578E-02 
533	 6.66488056835007E-02 
534	 6.67927545116961E-02 
535	 6.68019879093758E-02 
536	 0.066800748915471 
537	 6.68314339481825E-02 
538	 6.69008803768178E-02 
539	 6.69801913854011E-02 
540	 6.70150521965617E-02 
541	 6.70189645875975E-02 
542	 6.70952204479038E-02 
543	 6.71695523151896E-02 
544	 6.72034758048922E-02 
545	 6.71949577911174E-02 
546	 6.72452647116298E-02 
547	 6.72774109453062E-02 
548	 6.73052763689291E-02 
549	 6.74120707304828E-02 
550	 6.73871598122768E-02 
551	 6.73678855944194E-02 
552	 6.74674197150653E-02 
553	 6.75838455055121E-02 
554	 6.75949961005129E-02 
555	 6.75877645014103E-02 
556	 6.77260603452514E-02 
557	 6.77353174253319E-02 
558	 6.77626366707719E-02 
559	 6.78923150928168E-02 
560	 6.80238257012302E-02 
561	 6.81028544870526E-02 
562	 6.81291659028381E-02 
563	 6.81413457753611E-02 
564	 6.82474845728313E-02 
565	 6.82724518661734E-02 
566	 6.82130391776136E-02 
567	 6.82715995723166E-02 
568	 6.83564406487565E-02 
569	 6.84605102183166E-02 
570	 6.85941263549747E-02 
571	 6.87796388040132E-02 
572	 6.89111328199682E-02 
573	 6.89825124576045E-02 
574	 6.90578926213453E-02 
575	 6.90950282171632E-02 
576	 6.91515778301733E-02 
577	 6.92528129874437E-02 
578	 6.93284864821447E-02 
579	 6.93609951863086E-02 
580	 6.93387056639818E-02 
581	 6.92773318434609E-02 
582	 6.93313667260647E-02 
583	 6.93323570713554E-02 
584	 6.92737297386172E-02 
585	 6.94193444486161E-02 
586	 6.95406492047113E-02 
587	 6.96173991580522E-02 
588	 6.96961250955391E-02 
589	 6.98405001362575E-02 
590	 6.99496804206291E-02 
591	 7.00082635209519E-02 
592	 7.00846467087746E-02 
593	 7.01956917217553E-02 
594	 7.03581711612348E-02 
595	 7.05393370772792E-02 
596	 7.05821215849655E-02 
597	 7.05969271898563E-02 
598	 7.06023259096108E-02 
599	 7.05793496879157E-02 
600	 7.06369891587243E-02 
601	 7.06897401578997E-02 
602	 7.06832780257385E-02 
603	 7.06503052326367E-02 
604	 7.07097734568663E-02 
605	 7.08122634334262E-02 
606	 7.08618052808237E-02 
607	 7.08988790406493E-02 
608	 0.07090131202612 
609	 7.09106655865797E-02 
610	 7.10395011068895E-02 
611	 7.11020178646544E-02 
612	 7.11139998468978E-02 
613	 7.11300176326599E-02 
614	 7.11558649197794E-02 
615	 7.11662137806595E-02 
616	 7.11557136313537E-02 
617	 0.071138300004179 
618	 7.11732243087844E-02 
619	 7.12325019879057E-02 
620	 0.071273286790162 
621	 7.12405580395199E-02 
622	 7.12567830757449E-02 
623	 7.13105028582777E-02 
624	 7.13397405958131E-02 
625	 7.13560082568181E-02 
626	 7.13607445993631E-02 
627	 7.13604619279491E-02 
628	 0.071367520683992 
629	 7.14252383529907E-02 
630	 7.14860756360136E-02 
631	 7.14986990234493E-02 
632	 7.14995255461358E-02 
633	 7.15203374744865E-02 
634	 7.15530002354208E-02 
635	 7.15590538501285E-02 
636	 7.15716300923042E-02 
637	 7.15693484745897E-02 
638	 7.15484443418212E-02 
639	 7.15725523907861E-02 
640	 7.15811635766519E-02 
641	 7.16019263773331E-02 
642	 7.16845376514129E-02 
643	 7.17212942243959E-02 
644	 7.17452200213202E-02 
645	 7.17664300579272E-02 
646	 7.17393347084505E-02 
647	 7.17685459252624E-02 
648	 7.18302884944601E-02 
649	 7.18642799276171E-02 
650	 0.071830456117247 
651	 7.18277693586297E-02 
652	 7.18708423851095E-02 
653	 7.19000437751305E-02 
654	 7.19672572036384E-02 
655	 7.20014456956602E-02 
656	 7.19709023944788E-02 
657	 7.19931789111008E-02 
658	 0.072013994280187 
659	 7.20412629075841E-02 
660	 0.07209754536479 
661	 7.21000487902951E-02 
662	 7.20825800865874E-02 
663	 7.20841644549786E-02 
664	 7.21349421623183E-02 
665	 7.21733318601433E-02 
666	 7.21862429166375E-02 
667	 7.21877124189184E-02 
668	 7.22355870784596E-02 
669	 7.22759618290809E-02 
670	 7.23029256546829E-02 
671	 7.23489352787518E-02 
672	 7.23516883776517E-02 
673	 7.23534657878415E-02 
674	 7.23887481217792E-02 
675	 7.24400939467146E-02 
676	 7.24183967771555E-02 
677	 7.23803536893271E-02 
678	 7.24278857832719E-02 
679	 7.24707275354717E-02 
680	 7.24994692489293E-02 
681	 7.25297238698485E-02 
682	 7.26008695531107E-02 
683	 7.26136184443032E-02 
684	 7.26162792270793E-02 
685	 0.072656951851518 
686	 7.26262528147131E-02 
687	 7.26425438873302E-02 
688	 7.27070845720366E-02 
689	 7.27372283525585E-02 
690	 0.072736686501446 
691	 7.27594380475261E-02 
692	 7.28126854140056E-02 
693	 7.27914373498164E-02 
694	 7.27853391808903E-02 
695	 7.28053626102086E-02 
696	 7.28306397121907E-02 
697	 7.28288596708747E-02 
698	 0.072854261738813 
699	 7.29075394864754E-02 
700	 7.29293101917874E-02 
701	 7.29217897158274E-02 
702	 7.29194394244175E-02 
703	 7.29403382496726E-02 
704	 7.29336312636854E-02 
705	 7.29344204031561E-02 
706	 7.29403944930524E-02 
707	 7.29353519519636E-02 
708	 7.29608224110747E-02 
709	 7.29777902219098E-02 
710	 7.29783747790965E-02 
711	 7.30119243114776E-02 
712	 7.30338942654059E-02 
713	 7.30176796195576E-02 
714	 7.29745086278805E-02 
715	 7.30396971482823E-02 
716	 7.30642545481806E-02 
717	 7.30326820234567E-02 
718	 7.30284974795586E-02 
719	 7.30235567401551E-02 
720	 7.30242576560761E-02 
721	 7.30296320409511E-02 
722	 7.30143055452899E-02 
723	 7.30311671234292E-02 
724	 7.30499558179831E-02 
725	 7.30278379740228E-02 
726	 7.30125824191178E-02 
727	 7.30071798026446E-02 
728	 7.30132844041337E-02 
729	 7.30315796233133E-02 
730	 7.30397480620204E-02 
731	 7.30258849726178E-02 
732	 7.29980581593763E-02 
733	 7.30074681080387E-02 
734	 0.072997638264369 
735	 7.29738754389561E-02 
736	 7.29610931054837E-02 
737	 7.29306615825722E-02 
738	 7.29254887181535E-02 
739	 7.29444143275888E-02 
740	 7.29344708816727E-02 
741	 7.29073567652393E-02 
742	 7.28901166179456E-02 
743	 7.28919431664196E-02 
744	 7.28637636785047E-02 
745	 7.28250146109202E-02 
746	 0.072800705473875 
747	 7.28061759041709E-02 
748	 7.27682073430113E-02 
749	 7.27291119471328E-02 
750	 7.27127363875869E-02 
751	 7.27073384722478E-02 
752	 7.26907132692837E-02 
753	 7.26697873089042E-02 
754	 7.26531918175588E-02 
755	 7.26274115405008E-02 
756	 7.26371933058582E-02 
757	 7.26522630685898E-02 
758	 7.26150509863799E-02 
759	 7.25795409375098E-02 
760	 0.07254714817592 
761	 7.25259243900558E-02 
762	 0.072536876327209 
763	 7.25067549360274E-02 
764	 7.24651152661739E-02 
765	 0.07244630913922 
766	 7.24191058613606E-02 
767	 7.24135101574798E-02 
768	 7.24070789761885E-02 
769	 7.23604722749405E-02 
770	 7.23143190637072E-02 
771	 7.22948185666744E-02 
772	 7.22917584899411E-02 
773	 7.22555662764353E-02 
774	 7.22350976931959E-02 
775	 7.22076793940813E-02 
776	 7.21598443101562E-02 
777	 7.21487962528807E-02 
778	 7.21210914961028E-02 
779	 7.20934158550695E-02 
780	 7.21018449658339E-02 
781	 7.20898230991806E-02 
782	 7.20623129187959E-02 
783	 7.20272341409127E-02 
784	 7.19908494632733E-02 
785	 0.071962324615763 
786	 0.071945173587221 
787	 7.19331681146413E-02 
788	 7.18983852173943E-02 
789	 7.18871330599545E-02 
790	 7.18782847733138E-02 
791	 7.18371094935437E-02 
792	 7.18029211454141E-02 
793	 7.17673718600563E-02 
794	 7.17318847245144E-02 
795	 0.071707084516732 
796	 7.16860289615391E-02 
797	 7.16659867123934E-02 
798	 7.16406065232211E-02 
799	 7.15943732414437E-02 
800	 0.07156998845007 
801	 7.15589710476642E-02 
802	 7.15394646512084E-02 
803	 7.15054138290159E-02 
804	 7.14871068572473E-02 
805	 7.14755850924226E-02 
806	 0.071439496234959 
807	 7.13879127464308E-02 
808	 7.13597295536974E-02 
809	 7.13519295709594E-02 
810	 7.13057401297525E-02 
811	 7.13155658312556E-02 
812	 7.13071924461981E-02 
813	 7.12344203617788E-02 
814	 7.12311159288071E-02 
815	 7.12226647696962E-02 
816	 0.071184813737616 
817	 7.11303090839581E-02 
818	 7.11523397475739E-02 
819	 7.11632435972511E-02 
820	 7.11314390926005E-02 
821	 7.10853931137791E-02 
822	 7.10431721354405E-02 
823	 7.10334269849831E-02 
824	 7.10497212517585E-02 
825	 7.10298456876952E-02 
826	 7.09971483954919E-02 
827	 7.09707725438726E-02 
828	 7.09554088745234E-02 
829	 0.070908620464024 
830	 7.08758103963495E-02 
831	 0.070872431770907 
832	 7.08895556232069E-02 
833	 7.08827064218509E-02 
834	 7.08500728337509E-02 
835	 7.08144865267724E-02 
836	 7.08146468434478E-02 
837	 0.070833486763155 
838	 7.08364519955389E-02 
839	 7.08005961227854E-02 
840	 7.07261527140574E-02 
841	 7.07072417270555E-02 
842	 7.07031935156667E-02 
843	 7.06663756688322E-02 
844	 7.06556182988519E-02 
845	 7.06740967952039E-02 
846	 7.06965527462403E-02 
847	 7.06900568825853E-02 
848	 7.06702563958943E-02 
849	 7.06274390285273E-02 
850	 7.05833899553966E-02 
851	 7.05813841570248E-02 
852	 7.05946150484072E-02 
853	 7.05913914523198E-02 
854	 7.05745425152652E-02 
855	 0.070595625254664 
856	 7.05923906644032E-02 
857	 7.05795828296651E-02 
858	 0.070573504536768 
859	 7.05396055453698E-02 
860	 7.05695551523423E-02 
861	 7.05981350402467E-02 
862	 7.05442737205175E-02 
863	 7.05217597747703E-02 
864	 7.05002279529634E-02 
865	 0.070479777706361 
866	 7.04764868996152E-02 
867	 7.04665336481286E-02 
868	 7.04766145216887E-02 
869	 7.04861400975358E-02 
870	 7.04341528856273E-02 
871	 7.04372984333214E-02 
872	 7.04536648317756E-02 
873	 0.07044351574548 
874	 7.04153246934336E-02 
875	 7.04145307329654E-02 
876	 7.03999900493167E-02 
877	 7.03554354885247E-02 
878	 7.03919558769839E-02 
879	 7.04075682276665E-02 
880	 0.070400646321115 
881	 7.04024948222236E-02 
882	 7.04234277630436E-02 
883	 7.04240087811845E-02 
884	 7.03919774447261E-02 
885	 7.03439842672187E-02 
886	 7.03526276747067E-02 
887	 7.03593136163541E-02 
888	 7.03516375625947E-02 
889	 7.03631318170136E-02 
890	 7.03866606900153E-02 
891	 7.03861259718124E-02 
892	 7.03572914531676E-02 
893	 7.03401042759785E-02 
894	 7.03705541372946E-02 
895	 0.070356326177274 
896	 7.02800704636864E-02 
897	 0.070299687313864 
898	 7.03403103994588E-02 
899	 7.03471388521493E-02 
900	 7.03043035514491E-02 
901	 7.02832705270114E-02 
902	 7.02641809221115E-02 
903	 7.02782239023338E-02 
904	 7.03346614653137E-02 
905	 7.02993071564516E-02 
906	 7.03576316510806E-02 
907	 7.04266474017035E-02 
908	 7.03584947799686E-02 
909	 7.04025434358541E-02 
910	 0.070337630251356 
911	 7.02487686046569E-02 
912	 7.03698695818664E-02 
913	 7.03983463293448E-02 
914	 7.03787293421602E-02 
915	 7.03548111959623E-02 
916	 7.03417535480104E-02 
917	 7.03365839356521E-02 
918	 7.03853917094364E-02 
919	 7.04506169075037E-02 
920	 7.04078789613952E-02 
921	 7.03422925122167E-02 
922	 7.03199666030998E-02 
923	 7.03501857641694E-02 
924	 7.03663274054481E-02 
925	 7.03720692382881E-02 
926	 7.03969528198943E-02 
927	 7.04337530297668E-02 
928	 7.03995309711361E-02 
929	 7.03814523539313E-02 
930	 7.04033313239467E-02 
931	 7.04525875578617E-02 
932	 7.04779510946453E-02 
933	 0.070487598634907 
934	 7.05008515843853E-02 
935	 0.070529980016403 
936	 7.05621934967816E-02 
937	 7.05143367999804E-02 
938	 7.04384896680961E-02 
939	 7.04210210493007E-02 
940	 0.070489306128374 
941	 7.05253921514142E-02 
942	 7.05543105083152E-02 
943	 0.070623488707701 
944	 7.06246968744271E-02 
945	 7.05653109764375E-02 
946	 7.05250960671635E-02 
947	 7.05683676486906E-02 
948	 0.070551062781751 
949	 7.05079335053771E-02 
950	 7.04716282505862E-02 
951	 7.04704378007786E-02 
952	 7.05282554674707E-02 
953	 0.070595911293525 
954	 7.06008534463686E-02 
955	 7.05156806474817E-02 
956	 7.05658907575601E-02 
957	 7.06744895109738E-02 
958	 7.07536097289067E-02 
959	 7.07403767000485E-02 
960	 0.07066638261064 
961	 7.06477974311088E-02 
962	 7.07000823593108E-02 
963	 7.07604619951152E-02 
964	 0.070781642465643 
965	 7.07661505089367E-02 
966	 7.07496553708227E-02 
967	 7.07721019781964E-02 
968	 7.07892893867891E-02 
969	 7.07475134316322E-02 
970	 7.07047534879866E-02 
971	 7.07502838951463E-02 
972	 7.06746527514518E-02 
973	 7.07216208146163E-02 
974	 7.08444602776686E-02 
975	 0.07082943481242 
976	 7.08521463372494E-02 
977	 7.07932693299182E-02 
978	 7.07275146688422E-02 
979	 7.08097093212129E-02 
980	 7.08455242137097E-02 
981	 7.08340458223872E-02 
982	 7.07978434746664E-02 
983	 7.07771906705744E-02 
984	 7.08561333026095E-02 
985	 7.08246834973894E-02 
986	 7.08115315621862E-02 
987	 7.10024123312201E-02 
988	 7.08181855391431E-02 
989	 7.07578949716596E-02 
990	 7.08184092185759E-02 
991	 7.07837500815101E-02 
992	 7.08924868811881E-02 
993	 7.09616337542268E-02 
994	 7.10342753542062E-02 
995	 7.11697587829339E-02 
996	 7.10168220433628E-02 
997	 7.11094401496344E-02 
998	 7.12414820287718E-02 
999	 7.10986964204598E-02 
1000	 7.11134335745023E-02 
1001	 0.070387259428806 
1002	 7.03678499991979E-02 
1003	 7.03803362731086E-02 
1004	 7.03918248013322E-02 
1005	 7.04388113913063E-02 
1006	 7.03880564689443E-02 
1007	 7.02882398905933E-02 
1008	 7.01957936441418E-02 
1009	 7.01154456589884E-02 
1010	 0.070132972585233 
1011	 7.03237752994415E-02 
1012	 7.04735247764042E-02 
1013	 7.04799941241065E-02 
1014	 7.04908653607951E-02 
1015	 0.070469921716319 
1016	 7.04284904518497E-02 
1017	 7.04150566856828E-02 
1018	 7.04547119222268E-02 
1019	 7.04399106221495E-02 
1020	 7.03946227358994E-02 
1021	 7.04103479581918E-02 
1022	 7.04398957997196E-02 
1023	 7.04451006623941E-02 
1024	 7.04527136506669E-02 
1025	 7.04644407121583E-02 
1026	 7.04481432488601E-02 
1027	 0.07040176562719 
1028	 7.04088443043581E-02 
1029	 7.04346615093276E-02 
1030	 7.04035616327868E-02 
1031	 7.03811732940153E-02 
1032	 7.03875058964973E-02 
1033	 7.03765708924962E-02 
1034	 7.03220192640694E-02 
1035	 7.02922608705567E-02 
1036	 7.02909716793775E-02 
1037	 7.02842310476315E-02 
1038	 7.02745452986453E-02 
1039	 7.02671932584374E-02 
1040	 7.02490130729091E-02 
1041	 7.02331625985052E-02 
1042	 7.02127064900389E-02 
1043	 7.01965237367336E-02 
1044	 7.01886158947326E-02 
1045	 7.01875878843249E-02 
1046	 7.02119665830478E-02 
1047	 7.02271828708701E-02 
1048	 0.070218889813275 
1049	 7.02270418603459E-02 
1050	 7.02107427106878E-02 
1051	 7.02000348665432E-02 
1052	 7.02152725117438E-02 
1053	 0.070224213579631 
1054	 7.02553949489123E-02 
1055	 0.070310217958366 
1056	 7.03322568930078E-02 
1057	 7.03361970165546E-02 
1058	 0.070316083766227 
1059	 7.03226525655722E-02 
1060	 7.03023684890957E-02 
1061	 7.03202413127061E-02 
1062	 7.03899429230306E-02 
1063	 7.04732988321748E-02 
1064	 7.05162940411645E-02 
1065	 7.05173316414699E-02 
1066	 7.05295564463912E-02 
1067	 7.05368955767933E-02 
1068	 0.070541333854065 
1069	 7.05927541005754E-02 
1070	 7.06287302561159E-02 
1071	 7.06560280065126E-02 
1072	 7.06854211027149E-02 
1073	 7.07400314221508E-02 
1074	 7.07485042165491E-02 
1075	 7.07207639298099E-02 
1076	 7.07228896245085E-02 
1077	 7.07303527947562E-02 
1078	 7.07595893820564E-02 
1079	 7.07972516527633E-02 
1080	 7.08314095879378E-02 
1081	 7.08729075652535E-02 
1082	 0.070867972122492 
1083	 7.08651934621069E-02 
1084	 7.08670816316583E-02 
1085	 7.08777615684924E-02 
1086	 7.08672083162838E-02 
1087	 0.070868716787473 
1088	 0.070889171635491 
1089	 7.09056249540633E-02 
1090	 7.09214193776009E-02 
1091	 7.09399480625473E-02 
1092	 7.09489333982507E-02 
1093	 7.09400353429516E-02 
1094	 7.08997653152086E-02 
1095	 7.08848244160961E-02 
1096	 7.09310907402516E-02 
1097	 7.09518205018237E-02 
1098	 7.09565086369731E-02 
1099	 7.09598143079262E-02 
1100	 7.09726611642379E-02 
1101	 7.09694496250158E-02 
1102	 7.09691227939414E-02 
1103	 7.09967236455971E-02 
1104	 7.09788882745657E-02 
1105	 7.09751165305302E-02 
1106	 7.09736977773485E-02 
1107	 7.09861722174882E-02 
1108	 7.10253216357995E-02 
1109	 7.10280624815346E-02 
1110	 7.10256766306597E-02 
1111	 7.10188875449803E-02 
1112	 7.09916526131913E-02 
1113	 7.09833388476332E-02 
1114	 0.070984739255281 
1115	 7.09871454389563E-02 
1116	 7.09927466464728E-02 
1117	 7.10106514198303E-02 
1118	 7.10633173830917E-02 
1119	 7.10467078759008E-02 
1120	 7.10207351101079E-02 
1121	 7.10483968319991E-02 
1122	 7.10510454508312E-02 
1123	 7.10388338599438E-02 
1124	 7.10480925629025E-02 
1125	 7.10818672007004E-02 
1126	 7.10943116955887E-02 
1127	 0.071103086210565 
1128	 7.11106123449536E-02 
1129	 7.11032605142844E-02 
1130	 7.11176297855974E-02 
1131	 0.071148242945602 
1132	 7.11675118075662E-02 
1133	 7.12057472930504E-02 
1134	 7.12243142785721E-02 
1135	 0.071238640049695 
1136	 7.12145099854278E-02 
1137	 0.071186583396112 
1138	 7.11582926595866E-02 
1139	 7.11474711706573E-02 
1140	 7.11367522892475E-02 
1141	 7.11314763359936E-02 
1142	 7.11471546080874E-02 
1143	 7.11447927434988E-02 
1144	 7.11288411479365E-02 
1145	 7.11231429259115E-02 
1146	 7.11260624103919E-02 
1147	 0.071121629662742 
1148	 7.11005011012763E-02 
1149	 7.11002571300285E-02 
1150	 7.11158578228627E-02 
1151	 7.11238811099135E-02 
1152	 7.11196067056818E-02 
1153	 7.11193155290677E-02 
1154	 7.11067713846403E-02 
1155	 7.10600189974008E-02 
1156	 0.071048770151742 
1157	 7.10676861554114E-02 
1158	 0.071055779004103 
1159	 0.071029656976665 
1160	 7.10152835591298E-02 
1161	 7.09816060684529E-02 
1162	 7.09705711720277E-02 
1163	 7.09886717518099E-02 
1164	 7.09972437132125E-02 
1165	 7.10093610266045E-02 
1166	 7.10175108154501E-02 
1167	 7.10297226159459E-02 
1168	 7.10333511231665E-02 
1169	 7.10379809425313E-02 
1170	 7.10332690997448E-02 
1171	 7.10492222994669E-02 
1172	 7.10834034863573E-02 
1173	 0.071094592019813 
1174	 0.071105353912517 
1175	 7.11179915820836E-02 
1176	 7.11039721977184E-02 
1177	 7.11151182872187E-02 
1178	 7.11605242097763E-02 
1179	 7.11817867397274E-02 
1180	 7.11931615418546E-02 
1181	 7.12088038464609E-02 
1182	 7.12070417350035E-02 
1183	 7.12219677447349E-02 
1184	 7.12450175849882E-02 
1185	 7.12892425258196E-02 
1186	 7.13082095647155E-02 
1187	 7.13235994875086E-02 
1188	 7.13369086941181E-02 
1189	 7.13355658031658E-02 
1190	 0.071343738544799 
1191	 7.13577027775703E-02 
1192	 7.13708581798124E-02 
1193	 7.13763107525686E-02 
1194	 7.13939814756142E-02 
1195	 7.14266622424317E-02 
1196	 0.07144918599434 
1197	 0.071472424070872 
1198	 7.14957289688902E-02 
1199	 7.15169768901007E-02 
1200	 7.15330828285482E-02 
1201	 0.071548439597867 
1202	 7.15630130606829E-02 
1203	 0.071581054694172 
1204	 0.071591896442274 
1205	 7.16140995280728E-02 
1206	 0.071649309275696 
1207	 7.16766926263124E-02 
1208	 7.17121434526394E-02 
1209	 7.17313571321887E-02 
1210	 7.17282190960996E-02 
1211	 7.17471750951354E-02 
1212	 0.071770463660973 
1213	 7.17918175203582E-02 
1214	 7.18335058076094E-02 
1215	 7.18624808400014E-02 
1216	 7.18844538999338E-02 
1217	 7.18882212433195E-02 
1218	 0.071913615278884 
1219	 7.19547798285987E-02 
1220	 7.19658365777898E-02 
1221	 7.19672944788937E-02 
1222	 7.19769175225695E-02 
1223	 7.19614870570414E-02 
1224	 7.19712239727496E-02 
1225	 7.20055881366363E-02 
1226	 7.20322794935006E-02 
1227	 7.20646802688308E-02 
1228	 7.20894482093408E-02 
1229	 7.21232530173319E-02 
1230	 7.21395930549614E-02 
1231	 7.21292462741629E-02 
1232	 7.21355122239929E-02 
1233	 0.072144010569501 
1234	 7.21474399111443E-02 
1235	 7.21568788023546E-02 
1236	 7.21783208200004E-02 
1237	 7.21936918899769E-02 
1238	 7.22044960408863E-02 
1239	 7.22191642757122E-02 
1240	 7.22375588449831E-02 
1241	 7.22568410786263E-02 
1242	 7.22824571457111E-02 
1243	 7.22949765180526E-02 
1244	 7.23050280518434E-02 
1245	 7.23116988182161E-02 
1246	 7.22945367158501E-02 
1247	 7.22987040199588E-02 
1248	 7.23140045342165E-02 
1249	 7.23341629268546E-02 
1250	 7.23499215930735E-02 
1251	 7.23725971456152E-02 
1252	 7.23967064677963E-02 
1253	 7.24213748477956E-02 
1254	 7.24390467837669E-02 
1255	 7.24668029643946E-02 
1256	 7.24770621831806E-02 
1257	 0.072465862915616 
1258	 7.24687859597165E-02 
1259	 7.24765454271576E-02 
1260	 7.24740993491812E-02 
1261	 7.24623698782335E-02 
1262	 7.24643332644853E-02 
1263	 7.24674575246074E-02 
1264	 7.24691515363368E-02 
1265	 7.24861544201902E-02 
1266	 7.24946731958212E-02 
1267	 7.24924879253256E-02 
1268	 7.24899083952305E-02 
1269	 7.24916525256249E-02 
1270	 7.24965081276552E-02 
1271	 7.24973062340925E-02 
1272	 7.24911707583501E-02 
1273	 7.25009594450808E-02 
1274	 7.25182862579159E-02 
1275	 7.25343498777145E-02 
1276	 7.25591287011338E-02 
1277	 7.25844256177967E-02 
1278	 0.072602727995744 
1279	 7.26312961659853E-02 
1280	 7.26678004311327E-02 
1281	 7.27098954136989E-02 
1282	 7.27659670820231E-02 
1283	 7.28138485030574E-02 
1284	 7.28696807629142E-02 
1285	 7.29101070924574E-02 
1286	 7.29477685260437E-02 
1287	 7.29910268192464E-02 
1288	 7.30386835641256E-02 
1289	 0.073089406307815 
1290	 7.31455992885171E-02 
1291	 7.32140466714731E-02 
1292	 7.32652326964829E-02 
1293	 7.33102350631415E-02 
1294	 0.073361585217941 
1295	 7.34088045817064E-02 
1296	 7.34517334505595E-02 
1297	 7.35044682328691E-02 
1298	 7.35426951983282E-02 
1299	 7.35615464332789E-02 
1300	 7.35897754398972E-02 
1301	 7.36253206088612E-02 
1302	 0.073648114440987 
1303	 7.36615392614669E-02 
1304	 7.36766486407531E-02 
1305	 7.37022327880017E-02 
1306	 7.37237322859855E-02 
1307	 7.37524215638542E-02 
1308	 7.37835106757556E-02 
1309	 7.37911117535491E-02 
1310	 7.37637022795839E-02 
1311	 7.37716617735114E-02 
1312	 7.37881719429411E-02 
1313	 7.37998563875104E-02 
1314	 7.38334180542972E-02 
1315	 7.38462765915479E-02 
1316	 7.38467948265198E-02 
1317	 7.38391033947527E-02 
1318	 7.38063465042157E-02 
1319	 0.07380003877381 
1320	 7.37992734667148E-02 
1321	 7.37994576442594E-02 
1322	 7.38164410550193E-02 
1323	 7.38374059113535E-02 
1324	 7.38273173436324E-02 
1325	 7.38147742669416E-02 
1326	 7.38168656342796E-02 
1327	 7.38189831583556E-02 
1328	 7.38188928590997E-02 
1329	 7.38069707247202E-02 
1330	 7.37872139583589E-02 
1331	 7.37383964461096E-02 
1332	 0.073721706174377 
1333	 7.37159864849806E-02 
1334	 7.37094413690309E-02 
1335	 7.37238007331744E-02 
1336	 7.37131011059691E-02 
1337	 7.36860624346637E-02 
1338	 7.36658498906605E-02 
1339	 7.36259720894201E-02 
1340	 7.36160710960589E-02 
1341	 7.36335213798321E-02 
1342	 7.36344796946364E-02 
1343	 7.36497514771831E-02 
1344	 7.36423643022476E-02 
1345	 7.36289974287417E-02 
1346	 7.36328174696787E-02 
1347	 7.36215781452727E-02 
1348	 7.36127225538885E-02 
1349	 0.07361189740357 
1350	 7.35951536469431E-02 
1351	 7.35932870286574E-02 
1352	 7.36112573696328E-02 
1353	 0.073615844407424 
1354	 7.36138200404407E-02 
1355	 7.36168779539917E-02 
1356	 7.36206315951943E-02 
1357	 7.36220636436564E-02 
1358	 7.36206555266738E-02 
1359	 7.36247191647407E-02 
1360	 7.36397600478356E-02 
1361	 7.36388456731084E-02 
1362	 7.36364229439854E-02 
1363	 7.36254546385065E-02 
1364	 0.073592054345148 
1365	 7.35724942870473E-02 
1366	 0.073560894591005 
1367	 7.35420698023161E-02 
1368	 7.35333218470463E-02 
1369	 7.35061571697686E-02 
1370	 7.34601749130113E-02 
1371	 7.34243768601074E-02 
1372	 7.33734466071768E-02 
1373	 7.33245113531201E-02 
1374	 7.32739045156726E-02 
1375	 7.32225114531487E-02 
1376	 7.31665175127017E-02 
1377	 7.31129638965232E-02 
1378	 7.30434555272134E-02 
1379	 7.29625190677822E-02 
1380	 7.28814596713245E-02 
1381	 7.27917812643477E-02 
1382	 7.27014108324795E-02 
1383	 0.072615812266704 
1384	 7.25159433380436E-02 
1385	 0.072405862942255 
1386	 7.22906601735255E-02 
1387	 7.21713016652826E-02 
1388	 7.20440122140913E-02 
1389	 7.19089733657209E-02 
1390	 7.17729436069675E-02 
1391	 7.16249829168406E-02 
1392	 7.14497973861458E-02 
1393	 7.12686822897333E-02 
1394	 7.10842374264038E-02 
1395	 7.08994249220824E-02 
1396	 7.07229008896285E-02 
1397	 7.05312718932351E-02 
1398	 7.03346407085818E-02 
1399	 7.01338317226141E-02 
1400	 6.99180930273055E-02 
1401	 6.97143880232959E-02 
1402	 6.95162467528322E-02 
1403	 6.93194081575999E-02 
1404	 6.91204433748603E-02 
1405	 6.89297831548169E-02 
1406	 6.87399528950129E-02 
1407	 6.85609225400013E-02 
1408	 6.83946310329293E-02 
1409	 6.82266000721671E-02 
1410	 6.80506928617059E-02 
1411	 6.79011150635858E-02 
1412	 6.77600380961468E-02 
1413	 6.76345967303238E-02 
1414	 0.067528224392046 
1415	 6.74404296334463E-02 
1416	 6.73658108861214E-02 
1417	 6.72928530689826E-02 
1418	 6.72291905165548E-02 
1419	 6.71748902463525E-02 
1420	 6.71192498748324E-02 
1421	 6.70655714119516E-02 
1422	 6.70188402135825E-02 
1423	 0.066972456541925 
1424	 6.69234450680717E-02 
1425	 6.68600648635545E-02 
1426	 6.68279135420642E-02 
1427	 6.68115855675877E-02 
1428	 6.67932566265804E-02 
1429	 6.67949927467423E-02 
1430	 6.67888609614318E-02 
1431	 6.67751847289237E-02 
1432	 6.67661133276875E-02 
1433	 6.67614122737157E-02 
1434	 6.67584015209498E-02 
1435	 6.67501567159973E-02 
1436	 6.67515570117932E-02 
1437	 6.67629645973607E-02 
1438	 0.066776824912969 
1439	 6.67965131168082E-02 
1440	 6.68175623669054E-02 
1441	 6.68361489814783E-02 
1442	 6.68548429624748E-02 
1443	 6.68763388078165E-02 
1444	 6.68959352259433E-02 
1445	 6.69253707468484E-02 
1446	 6.69588948431514E-02 
1447	 0.066988776151555 
1448	 6.70254361231829E-02 
1449	 6.70532919601251E-02 
1450	 0.067072879467271 
1451	 6.70955422782802E-02 
1452	 6.71083125107264E-02 
1453	 6.71334415294909E-02 
1454	 6.71661759000441E-02 
1455	 6.72000757056678E-02 
1456	 6.72424704719098E-02 
1457	 6.72743091309875E-02 
1458	 6.73022101785437E-02 
1459	 6.73324805326885E-02 
1460	 6.73561758819376E-02 
1461	 6.73879652519675E-02 
1462	 6.74215189133693E-02 
1463	 0.067463708291611 
1464	 6.75140201867661E-02 
1465	 6.75622561779801E-02 
1466	 6.76158933731757E-02 
1467	 6.76727890702802E-02 
1468	 6.77280534541145E-02 
1469	 6.77858840291468E-02 
1470	 6.78513270168781E-02 
1471	 6.79165112347894E-02 
1472	 6.79717819210574E-02 
1473	 6.80395569997101E-02 
1474	 6.81065903079049E-02 
1475	 6.81727009371398E-02 
1476	 6.82455806146279E-02 
1477	 6.83120004572641E-02 
1478	 6.83841407824131E-02 
1479	 6.84601019606389E-02 
1480	 6.85344853069721E-02 
1481	 6.86155583780242E-02 
1482	 6.86896787697571E-02 
1483	 6.87557872605229E-02 
1484	 6.88325429544054E-02 
1485	 6.89141503728371E-02 
1486	 6.89895186176975E-02 
1487	 6.90679421672085E-02 
1488	 6.91462625801685E-02 
1489	 6.92238932282198E-02 
1490	 6.92919059474952E-02 
1491	 0.069351197226816 
1492	 6.94246569792313E-02 
1493	 6.94984197181815E-02 
1494	 6.95704396042253E-02 
1495	 6.96577271721289E-02 
1496	 6.97323943127016E-02 
1497	 0.069787478076099 
1498	 6.98589479622334E-02 
1499	 0.069944354641507 
1500	 0.070015257021046 
1501	 7.00871801325984E-02 
1502	 7.01501635379038E-02 
1503	 0.07019713025063 
1504	 0.070250589507166 
1505	 7.03095301223011E-02 
1506	 7.03678726339876E-02 
1507	 7.04233093987443E-02 
1508	 7.04968130455724E-02 
1509	 7.05687335187417E-02 
1510	 7.06296054883815E-02 
1511	 7.07051374777683E-02 
1512	 7.07751928986168E-02 
1513	 7.08292620201892E-02 
1514	 7.08953078861262E-02 
1515	 7.09600464394405E-02 
1516	 7.10063082380519E-02 
1517	 7.10638995980485E-02 
1518	 7.11280458641123E-02 
1519	 7.11876412484967E-02 
1520	 7.12485064311679E-02 
1521	 7.13025804683144E-02 
1522	 7.13506642079725E-02 
1523	 7.14045459314522E-02 
1524	 7.14578070238681E-02 
1525	 7.15072665111926E-02 
1526	 7.15598622642739E-02 
1527	 7.16075286404318E-02 
1528	 7.16510965165267E-02 
1529	 7.16908074231977E-02 
1530	 7.17223645394254E-02 
1531	 7.17651797516976E-02 
1532	 7.18057232587982E-02 
1533	 7.18499616679718E-02 
1534	 7.19110931915921E-02 
1535	 7.19578599690308E-02 
1536	 7.19957819982415E-02 
1537	 7.20375788388514E-02 
1538	 7.20691165305762E-02 
1539	 7.21143481234483E-02 
1540	 0.07217342387691 
1541	 7.22227292116553E-02 
1542	 7.22787395575749E-02 
1543	 7.23258123784555E-02 
1544	 7.23620232236813E-02 
1545	 7.23964858089017E-02 
1546	 7.24240397299373E-02 
1547	 7.24552330740158E-02 
1548	 7.24903482626105E-02 
1549	 7.25238927670072E-02 
1550	 7.25553758979604E-02 
1551	 7.25900782982936E-02 
1552	 7.26228758895486E-02 
1553	 7.26564299348027E-02 
1554	 7.26994228397582E-02 
1555	 7.27361651173019E-02 
1556	 7.27677144635963E-02 
1557	 7.27969269288379E-02 
1558	 7.28127363445074E-02 
1559	 7.28394101026678E-02 
1560	 7.28715591360376E-02 
1561	 7.29083879673931E-02 
1562	 7.29424515308365E-02 
1563	 7.29856624914662E-02 
1564	 0.073016707614174 
1565	 7.30387684877104E-02 
1566	 7.30646494908496E-02 
1567	 0.073087974868704 
1568	 7.31154246092859E-02 
1569	 0.073145697282376 
1570	 7.31709315327726E-02 
1571	 7.31995526714587E-02 
1572	 7.32204774167414E-02 
1573	 7.32327239266292E-02 
1574	 7.32507991577889E-02 
1575	 7.32636522646927E-02 
1576	 7.32840357995504E-02 
1577	 7.33087227112736E-02 
1578	 7.33350538639361E-02 
1579	 7.33706531313054E-02 
1580	 7.33977124788885E-02 
1581	 7.34227759981266E-02 
1582	 7.34476005782129E-02 
1583	 7.34688052077996E-02 
1584	 7.34890203058299E-02 
1585	 7.35119325173075E-02 
1586	 7.35259297144579E-02 
1587	 0.073525519353645 
1588	 7.35408939161301E-02 
1589	 7.35594910238862E-02 
1590	 0.073580338288956 
1591	 7.36165888649118E-02 
1592	 7.36416453134895E-02 
1593	 7.36622321587708E-02 
1594	 7.36794934602206E-02 
1595	 7.36888842359852E-02 
1596	 7.37026320829209E-02 
1597	 7.37076520779077E-02 
1598	 7.37250366910696E-02 
1599	 7.37576203647284E-02 
1600	 0.073782680193557 
1601	 7.38251686439808E-02 
1602	 7.38422822303471E-02 
1603	 7.38321718313485E-02 
1604	 7.38326100912426E-02 
1605	 7.38141083985636E-02 
1606	 0.073812368327883 
1607	 7.38287568849211E-02 
1608	 7.38437193728381E-02 
1609	 7.38600694111778E-02 
1610	 7.38792062566698E-02 
1611	 7.38733112302314E-02 
1612	 7.38806037419832E-02 
1613	 7.39065700647736E-02 
1614	 7.39108590451327E-02 
1615	 0.07392316352646 
1616	 7.39493452175503E-02 
1617	 7.39505482486705E-02 
1618	 7.39627927197077E-02 
1619	 7.39908347039214E-02 
1620	 7.40014629791196E-02 
1621	 7.40132245018813E-02 
1622	 7.40194908656442E-02 
1623	 7.40390628665467E-02 
1624	 7.40653228559744E-02 
1625	 7.40730597012024E-02 
1626	 7.40823858334644E-02 
1627	 7.40895298810864E-02 
1628	 7.40775773920137E-02 
1629	 0.074078531729455 
1630	 7.40937037958423E-02 
1631	 7.40980260088847E-02 
1632	 7.40883386259287E-02 
1633	 7.40986159260007E-02 
1634	 7.41248755437702E-02 
1635	 0.074132398469921 
1636	 7.41385925724908E-02 
1637	 7.41465050553639E-02 
1638	 7.41427838103355E-02 
1639	 7.41464240970522E-02 
1640	 7.41623016071023E-02 
1641	 7.41655183462976E-02 
1642	 7.41586212248433E-02 
1643	 7.41596227653047E-02 
1644	 7.41614346595302E-02 
1645	 7.41636306772102E-02 
1646	 7.41720873357486E-02 
1647	 7.41691710919469E-02 
1648	 7.41556604941056E-02 
1649	 7.41548098973086E-02 
1650	 7.41526435232697E-02 
1651	 7.41555590635047E-02 
1652	 7.41745605656559E-02 
1653	 0.074176356969798 
1654	 7.41631931721617E-02 
1655	 7.41677901365079E-02 
1656	 7.41798561870213E-02 
1657	 7.41810593615234E-02 
1658	 7.41894064923914E-02 
1659	 7.41883580739746E-02 
1660	 7.41697188666462E-02 
1661	 0.07416236643305 
1662	 7.41590333330012E-02 
1663	 7.41578597843395E-02 
1664	 7.41512970682884E-02 
1665	 7.41622685464107E-02 
1666	 7.41919685616091E-02 
1667	 7.42062753113985E-02 
1668	 7.42249518888162E-02 
1669	 7.42387719096195E-02 
1670	 0.074252771422736 
1671	 7.42429513753402E-02 
1672	 7.42145241802484E-02 
1673	 0.074203305837431 
1674	 7.41716346974027E-02 
1675	 7.41641006812687E-02 
1676	 0.074192586226351 
1677	 7.41934136311199E-02 
1678	 7.41823649859649E-02 
1679	 7.41777685657858E-02 
1680	 7.41669252915511E-02 
1681	 7.41633786866266E-02 
1682	 7.41704075071122E-02 
1683	 7.41654128066349E-02 
1684	 7.41478454395137E-02 
1685	 7.41489665796251E-02 
1686	 7.41504218828583E-02 
1687	 7.41627689132787E-02 
1688	 7.42064401856781E-02 
1689	 7.42165719221488E-02 
1690	 0.074212409032818 
1691	 7.42106132918837E-02 
1692	 7.41895311296624E-02 
1693	 7.41838397387295E-02 
1694	 7.41938062714415E-02 
1695	 7.41880021554743E-02 
1696	 0.07417644525806 
1697	 7.41655806912026E-02 
1698	 7.41463571724473E-02 
1699	 7.41312082075335E-02 
1700	 7.41195603338895E-02 
1701	 7.41065511453442E-02 
1702	 7.40852724339872E-02 
1703	 7.40816780219719E-02 
1704	 0.074098770508178 
1705	 7.40882127744155E-02 
1706	 7.40682704529326E-02 
1707	 7.40581788377465E-02 
1708	 0.074040441964805 
1709	 7.40196256655588E-02 
1710	 7.40081224135703E-02 
1711	 0.073992971754248 
1712	 7.39514799051915E-02 
1713	 7.39442059324729E-02 
1714	 7.39698096037831E-02 
1715	 7.39684406455194E-02 
1716	 7.39694874923675E-02 
1717	 7.39594047385187E-02 
1718	 0.073929531401035 
1719	 7.39151543123987E-02 
1720	 7.39072225407034E-02 
1721	 7.38979619462004E-02 
1722	 7.38883496624246E-02 
1723	 7.38785214056554E-02 
1724	 7.38742249107212E-02 
1725	 7.38566163949847E-02 
1726	 7.38299675130622E-02 
1727	 7.38146386327053E-02 
1728	 7.37955273214685E-02 
1729	 7.37775498126729E-02 
1730	 7.37709600549395E-02 
1731	 7.37543405132993E-02 
1732	 7.37395267553128E-02 
1733	 7.36990591152507E-02 
1734	 7.36319068553779E-02 
1735	 7.36019719939439E-02 
1736	 7.35677937502763E-02 
1737	 7.35456033061738E-02 
1738	 7.35585295353289E-02 
1739	 7.35478078900784E-02 
1740	 7.35201380503114E-02 
1741	 7.34969016089407E-02 
1742	 7.34829919799166E-02 
1743	 7.34640531099148E-02 
1744	 7.34375377936865E-02 
1745	 7.34057906838735E-02 
1746	 7.33693258569952E-02 
1747	 0.073335071357767 
1748	 7.33054427313086E-02 
1749	 7.32903329700123E-02 
1750	 7.32808244413275E-02 
1751	 7.32439043455991E-02 
1752	 7.32138172832708E-02 
1753	 7.32045866502776E-02 
1754	 7.31876047876897E-02 
1755	 7.31713643375275E-02 
1756	 7.31585160739904E-02 
1757	 7.31277711894396E-02 
1758	 7.30863543644361E-02 
1759	 7.30410934833396E-02 
1760	 7.29906530099611E-02 
1761	 7.29504707198202E-02 
1762	 7.29179539877095E-02 
1763	 7.29107200405976E-02 
1764	 7.29109105188973E-02 
1765	 7.28741446686503E-02 
1766	 7.28409107871916E-02 
1767	 7.28160240472192E-02 
1768	 7.27757217871267E-02 
1769	 7.27538226361312E-02 
1770	 7.27443752028135E-02 
1771	 7.27216169266238E-02 
1772	 7.26967415398417E-02 
1773	 7.26723638730638E-02 
1774	 7.26258119003121E-02 
1775	 7.25793460750481E-02 
1776	 7.25512701250632E-02 
1777	 7.25180993298566E-02 
1778	 7.25075369466085E-02 
1779	 7.24940839948677E-02 
1780	 7.24689237555832E-02 
1781	 7.24563087411134E-02 
1782	 7.24388252699817E-02 
1783	 7.24149771393077E-02 
1784	 7.23989600424084E-02 
1785	 7.24120069837555E-02 
1786	 7.23967505900519E-02 
1787	 7.23580839499285E-02 
1788	 7.23366063898424E-02 
1789	 7.22858865819145E-02 
1790	 0.072281229739598 
1791	 7.23316220322512E-02 
1792	 0.072338236244595 
1793	 7.23566783189485E-02 
1794	 7.23519766972367E-02 
1795	 7.23007939724867E-02 
1796	 7.22848926422128E-02 
1797	 7.22787757817796E-02 
1798	 7.22658012045235E-02 
1799	 7.22621425506237E-02 
1800	 7.22554932897355E-02 
1801	 6.91212382878018E-02 
1802	 6.91681999601359E-02 
1803	 6.92283042169566E-02 
1804	 6.92453913651203E-02 
1805	 6.92600937807806E-02 
1806	 6.92697869804571E-02 
1807	 6.92691080024922E-02 
1808	 6.92854114972944E-02 
1809	 6.93200671124991E-02 
1810	 6.93372892066802E-02 
1811	 6.93470948124136E-02 
1812	 0.069374800571006 
1813	 6.93931509604247E-02 
1814	 6.93839634670084E-02 
1815	 6.94016763329155E-02 
1816	 6.94193973532438E-02 
1817	 6.94326975476826E-02 
1818	 6.94469082902656E-02 
1819	 6.94549776959315E-02 
1820	 6.94551378711291E-02 
1821	 6.94665642879929E-02 
1822	 6.94731555264072E-02 
1823	 6.94877267078109E-02 
1824	 0.069499337286882 
1825	 6.94823349504081E-02 
1826	 6.94615802365719E-02 
1827	 6.94534318194206E-02 
1828	 6.94456510180628E-02 
1829	 6.94495648203629E-02 
1830	 6.94469914690997E-02 
1831	 6.94489324005923E-02 
1832	 6.94257516387621E-02 
1833	 6.94109596232612E-02 
1834	 6.94033201798753E-02 
1835	 6.94062279732699E-02 
1836	 6.94079450368601E-02 
1837	 6.94016327239829E-02 
1838	 6.94094563235355E-02 
1839	 6.94043649139108E-02 
1840	 6.93887492125927E-02 
1841	 6.93705863993731E-02 
1842	 6.93532603540281E-02 
1843	 6.93174830834079E-02 
1844	 0.069269399644514 
1845	 6.92341411884603E-02 
1846	 0.069224088587454 
1847	 6.91978564042005E-02 
1848	 6.91456952880765E-02 
1849	 6.90944846385486E-02 
1850	 6.90493309885033E-02 
1851	 6.89929373129778E-02 
1852	 6.89374252348348E-02 
1853	 6.88980391307125E-02 
1854	 6.88618924166023E-02 
1855	 0.068797588977453 
1856	 6.87263574412376E-02 
1857	 6.86781617252183E-02 
1858	 6.86153093784527E-02 
1859	 6.85240111821658E-02 
1860	 6.84273653898458E-02 
1861	 6.83248309353617E-02 
1862	 6.81902183432707E-02 
1863	 6.80522240489382E-02 
1864	 6.79338502746648E-02 
1865	 6.77926925947189E-02 
1866	 6.76506670722537E-02 
1867	 6.74906410049956E-02 
1868	 6.73050301030353E-02 
1869	 6.71201823105375E-02 
1870	 6.69024515274054E-02 
1871	 6.66711527042319E-02 
1872	 6.64228901467873E-02 
1873	 6.61697837878184E-02 
1874	 6.58942279782472E-02 
1875	 6.56017205875145E-02 
1876	 6.52893561778073E-02 
1877	 6.49449722084731E-02 
1878	 6.45709370376964E-02 
1879	 6.42036110533342E-02 
1880	 0.063797717244091 
1881	 6.33533577450516E-02 
1882	 6.29058042047886E-02 
1883	 6.24438506783909E-02 
1884	 0.061937867431196 
1885	 6.14452485786941E-02 
1886	 6.09458715496119E-02 
1887	 0.060405597560905 
1888	 0.059849070539234 
1889	 5.92581888133323E-02 
1890	 5.86702475864501E-02 
1891	 5.80809524154426E-02 
1892	 5.74644711163255E-02 
1893	 0.056878605212066 
1894	 5.63088215887374E-02 
1895	 0.055735463735698 
1896	 5.51555480311171E-02 
1897	 0.0546129931071 
1898	 5.40699719003872E-02 
1899	 5.35272158299881E-02 
1900	 5.30281403699721E-02 
1901	 5.25605261290431E-02 
1902	 0.052113870541497 
1903	 5.17022528961098E-02 
1904	 5.12979657456645E-02 
1905	 5.09010074620187E-02 
1906	 5.05476644160195E-02 
1907	 0.050229027623408 
1908	 0.049930459595939 
1909	 4.96759143266765E-02 
1910	 4.94341742417218E-02 
1911	 4.91971946109088E-02 
1912	 4.89753543058595E-02 
1913	 0.048771099619876 
1914	 4.85844878669172E-02 
1915	 4.84143419560257E-02 
1916	 4.82624760195764E-02 
1917	 4.81249273301144E-02 
1918	 4.79866437577722E-02 
1919	 4.78622887147618E-02 
1920	 4.77381662526837E-02 
1921	 4.76342469863389E-02 
1922	 4.75664022161246E-02 
1923	 4.75100204982584E-02 
1924	 4.74680103739108E-02 
1925	 4.74519632564392E-02 
1926	 0.047432250444513 
1927	 0.047415985370115 
1928	 0.047421291082645 
1929	 4.74216207666423E-02 
1930	 4.74197980396832E-02 
1931	 4.74303386172298E-02 
1932	 4.74409503807597E-02 
1933	 4.74613179705755E-02 
1934	 4.74904974240407E-02 
1935	 4.75207189660343E-02 
1936	 4.75518374813949E-02 
1937	 4.75939885295685E-02 
1938	 4.76426103808723E-02 
1939	 4.76957007310654E-02 
1940	 4.77586395317832E-02 
1941	 4.78196409167664E-02 
1942	 4.78919987256405E-02 
1943	 4.79682397685128E-02 
1944	 4.80453405705685E-02 
1945	 4.81367418543105E-02 
1946	 4.82267270368452E-02 
1947	 4.83167334028902E-02 
1948	 4.84119477887458E-02 
1949	 4.85084632008867E-02 
1950	 4.86117881995476E-02 
1951	 4.87181868711214E-02 
1952	 4.88360596298986E-02 
1953	 4.89488603644248E-02 
1954	 4.90751313638242E-02 
1955	 4.91878546252604E-02 
1956	 4.92996105770629E-02 
1957	 0.049417838444369 
1958	 4.95359062846277E-02 
1959	 4.96586980678407E-02 
1960	 4.97862579658977E-02 
1961	 4.99164798917001E-02 
1962	 5.00519056964431E-02 
1963	 5.01882096949013E-02 
1964	 5.03267716059867E-02 
1965	 5.04677118337446E-02 
1966	 5.06196752862859E-02 
1967	 5.07712634340514E-02 
1968	 5.09215428154225E-02 
1969	 5.10890234813583E-02 
1970	 5.12334624285092E-02 
1971	 5.13572394429133E-02 
1972	 5.14941243511746E-02 
1973	 5.16257527462037E-02 
1974	 5.17585357455143E-02 
1975	 5.18937017443933E-02 
1976	 5.20348700291213E-02 
1977	 5.21786193838657E-02 
1978	 5.23216164261607E-02 
1979	 5.24510581049864E-02 
1980	 5.25964122311441E-02 
1981	 5.27509453459756E-02 
1982	 5.29141771789646E-02 
1983	 0.053064355886639 
1984	 5.32249804955527E-02 
1985	 5.33801537749203E-02 
1986	 5.35288723143696E-02 
1987	 5.36667494164835E-02 
1988	 5.37983891820129E-02 
1989	 5.39365450557559E-02 
1990	 5.40580995454355E-02 
1991	 5.41805623355728E-02 
1992	 5.43317659916199E-02 
1993	 5.45203279132099E-02 
1994	 5.46718004742408E-02 
1995	 5.48257719328158E-02 
1996	 5.49716830078118E-02 
1997	 5.50919445046757E-02 
1998	 5.52278209781876E-02 
1999	 5.53663924462106E-02 
2000	 5.55103555208248E-02 
2001	 5.56565449627078E-02 
2002	 5.58101488424364E-02 
2003	 5.59678541001745E-02 
2004	 5.61343312822301E-02 
2005	 5.62706244252311E-02 
2006	 5.63852952778509E-02 
2007	 5.65141254878761E-02 
2008	 5.66238652840039E-02 
2009	 5.67495531669116E-02 
2010	 0.05689093141897 
2011	 0.057028760871677 
2012	 5.71704051529496E-02 
2013	 5.73093305986116E-02 
2014	 5.74505796913839E-02 
2015	 5.75955220712029E-02 
2016	 5.77220474678726E-02 
2017	 5.78380903147201E-02 
2018	 5.79640962966695E-02 
2019	 5.80863736747417E-02 
2020	 5.82094102036579E-02 
2021	 5.83428044709164E-02 
2022	 5.84638745095574E-02 
2023	 5.85682465886319E-02 
2024	 5.86894511147333E-02 
2025	 5.88103789844741E-02 
2026	 5.89406428675629E-02 
2027	 5.90989241824335E-02 
2028	 5.92356185403494E-02 
2029	 5.93550133474893E-02 
2030	 5.94683029617986E-02 
2031	 5.95708628078129E-02 
2032	 5.96423000477713E-02 
2033	 5.97410621916356E-02 
2034	 5.98462291693318E-02 
2035	 5.99514834535457E-02 
2036	 6.00620111107541E-02 
2037	 0.06017149554439 
2038	 6.02796142774842E-02 
2039	 6.03934013287628E-02 
2040	 6.05174039782259E-02 
2041	 6.06354022138371E-02 
2042	 6.07462895632113E-02 
2043	 6.08578426032418E-02 
2044	 6.09601430572228E-02 
2045	 6.10517382848905E-02 
2046	 6.11450975436084E-02 
2047	 6.12354153287462E-02 
2048	 6.13231990775446E-02 
2049	 6.14057167306786E-02 
2050	 0.061488151522602 
2051	 6.15613813165838E-02 
2052	 6.16478194717178E-02 
2053	 6.17486720352055E-02 
2054	 0.061836414455694 
2055	 6.19287734265165E-02 
2056	 6.20141887684081E-02 
2057	 6.20907790607657E-02 
2058	 6.21459025046475E-02 
2059	 6.22226342844006E-02 
2060	 6.23076986824617E-02 
2061	 6.23844311989877E-02 
2062	 6.24535760060356E-02 
2063	 6.25415689278353E-02 
2064	 6.26434030495883E-02 
2065	 6.27298731009678E-02 
2066	 6.28249558671853E-02 
2067	 6.29174837353872E-02 
2068	 6.29990196435071E-02 
2069	 6.30714198380131E-02 
2070	 6.31517827099906E-02 
2071	 6.32451197334873E-02 
2072	 6.33214194352216E-02 
2073	 0.063388162969565 
2074	 6.34545932386769E-02 
2075	 6.35064740234548E-02 
2076	 6.35801888493431E-02 
2077	 6.36569314751236E-02 
2078	 0.063740418812518 
2079	 6.38532991830572E-02 
2080	 6.39434780482872E-02 
2081	 6.40243242022928E-02 
2082	 6.41033334654521E-02 
2083	 6.41727221531249E-02 
2084	 6.42375865918619E-02 
2085	 6.43129047504761E-02 
2086	 6.43969418748866E-02 
2087	 6.44666040295688E-02 
2088	 6.45371963523436E-02 
2089	 6.45996795270167E-02 
2090	 6.46389297452595E-02 
2091	 6.47023788662357E-02 
2092	 6.47753468486939E-02 
2093	 6.48476470596855E-02 
2094	 6.49331062150217E-02 
2095	 6.50124914267388E-02 
2096	 6.50932653311565E-02 
2097	 6.51681326945524E-02 
2098	 6.52516321875576E-02 
2099	 6.53075385848895E-02 
2100	 0.065374444733612 
2101	 6.54272698237954E-02 
2102	 6.55053790228775E-02 
2103	 6.56112257094444E-02 
2104	 6.56758706180486E-02 
2105	 6.57229063853571E-02 
2106	 6.57924926893334E-02 
2107	 6.58404121753137E-02 
2108	 6.59081215442899E-02 
2109	 6.60187815402415E-02 
2110	 6.61041238489931E-02 
2111	 0.066168171596249 
2112	 6.62435326620617E-02 
2113	 6.63342285820522E-02 
2114	 6.63964484301564E-02 
2115	 6.64845868012814E-02 
2116	 6.65908759950497E-02 
2117	 6.66679689745598E-02 
2118	 0.066750104375506 
2119	 6.68073485240695E-02 
2120	 6.68313460317104E-02 
2121	 6.68716432543753E-02 
2122	 6.68945823960552E-02 
2123	 6.69418778365308E-02 
2124	 6.70115919740456E-02 
2125	 6.70642008778394E-02 
2126	 6.71257503907987E-02 
2127	 6.71791400159388E-02 
2128	 6.72194367378462E-02 
2129	 6.72554527757058E-02 
2130	 6.72831297603489E-02 
2131	 6.73204602534833E-02 
2132	 6.73507076317314E-02 
2133	 6.73711582008231E-02 
2134	 6.74031016965628E-02 
2135	 6.74455132758828E-02 
2136	 6.74729960371047E-02 
2137	 6.74936655508663E-02 
2138	 6.75194536486265E-02 
2139	 6.75488396804998E-02 
2140	 6.75627835770787E-02 
2141	 6.75728989301725E-02 
2142	 6.75804246388268E-02 
2143	 6.75649763357526E-02 
2144	 6.75635900757818E-02 
2145	 6.75833584084656E-02 
2146	 6.75863200885437E-02 
2147	 6.76015424223858E-02 
2148	 6.75766752869556E-02 
2149	 6.75555586159839E-02 
2150	 6.75128458150607E-02 
2151	 6.74865594466428E-02 
2152	 6.74552049418032E-02 
2153	 6.74365329902536E-02 
2154	 6.74266500420851E-02 
2155	 6.74201395727975E-02 
2156	 6.74334185393469E-02 
2157	 6.74196620319041E-02 
2158	 0.067408203165585 
2159	 6.73755216315312E-02 
2160	 6.73038715455772E-02 
2161	 6.72516713583109E-02 
2162	 6.72013333468135E-02 
2163	 6.71467545206256E-02 
2164	 6.71025477787845E-02 
2165	 6.70456138297673E-02 
2166	 0.066986625562515 
2167	 6.69110828580316E-02 
2168	 0.066860109961504 
2169	 6.68134500922766E-02 
2170	 6.67771999120677E-02 
2171	 6.67611702629538E-02 
2172	 0.066732640886389 
2173	 6.67111327400794E-02 
2174	 6.66754947691413E-02 
2175	 6.66263646909998E-02 
2176	 6.65854591574275E-02 
2177	 6.65451732173826E-02 
2178	 6.64973862917948E-02 
2179	 6.64412741091367E-02 
2180	 6.63986585395793E-02 
2181	 6.63534853412805E-02 
2182	 6.63128024550036E-02 
2183	 6.62924160064809E-02 
2184	 6.62701485043417E-02 
2185	 6.62237334475689E-02 
2186	 6.61581214932441E-02 
2187	 6.61060461416006E-02 
2188	 6.60379584298985E-02 
2189	 6.59905500515815E-02 
2190	 6.59677700736997E-02 
2191	 6.59239770783334E-02 
2192	 6.58693545875319E-02 
2193	 6.58259000108872E-02 
2194	 6.57749903902105E-02 
2195	 6.57362989257163E-02 
2196	 6.57055226270243E-02 
2197	 6.56890425999109E-02 
2198	 6.57036738979108E-02 
2199	 6.56857277683143E-02 
2200	 6.56543903041685E-02 
2201	 6.56331007542926E-02 
2202	 6.55881897076272E-02 
2203	 6.55574839572011E-02 
2204	 6.55370784840368E-02 
2205	 0.065542717642709 
2206	 6.55348504610277E-02 
2207	 6.55183962856623E-02 
2208	 6.55155172047676E-02 
2209	 6.55209547422852E-02 
2210	 6.55299053330322E-02 
2211	 6.55580789737252E-02 
2212	 6.55614172206832E-02 
2213	 6.55557194359836E-02 
2214	 6.55490214707428E-02 
2215	 6.55182377350013E-02 
2216	 6.55105235563678E-02 
2217	 6.55165292233885E-02 
2218	 6.55208346215431E-02 
2219	 6.55309561057987E-02 
2220	 6.55421223029648E-02 
2221	 6.55534156255485E-02 
2222	 6.55746490856588E-02 
2223	 6.55806999888138E-02 
2224	 6.55876385738755E-02 
2225	 6.55850155127831E-02 
2226	 6.55651756549274E-02 
2227	 6.55593853894397E-02 
2228	 6.55458773301244E-02 
2229	 6.55629038036379E-02 
2230	 6.56000378762557E-02 
2231	 6.56280093602126E-02 
2232	 6.56783013098781E-02 
2233	 6.57093747759202E-02 
2234	 6.57379706419205E-02 
2235	 6.57436654559881E-02 
2236	 6.57318520712415E-02 
2237	 6.57239922454174E-02 
2238	 6.56870004818352E-02 
2239	 6.56708499220634E-02 
2240	 6.56685865522726E-02 
2241	 6.56700162599513E-02 
2242	 6.56933637304844E-02 
2243	 0.065692132316232 
2244	 6.56906670270648E-02 
2245	 6.56624551955259E-02 
2246	 6.56475246504057E-02 
2247	 6.56382437842667E-02 
2248	 6.56392524894555E-02 
2249	 6.56639223287117E-02 
2250	 6.56767394890989E-02 
2251	 6.56953721544566E-02 
2252	 6.56889469195486E-02 
2253	 6.56787107620534E-02 
2254	 6.56614549153681E-02 
2255	 6.56010593090377E-02 
2256	 6.55921238650611E-02 
2257	 6.56183984312784E-02 
2258	 6.56145220431197E-02 
2259	 6.56118196888891E-02 
2260	 6.56162386055205E-02 
2261	 6.55989722040168E-02 
2262	 6.56110375943678E-02 
2263	 6.56633754732471E-02 
2264	 6.56955004295125E-02 
2265	 6.57431271605658E-02 
2266	 6.57531923506324E-02 
2267	 6.57289160860134E-02 
2268	 0.065717789585034 
2269	 6.56857213268293E-02 
2270	 6.56597029279047E-02 
2271	 6.56422708243886E-02 
2272	 6.56543776904447E-02 
2273	 6.56931760912526E-02 
2274	 6.56920335311085E-02 
2275	 6.56858634612845E-02 
2276	 6.56763133418554E-02 
2277	 6.56691539417582E-02 
2278	 6.56331986158575E-02 
2279	 6.56334595081158E-02 
2280	 6.56808666318646E-02 
2281	 6.56735227293717E-02 
2282	 6.56320657303388E-02 
2283	 6.56294918482661E-02 
2284	 6.56219764340534E-02 
2285	 6.56109678900373E-02 
2286	 6.56240091512481E-02 
2287	 6.56266260841074E-02 
2288	 6.55998841016192E-02 
2289	 6.56040240006145E-02 
2290	 6.56394483812965E-02 
2291	 6.56695716592434E-02 
2292	 6.57247092822424E-02 
2293	 6.57427842259209E-02 
2294	 6.57510542874379E-02 
2295	 6.57330895462662E-02 
2296	 6.56769046001746E-02 
2297	 6.56202125090266E-02 
2298	 6.55216152568863E-02 
2299	 6.54729293004374E-02 
2300	 6.54999069870382E-02 
2301	 0.065502415090409 
2302	 6.55053962740378E-02 
2303	 6.55387151394721E-02 
2304	 6.55093478628865E-02 
2305	 6.54413445693968E-02 
2306	 6.54120699484309E-02 
2307	 6.54103108209507E-02 
2308	 0.065374087279635 
2309	 6.53361539555683E-02 
2310	 6.52852725206704E-02 
2311	 6.51948677472178E-02 
2312	 6.51442536216161E-02 
2313	 0.065101528089625 
2314	 6.50767483375838E-02 
2315	 6.50782740975472E-02 
2316	 6.50851093096586E-02 
2317	 6.51254458727226E-02 
2318	 6.51174740035066E-02 
2319	 6.50759671936205E-02 
2320	 6.50683383983083E-02 
2321	 6.50491743890851E-02 
2322	 6.50376462455931E-02 
2323	 6.50936383325361E-02 
2324	 6.50857652785544E-02 
2325	 6.49973764582918E-02 
2326	 6.49606931290014E-02 
2327	 6.49140421363386E-02 
2328	 6.49032671706796E-02 
2329	 6.49126064685704E-02 
2330	 6.49411535922154E-02 
2331	 0.064962241432038 
2332	 6.49313915949707E-02 
2333	 6.48786273364993E-02 
2334	 6.48574974383703E-02 
2335	 6.48381894627339E-02 
2336	 6.47597440710957E-02 
2337	 0.064709914077583 
2338	 6.46952283727289E-02 
2339	 6.46509792681294E-02 
2340	 6.46013337047524E-02 
2341	 6.45481262341391E-02 
2342	 6.45325104711493E-02 
2343	 6.45131747127661E-02 
2344	 6.44735719593949E-02 
2345	 6.44281592728972E-02 
2346	 6.43561987043435E-02 
2347	 6.42863218477332E-02 
2348	 6.42107249356502E-02 
2349	 6.41838700968615E-02 
2350	 6.41727667382286E-02 
2351	 6.41547032801516E-02 
2352	 6.41796986236532E-02 
2353	 6.41327394548146E-02 
2354	 6.40602986588654E-02 
2355	 6.39928556560165E-02 
2356	 6.38800273237159E-02 
2357	 6.37885166578299E-02 
2358	 6.36816125557149E-02 
2359	 6.36086099430445E-02 
2360	 6.35543548533458E-02 
2361	 6.35164396139471E-02 
2362	 6.35347294343909E-02 
2363	 6.35017385949583E-02 
2364	 6.34650289750783E-02 
2365	 6.34025448289993E-02 
2366	 6.32814091154455E-02 
2367	 6.31966524544004E-02 
2368	 6.31459900216156E-02 
2369	 6.30494407673145E-02 
2370	 0.062928307518629 
2371	 6.28084492523229E-02 
2372	 6.27684209665469E-02 
2373	 6.26772944392148E-02 
2374	 6.26455143086219E-02 
2375	 0.062699182838295 
2376	 6.26222555025064E-02 
2377	 6.25375930081607E-02 
2378	 6.24740452863945E-02 
2379	 6.23974935531722E-02 
2380	 6.23653386327374E-02 
2381	 6.22745937517401E-02 
2382	 6.22004900477411E-02 
2383	 6.21451945228535E-02 
2384	 6.20039591407959E-02 
2385	 6.19627199149029E-02 
2386	 6.19795086508767E-02 
2387	 6.18871938061502E-02 
2388	 0.061845712059062 
2389	 6.18120572999447E-02 
2390	 6.16451437486073E-02 
2391	 6.15190028395094E-02 
2392	 6.14821808061191E-02 
2393	 6.13683055335423E-02 
2394	 6.13319685398441E-02 
2395	 6.13599637382686E-02 
2396	 6.12174136287092E-02 
2397	 6.11421402857387E-02 
2398	 6.10772479309659E-02 
2399	 6.08931608357657E-02 
2400	 6.08242370290098E-02 
2401	 6.07810310259713E-02 
2402	 6.07046226702218E-02 
2403	 6.07389901338361E-02 
2404	 6.07566280556135E-02 
2405	 6.06445710813922E-02 
2406	 6.05895576526721E-02 
2407	 0.060481402371548 
2408	 6.02370981873791E-02 
2409	 6.00526380550775E-02 
2410	 5.98552660918137E-02 
2411	 0.059684096080286 
2412	 5.96269878162239E-02 
2413	 5.95840638304385E-02 
2414	 5.95228972460164E-02 
2415	 5.94053283120216E-02 
2416	 5.93314628895412E-02 
2417	 5.92909681484235E-02 
2418	 5.91895502901961E-02 
2419	 5.91005311318351E-02 
2420	 5.90132246104156E-02 
2421	 5.88347808588123E-02 
2422	 0.058757579742549 
2423	 5.87919764079348E-02 
2424	 5.86798725933501E-02 
2425	 5.84921351364757E-02 
2426	 5.83960133213898E-02 
2427	 5.82524278924035E-02 
2428	 5.81681158563753E-02 
2429	 5.82132389605999E-02 
2430	 5.81704487929422E-02 
2431	 5.81247770680844E-02 
2432	 5.80175657180838E-02 
2433	 5.78018230612687E-02 
2434	 5.77235141067244E-02 
2435	 5.76613022756593E-02 
2436	 0.057575764564496 
2437	 5.76186743145282E-02 
2438	 0.057507661786784 
2439	 5.72388570105315E-02 
2440	 5.71166826886918E-02 
2441	 5.69818849957779E-02 
2442	 5.69575022447093E-02 
2443	 5.71326454731846E-02 
2444	 5.71060631109749E-02 
2445	 5.70236940004492E-02 
2446	 5.69302853707249E-02 
2447	 5.67157033362775E-02 
2448	 5.65320477624535E-02 
2449	 5.63829174417872E-02 
2450	 5.62564982650352E-02 
2451	 5.61224796273621E-02 
2452	 5.60090328167398E-02 
2453	 5.59102101805306E-02 
2454	 5.57661616257311E-02 
2455	 5.55400120949937E-02 
2456	 5.53955190199185E-02 
2457	 5.53510328563165E-02 
2458	 5.52872581509097E-02 
2459	 5.52457460690785E-02 
2460	 5.52483491929815E-02 
2461	 0.055270156440954 
2462	 5.51531239663923E-02 
2463	 5.50111886367792E-02 
2464	 5.49279094829696E-02 
2465	 5.47876819308988E-02 
2466	 5.46973728941977E-02 
2467	 5.46897471428998E-02 
2468	 5.46579501358879E-02 
2469	 5.45271082167727E-02 
2470	 5.45102614938462E-02 
2471	 5.44847502678661E-02 
2472	 5.43077418194119E-02 
2473	 5.41818547762353E-02 
2474	 5.39419694460938E-02 
2475	 5.36886776657231E-02 
2476	 5.35351853013868E-02 
2477	 5.34484895742692E-02 
2478	 5.35185521876166E-02 
2479	 5.35794400149967E-02 
2480	 0.053547319050437 
2481	 5.34569852959891E-02 
2482	 5.32417010396226E-02 
2483	 5.30171303824725E-02 
2484	 5.28100585406677E-02 
2485	 5.26476411266887E-02 
2486	 5.24766748572948E-02 
2487	 5.22954479656719E-02 
2488	 5.22403984033966E-02 
2489	 5.22866750172641E-02 
2490	 5.23620613187498E-02 
2491	 5.23318415375625E-02 
2492	 5.23914344078014E-02 
2493	 5.23660270991162E-02 
2494	 5.21006339490965E-02 
2495	 5.20055020508125E-02 
2496	 5.19686442087357E-02 
2497	 5.18475427555777E-02 
2498	 5.17614693433651E-02 
2499	 5.17263431941422E-02 
2500	 5.17108490729441E-02 
