Wavelength	MM_3400000.asd
350	 5.53880684035702E-02 
351	 5.59148111826129E-02 
352	 5.09915646192936E-02 
353	 4.37473860667045E-02 
354	 4.87913414716782E-02 
355	 5.22517215722054E-02 
356	 5.33187393885543E-02 
357	 5.47475411484279E-02 
358	 5.98211578375424E-02 
359	 5.81224789181933E-02 
360	 5.27117687290528E-02 
361	 5.40507170001474E-02 
362	 5.00486524148228E-02 
363	 4.89648928867873E-02 
364	 5.36883774034574E-02 
365	 5.53372463978446E-02 
366	 0.055953746312708 
367	 5.44561484047771E-02 
368	 5.12464133903821E-02 
369	 5.49987281464227E-02 
370	 5.52765887843066E-02 
371	 0.053169046288685 
372	 5.68425015764351E-02 
373	 5.61587083431394E-02 
374	 5.54513791032187E-02 
375	 5.73405711636751E-02 
376	 5.84444475812891E-02 
377	 5.75607536306166E-02 
378	 0.055725489123066 
379	 5.48898012918353E-02 
380	 5.74536858237447E-02 
381	 5.76342255559445E-02 
382	 5.68426847172521E-02 
383	 6.10865216692481E-02 
384	 5.92684446989022E-02 
385	 5.80922429734984E-02 
386	 6.09513138025875E-02 
387	 6.00026145492722E-02 
388	 6.08613525705593E-02 
389	 0.062063476117753 
390	 6.10076891767735E-02 
391	 6.05304629420481E-02 
392	 6.09923240855563E-02 
393	 6.24468934725671E-02 
394	 6.45990279788781E-02 
395	 6.38428817030831E-02 
396	 6.29794457553977E-02 
397	 6.42289375805171E-02 
398	 6.67253109170687E-02 
399	 6.64951385808457E-02 
400	 6.50414340950359E-02 
401	 6.53307991968514E-02 
402	 6.55412464770813E-02 
403	 6.52226379673731E-02 
404	 0.064482279903597 
405	 6.39083026410892E-02 
406	 6.51445873528891E-02 
407	 6.67773707991437E-02 
408	 6.69232714385253E-02 
409	 6.35137296963046E-02 
410	 6.32280505123526E-02 
411	 6.50338552871161E-02 
412	 0.064807360504593 
413	 6.53236163821468E-02 
414	 6.53144193095712E-02 
415	 6.46969551482768E-02 
416	 6.52962346359554E-02 
417	 6.53635799721312E-02 
418	 6.54371226932826E-02 
419	 6.60530621137483E-02 
420	 6.59023237152284E-02 
421	 0.064970401416896 
422	 6.46075513766445E-02 
423	 6.64984317817119E-02 
424	 6.62838647104599E-02 
425	 6.53780982109747E-02 
426	 0.065241376296607 
427	 6.61562280550382E-02 
428	 6.60437001179461E-02 
429	 6.54314533318982E-02 
430	 6.54461877104808E-02 
431	 6.55160586003507E-02 
432	 6.51597582112526E-02 
433	 6.47700266005973E-02 
434	 0.065467762526415 
435	 6.54685980802314E-02 
436	 6.52687938696617E-02 
437	 6.53623794162362E-02 
438	 6.49448274378688E-02 
439	 6.49692173699909E-02 
440	 6.53218725006599E-02 
441	 0.065407051018771 
442	 6.54985841508233E-02 
443	 6.53942226447568E-02 
444	 6.51969447866379E-02 
445	 6.55445184592174E-02 
446	 6.54827464246651E-02 
447	 0.065225225623199 
448	 6.52271603853311E-02 
449	 6.54249807335554E-02 
450	 6.56162889706253E-02 
451	 6.56612677983208E-02 
452	 6.54989081253975E-02 
453	 6.52942791268102E-02 
454	 6.53657256579362E-02 
455	 6.57021754002405E-02 
456	 6.54445521536932E-02 
457	 6.51931450074878E-02 
458	 6.50400595516053E-02 
459	 6.48941023980244E-02 
460	 6.50748973722198E-02 
461	 0.06521794326443 
462	 6.51363351577818E-02 
463	 6.49653456959313E-02 
464	 6.49727763149567E-02 
465	 6.51231656450888E-02 
466	 6.52713156360341E-02 
467	 6.52538327754564E-02 
468	 6.53055948240692E-02 
469	 6.53104894380994E-02 
470	 6.49232096573832E-02 
471	 6.49639973689854E-02 
472	 6.50676943555284E-02 
473	 6.49186187417605E-02 
474	 6.47830935466701E-02 
475	 6.47704132884093E-02 
476	 6.48277787028285E-02 
477	 6.48395251732094E-02 
478	 6.49134497322314E-02 
479	 6.48769808089971E-02 
480	 0.064758266029684 
481	 6.48885772645762E-02 
482	 0.065040237280278 
483	 6.50906660549389E-02 
484	 6.50120980274443E-02 
485	 6.50461791278916E-02 
486	 6.49080738140225E-02 
487	 6.47135273011957E-02 
488	 6.48748186520231E-02 
489	 6.48108620536825E-02 
490	 6.47659246775192E-02 
491	 6.49047916417541E-02 
492	 6.48324987435536E-02 
493	 6.48114091878053E-02 
494	 6.47622653480081E-02 
495	 6.45375064767119E-02 
496	 6.47516414143565E-02 
497	 0.06488105875906 
498	 6.47314621410365E-02 
499	 0.064750363785274 
500	 0.064768270701944 
501	 0.064716579427155 
502	 6.46176847390595E-02 
503	 6.48092507490585E-02 
504	 6.48132737296965E-02 
505	 6.46292847327978E-02 
506	 6.46915056622922E-02 
507	 6.46652314866494E-02 
508	 6.46206020762063E-02 
509	 6.46381523479786E-02 
510	 6.46121525246894E-02 
511	 6.46787133043453E-02 
512	 6.46987180514958E-02 
513	 6.44534512986974E-02 
514	 6.44035856447514E-02 
515	 6.44707869313583E-02 
516	 6.45418263414835E-02 
517	 6.45618157165919E-02 
518	 6.45039577737211E-02 
519	 6.44686511733794E-02 
520	 6.45425227087722E-02 
521	 6.45102153536597E-02 
522	 6.44152008208646E-02 
523	 6.43410011866445E-02 
524	 6.43915235130334E-02 
525	 6.43760875976958E-02 
526	 6.43023495543892E-02 
527	 6.42285942923057E-02 
528	 6.42094182670892E-02 
529	 6.42589924402778E-02 
530	 6.42926371202301E-02 
531	 6.41892927089007E-02 
532	 6.42141116517738E-02 
533	 6.42910345385198E-02 
534	 6.43194182948644E-02 
535	 6.42355719439282E-02 
536	 6.42294244883683E-02 
537	 6.43073973040375E-02 
538	 6.43876266042734E-02 
539	 6.43691249015583E-02 
540	 0.06428698509657 
541	 6.42350496680948E-02 
542	 6.43706399045393E-02 
543	 6.44050525835129E-02 
544	 6.43648136954875E-02 
545	 6.43583153518431E-02 
546	 6.44427416262816E-02 
547	 6.44962274341586E-02 
548	 6.44934893259326E-02 
549	 6.44958313768291E-02 
550	 6.45102562590063E-02 
551	 6.45097980206908E-02 
552	 6.45012550758796E-02 
553	 6.46106778581741E-02 
554	 6.46583631724261E-02 
555	 6.46710967057088E-02 
556	 6.47713516627083E-02 
557	 6.48787313368261E-02 
558	 6.49476736380541E-02 
559	 6.50124076315445E-02 
560	 6.52572299751965E-02 
561	 6.53170112530236E-02 
562	 6.53002252708683E-02 
563	 0.065431452199025 
564	 6.55789084177161E-02 
565	 6.57008667439972E-02 
566	 6.57756072398345E-02 
567	 6.58011768403304E-02 
568	 0.066000985048638 
569	 6.62458804225676E-02 
570	 6.64083902872862E-02 
571	 6.66829728996222E-02 
572	 6.69416316317516E-02 
573	 6.71556274389847E-02 
574	 6.73702744323285E-02 
575	 6.75987273307422E-02 
576	 6.78160269694057E-02 
577	 6.80284644958537E-02 
578	 6.83400452095625E-02 
579	 6.85838192075946E-02 
580	 6.87822859299042E-02 
581	 6.90355402354878E-02 
582	 6.93614036124781E-02 
583	 6.96175517865125E-02 
584	 6.97990011198607E-02 
585	 0.070114227350483 
586	 7.04298029241422E-02 
587	 0.070742321611144 
588	 7.10739744257907E-02 
589	 7.13932992811386E-02 
590	 7.17686182585771E-02 
591	 7.21794350834723E-02 
592	 7.25291960144193E-02 
593	 7.29171064282269E-02 
594	 0.073302153424071 
595	 0.073647037325383 
596	 7.40051453240605E-02 
597	 7.43064169642014E-02 
598	 7.45473237727181E-02 
599	 7.47674755593476E-02 
600	 7.50162007893612E-02 
601	 7.52815514217781E-02 
602	 7.55351655024159E-02 
603	 7.57318961732533E-02 
604	 7.59543351497551E-02 
605	 7.62160961826533E-02 
606	 7.64911850075413E-02 
607	 7.66876355554806E-02 
608	 7.69151492639855E-02 
609	 7.71999886963302E-02 
610	 7.74596778586137E-02 
611	 7.76013502515723E-02 
612	 7.77390349269349E-02 
613	 7.79561490530275E-02 
614	 7.80479313370293E-02 
615	 7.81198993687608E-02 
616	 7.82229592060803E-02 
617	 7.83631622753174E-02 
618	 7.85180588557177E-02 
619	 7.86188957254939E-02 
620	 7.86614063662048E-02 
621	 7.87972429461555E-02 
622	 7.88932586013553E-02 
623	 7.89369580327345E-02 
624	 7.89745092000143E-02 
625	 7.90972582483684E-02 
626	 7.92065213490496E-02 
627	 7.92672814617078E-02 
628	 0.079349026151568 
629	 7.93945088395069E-02 
630	 7.94392052099451E-02 
631	 7.95186181831914E-02 
632	 7.95715937844153E-02 
633	 7.95932764244469E-02 
634	 7.96237558559136E-02 
635	 7.97285706286416E-02 
636	 7.97801424483599E-02 
637	 7.98092344718686E-02 
638	 0.079855339004285 
639	 7.99038998737163E-02 
640	 7.99987645627585E-02 
641	 8.00943864716781E-02 
642	 8.01211451088858E-02 
643	 0.080178391728622 
644	 8.02350160383913E-02 
645	 8.02805329421363E-02 
646	 8.03529354758875E-02 
647	 8.04098464101547E-02 
648	 8.04632875851973E-02 
649	 8.05317940663299E-02 
650	 8.05872754023588E-02 
651	 8.06678540209006E-02 
652	 0.080762457539133 
653	 8.08211422691705E-02 
654	 8.09212975922217E-02 
655	 8.09962495486934E-02 
656	 8.10175986058053E-02 
657	 0.081118188619457 
658	 8.12227347206864E-02 
659	 8.13026564629996E-02 
660	 8.13586989170814E-02 
661	 0.08144516391341 
662	 8.15452772934724E-02 
663	 8.16556559303463E-02 
664	 8.18059552913696E-02 
665	 8.18738154088447E-02 
666	 0.081922105186499 
667	 8.20329266039811E-02 
668	 8.21183785000907E-02 
669	 8.22528934454755E-02 
670	 8.24046868171348E-02 
671	 8.24615557162776E-02 
672	 0.082538504049339 
673	 8.26800225693151E-02 
674	 0.082871005570295 
675	 8.29948282105223E-02 
676	 8.30632231874558E-02 
677	 8.31352680772749E-02 
678	 8.32768472562518E-02 
679	 8.34150521707464E-02 
680	 8.35334286282908E-02 
681	 8.36375347163211E-02 
682	 8.37542130904867E-02 
683	 8.39077952242056E-02 
684	 8.40528931251168E-02 
685	 8.41599362108814E-02 
686	 8.43300004132442E-02 
687	 8.44852417449708E-02 
688	 8.46104571069254E-02 
689	 8.47373470498543E-02 
690	 8.48692520467921E-02 
691	 8.50134667296407E-02 
692	 8.51747183428264E-02 
693	 8.53595131527013E-02 
694	 8.54954175739115E-02 
695	 8.56185537358859E-02 
696	 8.57817171412449E-02 
697	 8.58775117143652E-02 
698	 0.086017099930965 
699	 8.62009944000972E-02 
700	 8.63070351734513E-02 
701	 8.64757328392831E-02 
702	 8.66395625235882E-02 
703	 8.67409837345538E-02 
704	 8.68720485092096E-02 
705	 8.70318718711528E-02 
706	 0.087193477361373 
707	 8.73252570868332E-02 
708	 8.74992686437516E-02 
709	 8.76841507287715E-02 
710	 8.78328735004398E-02 
711	 8.78890037368249E-02 
712	 8.80615606167073E-02 
713	 8.82430981510607E-02 
714	 8.83125946031623E-02 
715	 8.84632030249847E-02 
716	 8.86060187625989E-02 
717	 8.87141930006232E-02 
718	 8.88142270322449E-02 
719	 8.89543340931567E-02 
720	 8.91010252505863E-02 
721	 8.92187141729337E-02 
722	 8.92865265665442E-02 
723	 8.94046538260912E-02 
724	 8.95376812611968E-02 
725	 8.96212925847185E-02 
726	 8.97082722441019E-02 
727	 8.97993187923088E-02 
728	 8.98859719782939E-02 
729	 8.99548992468822E-02 
730	 9.00364200244081E-02 
731	 9.01044453399866E-02 
732	 9.01528550500302E-02 
733	 9.02534107028066E-02 
734	 9.03138508392574E-02 
735	 9.03519312070463E-02 
736	 9.04155147968416E-02 
737	 9.04311388516734E-02 
738	 9.04438026970204E-02 
739	 9.04825336092391E-02 
740	 9.05475211806877E-02 
741	 9.05922399786223E-02 
742	 9.06054200201999E-02 
743	 9.05949232772149E-02 
744	 9.05932184627753E-02 
745	 9.05869251723313E-02 
746	 0.090576060178696 
747	 0.090563841551643 
748	 9.05309920160763E-02 
749	 9.05031859875171E-02 
750	 9.04920478353656E-02 
751	 9.04870894675093E-02 
752	 9.04631827495568E-02 
753	 9.04175604267879E-02 
754	 9.03597883777287E-02 
755	 9.03117990306617E-02 
756	 0.090292041684886 
757	 9.02712309784948E-02 
758	 9.02056627942055E-02 
759	 9.01497494605314E-02 
760	 9.00732293700608E-02 
761	 0.089989395250486 
762	 8.99725033733262E-02 
763	 8.99190549796944E-02 
764	 8.98284338174391E-02 
765	 8.97327202173826E-02 
766	 8.96828600318826E-02 
767	 8.96214368692436E-02 
768	 8.95341720170977E-02 
769	 8.94326454676698E-02 
770	 8.93353309878625E-02 
771	 8.92405755747074E-02 
772	 8.91489069657074E-02 
773	 8.90660660775665E-02 
774	 8.89945695306453E-02 
775	 8.89242245065501E-02 
776	 8.88404323699635E-02 
777	 8.87225840397638E-02 
778	 8.86024200455255E-02 
779	 8.85030560525785E-02 
780	 8.84328610722326E-02 
781	 8.83441424817299E-02 
782	 8.82545986307702E-02 
783	 8.81606044275686E-02 
784	 0.08803416710171 
785	 8.79286957670999E-02 
786	 8.78488013058859E-02 
787	 8.77777406537709E-02 
788	 8.76729202322676E-02 
789	 0.087571964661093 
790	 8.74658978667029E-02 
791	 8.73423049918973E-02 
792	 0.087263613743194 
793	 8.71833092676745E-02 
794	 8.70831965223447E-02 
795	 8.69779869403412E-02 
796	 8.69099900839558E-02 
797	 8.68305551487543E-02 
798	 8.67186758362565E-02 
799	 8.66302132657624E-02 
800	 0.086540226896924 
801	 8.64531014896551E-02 
802	 8.63768746259399E-02 
803	 8.63036062653563E-02 
804	 0.08622471654333 
805	 8.61406196308584E-02 
806	 8.60572739998861E-02 
807	 8.59727120170846E-02 
808	 8.58781755108357E-02 
809	 8.57758018446509E-02 
810	 8.56824130496185E-02 
811	 8.56279490332778E-02 
812	 8.55783336616971E-02 
813	 8.55014379855297E-02 
814	 8.54112684981921E-02 
815	 8.53223756949771E-02 
816	 8.52506802662033E-02 
817	 8.52018796033295E-02 
818	 8.51317232828656E-02 
819	 0.08507984220208 
820	 8.50355097123243E-02 
821	 8.49487480758756E-02 
822	 8.48811248088321E-02 
823	 8.48290900844582E-02 
824	 8.47782404820785E-02 
825	 8.47135219236489E-02 
826	 8.46634165899318E-02 
827	 8.46166667237203E-02 
828	 8.45642474068867E-02 
829	 8.45459765732168E-02 
830	 8.44837673250174E-02 
831	 8.44097642184454E-02 
832	 8.43910586755744E-02 
833	 8.43397487343558E-02 
834	 8.43126618922274E-02 
835	 8.43075898782742E-02 
836	 8.42638096201352E-02 
837	 8.42352542414176E-02 
838	 8.41957432021305E-02 
839	 8.41400306134559E-02 
840	 8.41198683688177E-02 
841	 8.40524996977677E-02 
842	 8.40161345855364E-02 
843	 8.40655632805509E-02 
844	 8.40401469828389E-02 
845	 8.40296431232684E-02 
846	 8.40225976195755E-02 
847	 8.39798790208354E-02 
848	 8.39889622356563E-02 
849	 8.39788572544302E-02 
850	 8.39298575170156E-02 
851	 8.38786563748041E-02 
852	 8.38742686555854E-02 
853	 8.38867088082397E-02 
854	 8.38927276328359E-02 
855	 0.083898002059406 
856	 8.38953155429654E-02 
857	 8.39059973384028E-02 
858	 8.39347243092745E-02 
859	 8.39278713174261E-02 
860	 8.39109463431289E-02 
861	 8.39072932837729E-02 
862	 8.39267857028562E-02 
863	 0.083924141724967 
864	 8.39252236736203E-02 
865	 8.39358106349956E-02 
866	 0.083950719251237 
867	 8.39901439811969E-02 
868	 8.40445890640802E-02 
869	 8.40768330923582E-02 
870	 8.40388115740182E-02 
871	 8.40696974829675E-02 
872	 0.084123453144207 
873	 8.41561750536897E-02 
874	 8.41807193892253E-02 
875	 8.41806682584569E-02 
876	 8.42196317002127E-02 
877	 8.43092730786336E-02 
878	 8.42657837789612E-02 
879	 8.43246431482036E-02 
880	 8.44240629367743E-02 
881	 8.44503035332081E-02 
882	 8.45483725771835E-02 
883	 8.46216471257077E-02 
884	 0.08464110584301 
885	 8.46338677901154E-02 
886	 8.46839066395229E-02 
887	 8.47370714740474E-02 
888	 0.084772073812949 
889	 8.48080073319035E-02 
890	 0.084871908268302 
891	 8.49400056233334E-02 
892	 8.50036873575151E-02 
893	 0.085079088175093 
894	 8.50956822687646E-02 
895	 8.51214185354974E-02 
896	 8.52055104674948E-02 
897	 8.53137426074982E-02 
898	 8.53995092461975E-02 
899	 8.54765327964931E-02 
900	 0.085555883934032 
901	 8.55883002479227E-02 
902	 8.56420623812929E-02 
903	 8.57196149614829E-02 
904	 8.58047790522468E-02 
905	 8.59035177419544E-02 
906	 0.086064741643714 
907	 0.086184068316635 
908	 8.61590034803153E-02 
909	 8.62747412007679E-02 
910	 8.63879997817478E-02 
911	 8.64882284517292E-02 
912	 8.66399796763895E-02 
913	 8.66887318924984E-02 
914	 8.67635672965963E-02 
915	 8.68796453541313E-02 
916	 8.69385330524246E-02 
917	 0.086972307734559 
918	 8.71014132270386E-02 
919	 8.72963240336729E-02 
920	 8.73619234624554E-02 
921	 8.74146304886448E-02 
922	 8.75225642392207E-02 
923	 8.76786983826927E-02 
924	 8.77833292473504E-02 
925	 8.78600514919449E-02 
926	 8.79477980400623E-02 
927	 8.80436221084222E-02 
928	 8.80602117791267E-02 
929	 8.82867040457531E-02 
930	 8.85303415021801E-02 
931	 0.088616107706984 
932	 8.87052611596821E-02 
933	 8.88371395431455E-02 
934	 8.89824855205189E-02 
935	 8.91136199337453E-02 
936	 0.089296534729895 
937	 8.93602056518646E-02 
938	 8.94025760543489E-02 
939	 8.95612358383663E-02 
940	 0.089774994650222 
941	 0.089947009152552 
942	 9.01043170504696E-02 
943	 9.02892132855288E-02 
944	 9.03780995719498E-02 
945	 9.04852044294544E-02 
946	 0.090589147280228 
947	 9.06478222562944E-02 
948	 9.08347821698269E-02 
949	 0.090952594307805 
950	 9.10320402863678E-02 
951	 9.12079714737961E-02 
952	 9.14692294665534E-02 
953	 9.16288847441251E-02 
954	 9.17105112336333E-02 
955	 9.18546038001693E-02 
956	 9.20844538875019E-02 
957	 9.22286457525351E-02 
958	 9.23036579538914E-02 
959	 0.092436438705984 
960	 9.26133930429361E-02 
961	 9.27620697889435E-02 
962	 9.29082561179732E-02 
963	 9.31058700188115E-02 
964	 9.31432558129442E-02 
965	 9.33394098815415E-02 
966	 9.35978029469867E-02 
967	 9.36235542530857E-02 
968	 9.38686168588522E-02 
969	 0.094000462146388 
970	 0.094011938014113 
971	 9.41277014560116E-02 
972	 9.42920734490312E-02 
973	 9.44901201746802E-02 
974	 9.46660982817447E-02 
975	 9.47696798359108E-02 
976	 9.49279775578388E-02 
977	 0.095085773227683 
978	 9.51862053424864E-02 
979	 9.52285783078383E-02 
980	 9.54521174300162E-02 
981	 9.56985495915375E-02 
982	 9.58680902901452E-02 
983	 9.59493946973301E-02 
984	 0.096054420216681 
985	 9.61603453200747E-02 
986	 9.63064115121017E-02 
987	 9.65198501501337E-02 
988	 9.65878832206235E-02 
989	 0.096710164309464 
990	 9.68310801182508E-02 
991	 0.096835839073434 
992	 9.70211276345001E-02 
993	 9.71267999291098E-02 
994	 9.72210822199449E-02 
995	 9.74310281010169E-02 
996	 9.74316847708573E-02 
997	 9.76324423456418E-02 
998	 9.78356805917684E-02 
999	 9.77961419487883E-02 
1000	 9.80102187740157E-02 
1001	 9.68566408226014E-02 
1002	 9.69137061370356E-02 
1003	 9.69912396861402E-02 
1004	 9.70899941273977E-02 
1005	 9.72321711314524E-02 
1006	 9.73140010557507E-02 
1007	 9.73822440593028E-02 
1008	 9.74377608310957E-02 
1009	 9.75173707229171E-02 
1010	 9.75625155736693E-02 
1011	 9.76516064862435E-02 
1012	 9.78098499399305E-02 
1013	 9.78953145925931E-02 
1014	 0.09800256137386 
1015	 9.81418169748015E-02 
1016	 0.098178525462117 
1017	 9.82391544202033E-02 
1018	 9.82865954350062E-02 
1019	 9.83537115974652E-02 
1020	 9.83744581857373E-02 
1021	 0.098416156299105 
1022	 9.85179250654559E-02 
1023	 9.86089696085056E-02 
1024	 9.86929261224703E-02 
1025	 9.88160638834666E-02 
1026	 9.89254952038146E-02 
1027	 9.90138487130734E-02 
1028	 9.90761343993768E-02 
1029	 9.91308973068734E-02 
1030	 9.91621432100532E-02 
1031	 9.91937615362083E-02 
1032	 9.91849825623187E-02 
1033	 9.92295730183646E-02 
1034	 9.92797476700183E-02 
1035	 9.93050760651064E-02 
1036	 9.93187967593685E-02 
1037	 9.93224665305653E-02 
1038	 0.099350386181607 
1039	 9.93942843287919E-02 
1040	 9.94474837120299E-02 
1041	 9.95049299161436E-02 
1042	 9.95244474594898E-02 
1043	 9.95494297137462E-02 
1044	 9.95854206584732E-02 
1045	 9.96319302566288E-02 
1046	 9.96355229487062E-02 
1047	 9.96543246501307E-02 
1048	 9.96965634260569E-02 
1049	 9.96940240143373E-02 
1050	 9.97516732794082E-02 
1051	 9.98725147404856E-02 
1052	 9.99231842210078E-02 
1053	 9.99427694019124E-02 
1054	 9.99366724391175E-02 
1055	 0.09993192993146 
1056	 9.99984478143356E-02 
1057	 0.100041851830447 
1058	 0.100120809656998 
1059	 0.100190950822734 
1060	 0.100258314306304 
1061	 0.100272723710514 
1062	 0.100347971253344 
1063	 0.10045112954992 
1064	 0.100498361069063 
1065	 0.100564577675569 
1066	 0.100621076780679 
1067	 0.10064653615802 
1068	 0.100705438269592 
1069	 0.100757153261916 
1070	 0.100831751054238 
1071	 0.100941346121685 
1072	 0.101035540034392 
1073	 0.101153657650233 
1074	 0.101220156567563 
1075	 0.101244548814848 
1076	 0.101283567172296 
1077	 0.101334562728299 
1078	 0.10138951325171 
1079	 0.101519673056396 
1080	 0.101591631602618 
1081	 0.101592989636606 
1082	 0.101638651797143 
1083	 0.10166434160643 
1084	 0.101650003638725 
1085	 0.101684682035996 
1086	 0.101722778995039 
1087	 0.101785525729786 
1088	 0.101902573804937 
1089	 0.101960160478831 
1090	 0.10197019448647 
1091	 0.102042893524385 
1092	 0.102071287480315 
1093	 0.102079311337696 
1094	 0.102141906261019 
1095	 0.102175535385777 
1096	 0.102214520528219 
1097	 0.102268328697224 
1098	 0.102304369562654 
1099	 0.102352534571646 
1100	 0.102385311971997 
1101	 0.102388341556492 
1102	 0.102412148322061 
1103	 0.102456313250277 
1104	 0.102460919105951 
1105	 0.102492138646298 
1106	 0.102529056643929 
1107	 0.102545973584202 
1108	 0.102596546260406 
1109	 0.102670227027044 
1110	 0.102713539732263 
1111	 0.10272108313268 
1112	 0.102701442593911 
1113	 0.102704027970575 
1114	 0.102649167862867 
1115	 0.102666797288575 
1116	 0.102776090956974 
1117	 0.102800639128424 
1118	 0.10280881585755 
1119	 0.102811648011151 
1120	 0.102755483141792 
1121	 0.102747304509907 
1122	 0.102789024464365 
1123	 0.102830184195527 
1124	 0.102863459569718 
1125	 0.10292012404342 
1126	 0.102925239670306 
1127	 0.102894642496057 
1128	 0.102895698421517 
1129	 0.102883384846314 
1130	 0.102886730133519 
1131	 0.102913365250522 
1132	 0.102920869473945 
1133	 0.102915889703918 
1134	 0.102928079172729 
1135	 0.102947871761356 
1136	 0.102971509574254 
1137	 0.102998884405587 
1138	 0.102988109074621 
1139	 0.102991811232914 
1140	 0.10298176909529 
1141	 0.102986984321339 
1142	 0.103004529957403 
1143	 0.103011992009873 
1144	 0.103015394981106 
1145	 0.103027245378999 
1146	 0.103040821445628 
1147	 0.103052848295456 
1148	 0.103065235573376 
1149	 0.103080657473521 
1150	 0.103097152609853 
1151	 0.10311628241945 
1152	 0.103122381471769 
1153	 0.103137115581599 
1154	 0.103153479026491 
1155	 0.103168151275387 
1156	 0.10317247908755 
1157	 0.103176234228544 
1158	 0.10318731701535 
1159	 0.103188628867022 
1160	 0.103199159922749 
1161	 0.103227046347989 
1162	 0.103244778666586 
1163	 0.103262677296838 
1164	 0.103267795868657 
1165	 0.10325926102106 
1166	 0.103262208983796 
1167	 0.103269136644433 
1168	 0.103271920074038 
1169	 0.103278152277761 
1170	 0.103297771992754 
1171	 0.103309265327293 
1172	 0.103311196829226 
1173	 0.103321546812127 
1174	 0.103341078435424 
1175	 0.103354879715969 
1176	 0.103360904877831 
1177	 0.103375479086556 
1178	 0.103394013355004 
1179	 0.103413237004632 
1180	 0.103448247766471 
1181	 0.103465980878799 
1182	 0.103461442580124 
1183	 0.103474730424362 
1184	 0.103497023491694 
1185	 0.103524595237512 
1186	 0.103537029065237 
1187	 0.103561756400265 
1188	 0.103571786565736 
1189	 0.103545550452159 
1190	 0.103557477229015 
1191	 0.1035919412878 
1192	 0.10361783218971 
1193	 0.103655139915499 
1194	 0.103685911357048 
1195	 0.103718395146319 
1196	 0.103740956991289 
1197	 0.103748828124305 
1198	 0.103770501360486 
1199	 0.10379448282965 
1200	 0.103814035087645 
1201	 0.103837108196774 
1202	 0.103874140607499 
1203	 0.103897301257806 
1204	 0.103907526212371 
1205	 0.1039297967055 
1206	 0.103957979653262 
1207	 0.103980796631371 
1208	 0.104011769902927 
1209	 0.104027793004291 
1210	 0.104024473699232 
1211	 0.104037006381867 
1212	 0.104048517653361 
1213	 0.104063277634793 
1214	 0.104091450691624 
1215	 0.104115421092942 
1216	 0.104138022025381 
1217	 0.10416009075527 
1218	 0.104174066907061 
1219	 0.104186773553238 
1220	 0.104194086374085 
1221	 0.104185329170064 
1222	 0.104193755868673 
1223	 0.104206398229098 
1224	 0.10422223085805 
1225	 0.104254199988678 
1226	 0.104270621971308 
1227	 0.10428430492949 
1228	 0.104292192539021 
1229	 0.10428201305992 
1230	 0.104284597426937 
1231	 0.104289309638844 
1232	 0.104296784311669 
1233	 0.104308461139464 
1234	 0.104328061769686 
1235	 0.104345100181842 
1236	 0.104367611224397 
1237	 0.104379342841598 
1238	 0.104390036189452 
1239	 0.104395726146754 
1240	 0.104391437372117 
1241	 0.104389148354695 
1242	 0.104379324941921 
1243	 0.104382040653219 
1244	 0.104389433693679 
1245	 0.104397590676872 
1246	 0.104422422069699 
1247	 0.104432931463814 
1248	 0.104443045148785 
1249	 0.104433900759766 
1250	 0.104420912154363 
1251	 0.104424310477687 
1252	 0.104428926637234 
1253	 0.104439314970305 
1254	 0.104448744282692 
1255	 0.104469190130934 
1256	 0.104471579135145 
1257	 0.104471892891707 
1258	 0.104461899068028 
1259	 0.104434574283599 
1260	 0.104414001138168 
1261	 0.104381382705942 
1262	 0.104362027795547 
1263	 0.104353128080527 
1264	 0.104341267041285 
1265	 0.104330021078392 
1266	 0.104327003399498 
1267	 0.104332075352089 
1268	 0.104326776024236 
1269	 0.104330427291996 
1270	 0.104347110259259 
1271	 0.104349856698567 
1272	 0.104350084190467 
1273	 0.104341896329885 
1274	 0.104314055241566 
1275	 0.104317025653535 
1276	 0.104323083952049 
1277	 0.104339974075057 
1278	 0.104395037134661 
1279	 0.104416424195215 
1280	 0.104414003785248 
1281	 0.104433606442647 
1282	 0.104449609667156 
1283	 0.104473732544549 
1284	 0.104516058440461 
1285	 0.104551788759348 
1286	 0.104602417599193 
1287	 0.104658279534863 
1288	 0.104699590847557 
1289	 0.104744340362472 
1290	 0.104788515095684 
1291	 0.104822335857953 
1292	 0.104853707866942 
1293	 0.104887349554272 
1294	 0.10492839757618 
1295	 0.104964497298694 
1296	 0.104995650609706 
1297	 0.105034789200245 
1298	 0.105073101925447 
1299	 0.105098164057335 
1300	 0.105131480349923 
1301	 0.105181110374689 
1302	 0.105219292081764 
1303	 0.105248968326969 
1304	 0.105278126577632 
1305	 0.105307018657573 
1306	 0.105352297428481 
1307	 0.105377245827874 
1308	 0.105395419643642 
1309	 0.105413906181316 
1310	 0.10541417219184 
1311	 0.105432656773163 
1312	 0.105466591479617 
1313	 0.105486980286589 
1314	 0.10550199213225 
1315	 0.10552768786677 
1316	 0.105554984466632 
1317	 0.105576307265932 
1318	 0.105617634501241 
1319	 0.105626684586611 
1320	 0.105600916517523 
1321	 0.105598084255408 
1322	 0.105591721955685 
1323	 0.105584149042845 
1324	 0.105598454735946 
1325	 0.105611577440202 
1326	 0.105609343318143 
1327	 0.105607640684283 
1328	 0.105597359283098 
1329	 0.105585918196262 
1330	 0.105575022579459 
1331	 0.105555868354808 
1332	 0.105551761536998 
1333	 0.10555829333468 
1334	 0.10555709686546 
1335	 0.105579279054019 
1336	 0.105559783286771 
1337	 0.105503905047469 
1338	 0.105468742753174 
1339	 0.105407653022968 
1340	 0.105375339491584 
1341	 0.105388097682006 
1342	 0.105367263545882 
1343	 0.105334082194616 
1344	 0.105305155028187 
1345	 0.105272476218519 
1346	 0.105237202516983 
1347	 0.105217132237341 
1348	 0.10519647628245 
1349	 0.105177882219887 
1350	 0.105165545642388 
1351	 0.105145976581571 
1352	 0.105136439570195 
1353	 0.105110969292086 
1354	 0.105070796643999 
1355	 0.105034576162434 
1356	 0.104986670519985 
1357	 0.104961598215097 
1358	 0.104946234658613 
1359	 0.104924646546421 
1360	 0.104913953848398 
1361	 0.10490235267643 
1362	 0.104885336321406 
1363	 0.104870705471766 
1364	 0.104877882798557 
1365	 0.104858586763357 
1366	 0.104818772956893 
1367	 0.104781188632623 
1368	 0.104744495821985 
1369	 0.104696853694276 
1370	 0.104665817818385 
1371	 0.104642983344402 
1372	 0.104616128901288 
1373	 0.10458524754645 
1374	 0.104546316103734 
1375	 0.104495359178968 
1376	 0.104462750023091 
1377	 0.104437265929565 
1378	 0.104394162732007 
1379	 0.104358095314899 
1380	 0.104308757441219 
1381	 0.104224028266463 
1382	 0.104176226094804 
1383	 0.104153868849135 
1384	 0.104112300842302 
1385	 0.104086701088926 
1386	 0.104037978705999 
1387	 0.103953236259087 
1388	 0.103894785998192 
1389	 0.103847785825435 
1390	 0.103786762000857 
1391	 0.103739214933346 
1392	 0.103690193732336 
1393	 0.103620087262667 
1394	 0.10354874983525 
1395	 0.103463572295472 
1396	 0.103378909827631 
1397	 0.103285225770283 
1398	 0.103177754183522 
1399	 0.103073068575227 
1400	 0.102966210033213 
1401	 0.102856890706383 
1402	 0.102743496495751 
1403	 0.102635689882802 
1404	 0.102525891638771 
1405	 0.102421065550485 
1406	 0.102313846018329 
1407	 0.102217729240181 
1408	 0.102138170185153 
1409	 0.102046329628542 
1410	 0.101944940458433 
1411	 0.10186491633544 
1412	 0.1017964166143 
1413	 0.101708813567614 
1414	 0.101649705924307 
1415	 0.101606416637035 
1416	 0.101547363291994 
1417	 0.101503594955407 
1418	 0.101470261731114 
1419	 0.101435054785395 
1420	 0.10140863402846 
1421	 0.10138492209154 
1422	 0.101367662038853 
1423	 0.101354772124003 
1424	 0.101328146656692 
1425	 0.101293149410529 
1426	 0.101269368867294 
1427	 0.101231973177352 
1428	 0.101216303721028 
1429	 0.101224299729883 
1430	 0.101218680987271 
1431	 0.101213490968172 
1432	 0.101213374650727 
1433	 0.101216378263657 
1434	 0.101211393103211 
1435	 0.101204639079797 
1436	 0.101201021889158 
1437	 0.101180781387179 
1438	 0.101182332410339 
1439	 0.101195884925706 
1440	 0.101226815273641 
1441	 0.101243644587111 
1442	 0.101259850533976 
1443	 0.101282636585252 
1444	 0.101290435501202 
1445	 0.101294926518708 
1446	 0.101311283618317 
1447	 0.101313120402964 
1448	 0.101305033491632 
1449	 0.101318237558398 
1450	 0.101333248825116 
1451	 0.101346226500761 
1452	 0.101362653002522 
1453	 0.10138125326963 
1454	 0.101401245791156 
1455	 0.101417643659988 
1456	 0.101437719968169 
1457	 0.101450748111896 
1458	 0.101456585317395 
1459	 0.101463505337015 
1460	 0.101462570771055 
1461	 0.101475304656822 
1462	 0.101492074913431 
1463	 0.101510401402996 
1464	 0.101544226714386 
1465	 0.101568833897303 
1466	 0.101588691327273 
1467	 0.101606800543664 
1468	 0.101615041852857 
1469	 0.101634283155733 
1470	 0.1016560232768 
1471	 0.101681772655048 
1472	 0.10172087479161 
1473	 0.101760099457082 
1474	 0.10177900582876 
1475	 0.101801366684709 
1476	 0.101820769636811 
1477	 0.10184151804197 
1478	 0.10187019290043 
1479	 0.101898836841488 
1480	 0.101931223091305 
1481	 0.101954195856549 
1482	 0.101981699051291 
1483	 0.102014011485005 
1484	 0.102041492618483 
1485	 0.10206152929551 
1486	 0.102094938229047 
1487	 0.102136658581356 
1488	 0.102170300411844 
1489	 0.10220925479225 
1490	 0.102241363127974 
1491	 0.102258550222325 
1492	 0.102291211334635 
1493	 0.102335561685169 
1494	 0.102371511617349 
1495	 0.102410704454094 
1496	 0.10244505102905 
1497	 0.102474230106019 
1498	 0.102499742664607 
1499	 0.102519286309315 
1500	 0.10254463641008 
1501	 0.102568958462864 
1502	 0.102592576913762 
1503	 0.102620672987549 
1504	 0.102643503230651 
1505	 0.102677013112281 
1506	 0.10271755733641 
1507	 0.102750667818787 
1508	 0.102784996412192 
1509	 0.102803446857527 
1510	 0.102818596747876 
1511	 0.102843356661658 
1512	 0.102866867500646 
1513	 0.10287788070131 
1514	 0.102880684127005 
1515	 0.102900847761845 
1516	 0.102926242110911 
1517	 0.102943313404949 
1518	 0.10297184842571 
1519	 0.10298992645934 
1520	 0.102984859862529 
1521	 0.103007886237345 
1522	 0.103046955168192 
1523	 0.103076869214232 
1524	 0.103119448983092 
1525	 0.103147105848977 
1526	 0.103169097787487 
1527	 0.103182262009312 
1528	 0.103180021906966 
1529	 0.103190261654265 
1530	 0.103194895938312 
1531	 0.10320644010575 
1532	 0.103225040144522 
1533	 0.103247674927483 
1534	 0.103280843021638 
1535	 0.103305132510007 
1536	 0.103339658160625 
1537	 0.103354704718223 
1538	 0.103347114147699 
1539	 0.103347504256749 
1540	 0.103333330986617 
1541	 0.103337560517686 
1542	 0.103357044740005 
1543	 0.103371011065091 
1544	 0.10339335268195 
1545	 0.103413492072648 
1546	 0.103430970035194 
1547	 0.103445726630795 
1548	 0.103460742409115 
1549	 0.103482557062438 
1550	 0.103496126077683 
1551	 0.103485506323785 
1552	 0.103473563910474 
1553	 0.103474850461616 
1554	 0.103492573991476 
1555	 0.103517736397682 
1556	 0.103551756322852 
1557	 0.103588933866962 
1558	 0.103609108345058 
1559	 0.103625332437403 
1560	 0.103637244060287 
1561	 0.103638038912824 
1562	 0.103649540158955 
1563	 0.103660932307803 
1564	 0.10367521802974 
1565	 0.103700806930219 
1566	 0.10370683965161 
1567	 0.103701994018742 
1568	 0.103705838395787 
1569	 0.103700669005923 
1570	 0.103706241913233 
1571	 0.103725895201556 
1572	 0.103736717587118 
1573	 0.103744892263756 
1574	 0.103750623719576 
1575	 0.103751388493942 
1576	 0.103756348031941 
1577	 0.103757696509722 
1578	 0.103769300794826 
1579	 0.103802130322391 
1580	 0.103807027041577 
1581	 0.103792876301704 
1582	 0.103797799885452 
1583	 0.103791678787346 
1584	 0.103797028023775 
1585	 0.103830011364929 
1586	 0.103845436780549 
1587	 0.103851444011035 
1588	 0.103858801813155 
1589	 0.10386346618678 
1590	 0.103869048625881 
1591	 0.103874364698446 
1592	 0.103876804562427 
1593	 0.103871421297694 
1594	 0.103877547433394 
1595	 0.103888003845527 
1596	 0.103897884647737 
1597	 0.103922799191073 
1598	 0.103936583369864 
1599	 0.10394733509463 
1600	 0.103949288494494 
1601	 0.10393522291087 
1602	 0.103929616109881 
1603	 0.10392943981639 
1604	 0.103916147844405 
1605	 0.103891714639985 
1606	 0.103878826048934 
1607	 0.103856279456632 
1608	 0.103844997033704 
1609	 0.103851884518596 
1610	 0.103863258264762 
1611	 0.103858155993829 
1612	 0.103845215083527 
1613	 0.103827835794346 
1614	 0.103810088031406 
1615	 0.103815054972471 
1616	 0.103833666888187 
1617	 0.103836955427205 
1618	 0.103846633871747 
1619	 0.103851173057447 
1620	 0.103839706590808 
1621	 0.103845415345708 
1622	 0.103865737458286 
1623	 0.103873074840626 
1624	 0.10387725581152 
1625	 0.103879639001165 
1626	 0.103876229570114 
1627	 0.103882941604002 
1628	 0.103893945266666 
1629	 0.103901059733955 
1630	 0.10391535155841 
1631	 0.103915974676891 
1632	 0.103901313474294 
1633	 0.103906877019509 
1634	 0.103917436430311 
1635	 0.103923808234937 
1636	 0.103941403142299 
1637	 0.103947347284217 
1638	 0.103948731785475 
1639	 0.103935761680142 
1640	 0.103909459147297 
1641	 0.103898807052259 
1642	 0.103881276213247 
1643	 0.103868331301615 
1644	 0.103871039661685 
1645	 0.103863404578581 
1646	 0.103839554897587 
1647	 0.103835359108331 
1648	 0.103839888365244 
1649	 0.103851007244166 
1650	 0.103884930378934 
1651	 0.103885202192189 
1652	 0.103876172396552 
1653	 0.103866476647244 
1654	 0.103827189441749 
1655	 0.103815895356304 
1656	 0.103824719621642 
1657	 0.103822891343195 
1658	 0.103827456651755 
1659	 0.103820487884482 
1660	 0.103803058203124 
1661	 0.103793750240251 
1662	 0.103775116316385 
1663	 0.103775779962198 
1664	 0.103795556461352 
1665	 0.103801168512998 
1666	 0.103812288446579 
1667	 0.10381580970567 
1668	 0.103808449374513 
1669	 0.103804187267762 
1670	 0.103802317287813 
1671	 0.10379537461707 
1672	 0.103786409414189 
1673	 0.103770558532776 
1674	 0.103739489704857 
1675	 0.103731559248356 
1676	 0.103726995331311 
1677	 0.10372918599941 
1678	 0.103758846606371 
1679	 0.103763144416179 
1680	 0.103756573563668 
1681	 0.103750014022018 
1682	 0.103731447044212 
1683	 0.103721874208046 
1684	 0.103718063197238 
1685	 0.103706280267582 
1686	 0.103695310198922 
1687	 0.103679119573632 
1688	 0.103645163014702 
1689	 0.103634453868771 
1690	 0.103638697326628 
1691	 0.103631916715169 
1692	 0.103632113546093 
1693	 0.103631039584916 
1694	 0.10361768851145 
1695	 0.103614040519057 
1696	 0.103626327665014 
1697	 0.103622902351991 
1698	 0.103603815467476 
1699	 0.103606393289481 
1700	 0.103622577742594 
1701	 0.103620543197169 
1702	 0.103623189743788 
1703	 0.103618420132237 
1704	 0.103588061796364 
1705	 0.103580338483132 
1706	 0.103593941166241 
1707	 0.10358981997177 
1708	 0.103580221654143 
1709	 0.103571940769083 
1710	 0.103559333142636 
1711	 0.103542221099453 
1712	 0.103512721107929 
1713	 0.103515880083435 
1714	 0.103535078365558 
1715	 0.103534548697586 
1716	 0.103560625680257 
1717	 0.103551229332997 
1718	 0.103499006474674 
1719	 0.103475603196308 
1720	 0.103457936263263 
1721	 0.103435787901092 
1722	 0.103419518215532 
1723	 0.103394771819217 
1724	 0.103353722834254 
1725	 0.103334847874493 
1726	 0.103317761013264 
1727	 0.103317439475112 
1728	 0.103357580021942 
1729	 0.103347743180871 
1730	 0.103328331977957 
1731	 0.103294709123252 
1732	 0.103221043298955 
1733	 0.103168892021939 
1734	 0.103104741019741 
1735	 0.10308674824455 
1736	 0.1030944324692 
1737	 0.103091145362433 
1738	 0.103124300819967 
1739	 0.103114414865735 
1740	 0.103072152333216 
1741	 0.103051293160924 
1742	 0.103029625004504 
1743	 0.103013674225913 
1744	 0.102997852453044 
1745	 0.102991216176361 
1746	 0.103000542838097 
1747	 0.102988055462595 
1748	 0.102964022695393 
1749	 0.102936567122439 
1750	 0.102898716929026 
1751	 0.102886217032137 
1752	 0.102897856836176 
1753	 0.102873920610716 
1754	 0.102845156338177 
1755	 0.10278104804471 
1756	 0.102689106425219 
1757	 0.102654113480281 
1758	 0.102620920231892 
1759	 0.102608374061341 
1760	 0.102617379844254 
1761	 0.102596734708303 
1762	 0.102558906616869 
1763	 0.102501895562403 
1764	 0.102466190822053 
1765	 0.102438267491754 
1766	 0.102410788382826 
1767	 0.102420574771399 
1768	 0.102421585782125 
1769	 0.102414161190354 
1770	 0.102409016873353 
1771	 0.102382387177962 
1772	 0.102353573061991 
1773	 0.102303255658755 
1774	 0.102256241089411 
1775	 0.10223393925082 
1776	 0.102181625543262 
1777	 0.10213920084133 
1778	 0.102132590678192 
1779	 0.102114079958191 
1780	 0.102099237842711 
1781	 0.102098978937832 
1782	 0.102081487937559 
1783	 0.102075578466857 
1784	 0.102060223471791 
1785	 0.102042937625577 
1786	 0.102025693113904 
1787	 0.101995998206891 
1788	 0.101974142426314 
1789	 0.101951099505712 
1790	 0.101947118194011 
1791	 0.101957148221955 
1792	 0.101951809022742 
1793	 0.101965866631357 
1794	 0.101961893323789 
1795	 0.101928474463485 
1796	 0.101911684051959 
1797	 0.101899065505903 
1798	 0.101892007054276 
1799	 0.10188442019281 
1800	 0.101882240485978 
1801	 9.77281302732686E-02 
1802	 9.77252172388443E-02 
1803	 9.77390990947131E-02 
1804	 9.78045092451379E-02 
1805	 0.09789455369069 
1806	 9.79341816458095E-02 
1807	 9.79526216393869E-02 
1808	 9.79821717526573E-02 
1809	 9.79833300441706E-02 
1810	 9.80044416905452E-02 
1811	 9.80453020896323E-02 
1812	 0.098088460032602 
1813	 9.80950717352045E-02 
1814	 9.80989984158262E-02 
1815	 0.098095703939945 
1816	 9.81173542529258E-02 
1817	 9.81468565541359E-02 
1818	 9.82041009239253E-02 
1819	 0.098238858421492 
1820	 9.82795453016506E-02 
1821	 9.82955838467333E-02 
1822	 9.83066408306051E-02 
1823	 9.83214060953209E-02 
1824	 9.83289613257342E-02 
1825	 9.83363928937013E-02 
1826	 9.83490885246717E-02 
1827	 9.83630062768075E-02 
1828	 0.09836944406002 
1829	 9.83733535013317E-02 
1830	 9.83778337440642E-02 
1831	 9.83717139293403E-02 
1832	 9.83767544128329E-02 
1833	 9.83995942228638E-02 
1834	 9.84089929316103E-02 
1835	 9.84471498892278E-02 
1836	 0.098473475293193 
1837	 9.84673617477614E-02 
1838	 9.84785927501734E-02 
1839	 9.84852965815167E-02 
1840	 9.84873524337126E-02 
1841	 9.84753057773028E-02 
1842	 9.84703880281289E-02 
1843	 9.84746747251513E-02 
1844	 9.84424013403771E-02 
1845	 9.84100102294889E-02 
1846	 9.83889212469805E-02 
1847	 0.098338014896057 
1848	 9.83370606342965E-02 
1849	 9.83447339926661E-02 
1850	 0.098336306015216 
1851	 0.098330041777982 
1852	 9.83308614406792E-02 
1853	 9.82956865325233E-02 
1854	 9.82712385118942E-02 
1855	 9.82606222647014E-02 
1856	 9.82529609117291E-02 
1857	 9.82261782905891E-02 
1858	 9.81839364097071E-02 
1859	 9.81472595391173E-02 
1860	 9.80973509362387E-02 
1861	 9.80270821045412E-02 
1862	 0.097976768826675 
1863	 9.79401560068927E-02 
1864	 9.78933347302199E-02 
1865	 9.78684626945981E-02 
1866	 9.78375288551314E-02 
1867	 9.77865373255802E-02 
1868	 9.77240230681045E-02 
1869	 9.76250438187899E-02 
1870	 9.75252225213322E-02 
1871	 9.74255533686083E-02 
1872	 0.097334134623987 
1873	 9.71902576329203E-02 
1874	 9.70480165361989E-02 
1875	 9.69207734985952E-02 
1876	 9.67506652886358E-02 
1877	 9.66110402458305E-02 
1878	 9.64823723870703E-02 
1879	 9.63142167771967E-02 
1880	 9.61332146674817E-02 
1881	 9.59388167699203E-02 
1882	 9.57214542260375E-02 
1883	 9.54815649617177E-02 
1884	 9.52328638104772E-02 
1885	 9.49511187189951E-02 
1886	 9.46691616433559E-02 
1887	 9.43985170382981E-02 
1888	 9.41059036282201E-02 
1889	 9.38008553668126E-02 
1890	 0.093473364220473 
1891	 9.31268509234152E-02 
1892	 9.27244628205572E-02 
1893	 9.23551158659762E-02 
1894	 0.091990982137418 
1895	 9.16261795864356E-02 
1896	 9.12482859789046E-02 
1897	 9.08661242642394E-02 
1898	 9.04480527940669E-02 
1899	 9.00383583816941E-02 
1900	 8.96676103763784E-02 
1901	 8.93059534620713E-02 
1902	 8.89516875205258E-02 
1903	 8.86227927491778E-02 
1904	 8.82939430339735E-02 
1905	 8.79552315992919E-02 
1906	 8.76458242714839E-02 
1907	 8.73765410709622E-02 
1908	 8.71299715421187E-02 
1909	 8.68779440514791E-02 
1910	 8.66089540617859E-02 
1911	 8.63498636440093E-02 
1912	 8.60884770192444E-02 
1913	 8.58583320921878E-02 
1914	 8.56631860054825E-02 
1915	 8.54753182032973E-02 
1916	 8.53046806492199E-02 
1917	 8.51433088780124E-02 
1918	 0.084975960906719 
1919	 8.48074766055046E-02 
1920	 8.46633268585339E-02 
1921	 0.084540926181021 
1922	 8.44420089208701E-02 
1923	 8.43703515618639E-02 
1924	 8.42887726199172E-02 
1925	 8.42045547245193E-02 
1926	 8.41233146490546E-02 
1927	 8.40362542118172E-02 
1928	 8.39752932114728E-02 
1929	 8.39234453402486E-02 
1930	 8.38828047296592E-02 
1931	 8.38711682436023E-02 
1932	 8.38683688228916E-02 
1933	 8.38502346329955E-02 
1934	 8.38598187307418E-02 
1935	 8.38728138323553E-02 
1936	 8.38995293620369E-02 
1937	 8.39112936205626E-02 
1938	 0.083927361341674 
1939	 8.39426760493672E-02 
1940	 8.39460103040422E-02 
1941	 8.39537733215174E-02 
1942	 8.39852481440174E-02 
1943	 8.40170413703122E-02 
1944	 8.40477428543631E-02 
1945	 0.084079481566868 
1946	 8.41162682057998E-02 
1947	 8.41470378512838E-02 
1948	 8.41937259118802E-02 
1949	 8.42574182329738E-02 
1950	 8.43129100742939E-02 
1951	 8.43698668983593E-02 
1952	 8.44331302300284E-02 
1953	 8.44821821775473E-02 
1954	 8.45433468647347E-02 
1955	 8.46161262325444E-02 
1956	 8.46859364367747E-02 
1957	 8.47613770210264E-02 
1958	 8.48404448451924E-02 
1959	 8.49320009927815E-02 
1960	 8.50280647785868E-02 
1961	 8.51334901825905E-02 
1962	 8.52639546113651E-02 
1963	 8.53757740984734E-02 
1964	 8.54829669341921E-02 
1965	 0.085590298198339 
1966	 8.56913386666206E-02 
1967	 8.58060923890995E-02 
1968	 8.59088635096587E-02 
1969	 8.60130035432098E-02 
1970	 8.61100020122324E-02 
1971	 0.086189692711455 
1972	 8.62838771104452E-02 
1973	 8.63713703930928E-02 
1974	 8.64815343241195E-02 
1975	 8.66069580900872E-02 
1976	 8.67432656332826E-02 
1977	 8.68637393751447E-02 
1978	 0.087008718170829 
1979	 8.71313700167951E-02 
1980	 8.72372325144506E-02 
1981	 8.73499134268344E-02 
1982	 8.74538830409291E-02 
1983	 0.087572095852361 
1984	 8.76989514329244E-02 
1985	 8.78214087383463E-02 
1986	 8.79622104806592E-02 
1987	 8.80852380051943E-02 
1988	 8.81872643190937E-02 
1989	 8.82978804706555E-02 
1990	 8.84255591339537E-02 
1991	 8.85444656605829E-02 
1992	 8.86591712577554E-02 
1993	 8.87805419703424E-02 
1994	 8.88940422076763E-02 
1995	 8.89920469122501E-02 
1996	 8.90999637326659E-02 
1997	 8.92239673437277E-02 
1998	 8.93279128936561E-02 
1999	 8.94053537663495E-02 
2000	 8.95073248748734E-02 
2001	 8.96088716758934E-02 
2002	 8.97202017481472E-02 
2003	 8.98566680568392E-02 
2004	 8.99965039126431E-02 
2005	 9.01142907331705E-02 
2006	 9.02202252203761E-02 
2007	 9.03320510023814E-02 
2008	 9.04303135895698E-02 
2009	 9.05376282874289E-02 
2010	 9.06623025461033E-02 
2011	 9.07681033280525E-02 
2012	 9.08540995927267E-02 
2013	 9.09547035750587E-02 
2014	 0.09105659544197 
2015	 9.11590775364496E-02 
2016	 9.12522516541779E-02 
2017	 9.13592316313883E-02 
2018	 9.14729500525729E-02 
2019	 9.15889697708811E-02 
2020	 9.16998210847089E-02 
2021	 9.18259540286141E-02 
2022	 9.19392914045451E-02 
2023	 9.20449503657395E-02 
2024	 9.21398496119757E-02 
2025	 9.22163730494759E-02 
2026	 9.23164851308134E-02 
2027	 9.24181674708679E-02 
2028	 9.25176121081968E-02 
2029	 9.26204595346384E-02 
2030	 9.27499807575172E-02 
2031	 9.28453125981707E-02 
2032	 9.29170234639573E-02 
2033	 9.29987475609726E-02 
2034	 9.30756176687061E-02 
2035	 9.31536944993291E-02 
2036	 9.32322133506977E-02 
2037	 9.33083346808078E-02 
2038	 9.33802736350382E-02 
2039	 9.34555476455232E-02 
2040	 9.35329926692573E-02 
2041	 9.36044077988526E-02 
2042	 0.09368607798285 
2043	 9.37666583563756E-02 
2044	 9.38412675485239E-02 
2045	 9.39197293493228E-02 
2046	 9.39824189035527E-02 
2047	 9.40320894008606E-02 
2048	 9.40847712791506E-02 
2049	 0.094119634179569 
2050	 9.41750193614495E-02 
2051	 9.42414435222736E-02 
2052	 9.43051853269518E-02 
2053	 9.43791736380275E-02 
2054	 0.094449256093239 
2055	 9.45075626099004E-02 
2056	 0.094584860859952 
2057	 9.46536507128804E-02 
2058	 9.47198506313664E-02 
2059	 0.094795617184454 
2060	 0.09487976453464 
2061	 9.49519539562889E-02 
2062	 9.50261671757099E-02 
2063	 9.50993259835664E-02 
2064	 9.51637141050513E-02 
2065	 9.52288182976771E-02 
2066	 9.52980662655117E-02 
2067	 9.53642308696114E-02 
2068	 9.54167278694998E-02 
2069	 9.54838834375773E-02 
2070	 9.55517326454226E-02 
2071	 9.56352056747573E-02 
2072	 9.56842504922702E-02 
2073	 9.57175977477171E-02 
2074	 9.57619608813949E-02 
2075	 9.57858321878541E-02 
2076	 9.58261784973995E-02 
2077	 9.58771710527005E-02 
2078	 9.59358472923225E-02 
2079	 9.60049249724912E-02 
2080	 9.60634308443688E-02 
2081	 9.61305310849357E-02 
2082	 9.61958890088047E-02 
2083	 9.62575048874441E-02 
2084	 9.63046774538984E-02 
2085	 9.63574599990125E-02 
2086	 9.64145349964447E-02 
2087	 9.64677217748578E-02 
2088	 9.65096793448492E-02 
2089	 9.65665996206449E-02 
2090	 9.66465044194733E-02 
2091	 9.66970866529236E-02 
2092	 9.67335579255968E-02 
2093	 0.096775656350586 
2094	 9.67864667857919E-02 
2095	 0.0968314844274 
2096	 9.69056218146986E-02 
2097	 9.69720080958295E-02 
2098	 9.70453118900747E-02 
2099	 9.71256303192014E-02 
2100	 9.72098007485846E-02 
2101	 9.73048110056439E-02 
2102	 9.73719417193232E-02 
2103	 9.74422765282717E-02 
2104	 9.74928301442642E-02 
2105	 0.097494386117803 
2106	 9.75414313873274E-02 
2107	 9.76126505302845E-02 
2108	 9.76669618207529E-02 
2109	 9.77359933451017E-02 
2110	 9.77912583014599E-02 
2111	 9.78245494427853E-02 
2112	 9.78666535431877E-02 
2113	 9.79098291417764E-02 
2114	 9.79504604250222E-02 
2115	 0.098006271478301 
2116	 9.80702928000449E-02 
2117	 9.81286553555822E-02 
2118	 9.81956386644818E-02 
2119	 9.82596122463603E-02 
2120	 9.83202818430264E-02 
2121	 9.83772474662077E-02 
2122	 0.098443271919357 
2123	 0.098493913636925 
2124	 9.85260510748607E-02 
2125	 0.098567560893837 
2126	 9.86047644309091E-02 
2127	 9.86453974453253E-02 
2128	 9.86977016524676E-02 
2129	 0.098738891542697 
2130	 9.87706485225088E-02 
2131	 9.88107628873763E-02 
2132	 9.88375365215704E-02 
2133	 9.88522152082475E-02 
2134	 0.098871565189226 
2135	 0.09889376636325 
2136	 9.89007154789549E-02 
2137	 9.89073539731646E-02 
2138	 0.09889639763819 
2139	 9.88478781301913E-02 
2140	 9.88375130708311E-02 
2141	 9.88503409340766E-02 
2142	 9.88370716862296E-02 
2143	 9.88409430187954E-02 
2144	 9.88206294986405E-02 
2145	 9.87581056483229E-02 
2146	 9.87077875381415E-02 
2147	 9.86592995855066E-02 
2148	 9.86040832322686E-02 
2149	 0.098558158394914 
2150	 9.85112629355707E-02 
2151	 0.098474367970113 
2152	 9.84528017086567E-02 
2153	 9.84151852511112E-02 
2154	 9.83728327864694E-02 
2155	 9.83354652317678E-02 
2156	 9.83052514101718E-02 
2157	 9.82541203038821E-02 
2158	 9.81976615173351E-02 
2159	 9.81355885937358E-02 
2160	 9.80456713416644E-02 
2161	 9.79682830431792E-02 
2162	 9.78999539370474E-02 
2163	 9.78310747817931E-02 
2164	 9.77673920919727E-02 
2165	 9.76961203919628E-02 
2166	 0.097618649600292 
2167	 9.75320040346073E-02 
2168	 9.74591597212098E-02 
2169	 9.73847541615584E-02 
2170	 9.73117021632246E-02 
2171	 9.72480082808605E-02 
2172	 9.71848848992213E-02 
2173	 9.71192629548181E-02 
2174	 9.70543659133916E-02 
2175	 9.70037758465472E-02 
2176	 0.096935631444924 
2177	 9.68512154924077E-02 
2178	 9.67732811940404E-02 
2179	 9.66840234818186E-02 
2180	 9.66084851362864E-02 
2181	 9.65551270680961E-02 
2182	 9.64822085014966E-02 
2183	 9.63958319772498E-02 
2184	 9.63216197026687E-02 
2185	 9.62507991273955E-02 
2186	 9.61705623677133E-02 
2187	 9.61029142597517E-02 
2188	 9.60505824757358E-02 
2189	 9.59969261067487E-02 
2190	 9.59475001900674E-02 
2191	 9.58864339646017E-02 
2192	 0.095826008270376 
2193	 9.57691327404035E-02 
2194	 9.56988376024391E-02 
2195	 9.56386717263236E-02 
2196	 9.55981562915788E-02 
2197	 9.55443568847957E-02 
2198	 0.095477365369747 
2199	 9.54224554589524E-02 
2200	 9.53669690130751E-02 
2201	 9.53148247454896E-02 
2202	 0.095275374290489 
2203	 9.52266835703613E-02 
2204	 9.51904610688456E-02 
2205	 9.51514023096738E-02 
2206	 9.51392031625453E-02 
2207	 0.09514764769376 
2208	 9.51505375721922E-02 
2209	 9.51783011937241E-02 
2210	 9.51780381496102E-02 
2211	 9.51578936321255E-02 
2212	 9.51520719789636E-02 
2213	 9.51425983058432E-02 
2214	 9.51353298938438E-02 
2215	 9.51404848005052E-02 
2216	 9.51375505474493E-02 
2217	 9.51169987626877E-02 
2218	 9.51150210722001E-02 
2219	 9.51232107151218E-02 
2220	 9.51286223704883E-02 
2221	 9.51418430363043E-02 
2222	 9.51650914415341E-02 
2223	 9.51451426948897E-02 
2224	 9.51321877606115E-02 
2225	 9.51429809811503E-02 
2226	 9.51654270359251E-02 
2227	 9.51597391915636E-02 
2228	 9.51536383628725E-02 
2229	 9.51751605639469E-02 
2230	 9.51786394277389E-02 
2231	 9.51974168679986E-02 
2232	 9.52717008970444E-02 
2233	 9.52989103057723E-02 
2234	 9.52889095895348E-02 
2235	 9.53005104727511E-02 
2236	 9.53238752175253E-02 
2237	 9.53296219123083E-02 
2238	 9.53142395558081E-02 
2239	 9.53215397347212E-02 
2240	 9.53303616111914E-02 
2241	 9.53416619537945E-02 
2242	 9.53824087763718E-02 
2243	 9.54009805963778E-02 
2244	 9.53984852410356E-02 
2245	 9.54014049779963E-02 
2246	 9.54218834271112E-02 
2247	 9.54267287922192E-02 
2248	 9.54390860483414E-02 
2249	 0.09546573584988 
2250	 9.54772206223577E-02 
2251	 9.54759644944721E-02 
2252	 9.54800154300859E-02 
2253	 9.54895289342588E-02 
2254	 9.54831801648506E-02 
2255	 9.54633958798075E-02 
2256	 9.54597535720569E-02 
2257	 9.54401549308524E-02 
2258	 0.095447454373897 
2259	 9.54763856708682E-02 
2260	 9.55032684151999E-02 
2261	 9.55636036665911E-02 
2262	 9.55901892780044E-02 
2263	 9.55937144455951E-02 
2264	 9.56177905443937E-02 
2265	 9.56462067000956E-02 
2266	 9.56463568239787E-02 
2267	 9.56434720854898E-02 
2268	 9.56391392697082E-02 
2269	 9.55907805588282E-02 
2270	 9.55712089266304E-02 
2271	 9.55950173076753E-02 
2272	 9.56206034235806E-02 
2273	 9.56652003143649E-02 
2274	 9.57149206235001E-02 
2275	 9.57371161160808E-02 
2276	 9.57481521240201E-02 
2277	 9.57570888191315E-02 
2278	 9.57378427318395E-02 
2279	 9.57421869241792E-02 
2280	 9.57570947664116E-02 
2281	 9.57671570245557E-02 
2282	 9.57834235138881E-02 
2283	 9.58047140081041E-02 
2284	 9.58379301599639E-02 
2285	 9.58445404225116E-02 
2286	 9.58392759113452E-02 
2287	 9.58352180709751E-02 
2288	 9.57965003907131E-02 
2289	 0.095794681532706 
2290	 9.58294484647362E-02 
2291	 9.58449496908163E-02 
2292	 9.58624576499866E-02 
2293	 9.58809050648306E-02 
2294	 9.58824270922091E-02 
2295	 9.58974306341689E-02 
2296	 9.59240440290687E-02 
2297	 9.59620426823526E-02 
2298	 0.095972537752026 
2299	 9.60018247595084E-02 
2300	 0.096041897378225 
2301	 9.60391577179343E-02 
2302	 9.60485719425428E-02 
2303	 9.60589415243729E-02 
2304	 9.60262134023691E-02 
2305	 0.096006649527329 
2306	 9.59808906097012E-02 
2307	 9.59453703300053E-02 
2308	 9.59195642697297E-02 
2309	 9.58967457778372E-02 
2310	 9.58829013480402E-02 
2311	 9.58822641017201E-02 
2312	 9.58597555399128E-02 
2313	 9.58213459771324E-02 
2314	 9.57955419913633E-02 
2315	 9.57641213456518E-02 
2316	 9.57493702074854E-02 
2317	 9.57492258761733E-02 
2318	 9.57601777834545E-02 
2319	 9.57895653845759E-02 
2320	 9.57955547193609E-02 
2321	 0.095821262651709 
2322	 9.58105407464608E-02 
2323	 9.57285408168961E-02 
2324	 9.57159383876367E-02 
2325	 9.57264247643599E-02 
2326	 0.095739095199902 
2327	 9.58063605288767E-02 
2328	 9.58406196230773E-02 
2329	 9.58467871088655E-02 
2330	 9.58361770738742E-02 
2331	 9.57608450842246E-02 
2332	 9.57402233170644E-02 
2333	 9.57591959201553E-02 
2334	 9.57036624020411E-02 
2335	 9.56984538923598E-02 
2336	 0.095680974443877 
2337	 9.55959671159315E-02 
2338	 9.55904924272425E-02 
2339	 9.56556560351501E-02 
2340	 9.57368438516821E-02 
2341	 9.57657737865551E-02 
2342	 9.57840214802788E-02 
2343	 9.57548740803849E-02 
2344	 9.56555391908788E-02 
2345	 9.55979967481547E-02 
2346	 9.55564445900869E-02 
2347	 9.55202644031856E-02 
2348	 9.54718572351347E-02 
2349	 9.54432360460889E-02 
2350	 9.54678609946721E-02 
2351	 9.54373942236437E-02 
2352	 9.53776431148969E-02 
2353	 9.53402439599437E-02 
2354	 9.52812883258598E-02 
2355	 9.52209804632568E-02 
2356	 0.095169084751287 
2357	 9.51333228626431E-02 
2358	 0.095068629008832 
2359	 9.50798842045864E-02 
2360	 9.51775636900322E-02 
2361	 9.52095028006255E-02 
2362	 9.52884142122201E-02 
2363	 9.52709856336205E-02 
2364	 9.51186831976271E-02 
2365	 9.50621700247249E-02 
2366	 9.50107339510225E-02 
2367	 0.09496833081763 
2368	 9.50072148329178E-02 
2369	 9.49899387322758E-02 
2370	 0.094910674684273 
2371	 9.48819029146986E-02 
2372	 9.49020496231634E-02 
2373	 9.48233126488679E-02 
2374	 9.47347426535989E-02 
2375	 9.46653425603692E-02 
2376	 0.094562176640572 
2377	 9.45590657587412E-02 
2378	 9.46083718799906E-02 
2379	 9.45983424669521E-02 
2380	 9.45223074647929E-02 
2381	 0.094399378406528 
2382	 9.42583936606363E-02 
2383	 9.41222113078691E-02 
2384	 9.40611893663019E-02 
2385	 9.40198410228338E-02 
2386	 9.39720749947808E-02 
2387	 9.39589099966897E-02 
2388	 9.39133518844946E-02 
2389	 9.38070732240365E-02 
2390	 9.37371978147541E-02 
2391	 9.36904576930046E-02 
2392	 9.35910317019091E-02 
2393	 9.35079299838213E-02 
2394	 9.34497314582448E-02 
2395	 9.33110694476651E-02 
2396	 9.31717109249261E-02 
2397	 9.31896863796848E-02 
2398	 9.31917740544005E-02 
2399	 9.31983273023113E-02 
2400	 9.32542840959499E-02 
2401	 9.31805264957848E-02 
2402	 9.31169496750158E-02 
2403	 9.30648204134524E-02 
2404	 9.30079631693686E-02 
2405	 9.29237968571392E-02 
2406	 9.28122764739878E-02 
2407	 0.092721996875646 
2408	 9.26139899960248E-02 
2409	 9.25967910824974E-02 
2410	 0.092529071587574 
2411	 9.25140419996464E-02 
2412	 9.25422760181357E-02 
2413	 9.24358318947275E-02 
2414	 9.24066190218551E-02 
2415	 9.22534222203193E-02 
2416	 9.21442494276581E-02 
2417	 9.20561747345796E-02 
2418	 9.19682441480183E-02 
2419	 9.19022426045685E-02 
2420	 9.17709109449363E-02 
2421	 9.15562543891347E-02 
2422	 9.14223224384365E-02 
2423	 0.091305291042807 
2424	 0.0911950910968 
2425	 9.11333893954342E-02 
2426	 9.10142272529506E-02 
2427	 9.07745513849957E-02 
2428	 9.06809832815911E-02 
2429	 9.07370236245004E-02 
2430	 9.06588177192433E-02 
2431	 9.06562310290305E-02 
2432	 9.06129188678131E-02 
2433	 9.03308228316406E-02 
2434	 9.02318377710392E-02 
2435	 9.02559353714098E-02 
2436	 0.090163736923458 
2437	 9.01730863946465E-02 
2438	 0.090098971505778 
2439	 8.98880926019983E-02 
2440	 8.97256174706023E-02 
2441	 8.94918432886868E-02 
2442	 8.93380729844398E-02 
2443	 8.92413336592883E-02 
2444	 8.92584207538443E-02 
2445	 8.94212442836001E-02 
2446	 8.94536092441823E-02 
2447	 8.94824158187061E-02 
2448	 8.94404424415956E-02 
2449	 8.92666210450958E-02 
2450	 8.91680484287514E-02 
2451	 8.91529450898376E-02 
2452	 8.90680908805154E-02 
2453	 8.89494527644482E-02 
2454	 8.88466322890377E-02 
2455	 8.86999100810129E-02 
2456	 0.088556439897692 
2457	 0.088380619594766 
2458	 0.088284518417225 
2459	 8.83020021445093E-02 
2460	 8.82035758469069E-02 
2461	 8.80840038813699E-02 
2462	 8.79733261859231E-02 
2463	 8.77598174180788E-02 
2464	 8.75336078324268E-02 
2465	 8.73473615481867E-02 
2466	 8.71616507111585E-02 
2467	 8.68635221214916E-02 
2468	 8.67377817118396E-02 
2469	 8.67750027311953E-02 
2470	 8.68352764960614E-02 
2471	 8.68309383255773E-02 
2472	 8.67049462689376E-02 
2473	 8.65676699420575E-02 
2474	 8.63898208941544E-02 
2475	 8.62103005686691E-02 
2476	 0.086078817145529 
2477	 8.60284548161211E-02 
2478	 8.60787925002589E-02 
2479	 8.60262984187852E-02 
2480	 8.59911702575923E-02 
2481	 8.58846622174323E-02 
2482	 8.56403867135594E-02 
2483	 8.55346937892153E-02 
2484	 8.55143251741658E-02 
2485	 8.56480493347485E-02 
2486	 0.085741819926401 
2487	 8.57400849312064E-02 
2488	 8.58859738276186E-02 
2489	 8.57899674328962E-02 
2490	 8.55396885100012E-02 
2491	 8.53982760525165E-02 
2492	 8.53652509327093E-02 
2493	 8.54761529962355E-02 
2494	 8.56938866172322E-02 
2495	 8.58376045021847E-02 
2496	 8.57812349764066E-02 
2497	 0.085688519654181 
2498	 8.54477050326891E-02 
2499	 8.53560494819911E-02 
2500	 8.53873592369993E-02 
