Wavelength	MM_3300004.asd
350	 4.01452700327434E-02 
351	 0.046691002972207 
352	 4.10224501011407E-02 
353	 2.75533876857672E-02 
354	 3.50295019874527E-02 
355	 0.039342343202812 
356	 3.69873009642663E-02 
357	 3.23321298484469E-02 
358	 3.82474709747538E-02 
359	 3.54134176683659E-02 
360	 2.98508516532126E-02 
361	 4.09615525481307E-02 
362	 4.12949489622541E-02 
363	 3.78807735312337E-02 
364	 3.63175701490727E-02 
365	 3.23846234797619E-02 
366	 3.69432630632729E-02 
367	 4.10237397676159E-02 
368	 3.58073332854554E-02 
369	 3.47754859483176E-02 
370	 0.035824805794092 
371	 3.71919905300233E-02 
372	 3.76740607853476E-02 
373	 3.73853096650159E-02 
374	 3.72879899641544E-02 
375	 3.80592510463175E-02 
376	 4.01059957488285E-02 
377	 3.61018363396825E-02 
378	 3.39050502176424E-02 
379	 4.06331442710842E-02 
380	 0.040349638452813 
381	 0.039175141607346 
382	 0.040609567727128 
383	 4.48167444965993E-02 
384	 4.32288610257602E-02 
385	 4.04312937373597E-02 
386	 4.01569979391979E-02 
387	 4.07212343622249E-02 
388	 4.36812930299898E-02 
389	 0.046022346862949 
390	 4.46868448830856E-02 
391	 4.32202198644363E-02 
392	 4.30150404263399E-02 
393	 4.42427413715011E-02 
394	 4.60641803501957E-02 
395	 4.71724994344493E-02 
396	 4.82067511759438E-02 
397	 4.94425607543053E-02 
398	 0.049554812177617 
399	 4.94453020750631E-02 
400	 5.03784171579741E-02 
401	 5.27474730324518E-02 
402	 5.15576282822106E-02 
403	 5.11006988827419E-02 
404	 5.25552922237612E-02 
405	 5.34576848991169E-02 
406	 5.43582039017606E-02 
407	 5.48990305383102E-02 
408	 5.51531934544049E-02 
409	 5.67878945441253E-02 
410	 5.70144334494978E-02 
411	 5.67978952929395E-02 
412	 5.83582710820429E-02 
413	 5.93652129783839E-02 
414	 5.92568231839724E-02 
415	 5.85752731081624E-02 
416	 5.89896417818361E-02 
417	 5.91675165501754E-02 
418	 5.95307392506434E-02 
419	 6.03714429494911E-02 
420	 6.01002552065101E-02 
421	 5.99047204714303E-02 
422	 6.02873106834044E-02 
423	 6.11476201649706E-02 
424	 0.061449576718392 
425	 6.09397625106696E-02 
426	 6.02415276181023E-02 
427	 6.14573868330875E-02 
428	 0.061591400351307 
429	 6.13114264605369E-02 
430	 6.19733758926331E-02 
431	 6.20332928308946E-02 
432	 6.19494762860558E-02 
433	 6.20398921908703E-02 
434	 6.23754994683834E-02 
435	 6.27605206277671E-02 
436	 6.29949623436465E-02 
437	 6.30009742204626E-02 
438	 6.29160761645154E-02 
439	 0.063336486646073 
440	 6.39324760503653E-02 
441	 6.40195725249641E-02 
442	 6.41820265911396E-02 
443	 6.46302642343494E-02 
444	 6.52125555792773E-02 
445	 0.065304780307149 
446	 6.53756222366139E-02 
447	 6.56074676822183E-02 
448	 6.59849518708733E-02 
449	 6.60031993124775E-02 
450	 6.62450105505497E-02 
451	 6.67393933868564E-02 
452	 6.70365840176806E-02 
453	 6.73113809011264E-02 
454	 6.75133108632155E-02 
455	 6.76465054300737E-02 
456	 6.79464910610586E-02 
457	 6.81252976654476E-02 
458	 6.82189094420933E-02 
459	 6.83769928540685E-02 
460	 6.83703578290395E-02 
461	 6.84679133500389E-02 
462	 6.87633299942772E-02 
463	 6.90516585893236E-02 
464	 6.93715288583196E-02 
465	 6.95206428219149E-02 
466	 0.069414517693341 
467	 6.96717094227287E-02 
468	 0.06979659505979 
469	 6.96879865063796E-02 
470	 6.95990640436021E-02 
471	 6.97674416179769E-02 
472	 7.01212373229689E-02 
473	 7.04630672010776E-02 
474	 7.04383187550504E-02 
475	 7.03662391523438E-02 
476	 0.07040171094067 
477	 7.05797604402505E-02 
478	 7.06258689070881E-02 
479	 7.06911906556264E-02 
480	 7.07846178379437E-02 
481	 7.06542762619608E-02 
482	 0.070984769041435 
483	 0.071366491170565 
484	 7.13274591170599E-02 
485	 7.14698228679488E-02 
486	 7.15291036898165E-02 
487	 7.14490618643362E-02 
488	 7.13743126538732E-02 
489	 7.15460945839617E-02 
490	 7.18333923994821E-02 
491	 7.20427000477988E-02 
492	 7.19823635722405E-02 
493	 7.20193283865936E-02 
494	 7.21493234168574E-02 
495	 7.22229921019508E-02 
496	 7.24914177544843E-02 
497	 7.25773712095099E-02 
498	 7.24722283054579E-02 
499	 7.28037201284834E-02 
500	 7.28817483960504E-02 
501	 7.27681491953858E-02 
502	 7.27348962603571E-02 
503	 7.29438876069876E-02 
504	 0.072998220115943 
505	 7.29297321006006E-02 
506	 7.31493936849456E-02 
507	 7.32229705924075E-02 
508	 7.32473149532434E-02 
509	 7.33313332528062E-02 
510	 7.33264798378265E-02 
511	 7.33559903557496E-02 
512	 7.34564086476812E-02 
513	 7.35936846795329E-02 
514	 7.35500196819769E-02 
515	 7.35415548792797E-02 
516	 7.36780561273032E-02 
517	 7.38164833116289E-02 
518	 7.38963297791123E-02 
519	 7.39280314722437E-02 
520	 7.39551578323849E-02 
521	 7.40033209968909E-02 
522	 7.41579272165516E-02 
523	 7.43317587318766E-02 
524	 7.42657580987245E-02 
525	 7.42481593295194E-02 
526	 7.43121185799712E-02 
527	 7.44198206278619E-02 
528	 7.45227075777557E-02 
529	 7.45237055613363E-02 
530	 0.074535483514178 
531	 7.47663643072387E-02 
532	 7.47976385959202E-02 
533	 7.48193257373137E-02 
534	 7.49510386716518E-02 
535	 7.49742624374509E-02 
536	 7.50565771515732E-02 
537	 7.51611615190795E-02 
538	 7.51953851085703E-02 
539	 0.075257190692619 
540	 0.075320360554795 
541	 7.53938860837327E-02 
542	 7.55474797145335E-02 
543	 7.56690029412471E-02 
544	 7.57534220695445E-02 
545	 0.075825087535898 
546	 7.58844051167525E-02 
547	 7.59874646892049E-02 
548	 7.61553457782797E-02 
549	 7.63687248261276E-02 
550	 7.64224235498601E-02 
551	 7.64835425063812E-02 
552	 7.66749720838679E-02 
553	 7.68251620988658E-02 
554	 0.076940497021784 
555	 7.70798673212703E-02 
556	 7.73051821637831E-02 
557	 7.73880109199273E-02 
558	 7.75379020341786E-02 
559	 7.78142320878311E-02 
560	 7.79321985615372E-02 
561	 7.79806037687905E-02 
562	 0.078110258773135 
563	 0.078431712566724 
564	 7.86853651242259E-02 
565	 7.89175678056753E-02 
566	 0.079190198535597 
567	 0.079558716627672 
568	 7.99078973598706E-02 
569	 8.01947841178935E-02 
570	 8.04137635818557E-02 
571	 8.05982972000545E-02 
572	 8.08427002393648E-02 
573	 8.11446462667945E-02 
574	 8.14312381036716E-02 
575	 8.16923535290066E-02 
576	 8.20095848292983E-02 
577	 8.24132007473443E-02 
578	 8.27915677625707E-02 
579	 8.31865168209998E-02 
580	 0.083568874432503 
581	 8.38933384330289E-02 
582	 8.42109557109927E-02 
583	 8.44996452628276E-02 
584	 8.47467888419664E-02 
585	 8.49588297331132E-02 
586	 8.52766877721258E-02 
587	 8.56387261687423E-02 
588	 8.59578704232045E-02 
589	 8.63424977918585E-02 
590	 8.66917471436907E-02 
591	 8.69735948784011E-02 
592	 8.72269793217044E-02 
593	 8.74482856712158E-02 
594	 8.76732080448034E-02 
595	 8.79426176626363E-02 
596	 0.088295053141599 
597	 8.87098157555585E-02 
598	 8.91680800239057E-02 
599	 8.96462301598404E-02 
600	 9.00668814510768E-02 
601	 9.04932980423536E-02 
602	 9.08966115167808E-02 
603	 9.10393950121043E-02 
604	 9.12420504312068E-02 
605	 9.15085503143915E-02 
606	 9.17446655290612E-02 
607	 9.19912425977326E-02 
608	 9.22160871611965E-02 
609	 9.24196733681373E-02 
610	 9.26433555923484E-02 
611	 9.28607946107074E-02 
612	 9.30813483431525E-02 
613	 9.33132610163557E-02 
614	 9.35441253944551E-02 
615	 9.37161795198214E-02 
616	 0.093854793134268 
617	 0.094035908627107 
618	 9.41963675680904E-02 
619	 9.43248879199906E-02 
620	 0.094429091115491 
621	 9.45349478921159E-02 
622	 9.46724318775744E-02 
623	 9.48186870856691E-02 
624	 9.49289221356089E-02 
625	 9.49787343762828E-02 
626	 9.50791855259886E-02 
627	 9.52441376832351E-02 
628	 9.53466806683239E-02 
629	 9.54834782073954E-02 
630	 9.56136349721107E-02 
631	 9.56904539879376E-02 
632	 9.57868795161606E-02 
633	 9.58925007007491E-02 
634	 9.60026186227726E-02 
635	 9.61167933409957E-02 
636	 9.62090531923961E-02 
637	 9.62950834930016E-02 
638	 9.63842094077892E-02 
639	 9.64526860939224E-02 
640	 9.65009592161674E-02 
641	 9.65506691968113E-02 
642	 9.66327910910077E-02 
643	 9.67594869705173E-02 
644	 9.68848248651626E-02 
645	 9.69870850871804E-02 
646	 9.70876964067361E-02 
647	 9.71713950781016E-02 
648	 9.72511261237157E-02 
649	 9.73477750044707E-02 
650	 9.74871994311347E-02 
651	 9.75746327832878E-02 
652	 9.76207214445033E-02 
653	 9.77260006495185E-02 
654	 9.78466870272264E-02 
655	 9.79515091050796E-02 
656	 9.80271382003644E-02 
657	 9.80948886347686E-02 
658	 9.81887909953953E-02 
659	 0.098316381862037 
660	 9.84585923466009E-02 
661	 9.85192790994212E-02 
662	 9.86105744743957E-02 
663	 9.87439022050895E-02 
664	 0.098752125103318 
665	 9.88961738004513E-02 
666	 9.90608930547476E-02 
667	 9.91019957476749E-02 
668	 9.92297131060514E-02 
669	 9.93748492515433E-02 
670	 9.95035818305662E-02 
671	 9.96180911216528E-02 
672	 9.97173634518003E-02 
673	 0.099851884886376 
674	 0.100035487124905 
675	 0.100183249163478 
676	 0.100281372891272 
677	 0.100369228148181 
678	 0.100501763250838 
679	 0.100633696822169 
680	 0.100774753885043 
681	 0.100923806363848 
682	 0.10106055916095 
683	 0.101181389225244 
684	 0.101317235446166 
685	 0.101483841443525 
686	 0.101608121826714 
687	 0.101735775267123 
688	 0.101885327157776 
689	 0.1020506625948 
690	 0.102196998621987 
691	 0.102322190291523 
692	 0.102444415329918 
693	 0.102615506041266 
694	 0.102754793055276 
695	 0.102868617445956 
696	 0.102997538259566 
697	 0.103174243403824 
698	 0.103353123925836 
699	 0.103507591670916 
700	 0.103638449667429 
701	 0.103782733038267 
702	 0.103945329248101 
703	 0.104109325672495 
704	 0.104215447751228 
705	 0.10434738348967 
706	 0.104494046753808 
707	 0.104607223249248 
708	 0.104785719070492 
709	 0.104940311204608 
710	 0.10504930288739 
711	 0.105217463081593 
712	 0.105347485930161 
713	 0.105446325276111 
714	 0.105551502865732 
715	 0.105699813685913 
716	 0.105832329793777 
717	 0.105937091570417 
718	 0.106037995830139 
719	 0.106127368959879 
720	 0.106231346963348 
721	 0.106352112341858 
722	 0.106435276028037 
723	 0.106549809664472 
724	 0.106677723144029 
725	 0.106782155572522 
726	 0.106897536176204 
727	 0.106987177453482 
728	 0.107049414151948 
729	 0.107118199456347 
730	 0.107220536981131 
731	 0.107311729674206 
732	 0.107363379396957 
733	 0.107412940839462 
734	 0.107505619732387 
735	 0.107577841693571 
736	 0.107557209111232 
737	 0.107626106881991 
738	 0.107683049899092 
739	 0.107698927550341 
740	 0.107744355444074 
741	 0.107776519476448 
742	 0.107802760435153 
743	 0.10782647813318 
744	 0.107807692642757 
745	 0.107810124337765 
746	 0.1078359622431 
747	 0.107853281199723 
748	 0.107828270623777 
749	 0.107794001292573 
750	 0.10777862397221 
751	 0.107794676836944 
752	 0.107763902656112 
753	 0.107735418995444 
754	 0.107750578187586 
755	 0.107738576599555 
756	 0.107707469826633 
757	 0.107664896673795 
758	 0.107619529928639 
759	 0.107579535114228 
760	 0.107508797525865 
761	 0.107425745411365 
762	 0.107418480832121 
763	 0.107394233176077 
764	 0.107343743663637 
765	 0.10727628513628 
766	 0.107187746046101 
767	 0.1071276355074 
768	 0.107082818070511 
769	 0.107014490852545 
770	 0.106960215230476 
771	 0.106902927352216 
772	 0.106831449457693 
773	 0.106747898128409 
774	 0.10667374663135 
775	 0.106604327877307 
776	 0.106529908575087 
777	 0.106443646131307 
778	 0.106368101647011 
779	 0.106315046636772 
780	 0.106277620769335 
781	 0.10617430297515 
782	 0.106091005311363 
783	 0.106031609878062 
784	 0.105905535312328 
785	 0.105806271157235 
786	 0.105723301861638 
787	 0.105645512897094 
788	 0.105616708789424 
789	 0.105558287982703 
790	 0.105462593095228 
791	 0.1053578813512 
792	 0.105292255913481 
793	 0.105232371534294 
794	 0.105169144890332 
795	 0.10511516244523 
796	 0.105021104263374 
797	 0.104921123650566 
798	 0.104846779051187 
799	 0.104801932283837 
800	 0.104724589448182 
801	 0.104630507923382 
802	 0.104552527010644 
803	 0.104481537779541 
804	 0.104429667214894 
805	 0.104368255083054 
806	 0.104257695559648 
807	 0.104191521159513 
808	 0.104133678547632 
809	 0.104064076358056 
810	 0.104002350517367 
811	 0.103965227376959 
812	 0.103892171167165 
813	 0.103771003035592 
814	 0.103773838378799 
815	 0.103708253873331 
816	 0.103613645307391 
817	 0.103597109134865 
818	 0.103569094683499 
819	 0.103515325501542 
820	 0.103431934340727 
821	 0.103328349140616 
822	 0.10328392314326 
823	 0.103246693352508 
824	 0.103182338531774 
825	 0.103119508845821 
826	 0.103104473601441 
827	 0.103063820137488 
828	 0.102954590007821 
829	 0.102943664007909 
830	 0.102892786305414 
831	 0.102830718091371 
832	 0.102845344356614 
833	 0.102848873745869 
834	 0.10281330275354 
835	 0.102736947257328 
836	 0.102647076225006 
837	 0.102656491389777 
838	 0.102677719882777 
839	 0.102634980750669 
840	 0.102532063489718 
841	 0.10246551428897 
842	 0.102468766307803 
843	 0.102515338144248 
844	 0.102463836680368 
845	 0.102446238412813 
846	 0.102442761210264 
847	 0.102386196009459 
848	 0.102374574154852 
849	 0.102389341093233 
850	 0.102395933035313 
851	 0.102361287766051 
852	 0.102352623360279 
853	 0.102328509533611 
854	 0.102272765772806 
855	 0.102227731880374 
856	 0.102278666516787 
857	 0.102354759028556 
858	 0.102370064909923 
859	 0.102292281783811 
860	 0.102305515642137 
861	 0.10235389431983 
862	 0.102330277250107 
863	 0.102330441977119 
864	 0.102321210438014 
865	 0.102327075965003 
866	 0.102384521346327 
867	 0.102348298845444 
868	 0.102295803604031 
869	 0.102294697630087 
870	 0.102367723610135 
871	 0.102392825219639 
872	 0.102402260749764 
873	 0.102427452286968 
874	 0.102453711616936 
875	 0.102461859557911 
876	 0.102458726267087 
877	 0.102464141910173 
878	 0.102511890703413 
879	 0.102573027316129 
880	 0.102610261902751 
881	 0.102611156729421 
882	 0.102670514720971 
883	 0.102725077982158 
884	 0.102749004502164 
885	 0.102752844927944 
886	 0.102805293264974 
887	 0.102873639133281 
888	 0.10292316522866 
889	 0.10293618256697 
890	 0.102993594019747 
891	 0.103083557496848 
892	 0.103143576329354 
893	 0.103081114289269 
894	 0.103090661372869 
895	 0.103179820842588 
896	 0.103303256557818 
897	 0.103398421545008 
898	 0.103415119508494 
899	 0.103433391276655 
900	 0.103516856637741 
901	 0.103588776782786 
902	 0.103638561949466 
903	 0.103693109762749 
904	 0.1037749232354 
905	 0.103828332257448 
906	 0.103905915281743 
907	 0.103997975209957 
908	 0.10407805820497 
909	 0.104212989755679 
910	 0.104261204581448 
911	 0.104298404397405 
912	 0.104487692357044 
913	 0.104504659583179 
914	 0.10455187158592 
915	 0.104677055367435 
916	 0.104756233356842 
917	 0.104804691277506 
918	 0.10489682584925 
919	 0.105007751175157 
920	 0.105011922312462 
921	 0.105149502181167 
922	 0.105294638741835 
923	 0.105376707760142 
924	 0.105496042329811 
925	 0.105572786836509 
926	 0.105670298499525 
927	 0.105789782052121 
928	 0.105769090063845 
929	 0.10593898448219 
930	 0.106126384869218 
931	 0.106174429193398 
932	 0.106267692159725 
933	 0.106474320989667 
934	 0.106615512068949 
935	 0.106588553711729 
936	 0.106733332489219 
937	 0.106810011194014 
938	 0.106903019414211 
939	 0.107115337753867 
940	 0.107244382990247 
941	 0.107318755916028 
942	 0.107397834717285 
943	 0.107522798270928 
944	 0.107605292239085 
945	 0.107676737696936 
946	 0.107791910821801 
947	 0.107978254135956 
948	 0.108119874577187 
949	 0.108193976340915 
950	 0.108252617923911 
951	 0.108370504741281 
952	 0.108533957527609 
953	 0.108652431427754 
954	 0.108736379274094 
955	 0.108847003072055 
956	 0.108955740444146 
957	 0.109097471827969 
958	 0.109242686531684 
959	 0.109339100882129 
960	 0.10945457114486 
961	 0.109520520759799 
962	 0.109614394968143 
963	 0.109851107986636 
964	 0.109979123475054 
965	 0.110051335684478 
966	 0.11016768462547 
967	 0.110405927389954 
968	 0.110635915195669 
969	 0.110770505524386 
970	 0.110862445470201 
971	 0.111022564574661 
972	 0.111102322461379 
973	 0.111248753971004 
974	 0.111448318874611 
975	 0.111588190122173 
976	 0.111736767128713 
977	 0.111940318091619 
978	 0.112067485588166 
979	 0.111976744992271 
980	 0.11210341526893 
981	 0.112264882544932 
982	 0.112401894287917 
983	 0.112570364536521 
984	 0.112868793728761 
985	 0.113041696260361 
986	 0.113065926558195 
987	 0.113093288470258 
988	 0.113302305839398 
989	 0.113539220481343 
990	 0.113715678831901 
991	 0.113831122220535 
992	 0.11404246547347 
993	 0.114150419816881 
994	 0.114277273591083 
995	 0.114559471626652 
996	 0.114547602261113 
997	 0.114704209640655 
998	 0.114912407632948 
999	 0.114958491159515 
1000	 0.115182229919258 
1001	 0.113371479346868 
1002	 0.113408070765569 
1003	 0.113499322516822 
1004	 0.113614411900288 
1005	 0.113742061830986 
1006	 0.113863794963773 
1007	 0.114042845246912 
1008	 0.114153400841505 
1009	 0.114201699431645 
1010	 0.114299559042093 
1011	 0.114386143885607 
1012	 0.114490012089383 
1013	 0.114616717398562 
1014	 0.114685099442489 
1015	 0.114777272669938 
1016	 0.114881211742936 
1017	 0.11498311636624 
1018	 0.115088694892388 
1019	 0.115198256126931 
1020	 0.115290349974561 
1021	 0.115396625951201 
1022	 0.115451885664398 
1023	 0.115537435272447 
1024	 0.115671776772709 
1025	 0.115735395905628 
1026	 0.115780859332193 
1027	 0.115851350746477 
1028	 0.115936190410351 
1029	 0.11601333851783 
1030	 0.116086904354135 
1031	 0.116155271411301 
1032	 0.116235010599725 
1033	 0.116217836193888 
1034	 0.116218399851085 
1035	 0.116306701712303 
1036	 0.116418520023141 
1037	 0.116601591332517 
1038	 0.116726868040887 
1039	 0.116799912022913 
1040	 0.116854109062727 
1041	 0.116831308974916 
1042	 0.116876622668172 
1043	 0.116972686573726 
1044	 0.117040859347775 
1045	 0.117097155110799 
1046	 0.117180471845137 
1047	 0.117253737392846 
1048	 0.117304265520854 
1049	 0.117389423210611 
1050	 0.117490254390087 
1051	 0.117613744466155 
1052	 0.117732893793772 
1053	 0.117791809870022 
1054	 0.117806334827284 
1055	 0.117812819244466 
1056	 0.117882588288628 
1057	 0.117938410576548 
1058	 0.118018770638407 
1059	 0.11808666590734 
1060	 0.118150312981057 
1061	 0.118198466134283 
1062	 0.118291607342724 
1063	 0.118416848554321 
1064	 0.118514730467318 
1065	 0.11857679730782 
1066	 0.118609629455354 
1067	 0.118660154461665 
1068	 0.118731608095301 
1069	 0.118797065334312 
1070	 0.118849721879184 
1071	 0.118875114421338 
1072	 0.11892115171313 
1073	 0.118995360041144 
1074	 0.119032312039835 
1075	 0.119048095384225 
1076	 0.119086317663799 
1077	 0.119113818489154 
1078	 0.119078410410228 
1079	 0.119075663556516 
1080	 0.119103273457862 
1081	 0.119098759358706 
1082	 0.119110473097343 
1083	 0.119137348465396 
1084	 0.119178667891434 
1085	 0.119208393457634 
1086	 0.119265464213548 
1087	 0.119281396335219 
1088	 0.119262596347187 
1089	 0.11927129189568 
1090	 0.119277950207847 
1091	 0.119276935249211 
1092	 0.119345654822703 
1093	 0.119373577376043 
1094	 0.119371734926995 
1095	 0.119434116708544 
1096	 0.119457235500768 
1097	 0.119425050377059 
1098	 0.119399922248452 
1099	 0.119333075932169 
1100	 0.119323839994232 
1101	 0.119332406509927 
1102	 0.119351290481641 
1103	 0.11942319079814 
1104	 0.119438214749053 
1105	 0.119473077233321 
1106	 0.119518031372264 
1107	 0.119541000413944 
1108	 0.119576229937385 
1109	 0.119580131563467 
1110	 0.119574048361796 
1111	 0.119589040601074 
1112	 0.119620030328733 
1113	 0.119641790939832 
1114	 0.119681018587888 
1115	 0.119689512652295 
1116	 0.119643170528663 
1117	 0.11967047534783 
1118	 0.119731974537167 
1119	 0.119776978440103 
1120	 0.11983905366676 
1121	 0.119896847863833 
1122	 0.119908049122401 
1123	 0.119904624874139 
1124	 0.119919114578719 
1125	 0.119942709821996 
1126	 0.119968416128059 
1127	 0.119999644000545 
1128	 0.120021552704344 
1129	 0.120046802485205 
1130	 0.120070747499229 
1131	 0.120079161157006 
1132	 0.120097721300119 
1133	 0.1201478856704 
1134	 0.120161817232113 
1135	 0.120159335099668 
1136	 0.120151397803025 
1137	 0.120129043983349 
1138	 0.120080727636598 
1139	 0.120055138322759 
1140	 0.120040894169611 
1141	 0.120012263979924 
1142	 0.119974047870003 
1143	 0.119954996975537 
1144	 0.119945101205973 
1145	 0.119921064421515 
1146	 0.119928427768109 
1147	 0.119882568959494 
1148	 0.11976329883697 
1149	 0.119702983599309 
1150	 0.11964041053755 
1151	 0.119599878852464 
1152	 0.119583031859386 
1153	 0.119581420734545 
1154	 0.11957416180371 
1155	 0.119557708636896 
1156	 0.119552036606466 
1157	 0.119562736127787 
1158	 0.119565759011399 
1159	 0.119563412598416 
1160	 0.119566016364965 
1161	 0.119579602685974 
1162	 0.119581408198529 
1163	 0.119567302904761 
1164	 0.119570861536691 
1165	 0.119592192713189 
1166	 0.119589824866807 
1167	 0.119576219515622 
1168	 0.119592934776966 
1169	 0.119602941021751 
1170	 0.119602754960869 
1171	 0.11961363336065 
1172	 0.119640409374351 
1173	 0.119658735084629 
1174	 0.119674961016194 
1175	 0.119686290960483 
1176	 0.119695343380867 
1177	 0.119710791534141 
1178	 0.119719994693555 
1179	 0.119736025118799 
1180	 0.119776539666237 
1181	 0.119793171534854 
1182	 0.119798242798258 
1183	 0.119792499394184 
1184	 0.119801219967404 
1185	 0.119800469717366 
1186	 0.119812565190593 
1187	 0.119846814633835 
1188	 0.119859384049685 
1189	 0.119856950781433 
1190	 0.119869793180408 
1191	 0.119890957776762 
1192	 0.119897790359025 
1193	 0.119893807188608 
1194	 0.119909280877097 
1195	 0.119925694921911 
1196	 0.119941407468221 
1197	 0.119985507793015 
1198	 0.120008184534319 
1199	 0.120020103664545 
1200	 0.120005459216737 
1201	 0.120025826604589 
1202	 0.120054911166556 
1203	 0.120078103919731 
1204	 0.120120285172445 
1205	 0.12014242030294 
1206	 0.120140342627487 
1207	 0.120159966806899 
1208	 0.120191923329897 
1209	 0.120212658880992 
1210	 0.120242833654398 
1211	 0.120258808439184 
1212	 0.120243532473407 
1213	 0.120255947193178 
1214	 0.120280719713703 
1215	 0.120302714070122 
1216	 0.120330449876007 
1217	 0.120380010089993 
1218	 0.120404058227893 
1219	 0.120408460157888 
1220	 0.120435509574637 
1221	 0.120465111843922 
1222	 0.120497646975375 
1223	 0.120556875482036 
1224	 0.120581185559859 
1225	 0.120582568698016 
1226	 0.12059475721978 
1227	 0.120589013708594 
1228	 0.120597694448294 
1229	 0.120619833440574 
1230	 0.120640514536863 
1231	 0.120660802960777 
1232	 0.120685631775985 
1233	 0.120713993102799 
1234	 0.120754244703185 
1235	 0.120772174000377 
1236	 0.120784752505183 
1237	 0.120795894980619 
1238	 0.120794338484357 
1239	 0.120793331840493 
1240	 0.120780969332427 
1241	 0.120794314608803 
1242	 0.120813311607699 
1243	 0.120835363028939 
1244	 0.1208936249867 
1245	 0.12092174767737 
1246	 0.120923048726518 
1247	 0.1209386319499 
1248	 0.120952786317377 
1249	 0.120964333784025 
1250	 0.120991404346024 
1251	 0.121017680414753 
1252	 0.121035735318788 
1253	 0.121057722145722 
1254	 0.12105782220123 
1255	 0.121036282575808 
1256	 0.121033172012289 
1257	 0.121019384411217 
1258	 0.121018056847003 
1259	 0.121033079941498 
1260	 0.12104378031486 
1261	 0.12105566230609 
1262	 0.121067697415261 
1263	 0.121088667186461 
1264	 0.121098585736686 
1265	 0.121103627352369 
1266	 0.121103115281441 
1267	 0.121081986421112 
1268	 0.121082687869528 
1269	 0.121080694961879 
1270	 0.12107192551565 
1271	 0.121083756529633 
1272	 0.121112414577505 
1273	 0.121131996575199 
1274	 0.121157439401548 
1275	 0.121186919419864 
1276	 0.121215758280357 
1277	 0.121246503916616 
1278	 0.121291738901001 
1279	 0.121320803746121 
1280	 0.121340386370197 
1281	 0.121361331862495 
1282	 0.121366432105346 
1283	 0.121387862727411 
1284	 0.121420751862159 
1285	 0.121450409291917 
1286	 0.12148254865779 
1287	 0.12151769042936 
1288	 0.121537121799984 
1289	 0.12154271761157 
1290	 0.12155725117951 
1291	 0.121570604149589 
1292	 0.12157607325695 
1293	 0.121588385552065 
1294	 0.121577715329606 
1295	 0.121546693186372 
1296	 0.121523621117559 
1297	 0.121492795604871 
1298	 0.121459046284157 
1299	 0.12142830167328 
1300	 0.121388564137349 
1301	 0.121345075014348 
1302	 0.121290895445143 
1303	 0.121227653799871 
1304	 0.121158740486716 
1305	 0.121078188947991 
1306	 0.121006891316919 
1307	 0.120960036091798 
1308	 0.120900312760645 
1309	 0.120830729821253 
1310	 0.120766971757902 
1311	 0.120676994560183 
1312	 0.120556266160444 
1313	 0.120459034619257 
1314	 0.12035689184893 
1315	 0.120265463298711 
1316	 0.120186852130574 
1317	 0.120103865005466 
1318	 0.120031104748477 
1319	 0.119940181448763 
1320	 0.119844675875082 
1321	 0.119743944137535 
1322	 0.119616672808742 
1323	 0.119514254160907 
1324	 0.119434375757617 
1325	 0.119322169491507 
1326	 0.119230542518887 
1327	 0.119150708238763 
1328	 0.119050269605196 
1329	 0.118965973807898 
1330	 0.118869753568157 
1331	 0.118773041245136 
1332	 0.118663717064433 
1333	 0.118540550337658 
1334	 0.118430945588848 
1335	 0.118306377853387 
1336	 0.11821283250572 
1337	 0.118143871278792 
1338	 0.118068514221998 
1339	 0.118020004742248 
1340	 0.117945390687165 
1341	 0.117855593990284 
1342	 0.117766277823924 
1343	 0.117664709283432 
1344	 0.117563056809737 
1345	 0.117488248573773 
1346	 0.117391536666466 
1347	 0.117280979629077 
1348	 0.117179947678146 
1349	 0.117062634674156 
1350	 0.116946188507052 
1351	 0.116840943533779 
1352	 0.116752435802981 
1353	 0.116651188859285 
1354	 0.116553261279932 
1355	 0.116437290487749 
1356	 0.116305840402695 
1357	 0.116187090627293 
1358	 0.116054673050249 
1359	 0.115943492809473 
1360	 0.115850913411016 
1361	 0.11575164775609 
1362	 0.115664958075137 
1363	 0.11556679259282 
1364	 0.115463121960969 
1365	 0.115360910145813 
1366	 0.11525892146885 
1367	 0.115141287928473 
1368	 0.115043663971718 
1369	 0.114936173431891 
1370	 0.114804606188985 
1371	 0.114646262530362 
1372	 0.114456513020611 
1373	 0.11424696333099 
1374	 0.114002380627151 
1375	 0.11374324902356 
1376	 0.113424822430857 
1377	 0.113063662881308 
1378	 0.112661943417927 
1379	 0.11219813396836 
1380	 0.111736211904684 
1381	 0.111251266224664 
1382	 0.110734653348816 
1383	 0.11020406789103 
1384	 0.10963877237007 
1385	 0.109055861430426 
1386	 0.108423090468941 
1387	 0.107751105029377 
1388	 0.107057826401055 
1389	 0.106345093126087 
1390	 0.10555758580998 
1391	 0.10474404410078 
1392	 0.103898040521999 
1393	 0.10298110737322 
1394	 0.102051842719179 
1395	 0.101125153814046 
1396	 0.100194792715993 
1397	 9.92744176447244E-02 
1398	 9.83513668311343E-02 
1399	 9.74471010455163E-02 
1400	 9.65430902194581E-02 
1401	 9.56705790557821E-02 
1402	 9.48072400591407E-02 
1403	 9.39914750286181E-02 
1404	 9.31970869348199E-02 
1405	 9.24500359115286E-02 
1406	 9.17520063914674E-02 
1407	 9.10686737318203E-02 
1408	 9.04046072124274E-02 
1409	 8.97904683226402E-02 
1410	 8.91985324030595E-02 
1411	 8.86653742467092E-02 
1412	 8.81861743520783E-02 
1413	 8.77503878551671E-02 
1414	 0.087353347767685 
1415	 8.69631668477728E-02 
1416	 8.65934604667684E-02 
1417	 8.62670576712433E-02 
1418	 8.59752554419262E-02 
1419	 8.57175245532955E-02 
1420	 8.54985016249359E-02 
1421	 8.52897843451066E-02 
1422	 8.50751012712185E-02 
1423	 8.48611843134207E-02 
1424	 8.46702089684245E-02 
1425	 8.44883804445532E-02 
1426	 8.43194799389494E-02 
1427	 8.41685191156167E-02 
1428	 8.40308130207363E-02 
1429	 8.39010028717777E-02 
1430	 8.37816656211595E-02 
1431	 8.36820447421504E-02 
1432	 8.35892602775217E-02 
1433	 8.35033055122349E-02 
1434	 0.083422199178216 
1435	 8.33508462292163E-02 
1436	 8.32881818882192E-02 
1437	 8.32340355950564E-02 
1438	 8.31821180046802E-02 
1439	 8.31352977984778E-02 
1440	 8.31035209838659E-02 
1441	 8.30671664176763E-02 
1442	 8.30248396546927E-02 
1443	 8.30014825763072E-02 
1444	 8.29858551012125E-02 
1445	 8.29894514592893E-02 
1446	 8.30057783606676E-02 
1447	 8.30047148300732E-02 
1448	 8.30090597752942E-02 
1449	 8.30172549019023E-02 
1450	 8.30187714675091E-02 
1451	 8.30314183196314E-02 
1452	 8.30609328216136E-02 
1453	 8.30852519482969E-02 
1454	 8.31051161570092E-02 
1455	 8.31331581474477E-02 
1456	 8.31680172248902E-02 
1457	 8.32037352234549E-02 
1458	 8.32304014037477E-02 
1459	 8.32867408336829E-02 
1460	 8.33621852911164E-02 
1461	 8.34407810557991E-02 
1462	 8.35335864953128E-02 
1463	 8.36335018535852E-02 
1464	 8.37397831417466E-02 
1465	 0.083849905757499 
1466	 8.39729981881234E-02 
1467	 8.41018662209639E-02 
1468	 8.42170102354244E-02 
1469	 8.43647620480549E-02 
1470	 8.45425632015245E-02 
1471	 8.47172759554876E-02 
1472	 8.48966708656563E-02 
1473	 8.50889160651041E-02 
1474	 8.52807776793112E-02 
1475	 8.54746086455673E-02 
1476	 8.56772566000191E-02 
1477	 8.58897991833672E-02 
1478	 8.61075678081887E-02 
1479	 8.63375283806346E-02 
1480	 8.65747796326395E-02 
1481	 0.086808893693593 
1482	 8.70290772345434E-02 
1483	 8.72254446178725E-02 
1484	 8.74517317578796E-02 
1485	 8.76808100675769E-02 
1486	 8.79190249567984E-02 
1487	 8.81846450917436E-02 
1488	 8.84230927546603E-02 
1489	 8.86528850788194E-02 
1490	 8.88846346742217E-02 
1491	 0.089108179316338 
1492	 8.93341817605248E-02 
1493	 8.95547872347271E-02 
1494	 8.97878363183884E-02 
1495	 9.00300357393653E-02 
1496	 9.02621684969641E-02 
1497	 0.090499922940508 
1498	 9.07314160836736E-02 
1499	 9.09528184308639E-02 
1500	 9.11776885880078E-02 
1501	 9.14067551881498E-02 
1502	 9.16289950199268E-02 
1503	 9.18429466712827E-02 
1504	 9.20582655583614E-02 
1505	 9.22816224511084E-02 
1506	 9.25151351656958E-02 
1507	 9.27489305836168E-02 
1508	 9.29672640237786E-02 
1509	 9.31703961110023E-02 
1510	 9.33638714223417E-02 
1511	 9.35625125071152E-02 
1512	 9.37682957850212E-02 
1513	 9.39786708902983E-02 
1514	 9.41915905985586E-02 
1515	 9.43977021964274E-02 
1516	 9.45972179897682E-02 
1517	 0.094795763135609 
1518	 9.49893715623936E-02 
1519	 9.51834500529917E-02 
1520	 9.53793040928297E-02 
1521	 9.55635690488927E-02 
1522	 9.57357366752433E-02 
1523	 9.59198712216359E-02 
1524	 0.096104527151197 
1525	 9.62867099166883E-02 
1526	 9.64739732152266E-02 
1527	 9.66562021139273E-02 
1528	 9.68339587620996E-02 
1529	 9.70084578944078E-02 
1530	 9.71868146894024E-02 
1531	 9.73561390796544E-02 
1532	 9.75139001599819E-02 
1533	 9.76756160817017E-02 
1534	 9.78310419754503E-02 
1535	 9.79925502499134E-02 
1536	 9.81593066324955E-02 
1537	 9.83191936382537E-02 
1538	 9.84852635668883E-02 
1539	 9.86401773362017E-02 
1540	 9.87806393745955E-02 
1541	 9.89289106517787E-02 
1542	 9.90814505862348E-02 
1543	 9.92213979423515E-02 
1544	 9.93534118975073E-02 
1545	 9.94913446791854E-02 
1546	 9.96219944434679E-02 
1547	 9.97528877309523E-02 
1548	 9.99011958794821E-02 
1549	 0.100039289012427 
1550	 0.100176333771328 
1551	 0.100312887167547 
1552	 0.100427994312495 
1553	 0.100546918278968 
1554	 0.100668807498428 
1555	 0.100778239540614 
1556	 0.100891760716702 
1557	 0.101015023702104 
1558	 0.101119873446552 
1559	 0.101216560612104 
1560	 0.101315242893592 
1561	 0.101407484016047 
1562	 0.101512353613064 
1563	 0.101622415327722 
1564	 0.101725568565063 
1565	 0.101835721138564 
1566	 0.101940913757614 
1567	 0.10203982569779 
1568	 0.102134648865405 
1569	 0.102230990408892 
1570	 0.102319364352633 
1571	 0.102395537897545 
1572	 0.102479080793087 
1573	 0.102570547001793 
1574	 0.102645570577034 
1575	 0.10270788603217 
1576	 0.102778752351613 
1577	 0.102840761706746 
1578	 0.102912046303691 
1579	 0.102999914536197 
1580	 0.103071558357048 
1581	 0.103132385490933 
1582	 0.103203124657055 
1583	 0.103271767447888 
1584	 0.103342923980367 
1585	 0.103428314134589 
1586	 0.103497783208747 
1587	 0.103550532326916 
1588	 0.103616080124983 
1589	 0.103695554826486 
1590	 0.103749855477773 
1591	 0.103795715710024 
1592	 0.103843042740545 
1593	 0.103859640586992 
1594	 0.103898531755674 
1595	 0.103967830197942 
1596	 0.104014107797736 
1597	 0.104046897182644 
1598	 0.104091033670501 
1599	 0.104133495531438 
1600	 0.104170300200014 
1601	 0.104211499529691 
1602	 0.104255616410679 
1603	 0.104283530660922 
1604	 0.104328327073215 
1605	 0.10440306165717 
1606	 0.104456006774499 
1607	 0.104506479055109 
1608	 0.104552487937347 
1609	 0.104569103656158 
1610	 0.104568813118924 
1611	 0.104591192011036 
1612	 0.104620103194538 
1613	 0.104657358608096 
1614	 0.104708615468468 
1615	 0.104726636774399 
1616	 0.104738648862189 
1617	 0.104772697572397 
1618	 0.104799956377012 
1619	 0.104828628555448 
1620	 0.104856524548862 
1621	 0.104877603446747 
1622	 0.104879271720815 
1623	 0.104903089293138 
1624	 0.104938365021401 
1625	 0.10496549416043 
1626	 0.105000212063492 
1627	 0.10501897303426 
1628	 0.105025139388646 
1629	 0.105043858926064 
1630	 0.105063299051929 
1631	 0.105070391287299 
1632	 0.105081635725 
1633	 0.105083069397393 
1634	 0.105056255273576 
1635	 0.105070083268389 
1636	 0.105107396035306 
1637	 0.105125612501992 
1638	 0.105156465062563 
1639	 0.105173264505485 
1640	 0.105167559848604 
1641	 0.105180856162352 
1642	 0.105214271714636 
1643	 0.105215514376722 
1644	 0.105202409547419 
1645	 0.105196791896989 
1646	 0.105173543341096 
1647	 0.10516315483907 
1648	 0.105165158388792 
1649	 0.105163779842873 
1650	 0.105159473508029 
1651	 0.105156867758242 
1652	 0.105159179760179 
1653	 0.105160558690691 
1654	 0.105162096431064 
1655	 0.105158134196221 
1656	 0.105157787899076 
1657	 0.105147325853437 
1658	 0.105124035000976 
1659	 0.105107030631309 
1660	 0.105085975421888 
1661	 0.105072266399887 
1662	 0.105062407501862 
1663	 0.105053011296374 
1664	 0.105056134667453 
1665	 0.105038395931317 
1666	 0.105008017237519 
1667	 0.104984455826719 
1668	 0.104953566467053 
1669	 0.104922398118411 
1670	 0.104885710865922 
1671	 0.104870356733226 
1672	 0.104855094952446 
1673	 0.104854005140063 
1674	 0.104897644672704 
1675	 0.104891095527742 
1676	 0.104861310730811 
1677	 0.104837431790023 
1678	 0.104787433614989 
1679	 0.104757145486792 
1680	 0.104737896700634 
1681	 0.104720235169721 
1682	 0.104715440116691 
1683	 0.104689106296893 
1684	 0.104657928342993 
1685	 0.104624608173045 
1686	 0.104566364815098 
1687	 0.104532193909753 
1688	 0.104522309885822 
1689	 0.104488140683509 
1690	 0.104440855738317 
1691	 0.104410249931037 
1692	 0.104384177277597 
1693	 0.104343000294716 
1694	 0.104308831540176 
1695	 0.104268525599567 
1696	 0.104200441219046 
1697	 0.104154330314718 
1698	 0.104126002682944 
1699	 0.104091539626833 
1700	 0.104059869918144 
1701	 0.104021884878838 
1702	 0.103984095669912 
1703	 0.103941738387325 
1704	 0.103894547344979 
1705	 0.103846312331736 
1706	 0.103791355982339 
1707	 0.103745698164597 
1708	 0.103707097990475 
1709	 0.103653202228874 
1710	 0.103603143546366 
1711	 0.103541316683193 
1712	 0.103455055307656 
1713	 0.103387654977597 
1714	 0.103323521126712 
1715	 0.103264033939158 
1716	 0.103207628255691 
1717	 0.103160057212309 
1718	 0.103131333474905 
1719	 0.103079125551146 
1720	 0.103025259655787 
1721	 0.102965259227686 
1722	 0.102883824421785 
1723	 0.102809961845737 
1724	 0.102750524457668 
1725	 0.102662614093774 
1726	 0.102554217564415 
1727	 0.102459604366889 
1728	 0.102356533537097 
1729	 0.102253701266035 
1730	 0.102143984241228 
1731	 0.102066759979464 
1732	 0.102002314952725 
1733	 0.101930576724282 
1734	 0.101901338362389 
1735	 0.101815301032798 
1736	 0.101681924566157 
1737	 0.101576306437002 
1738	 0.101458978016116 
1739	 0.10135683271441 
1740	 0.101274666729476 
1741	 0.10117506944252 
1742	 0.101075715239518 
1743	 0.10096318374698 
1744	 0.100830488547953 
1745	 0.100723952808023 
1746	 0.100618188542965 
1747	 0.100517637760853 
1748	 0.10043722743866 
1749	 0.100329609933267 
1750	 0.100214728529196 
1751	 0.100107706313662 
1752	 0.100004557014431 
1753	 9.98927959428698E-02 
1754	 9.97834680451489E-02 
1755	 9.96616214093767E-02 
1756	 9.95180045373991E-02 
1757	 9.93936244774797E-02 
1758	 9.92740697608078E-02 
1759	 9.91620441708824E-02 
1760	 9.90570075701255E-02 
1761	 9.89485203865736E-02 
1762	 9.88551541024967E-02 
1763	 9.87429103397904E-02 
1764	 9.86340305129089E-02 
1765	 9.85448292736767E-02 
1766	 9.84405006443536E-02 
1767	 9.83468288243505E-02 
1768	 9.82530137056786E-02 
1769	 9.81414268038397E-02 
1770	 9.80196385596801E-02 
1771	 9.79138260072813E-02 
1772	 9.78318984126184E-02 
1773	 9.77276886890867E-02 
1774	 9.76277663402196E-02 
1775	 9.75604744201501E-02 
1776	 9.74712792930659E-02 
1777	 9.73766355483384E-02 
1778	 9.73284675509951E-02 
1779	 9.72577864919256E-02 
1780	 9.71718568572409E-02 
1781	 9.71211587476469E-02 
1782	 9.70537103767057E-02 
1783	 9.69703281260163E-02 
1784	 9.69236821624002E-02 
1785	 9.69201873072531E-02 
1786	 9.68855321144765E-02 
1787	 9.68522229948499E-02 
1788	 0.096823805349073 
1789	 9.67767062431353E-02 
1790	 9.67299508199907E-02 
1791	 9.66986405315362E-02 
1792	 9.66476144450853E-02 
1793	 9.65641035263852E-02 
1794	 9.65182816010258E-02 
1795	 0.096491610237982 
1796	 9.64624366300861E-02 
1797	 0.096441909657456 
1798	 9.64383183639534E-02 
1799	 9.64489839628112E-02 
1800	 9.64287354546216E-02 
1801	 0.094241155891025 
1802	 9.43165786553157E-02 
1803	 9.43984292007374E-02 
1804	 9.44866519417979E-02 
1805	 9.45447462002904E-02 
1806	 9.45989700394181E-02 
1807	 9.46789096569767E-02 
1808	 9.47440148518642E-02 
1809	 9.48269269253849E-02 
1810	 9.48690256722945E-02 
1811	 9.49054131016953E-02 
1812	 9.49013046173991E-02 
1813	 9.48784868659344E-02 
1814	 9.48327824328021E-02 
1815	 9.48060148652501E-02 
1816	 9.47667247317986E-02 
1817	 9.47479108728818E-02 
1818	 0.094744800501067 
1819	 9.47320385951483E-02 
1820	 9.47279077674251E-02 
1821	 9.47266036067961E-02 
1822	 9.46824150057804E-02 
1823	 0.094633105750048 
1824	 0.09459665239389 
1825	 9.45568120407802E-02 
1826	 9.45237155209878E-02 
1827	 9.44654266922481E-02 
1828	 9.44199820475438E-02 
1829	 9.43839110371473E-02 
1830	 9.43224944896569E-02 
1831	 9.42491579822529E-02 
1832	 9.42048025056678E-02 
1833	 9.41010351661781E-02 
1834	 9.39556717197863E-02 
1835	 9.38357868491423E-02 
1836	 9.37075255491651E-02 
1837	 9.36121684758622E-02 
1838	 9.35460612967986E-02 
1839	 9.34704659992845E-02 
1840	 9.34145834738883E-02 
1841	 9.33331191590602E-02 
1842	 9.32213731585241E-02 
1843	 9.31136735083345E-02 
1844	 9.29850247564283E-02 
1845	 0.092853871390521 
1846	 0.092738456740405 
1847	 0.092612681778249 
1848	 0.092471687832876 
1849	 9.23132231996787E-02 
1850	 9.21409192327161E-02 
1851	 9.19541643870794E-02 
1852	 9.17483461281031E-02 
1853	 9.15236693628493E-02 
1854	 9.12804196555073E-02 
1855	 9.10104346043489E-02 
1856	 9.07177350789542E-02 
1857	 0.090393393505031 
1858	 9.00452574906092E-02 
1859	 8.96801637734532E-02 
1860	 8.92732845728039E-02 
1861	 8.88274567504214E-02 
1862	 8.83585660425392E-02 
1863	 8.78594467053462E-02 
1864	 8.73151762215679E-02 
1865	 0.086745535608917 
1866	 8.61190990509531E-02 
1867	 8.54772087178367E-02 
1868	 8.47920244711673E-02 
1869	 8.40314692174583E-02 
1870	 8.32717512554115E-02 
1871	 8.24772730971852E-02 
1872	 8.16404122935919E-02 
1873	 0.080776808103305 
1874	 7.99254394783552E-02 
1875	 7.90266341890943E-02 
1876	 7.80804229637683E-02 
1877	 0.077105926679643 
1878	 7.60746925835818E-02 
1879	 0.074985137449979 
1880	 7.38741798795065E-02 
1881	 7.27077940692922E-02 
1882	 7.15361283168808E-02 
1883	 0.070344021562214 
1884	 6.91133030677133E-02 
1885	 6.78528522149485E-02 
1886	 6.65981987966402E-02 
1887	 6.53127517456142E-02 
1888	 0.064025829547326 
1889	 6.27707440153824E-02 
1890	 6.15281985660383E-02 
1891	 6.03268683582792E-02 
1892	 5.91518105258978E-02 
1893	 5.80133822530113E-02 
1894	 5.69041266361565E-02 
1895	 5.58363752173385E-02 
1896	 5.47868614260202E-02 
1897	 5.37872052600775E-02 
1898	 5.28612050524787E-02 
1899	 5.19960165859733E-02 
1900	 5.12024304943949E-02 
1901	 5.04718030482842E-02 
1902	 4.97931111193506E-02 
1903	 4.91773762669186E-02 
1904	 4.86090427890453E-02 
1905	 4.80947900718394E-02 
1906	 4.76394607979781E-02 
1907	 4.72195970703516E-02 
1908	 4.68490399842149E-02 
1909	 4.65086423019283E-02 
1910	 4.61781954792386E-02 
1911	 4.58775058398453E-02 
1912	 4.56050386126046E-02 
1913	 4.53581378243343E-02 
1914	 4.51348715959564E-02 
1915	 4.49347016641407E-02 
1916	 4.47719628533896E-02 
1917	 4.46138191731796E-02 
1918	 4.44577973169269E-02 
1919	 4.43357494511387E-02 
1920	 4.42395832210348E-02 
1921	 4.41617661379623E-02 
1922	 4.40858323638499E-02 
1923	 4.40159491681736E-02 
1924	 4.39594821007923E-02 
1925	 0.04389985356127 
1926	 0.04385751457842 
1927	 4.38305093350398E-02 
1928	 4.38257538709727E-02 
1929	 0.043811989564132 
1930	 4.38219405628948E-02 
1931	 4.38502125771653E-02 
1932	 4.38764056332874E-02 
1933	 0.043922826555658 
1934	 4.39718019299538E-02 
1935	 4.40270259476418E-02 
1936	 4.40894604670487E-02 
1937	 4.41573767232278E-02 
1938	 4.42319765499244E-02 
1939	 4.43104876945384E-02 
1940	 4.43892501792838E-02 
1941	 4.44849382300357E-02 
1942	 4.45774818390589E-02 
1943	 4.46697204326173E-02 
1944	 4.47849004521846E-02 
1945	 0.044887429236749 
1946	 4.50018043616412E-02 
1947	 4.51267029753345E-02 
1948	 4.52580353223513E-02 
1949	 4.53959383857611E-02 
1950	 4.55360070523535E-02 
1951	 4.56788550954849E-02 
1952	 4.58316911679868E-02 
1953	 4.59997324445639E-02 
1954	 4.61708486443265E-02 
1955	 4.63446742177462E-02 
1956	 4.65024983308883E-02 
1957	 4.66580766629847E-02 
1958	 4.67765262580262E-02 
1959	 4.69481409792063E-02 
1960	 4.71481856934017E-02 
1961	 4.73409664258762E-02 
1962	 4.75600292173507E-02 
1963	 4.77663837057489E-02 
1964	 4.79628193910149E-02 
1965	 4.81661559860708E-02 
1966	 4.83630674802245E-02 
1967	 4.85600879470646E-02 
1968	 4.87624530485524E-02 
1969	 4.89630112921822E-02 
1970	 4.91634967714939E-02 
1971	 4.93681598092598E-02 
1972	 4.95740128987575E-02 
1973	 4.97716270723917E-02 
1974	 4.99789632536409E-02 
1975	 5.01887336688808E-02 
1976	 5.04163297539317E-02 
1977	 5.06561987008703E-02 
1978	 5.08832884385937E-02 
1979	 5.10917168408067E-02 
1980	 0.051306674946533 
1981	 5.15247852961145E-02 
1982	 5.17277518188508E-02 
1983	 5.19446808859433E-02 
1984	 5.21802284986723E-02 
1985	 5.24118894171137E-02 
1986	 5.26399084415635E-02 
1987	 0.052870620313362 
1988	 5.31125653328788E-02 
1989	 5.33419353849621E-02 
1990	 5.35835262599191E-02 
1991	 5.38142677481591E-02 
1992	 0.054047127224128 
1993	 5.42888541583818E-02 
1994	 5.45195447471736E-02 
1995	 0.054742214717964 
1996	 5.49626951979413E-02 
1997	 5.51800340163751E-02 
1998	 5.53919655687947E-02 
1999	 5.55789184550237E-02 
2000	 5.57954987384852E-02 
2001	 5.60220080571975E-02 
2002	 5.62613370807293E-02 
2003	 5.65057560966309E-02 
2004	 5.67482310755328E-02 
2005	 5.69778296430414E-02 
2006	 5.71844144196048E-02 
2007	 5.74138954489162E-02 
2008	 5.76537322884829E-02 
2009	 5.78851706793797E-02 
2010	 5.81289093069493E-02 
2011	 5.83547386825781E-02 
2012	 5.85513489129902E-02 
2013	 5.87720821441627E-02 
2014	 5.89927259800768E-02 
2015	 5.92330725569222E-02 
2016	 5.94818969220183E-02 
2017	 0.059702564657622 
2018	 5.99217249882408E-02 
2019	 6.01219092986321E-02 
2020	 6.03338064767289E-02 
2021	 6.05477941154032E-02 
2022	 6.07580446724562E-02 
2023	 6.09621894973995E-02 
2024	 6.11758944146629E-02 
2025	 6.13918673711153E-02 
2026	 6.16070781794672E-02 
2027	 6.18333214945523E-02 
2028	 6.20546924120301E-02 
2029	 6.22681522968622E-02 
2030	 6.24712582143719E-02 
2031	 0.062680202550902 
2032	 6.28989186260077E-02 
2033	 6.30919905674093E-02 
2034	 6.32589998198273E-02 
2035	 6.34533132292695E-02 
2036	 6.36416967733591E-02 
2037	 6.38395338635965E-02 
2038	 6.40725614290848E-02 
2039	 6.42816010347814E-02 
2040	 6.44886096920346E-02 
2041	 6.46672074910128E-02 
2042	 6.48449328718196E-02 
2043	 6.50385731507558E-02 
2044	 6.52181649206126E-02 
2045	 6.53842123107046E-02 
2046	 6.55679986205455E-02 
2047	 6.57534847960448E-02 
2048	 6.59440154339144E-02 
2049	 6.61584437663438E-02 
2050	 6.63488590193845E-02 
2051	 6.65267546559067E-02 
2052	 0.066705747389141 
2053	 0.066867881804973 
2054	 6.70431261862693E-02 
2055	 6.72303460503581E-02 
2056	 6.74126253140618E-02 
2057	 6.75872849433257E-02 
2058	 6.77624063748866E-02 
2059	 6.79315280905413E-02 
2060	 6.80804758136492E-02 
2061	 6.82533974004307E-02 
2062	 6.84414071157592E-02 
2063	 6.86191858478856E-02 
2064	 6.88133193341436E-02 
2065	 6.89842926238345E-02 
2066	 6.91192991155957E-02 
2067	 6.92858682493745E-02 
2068	 6.94625512658379E-02 
2069	 6.96428030256071E-02 
2070	 6.98023470072049E-02 
2071	 6.99720132981156E-02 
2072	 7.01292039208208E-02 
2073	 7.02494551980854E-02 
2074	 7.04051026854272E-02 
2075	 7.05883067603756E-02 
2076	 7.07532021062747E-02 
2077	 7.09132244296808E-02 
2078	 7.10767986182505E-02 
2079	 7.12430852491402E-02 
2080	 7.14027433486705E-02 
2081	 7.15663962686957E-02 
2082	 7.17233095426414E-02 
2083	 7.18786286298696E-02 
2084	 7.20144673424045E-02 
2085	 7.21572833967625E-02 
2086	 7.22952771787417E-02 
2087	 7.24373884879699E-02 
2088	 7.25786750327956E-02 
2089	 7.27212545377902E-02 
2090	 7.28655371468213E-02 
2091	 7.30099663057752E-02 
2092	 7.31520428501753E-02 
2093	 7.32986361907984E-02 
2094	 7.34528106950101E-02 
2095	 7.36005072099824E-02 
2096	 7.37482334620195E-02 
2097	 7.38932390053969E-02 
2098	 7.40362604561212E-02 
2099	 7.41717824192687E-02 
2100	 7.43128698517379E-02 
2101	 7.44582891520074E-02 
2102	 7.45948238867488E-02 
2103	 7.47309079195929E-02 
2104	 7.48606310717105E-02 
2105	 7.49744620376508E-02 
2106	 7.51028572178173E-02 
2107	 7.52345130086453E-02 
2108	 7.53683301542996E-02 
2109	 7.55074059556655E-02 
2110	 7.56513039404287E-02 
2111	 7.58055777771136E-02 
2112	 7.59477525261883E-02 
2113	 7.60923897089015E-02 
2114	 7.62297725698137E-02 
2115	 7.63635867759336E-02 
2116	 7.64850949969193E-02 
2117	 7.66143031989648E-02 
2118	 7.67381512228193E-02 
2119	 7.68786894818292E-02 
2120	 7.70408362822916E-02 
2121	 7.71688340157704E-02 
2122	 7.73022618028947E-02 
2123	 7.74133796918817E-02 
2124	 7.74818065890356E-02 
2125	 0.077569914563279 
2126	 0.077660470257425 
2127	 7.77466963256937E-02 
2128	 7.78247819728983E-02 
2129	 7.79126859911259E-02 
2130	 7.80052787192331E-02 
2131	 7.81074203882098E-02 
2132	 7.81794084746222E-02 
2133	 7.82444906917701E-02 
2134	 7.83110497864484E-02 
2135	 7.83427390495808E-02 
2136	 7.84139327416137E-02 
2137	 7.85311569127335E-02 
2138	 7.85976817914461E-02 
2139	 7.86527291845227E-02 
2140	 7.87032752671074E-02 
2141	 7.87182320432471E-02 
2142	 7.87502027622937E-02 
2143	 7.88014922280179E-02 
2144	 7.88344311275769E-02 
2145	 7.88467449475862E-02 
2146	 7.88736040610126E-02 
2147	 7.89074898657766E-02 
2148	 7.89342689193781E-02 
2149	 7.89488525871988E-02 
2150	 7.89685705444229E-02 
2151	 7.89752662498506E-02 
2152	 7.89549052555596E-02 
2153	 7.89524219327591E-02 
2154	 7.89622091989295E-02 
2155	 7.89570605081982E-02 
2156	 0.078945843004163 
2157	 7.89345670011353E-02 
2158	 7.89289848981954E-02 
2159	 0.07890033401476 
2160	 7.88547082820889E-02 
2161	 7.88125503511961E-02 
2162	 7.87443405291882E-02 
2163	 7.86935959543341E-02 
2164	 7.86520156425484E-02 
2165	 0.078624695897201 
2166	 7.85830076620274E-02 
2167	 7.85445066633498E-02 
2168	 7.84943796513312E-02 
2169	 7.84371867334137E-02 
2170	 7.83734381187471E-02 
2171	 0.078291196123443 
2172	 7.82321921459173E-02 
2173	 7.81763759944448E-02 
2174	 7.81217700390432E-02 
2175	 0.078090431358585 
2176	 7.80393147388286E-02 
2177	 7.79798725623744E-02 
2178	 0.077915720389253 
2179	 7.78306434687448E-02 
2180	 7.77631417043015E-02 
2181	 7.77125154353692E-02 
2182	 7.76403268228422E-02 
2183	 7.75525996865522E-02 
2184	 7.74950310586947E-02 
2185	 7.74095628399604E-02 
2186	 7.72964707267883E-02 
2187	 7.72033296555442E-02 
2188	 7.71081183552509E-02 
2189	 7.70284464715528E-02 
2190	 7.69560568101554E-02 
2191	 7.68892801277283E-02 
2192	 7.68401859015619E-02 
2193	 7.67833350472053E-02 
2194	 7.67307295236192E-02 
2195	 7.66700581108399E-02 
2196	 7.65952258176594E-02 
2197	 7.65413371935955E-02 
2198	 7.64728329992611E-02 
2199	 7.64380947628315E-02 
2200	 7.64514124035665E-02 
2201	 7.64455135649783E-02 
2202	 7.64473583111424E-02 
2203	 7.64564376545298E-02 
2204	 7.64520752823279E-02 
2205	 0.076434239462769 
2206	 7.64190923196501E-02 
2207	 7.63984628950972E-02 
2208	 7.63901365538581E-02 
2209	 7.63758520154981E-02 
2210	 7.63773744403857E-02 
2211	 0.076396882344716 
2212	 7.64138364805918E-02 
2213	 7.64557985060786E-02 
2214	 7.64573380370516E-02 
2215	 7.64326040428085E-02 
2216	 7.64241298464258E-02 
2217	 7.63842635640061E-02 
2218	 7.63751909158726E-02 
2219	 7.63947035437039E-02 
2220	 7.64149787424932E-02 
2221	 7.64623257329324E-02 
2222	 7.64795121243876E-02 
2223	 7.64857974005995E-02 
2224	 7.65206932173578E-02 
2225	 7.65401269495809E-02 
2226	 0.076550318758815 
2227	 7.65549971762771E-02 
2228	 7.65679859334145E-02 
2229	 7.65540934742322E-02 
2230	 7.65048851844768E-02 
2231	 7.64917567320742E-02 
2232	 7.64940737467775E-02 
2233	 7.64743612657858E-02 
2234	 7.64607609660293E-02 
2235	 7.64384973040731E-02 
2236	 7.63849378639339E-02 
2237	 7.63526963379591E-02 
2238	 7.63416101200371E-02 
2239	 7.63136192562531E-02 
2240	 7.62733321427717E-02 
2241	 7.62471989456855E-02 
2242	 0.076220983471925 
2243	 7.62005128378695E-02 
2244	 7.62103476425366E-02 
2245	 7.61879103921288E-02 
2246	 7.61511395875968E-02 
2247	 7.61066672979565E-02 
2248	 7.60610743711952E-02 
2249	 7.60001588157102E-02 
2250	 7.59424269741346E-02 
2251	 7.58862477044372E-02 
2252	 7.58328372314429E-02 
2253	 7.57715816309278E-02 
2254	 7.57131903269083E-02 
2255	 7.56642008702608E-02 
2256	 7.56056145813833E-02 
2257	 7.55267827813176E-02 
2258	 7.54803107522669E-02 
2259	 7.54497356067499E-02 
2260	 7.54143143949046E-02 
2261	 7.54021361233813E-02 
2262	 7.53730561058587E-02 
2263	 7.53295588331196E-02 
2264	 7.52952476363453E-02 
2265	 7.52669457821005E-02 
2266	 7.52286626194198E-02 
2267	 7.51769261228364E-02 
2268	 7.51440242506785E-02 
2269	 7.51440395816228E-02 
2270	 7.50859979444348E-02 
2271	 7.50542688641314E-02 
2272	 7.50010314651831E-02 
2273	 7.48718304956384E-02 
2274	 7.47921493517856E-02 
2275	 7.47270489838428E-02 
2276	 7.46638792591013E-02 
2277	 7.46174467838903E-02 
2278	 7.46203957249192E-02 
2279	 7.45759347089033E-02 
2280	 7.45193252528085E-02 
2281	 7.44562174036378E-02 
2282	 7.43679694926212E-02 
2283	 7.42973863610141E-02 
2284	 7.42348442200203E-02 
2285	 7.41559787520921E-02 
2286	 7.40691018052234E-02 
2287	 7.39909657637888E-02 
2288	 7.38974132074553E-02 
2289	 7.38261537803877E-02 
2290	 7.37811666501962E-02 
2291	 7.37240141463663E-02 
2292	 7.36732733693399E-02 
2293	 0.073615413736182 
2294	 7.35382706548238E-02 
2295	 7.34775218576367E-02 
2296	 7.34461613980924E-02 
2297	 7.33757898780129E-02 
2298	 7.32756041647787E-02 
2299	 7.32178620339758E-02 
2300	 7.30972224818139E-02 
2301	 7.29210867587631E-02 
2302	 7.27980315270745E-02 
2303	 0.072700375038336 
2304	 7.25836205642968E-02 
2305	 7.25323079800747E-02 
2306	 7.24566014703985E-02 
2307	 0.072363349654818 
2308	 7.22896253231046E-02 
2309	 7.22484347397207E-02 
2310	 7.21631573097058E-02 
2311	 7.20508229063102E-02 
2312	 7.19823423382825E-02 
2313	 7.19343649927871E-02 
2314	 7.18435784164914E-02 
2315	 7.17629318144418E-02 
2316	 7.16528618988003E-02 
2317	 7.14619640780298E-02 
2318	 7.13486476975803E-02 
2319	 7.12901617566815E-02 
2320	 7.12026210318916E-02 
2321	 7.11276358274305E-02 
2322	 7.10406238252018E-02 
2323	 7.09379906376605E-02 
2324	 7.08348193872311E-02 
2325	 7.07301789465129E-02 
2326	 7.06206701783524E-02 
2327	 7.04915149205523E-02 
2328	 7.03839310141186E-02 
2329	 7.02479935965235E-02 
2330	 7.01767589963328E-02 
2331	 7.01233727391432E-02 
2332	 0.070004250933133 
2333	 6.99542399591664E-02 
2334	 6.98755513917446E-02 
2335	 6.97413377544097E-02 
2336	 6.96305953386223E-02 
2337	 6.94761599873536E-02 
2338	 0.069333598155922 
2339	 6.92367039238406E-02 
2340	 6.91630757822992E-02 
2341	 6.90599538437773E-02 
2342	 6.89497438083901E-02 
2343	 6.88568785527517E-02 
2344	 6.86827792575703E-02 
2345	 6.85495720591971E-02 
2346	 6.84506919857609E-02 
2347	 6.83257765863388E-02 
2348	 6.81878443062567E-02 
2349	 6.80545294229715E-02 
2350	 0.067899871924199 
2351	 6.77658276489646E-02 
2352	 6.76631644201891E-02 
2353	 6.75159206415076E-02 
2354	 6.73413882253416E-02 
2355	 6.71981626489201E-02 
2356	 0.067032067318683 
2357	 6.68824648718158E-02 
2358	 6.67998741662045E-02 
2359	 6.66738942868002E-02 
2360	 6.64853050298608E-02 
2361	 6.63471778530959E-02 
2362	 6.62343435537606E-02 
2363	 6.60987415186133E-02 
2364	 6.59931412772798E-02 
2365	 6.58635057343369E-02 
2366	 6.57031301647917E-02 
2367	 6.55423984880192E-02 
2368	 6.53370925929083E-02 
2369	 0.065202089766185 
2370	 6.50861017730347E-02 
2371	 6.50202009111744E-02 
2372	 6.49673152773006E-02 
2373	 6.48585797513049E-02 
2374	 6.47283560470642E-02 
2375	 6.45505291415316E-02 
2376	 6.43472598068681E-02 
2377	 6.41704002497451E-02 
2378	 6.40236876590014E-02 
2379	 6.38554706814605E-02 
2380	 6.36988195113692E-02 
2381	 6.35977194852661E-02 
2382	 6.34498089271207E-02 
2383	 6.32982853230625E-02 
2384	 6.31409394064167E-02 
2385	 6.29440870789984E-02 
2386	 6.27420943084814E-02 
2387	 6.25557951653322E-02 
2388	 6.24321947057193E-02 
2389	 0.062332405959996 
2390	 6.22582973252825E-02 
2391	 0.062132851830038 
2392	 6.19529993261496E-02 
2393	 6.17778571200777E-02 
2394	 6.16201438212042E-02 
2395	 6.15455082536314E-02 
2396	 6.14087013467269E-02 
2397	 0.061228953411846 
2398	 6.10311822184084E-02 
2399	 6.07370849781681E-02 
2400	 6.05179947195562E-02 
2401	 6.04007419534961E-02 
2402	 0.060284759667788 
2403	 6.01297894736778E-02 
2404	 5.99588199128111E-02 
2405	 5.97658739529683E-02 
2406	 5.95834798628375E-02 
2407	 5.94807186150286E-02 
2408	 5.92907214629062E-02 
2409	 5.90649698349225E-02 
2410	 5.89120443299524E-02 
2411	 5.87116398424661E-02 
2412	 5.85914437378703E-02 
2413	 5.85408824519196E-02 
2414	 5.84071304666772E-02 
2415	 5.82178581651404E-02 
2416	 5.80309534862067E-02 
2417	 5.78079803032854E-02 
2418	 5.76180289664265E-02 
2419	 5.74211291680555E-02 
2420	 5.72628550389581E-02 
2421	 5.71352469246902E-02 
2422	 5.70103060781943E-02 
2423	 5.69306824892634E-02 
2424	 5.67991131323509E-02 
2425	 5.66766723500967E-02 
2426	 5.64459187014608E-02 
2427	 5.61070277074532E-02 
2428	 5.58449560528006E-02 
2429	 5.55186437969578E-02 
2430	 5.52774406737422E-02 
2431	 5.51174621387812E-02 
2432	 5.49816142444463E-02 
2433	 5.49057245615149E-02 
2434	 5.48070571019697E-02 
2435	 5.47882687359492E-02 
2436	 5.46358554827702E-02 
2437	 5.43416408965805E-02 
2438	 5.41606380919496E-02 
2439	 5.39848611499491E-02 
2440	 5.38272734929813E-02 
2441	 5.37905638305536E-02 
2442	 5.36079789828133E-02 
2443	 5.32698690259367E-02 
2444	 5.30493359719108E-02 
2445	 5.27867677402746E-02 
2446	 5.26363560206098E-02 
2447	 5.27188541942004E-02 
2448	 5.25957523611608E-02 
2449	 5.23000286838426E-02 
2450	 5.22229540529574E-02 
2451	 5.22084893625755E-02 
2452	 5.21017546095624E-02 
2453	 0.052210202515011 
2454	 5.20818613202072E-02 
2455	 5.16550207847801E-02 
2456	 0.051358634241055 
2457	 5.09990799322219E-02 
2458	 0.050784520765561 
2459	 5.06489467267616E-02 
2460	 5.05326744029301E-02 
2461	 5.05733844840346E-02 
2462	 5.04979181591087E-02 
2463	 5.03325532502269E-02 
2464	 5.02190019398821E-02 
2465	 5.01653724778014E-02 
2466	 4.99198351402959E-02 
2467	 0.049640601434175 
2468	 4.94220345181224E-02 
2469	 4.89498676533429E-02 
2470	 4.88531894743901E-02 
2471	 4.87355555448127E-02 
2472	 4.85636601901967E-02 
2473	 4.86294057933936E-02 
2474	 0.048544343708209 
2475	 4.84071164305608E-02 
2476	 4.82553213729968E-02 
2477	 4.80409996785089E-02 
2478	 4.79559075591413E-02 
2479	 4.78810849364864E-02 
2480	 4.78259042744608E-02 
2481	 4.77303366554882E-02 
2482	 4.75786924464197E-02 
2483	 4.74569723191149E-02 
2484	 4.73734272166284E-02 
2485	 4.74193667011277E-02 
2486	 4.74123083997862E-02 
2487	 4.72869652834398E-02 
2488	 4.70817046251572E-02 
2489	 4.67377426630435E-02 
2490	 0.046513812458855 
2491	 4.64929617616682E-02 
2492	 4.64298478799122E-02 
2493	 4.63549473333488E-02 
2494	 4.63068910206501E-02 
2495	 4.61623832870136E-02 
2496	 4.59862459261015E-02 
2497	 4.58540016879552E-02 
2498	 0.045814624173836 
2499	 4.57477969019623E-02 
2500	 4.55855408787873E-02 
