Wavelength	MM_3300005.asd
350	 4.54656148422812E-02 
351	 4.68589062662482E-02 
352	 4.12356500271759E-02 
353	 3.36988658308451E-02 
354	 4.14175405306875E-02 
355	 4.39686462500736E-02 
356	 4.18495655007291E-02 
357	 4.10097860901101E-02 
358	 4.64726383479354E-02 
359	 0.045103833738456 
360	 3.95259373440048E-02 
361	 4.13807705125412E-02 
362	 3.96856234417072E-02 
363	 3.75417344936257E-02 
364	 3.75502792461493E-02 
365	 3.90482888472725E-02 
366	 0.037046631277314 
367	 3.54039758480392E-02 
368	 3.79290913880817E-02 
369	 3.82663662353542E-02 
370	 3.77148830941818E-02 
371	 3.80901348572201E-02 
372	 4.08835750168785E-02 
373	 4.12417750825271E-02 
374	 4.11468115541442E-02 
375	 0.041769954437779 
376	 4.13170321505596E-02 
377	 3.99192205719634E-02 
378	 3.93656613915893E-02 
379	 4.08420601178075E-02 
380	 4.08204724372577E-02 
381	 4.12963858840329E-02 
382	 4.27989157286382E-02 
383	 4.43559844666045E-02 
384	 4.24339164153461E-02 
385	 3.99467270988206E-02 
386	 0.040076196377622 
387	 0.045329367060275 
388	 4.67228170321213E-02 
389	 0.044817863188289 
390	 4.34029732184113E-02 
391	 0.044722264707849 
392	 4.56037846011195E-02 
393	 4.56098808911044E-02 
394	 4.67174598909067E-02 
395	 0.047559309785288 
396	 4.84962690293649E-02 
397	 4.97445921344084E-02 
398	 5.06227565658649E-02 
399	 5.17215525520631E-02 
400	 5.20062785706268E-02 
401	 5.07965309577527E-02 
402	 5.25422258044352E-02 
403	 5.50434324925163E-02 
404	 5.62552507209867E-02 
405	 5.49586089882285E-02 
406	 5.53052855593879E-02 
407	 5.65281862268981E-02 
408	 5.72453543722782E-02 
409	 5.71589440215957E-02 
410	 5.73936170639416E-02 
411	 5.78814019256195E-02 
412	 5.81078246609035E-02 
413	 5.89046924948819E-02 
414	 5.93347104322932E-02 
415	 5.92678634934901E-02 
416	 5.97577732121938E-02 
417	 6.04609943745129E-02 
418	 6.10572219454325E-02 
419	 6.12631883936185E-02 
420	 6.08048124674656E-02 
421	 0.060814906869106 
422	 0.06152014439124 
423	 6.23909265976004E-02 
424	 6.15258893279326E-02 
425	 6.11054719609651E-02 
426	 6.19869282213333E-02 
427	 6.17015409142632E-02 
428	 6.19058895064679E-02 
429	 6.21575110943212E-02 
430	 6.17881179485656E-02 
431	 6.23844496888173E-02 
432	 6.29938900255457E-02 
433	 6.31966214165288E-02 
434	 6.32140631077866E-02 
435	 6.34011781461121E-02 
436	 6.36004776183908E-02 
437	 6.36639707530141E-02 
438	 6.37282295764466E-02 
439	 6.40394688883326E-02 
440	 6.44999112317727E-02 
441	 6.48332840857132E-02 
442	 6.48698675152395E-02 
443	 6.51278482255827E-02 
444	 6.56660194970061E-02 
445	 6.57564429983779E-02 
446	 0.066082773778571 
447	 6.64387277956144E-02 
448	 6.65239850988377E-02 
449	 6.67362317318611E-02 
450	 6.71128421184163E-02 
451	 6.75215040706665E-02 
452	 6.77171190320772E-02 
453	 6.78875332969817E-02 
454	 0.068049428953986 
455	 6.82760475382433E-02 
456	 6.89591500019648E-02 
457	 6.89097651502956E-02 
458	 6.85949253339445E-02 
459	 6.90442270626668E-02 
460	 6.92159175439284E-02 
461	 6.91525803340587E-02 
462	 6.91375444274952E-02 
463	 6.96559036708086E-02 
464	 6.98334073568401E-02 
465	 6.98018390553541E-02 
466	 6.99050926436657E-02 
467	 7.00926732549426E-02 
468	 7.03518408868015E-02 
469	 7.04999782095497E-02 
470	 7.02753752525867E-02 
471	 7.03483360220446E-02 
472	 7.06755420208933E-02 
473	 0.071026192319819 
474	 7.10444555138946E-02 
475	 7.09715585089242E-02 
476	 7.09382894586689E-02 
477	 0.071011465880517 
478	 7.11162935892246E-02 
479	 7.12870838997387E-02 
480	 7.14791554492932E-02 
481	 7.15261385617794E-02 
482	 7.16442101266019E-02 
483	 7.17713576329146E-02 
484	 7.18200101901923E-02 
485	 7.19298632075699E-02 
486	 7.20287737408991E-02 
487	 7.20601577393099E-02 
488	 0.072007135817057 
489	 7.22333960256516E-02 
490	 0.072518600993522 
491	 7.26196169601637E-02 
492	 7.24536652066186E-02 
493	 7.25379885963937E-02 
494	 7.27666155445903E-02 
495	 7.27855477130615E-02 
496	 7.29015607182167E-02 
497	 7.29008439321931E-02 
498	 7.27978190558755E-02 
499	 7.30100671132135E-02 
500	 7.33021187515901E-02 
501	 7.34965656207833E-02 
502	 7.34897952790583E-02 
503	 7.34127526561521E-02 
504	 0.073407279855775 
505	 7.34593344330488E-02 
506	 7.34276203751166E-02 
507	 7.36125249018905E-02 
508	 7.38078149049495E-02 
509	 0.073846287237009 
510	 7.39346518902708E-02 
511	 7.39639668207008E-02 
512	 7.39866112681074E-02 
513	 7.41105064136711E-02 
514	 7.41449062853276E-02 
515	 7.40619677843415E-02 
516	 7.39980708385068E-02 
517	 7.43671830917143E-02 
518	 7.44555997971444E-02 
519	 7.43486674390214E-02 
520	 7.43651800166692E-02 
521	 7.45075162400249E-02 
522	 7.47052173994478E-02 
523	 7.48415833407777E-02 
524	 7.47679341456283E-02 
525	 7.48719735442469E-02 
526	 7.49924650876699E-02 
527	 7.49579589547063E-02 
528	 7.49648874640953E-02 
529	 7.50393444578457E-02 
530	 7.51559119513363E-02 
531	 7.52477716808285E-02 
532	 7.51813951094047E-02 
533	 7.52559890609373E-02 
534	 7.55443070797748E-02 
535	 7.55122444814101E-02 
536	 7.55544307324698E-02 
537	 7.56676709606378E-02 
538	 7.57168868754567E-02 
539	 7.57651206996045E-02 
540	 7.58263102680885E-02 
541	 7.58972530137241E-02 
542	 7.59555351560987E-02 
543	 7.60605882452008E-02 
544	 7.62062396622407E-02 
545	 7.63557974602646E-02 
546	 0.076437838503803 
547	 7.64908870418144E-02 
548	 7.65717064254952E-02 
549	 7.67414942034994E-02 
550	 0.076906849422555 
551	 7.70284159258968E-02 
552	 7.71279807656521E-02 
553	 7.73732663622494E-02 
554	 0.07749474014194 
555	 7.75274334380201E-02 
556	 7.76573920644556E-02 
557	 7.78413334302551E-02 
558	 7.80064033397541E-02 
559	 7.81406254252529E-02 
560	 7.83520927880637E-02 
561	 7.84730631212089E-02 
562	 7.85953052784506E-02 
563	 7.88585193836759E-02 
564	 7.91356598637744E-02 
565	 7.94155732958957E-02 
566	 7.97027174969022E-02 
567	 8.00113964935847E-02 
568	 8.03307150393528E-02 
569	 8.06189525935229E-02 
570	 8.08506821054274E-02 
571	 8.10656705919259E-02 
572	 8.13403402762929E-02 
573	 8.16561869350423E-02 
574	 8.19296401736308E-02 
575	 8.21863946275829E-02 
576	 8.25113334751388E-02 
577	 8.29234017404095E-02 
578	 8.32777174231137E-02 
579	 8.36578909633437E-02 
580	 8.40240142517687E-02 
581	 8.43139344778777E-02 
582	 0.084700335764842 
583	 8.49759157701708E-02 
584	 8.51083108502747E-02 
585	 8.53529846285202E-02 
586	 0.085741899432655 
587	 0.086132937029259 
588	 0.086404637088026 
589	 8.68086462176552E-02 
590	 8.71528988575012E-02 
591	 8.74074464845486E-02 
592	 0.087697480251466 
593	 8.78886119367527E-02 
594	 8.80797446249475E-02 
595	 8.83657911369622E-02 
596	 8.87046929729056E-02 
597	 8.91813080268754E-02 
598	 8.96904598620481E-02 
599	 9.00578162404038E-02 
600	 9.05088576711789E-02 
601	 9.09117297368243E-02 
602	 9.11852448126642E-02 
603	 9.14076182422135E-02 
604	 9.16244228937092E-02 
605	 9.18899855365895E-02 
606	 0.092221698084246 
607	 9.24584049450651E-02 
608	 9.26561933424439E-02 
609	 9.28637350423479E-02 
610	 0.093104953316447 
611	 0.093352061045146 
612	 9.35873219846096E-02 
613	 9.37940540463565E-02 
614	 9.39466002854128E-02 
615	 9.41271115033047E-02 
616	 9.43215982073741E-02 
617	 9.44558387130726E-02 
618	 9.46317343218421E-02 
619	 9.47658046847523E-02 
620	 9.48281449953315E-02 
621	 9.49606182077602E-02 
622	 9.51128163185276E-02 
623	 9.52417599788599E-02 
624	 9.53217455775234E-02 
625	 9.54488907484098E-02 
626	 9.55740697931597E-02 
627	 9.56739964393637E-02 
628	 9.57736644347767E-02 
629	 9.59332179054886E-02 
630	 0.096065913312477 
631	 9.61027219052732E-02 
632	 9.62074613949236E-02 
633	 9.63185659869755E-02 
634	 0.096411785323861 
635	 0.096498322772577 
636	 9.65930649968349E-02 
637	 0.096691495237866 
638	 9.67781093302248E-02 
639	 9.68146006183058E-02 
640	 9.68740455730994E-02 
641	 9.69797358547942E-02 
642	 9.71203675402667E-02 
643	 9.72345020905778E-02 
644	 9.73186623792378E-02 
645	 9.73911981950607E-02 
646	 9.74921207009888E-02 
647	 9.75793269870508E-02 
648	 9.76575426740086E-02 
649	 9.77457266264171E-02 
650	 9.78639126111248E-02 
651	 9.79686272892497E-02 
652	 9.80516451343987E-02 
653	 9.81395212532034E-02 
654	 9.82853162015497E-02 
655	 9.84028720688045E-02 
656	 9.84475610605406E-02 
657	 9.85393779565797E-02 
658	 9.86476678147028E-02 
659	 9.87700533159818E-02 
660	 9.89037117011216E-02 
661	 9.89628882782849E-02 
662	 9.90352114112287E-02 
663	 9.91614335330588E-02 
664	 9.92917374095372E-02 
665	 9.93988220378436E-02 
666	 9.94767499750039E-02 
667	 9.95429987817608E-02 
668	 9.96632536575992E-02 
669	 9.98307334161914E-02 
670	 9.99952031809916E-02 
671	 0.100081434937344 
672	 0.100189279009057 
673	 0.100308484685553 
674	 0.100426232487271 
675	 0.100579700465407 
676	 0.100669182937586 
677	 0.100745480532669 
678	 0.10090572321767 
679	 0.101055974528486 
680	 0.101212542557292 
681	 0.101376898293955 
682	 0.101520313361649 
683	 0.101621846093107 
684	 0.10173491824219 
685	 0.101900333079613 
686	 0.102040358302579 
687	 0.102176570298463 
688	 0.102319148473196 
689	 0.102468116291987 
690	 0.102615831082598 
691	 0.102740437704813 
692	 0.102847332758605 
693	 0.103000175003735 
694	 0.103155412042851 
695	 0.103298366296881 
696	 0.103434217236991 
697	 0.103622609518816 
698	 0.103780363705243 
699	 0.103895643662309 
700	 0.10403870826298 
701	 0.104186679857747 
702	 0.104344386931286 
703	 0.104506025626081 
704	 0.104617792121975 
705	 0.104763461140073 
706	 0.104916351435327 
707	 0.105009227263562 
708	 0.105160672170944 
709	 0.105320442514944 
710	 0.105461764203613 
711	 0.10561935023661 
712	 0.105744116931838 
713	 0.105856957355395 
714	 0.105985459874955 
715	 0.106102522084116 
716	 0.106207648016033 
717	 0.106312989414574 
718	 0.106435630378369 
719	 0.106540668296356 
720	 0.106639817071 
721	 0.106743201803022 
722	 0.106841756214794 
723	 0.106975927804144 
724	 0.107110371883895 
725	 0.10719526412815 
726	 0.107249203591054 
727	 0.107316754046868 
728	 0.107412812831895 
729	 0.107520806827296 
730	 0.107605340890746 
731	 0.107658891970653 
732	 0.107704043555201 
733	 0.107826098469753 
734	 0.10790894824171 
735	 0.107930787939917 
736	 0.107925608144283 
737	 0.10799276839828 
738	 0.10805931647044 
739	 0.108094795903761 
740	 0.108129910777704 
741	 0.108164880534661 
742	 0.108186381785828 
743	 0.108185027992973 
744	 0.108167455214064 
745	 0.108160086285473 
746	 0.108182620474548 
747	 0.108233850316309 
748	 0.108210212148482 
749	 0.108174795328764 
750	 0.108168944726629 
751	 0.108187432495908 
752	 0.108169523785135 
753	 0.108145970207282 
754	 0.108143248218345 
755	 0.108105840983878 
756	 0.108074108799049 
757	 0.108039140446547 
758	 0.107977639793034 
759	 0.107965417595321 
760	 0.107896725978569 
761	 0.107783833591274 
762	 0.107801312291256 
763	 0.107785137580706 
764	 0.107711169233067 
765	 0.107609860349022 
766	 0.107568541501799 
767	 0.10751179827109 
768	 0.10744229850822 
769	 0.107395505360783 
770	 0.107336695629533 
771	 0.107270920483255 
772	 0.107201899338623 
773	 0.107127705904276 
774	 0.107058376915657 
775	 0.106994330602869 
776	 0.106927254570667 
777	 0.106827556239252 
778	 0.106759901153631 
779	 0.106716755855448 
780	 0.106657838219099 
781	 0.106577945249289 
782	 0.10648508218869 
783	 0.106393890389102 
784	 0.106322342064331 
785	 0.106244613698635 
786	 0.10615773104285 
787	 0.106070683748972 
788	 0.106010547270861 
789	 0.105948200766899 
790	 0.105869830798363 
791	 0.10577371328078 
792	 0.105682627600937 
793	 0.105609617192235 
794	 0.105561532848878 
795	 0.105532634467108 
796	 0.105416477895597 
797	 0.10531389223307 
798	 0.105278808283925 
799	 0.105220173220244 
800	 0.105133798460511 
801	 0.105034212005242 
802	 0.104947783395137 
803	 0.104912152540029 
804	 0.104854602026765 
805	 0.104766178695273 
806	 0.104683816843684 
807	 0.104640041510574 
808	 0.10457509857938 
809	 0.104474131867923 
810	 0.104393183248963 
811	 0.104344345044433 
812	 0.104271800793876 
813	 0.104163255291827 
814	 0.104174548387537 
815	 0.104134996011698 
816	 0.104056877746662 
817	 0.104014665990596 
818	 0.10396712893042 
819	 0.10392173568103 
820	 0.103862853753306 
821	 0.103762293477007 
822	 0.103696446878904 
823	 0.103667006330257 
824	 0.10364349564574 
825	 0.103564925519104 
826	 0.103508173098457 
827	 0.103453269351767 
828	 0.103383365770545 
829	 0.103386802126303 
830	 0.103326843253741 
831	 0.103251660401673 
832	 0.103270109077013 
833	 0.103255495090505 
834	 0.103211352358683 
835	 0.103150793799029 
836	 0.103090609683992 
837	 0.10308167314292 
838	 0.10308543277554 
839	 0.103060191320454 
840	 0.102986939671291 
841	 0.102906505399235 
842	 0.10287915249089 
843	 0.102917995950864 
844	 0.102882701870421 
845	 0.102844684562923 
846	 0.102819526595188 
847	 0.102799269715836 
848	 0.102799541258848 
849	 0.102793352042272 
850	 0.102764843189165 
851	 0.102718579484306 
852	 0.102742703243736 
853	 0.102745812761774 
854	 0.102693601196358 
855	 0.10267099464387 
856	 0.102699308289019 
857	 0.102717102755865 
858	 0.102689125234223 
859	 0.102699090885608 
860	 0.102743786360693 
861	 0.102775911452343 
862	 0.102754486862256 
863	 0.102743612994295 
864	 0.10275565487785 
865	 0.102776218285215 
866	 0.102775772939667 
867	 0.102744052395948 
868	 0.102723681616595 
869	 0.102733721141669 
870	 0.10276234907242 
871	 0.102802560804327 
872	 0.102836850928956 
873	 0.102852730864021 
874	 0.102847919426674 
875	 0.102870908825894 
876	 0.102881489152528 
877	 0.102864822596519 
878	 0.102937903860105 
879	 0.102974749984144 
880	 0.102966432821403 
881	 0.102959457153564 
882	 0.103031564735387 
883	 0.103121405818823 
884	 0.103165258745733 
885	 0.103137671424082 
886	 0.103218675875115 
887	 0.103290615529043 
888	 0.103313318101362 
889	 0.103337032332997 
890	 0.103415046584281 
891	 0.103481849367021 
892	 0.103509774203156 
893	 0.103537969933958 
894	 0.103537537288195 
895	 0.103566799499717 
896	 0.103659576041473 
897	 0.103778711478129 
898	 0.103833933249927 
899	 0.103857184013205 
900	 0.103904704357585 
901	 0.103999029973281 
902	 0.104078706459899 
903	 0.104143767729322 
904	 0.104207048913771 
905	 0.104236068656769 
906	 0.104290332728334 
907	 0.104362273149856 
908	 0.104426577445448 
909	 0.104558683139387 
910	 0.104645015562079 
911	 0.104710047544684 
912	 0.104848003346381 
913	 0.104916853806441 
914	 0.104996875090869 
915	 0.105102475379422 
916	 0.105177518160853 
917	 0.105241965492436 
918	 0.105305117480758 
919	 0.105371573634668 
920	 0.105443073717528 
921	 0.105556089823875 
922	 0.105692676929268 
923	 0.105818948950301 
924	 0.105898276967926 
925	 0.105965902062913 
926	 0.106043322461527 
927	 0.106137616744862 
928	 0.106234912764749 
929	 0.106362610302734 
930	 0.106485996911938 
931	 0.106578155906923 
932	 0.10666492275028 
933	 0.106788152045486 
934	 0.106925197597709 
935	 0.107046051115425 
936	 0.107170985183595 
937	 0.107210054084096 
938	 0.107263127277285 
939	 0.107432279281104 
940	 0.107602315619176 
941	 0.107718763997036 
942	 0.107825743701618 
943	 0.10797181085796 
944	 0.108041738578059 
945	 0.108128488907625 
946	 0.108231589941687 
947	 0.108319586162953 
948	 0.10843623838929 
949	 0.108590685953598 
950	 0.108702965556491 
951	 0.108714889818931 
952	 0.108881635560188 
953	 0.109079853940024 
954	 0.109224402714671 
955	 0.109288255407733 
956	 0.109346492598623 
957	 0.109450396822103 
958	 0.109572030790037 
959	 0.109661201696097 
960	 0.109843109692092 
961	 0.109974395508097 
962	 0.110070365082037 
963	 0.110233068512378 
964	 0.110357121226131 
965	 0.110473972699705 
966	 0.11063152284183 
967	 0.110856403983768 
968	 0.11105589218288 
969	 0.111069171532398 
970	 0.111046184019019 
971	 0.111258993117714 
972	 0.111367809384411 
973	 0.111502777371335 
974	 0.111696453691453 
975	 0.111903885716683 
976	 0.112183819038666 
977	 0.11238889807876 
978	 0.112452099874992 
979	 0.112435252177485 
980	 0.112706311230176 
981	 0.112796033199658 
982	 0.112761750972052 
983	 0.112938121401428 
984	 0.113052763448921 
985	 0.113269898832174 
986	 0.113538164110383 
987	 0.113699485167006 
988	 0.113771628721936 
989	 0.114010119584423 
990	 0.114197649686349 
991	 0.114074272501409 
992	 0.1143557086346 
993	 0.114594751266277 
994	 0.114738613754665 
995	 0.114901043198443 
996	 0.114983598564441 
997	 0.115108872423741 
998	 0.115248700850488 
999	 0.115377536487751 
1000	 0.115721675093756 
1001	 0.113836666356899 
1002	 0.113936903165389 
1003	 0.113972319955316 
1004	 0.114053098939479 
1005	 0.114155781750055 
1006	 0.114212921941134 
1007	 0.114243425539105 
1008	 0.114329758254009 
1009	 0.114401372556782 
1010	 0.114491201131399 
1011	 0.114631283216953 
1012	 0.11477034995373 
1013	 0.114838617244049 
1014	 0.114963336483232 
1015	 0.115124756741834 
1016	 0.115213358037416 
1017	 0.115308293277896 
1018	 0.11541978597327 
1019	 0.115518199721338 
1020	 0.115562733647994 
1021	 0.115628919042886 
1022	 0.115746813861823 
1023	 0.115833161519952 
1024	 0.115882307549275 
1025	 0.11596766818346 
1026	 0.116038953975541 
1027	 0.116067445519836 
1028	 0.116136965577456 
1029	 0.116258662433737 
1030	 0.116363025381658 
1031	 0.116439843473364 
1032	 0.11652014735318 
1033	 0.116586019973789 
1034	 0.116608686038386 
1035	 0.116640857354589 
1036	 0.116710684146657 
1037	 0.116799058680093 
1038	 0.11689463345182 
1039	 0.116987154978348 
1040	 0.117072911776102 
1041	 0.117150256449216 
1042	 0.117225937288979 
1043	 0.117281288137549 
1044	 0.117338476497092 
1045	 0.117389929953949 
1046	 0.11744743915734 
1047	 0.117520213416117 
1048	 0.117654771713787 
1049	 0.117836308505139 
1050	 0.118007483689062 
1051	 0.118100317436149 
1052	 0.118145294471822 
1053	 0.118170457732207 
1054	 0.11817637415796 
1055	 0.11820441553246 
1056	 0.118259624230516 
1057	 0.118331575772216 
1058	 0.118412753170175 
1059	 0.118483099041407 
1060	 0.118578320520054 
1061	 0.118671401698621 
1062	 0.118706281880198 
1063	 0.118777802055745 
1064	 0.118853087727874 
1065	 0.118924493496802 
1066	 0.118999655948666 
1067	 0.119040853807724 
1068	 0.119076896860427 
1069	 0.119067775968481 
1070	 0.119099302133051 
1071	 0.119168386198769 
1072	 0.119210286430142 
1073	 0.119241935743181 
1074	 0.119281754735083 
1075	 0.119326505729946 
1076	 0.119311461375964 
1077	 0.119330454434362 
1078	 0.119421226966843 
1079	 0.119477587012677 
1080	 0.119511971611753 
1081	 0.119535862953952 
1082	 0.119568445846986 
1083	 0.11959396737123 
1084	 0.119612015342838 
1085	 0.1196224383919 
1086	 0.119630019922759 
1087	 0.119634778124664 
1088	 0.119619808169067 
1089	 0.119634143711746 
1090	 0.119669937465143 
1091	 0.119688638132684 
1092	 0.119694840865244 
1093	 0.119688936069095 
1094	 0.119681177024858 
1095	 0.119656542306932 
1096	 0.119611187822301 
1097	 0.119606257339702 
1098	 0.119613568498756 
1099	 0.1196217581951 
1100	 0.119640352356564 
1101	 0.119702448550272 
1102	 0.119736530615738 
1103	 0.119760535347885 
1104	 0.119774123739527 
1105	 0.119792385805503 
1106	 0.119820673349044 
1107	 0.119847894572457 
1108	 0.119871372628692 
1109	 0.119894064133845 
1110	 0.119882049483346 
1111	 0.119889495310581 
1112	 0.119889169713717 
1113	 0.119900650789279 
1114	 0.119918221069903 
1115	 0.119951390188778 
1116	 0.119998254982065 
1117	 0.120032223995597 
1118	 0.120073813466036 
1119	 0.120118279173604 
1120	 0.120128692712448 
1121	 0.120150750256736 
1122	 0.12019019783108 
1123	 0.120221381555185 
1124	 0.120257229022005 
1125	 0.120310505489382 
1126	 0.120332208809253 
1127	 0.120336757631697 
1128	 0.120346311157805 
1129	 0.120332755777447 
1130	 0.120347782903851 
1131	 0.12039058191228 
1132	 0.120408426439168 
1133	 0.120437578487967 
1134	 0.120439564513658 
1135	 0.120402305240881 
1136	 0.120383310193364 
1137	 0.120385105136383 
1138	 0.120376652398599 
1139	 0.120356226468745 
1140	 0.120348060415551 
1141	 0.120319154152197 
1142	 0.120248079934281 
1143	 0.120216448049542 
1144	 0.12020800542601 
1145	 0.120179697793401 
1146	 0.120160524061913 
1147	 0.120128767407621 
1148	 0.120074779641532 
1149	 0.120032663157093 
1150	 0.119986500023848 
1151	 0.119953272609092 
1152	 0.119920271497439 
1153	 0.119890674652978 
1154	 0.11987347639675 
1155	 0.119861041025706 
1156	 0.119860800141553 
1157	 0.119884460708851 
1158	 0.119885254454185 
1159	 0.119881098844258 
1160	 0.119880723821694 
1161	 0.119875516521388 
1162	 0.119869809631481 
1163	 0.119865350929737 
1164	 0.119864636125843 
1165	 0.119863856450134 
1166	 0.119855658136546 
1167	 0.119850916769216 
1168	 0.119855409202515 
1169	 0.119874003443232 
1170	 0.119899341453008 
1171	 0.119924428408173 
1172	 0.119977378669689 
1173	 0.119997576001141 
1174	 0.119992907437733 
1175	 0.120005870840656 
1176	 0.120011682687183 
1177	 0.120025514287719 
1178	 0.120069401630264 
1179	 0.120080507378472 
1180	 0.120058959765515 
1181	 0.120061671617844 
1182	 0.120070008752791 
1183	 0.120060338082046 
1184	 0.120068141903427 
1185	 0.120101740066581 
1186	 0.120113277101798 
1187	 0.120108325475107 
1188	 0.120118938262733 
1189	 0.120137931906077 
1190	 0.120148193378393 
1191	 0.120155575404245 
1192	 0.1201706721382 
1193	 0.120182590180581 
1194	 0.120198882053155 
1195	 0.120230815243446 
1196	 0.120250968776042 
1197	 0.120260516080179 
1198	 0.120276452853101 
1199	 0.120293086095821 
1200	 0.120305153896541 
1201	 0.120327832791217 
1202	 0.120357517931951 
1203	 0.120387470190541 
1204	 0.120425409632828 
1205	 0.120454870743023 
1206	 0.120486058488915 
1207	 0.120509946513805 
1208	 0.120532229434537 
1209	 0.120543774768526 
1210	 0.120531671113281 
1211	 0.120544712311247 
1212	 0.120568064006246 
1213	 0.120583693708946 
1214	 0.120610663237425 
1215	 0.120636617390039 
1216	 0.120659510842187 
1217	 0.120668759866406 
1218	 0.120689577370006 
1219	 0.120716057383735 
1220	 0.120747902309607 
1221	 0.120796331440938 
1222	 0.1208112946657 
1223	 0.120815090709603 
1224	 0.120824088072142 
1225	 0.120791409450154 
1226	 0.120804026369286 
1227	 0.120865083498742 
1228	 0.120894849596503 
1229	 0.120927375038741 
1230	 0.120954557851143 
1231	 0.120954795537852 
1232	 0.120970911814142 
1233	 0.120993663845804 
1234	 0.121027886743746 
1235	 0.121054305447636 
1236	 0.121087659083201 
1237	 0.12110801057196 
1238	 0.121126093909296 
1239	 0.121133647257559 
1240	 0.121119437924216 
1241	 0.121129268614139 
1242	 0.12114565721719 
1243	 0.121156333014944 
1244	 0.121180742934248 
1245	 0.121196593595482 
1246	 0.121189793813446 
1247	 0.12120447954767 
1248	 0.121237676578664 
1249	 0.121263554505119 
1250	 0.12129585640627 
1251	 0.121320876673928 
1252	 0.121328142549411 
1253	 0.121307439233564 
1254	 0.121318373589354 
1255	 0.121337152459892 
1256	 0.121341545485238 
1257	 0.121353870615125 
1258	 0.121363694440869 
1259	 0.121356193584471 
1260	 0.121358189957422 
1261	 0.121374634578374 
1262	 0.121382986304685 
1263	 0.121391428877322 
1264	 0.121387470895007 
1265	 0.121366969881927 
1266	 0.121363363371781 
1267	 0.121351226844721 
1268	 0.121348437603423 
1269	 0.121363954432895 
1270	 0.121408529901899 
1271	 0.121428321021072 
1272	 0.121445889157386 
1273	 0.121466704104226 
1274	 0.121482697584814 
1275	 0.121503069254995 
1276	 0.121531009846977 
1277	 0.121556013838691 
1278	 0.121574028214375 
1279	 0.121598840011654 
1280	 0.121632149324361 
1281	 0.121658479451812 
1282	 0.121691813382187 
1283	 0.121712390148979 
1284	 0.12171722958447 
1285	 0.121727383300044 
1286	 0.121750320820018 
1287	 0.121762106472157 
1288	 0.121787142758461 
1289	 0.121836642252953 
1290	 0.121853715536811 
1291	 0.121858680442084 
1292	 0.121862088390036 
1293	 0.121844521535429 
1294	 0.121847403489311 
1295	 0.121877505596046 
1296	 0.121862731714692 
1297	 0.121833642989123 
1298	 0.121798189498525 
1299	 0.121729303511894 
1300	 0.121669548812581 
1301	 0.121609837368391 
1302	 0.121553592791184 
1303	 0.121496227218702 
1304	 0.121432817551865 
1305	 0.121373033232272 
1306	 0.121309889538533 
1307	 0.121238107356377 
1308	 0.121147226098697 
1309	 0.121065735205475 
1310	 0.120987504438337 
1311	 0.120906821223884 
1312	 0.120824684470593 
1313	 0.12073671112396 
1314	 0.120650864454391 
1315	 0.120553889105638 
1316	 0.120441777034266 
1317	 0.12034288894609 
1318	 0.120245093953099 
1319	 0.120140994544887 
1320	 0.120034905967353 
1321	 0.119938749488908 
1322	 0.119837833222434 
1323	 0.11974995006615 
1324	 0.119674051477675 
1325	 0.119598428537668 
1326	 0.119506326971564 
1327	 0.119412664857717 
1328	 0.119304986777382 
1329	 0.119180565520603 
1330	 0.119082868551931 
1331	 0.118996341603862 
1332	 0.118901080928419 
1333	 0.118819382963496 
1334	 0.118726185515222 
1335	 0.11861105835756 
1336	 0.118520368408674 
1337	 0.118448511271244 
1338	 0.118363065022248 
1339	 0.118286248263869 
1340	 0.118197950255279 
1341	 0.118084455400922 
1342	 0.117990410869324 
1343	 0.117905706775949 
1344	 0.117821424924204 
1345	 0.117733171401888 
1346	 0.117650434619972 
1347	 0.117556171900219 
1348	 0.11744261289832 
1349	 0.117330579179835 
1350	 0.117222086716705 
1351	 0.117115263189396 
1352	 0.117009517251514 
1353	 0.116899283380428 
1354	 0.116794899207268 
1355	 0.116681142701044 
1356	 0.116556311499492 
1357	 0.116439496884648 
1358	 0.116316689910926 
1359	 0.116200714903257 
1360	 0.116084698334049 
1361	 0.115980124145999 
1362	 0.115889333875424 
1363	 0.11579552332116 
1364	 0.115713259101571 
1365	 0.11562191628292 
1366	 0.115533776616777 
1367	 0.115426678164811 
1368	 0.115317682702937 
1369	 0.115203729571347 
1370	 0.115058788851371 
1371	 0.114892972303294 
1372	 0.11470524069625 
1373	 0.114494938992265 
1374	 0.11424721059801 
1375	 0.113978256092844 
1376	 0.113661347143247 
1377	 0.113312084725328 
1378	 0.112906844062404 
1379	 0.112440322928546 
1380	 0.11197258534669 
1381	 0.11146433049656 
1382	 0.110937973202998 
1383	 0.110411678211029 
1384	 0.109840051148373 
1385	 0.109237040254736 
1386	 0.108601491967932 
1387	 0.107943891884537 
1388	 0.107245723970857 
1389	 0.106520081357962 
1390	 0.105738770434456 
1391	 0.104914717451187 
1392	 0.104043464261958 
1393	 0.103135768737669 
1394	 0.102220642391361 
1395	 0.101289054930054 
1396	 0.100358313181725 
1397	 9.94372505704916E-02 
1398	 9.85065595258544E-02 
1399	 9.75999110897412E-02 
1400	 9.67033480941397E-02 
1401	 9.58279693145189E-02 
1402	 9.49559623878073E-02 
1403	 9.41291619763892E-02 
1404	 9.33180728096071E-02 
1405	 9.25584750143262E-02 
1406	 9.18408283478888E-02 
1407	 0.09115510195983 
1408	 9.05002154398356E-02 
1409	 8.98897810958455E-02 
1410	 8.93164312020017E-02 
1411	 8.87847429537169E-02 
1412	 8.82892231948015E-02 
1413	 0.087850493230371 
1414	 0.087450674926899 
1415	 8.70566221138061E-02 
1416	 8.67012089838924E-02 
1417	 8.63850412698184E-02 
1418	 8.60883682901919E-02 
1419	 8.58243557187293E-02 
1420	 8.55856909217555E-02 
1421	 8.53584682323429E-02 
1422	 0.085150151612195 
1423	 8.49573675738075E-02 
1424	 8.47670307356782E-02 
1425	 8.45845933507844E-02 
1426	 8.44156231699838E-02 
1427	 8.42534567700237E-02 
1428	 0.084107632226489 
1429	 8.39768088068867E-02 
1430	 8.38595711026767E-02 
1431	 8.37577264100643E-02 
1432	 0.083656843979172 
1433	 0.083567986525509 
1434	 8.34887679065167E-02 
1435	 8.34109319958055E-02 
1436	 8.33428816012358E-02 
1437	 8.32878477936808E-02 
1438	 8.32402820262377E-02 
1439	 8.31953115319273E-02 
1440	 8.31720409414625E-02 
1441	 8.31440162322013E-02 
1442	 8.31225809871124E-02 
1443	 0.08311447724625 
1444	 8.30989381345329E-02 
1445	 8.30866690336795E-02 
1446	 8.30864745660256E-02 
1447	 8.30881723167738E-02 
1448	 8.30874118513977E-02 
1449	 0.083107100780966 
1450	 8.31291674504031E-02 
1451	 8.31398273746233E-02 
1452	 8.31375592125513E-02 
1453	 8.31590325681461E-02 
1454	 8.31828272880294E-02 
1455	 8.32118285032449E-02 
1456	 8.32567541686611E-02 
1457	 8.32990538916486E-02 
1458	 0.083329976822018 
1459	 0.083387138628241 
1460	 0.083460354374603 
1461	 8.35434326352201E-02 
1462	 8.36491853128829E-02 
1463	 8.37456411058937E-02 
1464	 8.38337713500275E-02 
1465	 8.39458780746589E-02 
1466	 8.40676138341159E-02 
1467	 8.41979316608996E-02 
1468	 8.43451873435652E-02 
1469	 8.45032226208542E-02 
1470	 8.46689781236944E-02 
1471	 8.48392571849211E-02 
1472	 8.50289597283533E-02 
1473	 8.52313234475096E-02 
1474	 8.54226726719014E-02 
1475	 8.56129490879972E-02 
1476	 8.57990497724098E-02 
1477	 8.59924678489367E-02 
1478	 8.62130525572412E-02 
1479	 8.64367298068751E-02 
1480	 8.66670580382744E-02 
1481	 8.69027474944522E-02 
1482	 8.71328856667924E-02 
1483	 8.73546882734515E-02 
1484	 8.75830865884728E-02 
1485	 8.78143928082224E-02 
1486	 8.80474051624711E-02 
1487	 8.82765922624806E-02 
1488	 8.85130903481145E-02 
1489	 8.87624259372318E-02 
1490	 8.90034292252203E-02 
1491	 8.92466716290355E-02 
1492	 8.94811888470019E-02 
1493	 8.97043434743031E-02 
1494	 8.99372413253574E-02 
1495	 9.01683542240493E-02 
1496	 9.04025218477159E-02 
1497	 9.06470641590653E-02 
1498	 9.08844922108722E-02 
1499	 9.11246846283487E-02 
1500	 9.13526173214109E-02 
1501	 9.15664969003776E-02 
1502	 9.17894110667099E-02 
1503	 9.20098387553676E-02 
1504	 9.22273312850908E-02 
1505	 0.092456204926905 
1506	 9.26831275475195E-02 
1507	 9.28867121624224E-02 
1508	 9.30987279474355E-02 
1509	 9.33197326681743E-02 
1510	 9.35338671789906E-02 
1511	 9.37483027550505E-02 
1512	 9.39563124097876E-02 
1513	 9.41616089426434E-02 
1514	 9.43600024847128E-02 
1515	 9.45581989028612E-02 
1516	 9.47688010172446E-02 
1517	 9.49613896609626E-02 
1518	 9.51355855166729E-02 
1519	 9.53264844153782E-02 
1520	 9.55209985169117E-02 
1521	 9.57085605648055E-02 
1522	 9.58989303332215E-02 
1523	 9.60896562242295E-02 
1524	 9.62737994136844E-02 
1525	 9.64604161614559E-02 
1526	 9.66610425108837E-02 
1527	 9.68413137730433E-02 
1528	 9.70026155466453E-02 
1529	 9.71754770681564E-02 
1530	 9.73449947435083E-02 
1531	 9.75143260395969E-02 
1532	 9.76941806513971E-02 
1533	 9.78642696976303E-02 
1534	 9.80270285682044E-02 
1535	 9.81868202173009E-02 
1536	 9.83352394256089E-02 
1537	 9.84952011901953E-02 
1538	 9.86606647137534E-02 
1539	 9.88166837808329E-02 
1540	 9.89824975660498E-02 
1541	 9.91350637997268E-02 
1542	 9.92707005206916E-02 
1543	 9.94105502164938E-02 
1544	 9.95420490556959E-02 
1545	 0.099681406826809 
1546	 9.98276065885853E-02 
1547	 9.99668765593675E-02 
1548	 0.100103145600404 
1549	 0.100234259424732 
1550	 0.100372571472585 
1551	 0.100515938638914 
1552	 0.100649533694833 
1553	 0.10078263918807 
1554	 0.100897547236152 
1555	 0.100992605844647 
1556	 0.101089617066173 
1557	 0.101201202985576 
1558	 0.10131957553661 
1559	 0.101434193593768 
1560	 0.101543825780777 
1561	 0.101663252193828 
1562	 0.101760070880422 
1563	 0.101831319951331 
1564	 0.101929905317518 
1565	 0.102033672556116 
1566	 0.102136303761254 
1567	 0.102254728275397 
1568	 0.102352658239507 
1569	 0.102443617309312 
1570	 0.102523056576092 
1571	 0.102584015718085 
1572	 0.102662755534665 
1573	 0.102739124845199 
1574	 0.102813854396801 
1575	 0.102899329804696 
1576	 0.102978908052456 
1577	 0.103049037770559 
1578	 0.10312446786439 
1579	 0.103205606125946 
1580	 0.103284215236683 
1581	 0.10336450703329 
1582	 0.103434841358798 
1583	 0.103495538129774 
1584	 0.103565562942244 
1585	 0.103631344354631 
1586	 0.103702252733109 
1587	 0.103801236723399 
1588	 0.103865613681967 
1589	 0.103905153355977 
1590	 0.103951177916798 
1591	 0.103969186596678 
1592	 0.104011477497801 
1593	 0.104081455125006 
1594	 0.10413293974846 
1595	 0.104182720978109 
1596	 0.104233154710583 
1597	 0.104278492156385 
1598	 0.104316918951028 
1599	 0.104347853359262 
1600	 0.104389058751305 
1601	 0.104428296343714 
1602	 0.104467798508997 
1603	 0.104519022544916 
1604	 0.104564595003336 
1605	 0.104595129927929 
1606	 0.10463799674832 
1607	 0.104690845554716 
1608	 0.104747630343552 
1609	 0.104786209988077 
1610	 0.104827664497488 
1611	 0.104855744463221 
1612	 0.104869641909397 
1613	 0.104899110955501 
1614	 0.104928477389765 
1615	 0.104939719162209 
1616	 0.104963325404419 
1617	 0.104992691020553 
1618	 0.105009070551304 
1619	 0.105036787204254 
1620	 0.105073535283437 
1621	 0.105097739997462 
1622	 0.105113461481161 
1623	 0.105139744657356 
1624	 0.105169268703592 
1625	 0.105186465275616 
1626	 0.105201802906466 
1627	 0.105225247941109 
1628	 0.10524328235226 
1629	 0.105261262590948 
1630	 0.10529552666395 
1631	 0.105302562423198 
1632	 0.105281455212702 
1633	 0.105290981904839 
1634	 0.105306524585336 
1635	 0.105318398297718 
1636	 0.105342004836173 
1637	 0.10536152255418 
1638	 0.105373940205675 
1639	 0.105388763288128 
1640	 0.105415049950199 
1641	 0.10542400544724 
1642	 0.10541650991199 
1643	 0.105423073113267 
1644	 0.105435243937294 
1645	 0.105434154387985 
1646	 0.105426587308361 
1647	 0.105431585919253 
1648	 0.105433842814362 
1649	 0.105434691289497 
1650	 0.105452865798759 
1651	 0.105450867921546 
1652	 0.105423788047288 
1653	 0.105419870882292 
1654	 0.105430031409766 
1655	 0.105420891615268 
1656	 0.105410418345689 
1657	 0.1053979169778 
1658	 0.105370492985741 
1659	 0.105350118046863 
1660	 0.105335252952241 
1661	 0.1053204384538 
1662	 0.105297820088645 
1663	 0.105288348179117 
1664	 0.105298664210102 
1665	 0.105285894690296 
1666	 0.105268668875078 
1667	 0.10524666014966 
1668	 0.10520217506195 
1669	 0.105179574545595 
1670	 0.105170926131154 
1671	 0.105151387444329 
1672	 0.105132516522155 
1673	 0.105116575298859 
1674	 0.105098274876312 
1675	 0.105077473305771 
1676	 0.105061797921385 
1677	 0.105042238544026 
1678	 0.105013422190526 
1679	 0.104990208239459 
1680	 0.104972298501836 
1681	 0.104950333887904 
1682	 0.104928416404831 
1683	 0.104900963097257 
1684	 0.104869606468366 
1685	 0.104840710735826 
1686	 0.10480812101187 
1687	 0.104776126645822 
1688	 0.104747312450683 
1689	 0.104714129664822 
1690	 0.104678384222697 
1691	 0.104640586902804 
1692	 0.104598225582472 
1693	 0.104561375396026 
1694	 0.104529039817784 
1695	 0.104488389065816 
1696	 0.10444305009688 
1697	 0.104403754824603 
1698	 0.104366059780585 
1699	 0.104317853789749 
1700	 0.104267158160211 
1701	 0.104224510488645 
1702	 0.104172710330494 
1703	 0.104126436869537 
1704	 0.104098319347805 
1705	 0.104054818532242 
1706	 0.10399165257091 
1707	 0.103952192587538 
1708	 0.103926979742681 
1709	 0.103886941575509 
1710	 0.103856261178026 
1711	 0.103813268773806 
1712	 0.103755872450657 
1713	 0.103695126191192 
1714	 0.103632762558027 
1715	 0.1035628890639 
1716	 0.103472484469644 
1717	 0.10340621903905 
1718	 0.103347577625165 
1719	 0.103288808204474 
1720	 0.103250479576181 
1721	 0.103186567495053 
1722	 0.103109482280649 
1723	 0.103036060721669 
1724	 0.102959642801001 
1725	 0.102864205028276 
1726	 0.102756035656912 
1727	 0.102660076260209 
1728	 0.102544176856395 
1729	 0.102454441301946 
1730	 0.102391200629085 
1731	 0.102314461618306 
1732	 0.102242428722788 
1733	 0.102162101816461 
1734	 0.102078612104485 
1735	 0.101989869301674 
1736	 0.101894297107529 
1737	 0.101801088882462 
1738	 0.101708095247928 
1739	 0.101607763168066 
1740	 0.101504801992575 
1741	 0.10138988412608 
1742	 0.101258461420114 
1743	 0.101155246963398 
1744	 0.101056213146986 
1745	 0.100962663019903 
1746	 0.100892353536426 
1747	 0.100790908898843 
1748	 0.100674333404134 
1749	 0.100544205179243 
1750	 0.100443110954922 
1751	 0.10034100597943 
1752	 0.100240084455319 
1753	 0.100142779390386 
1754	 0.100021440415272 
1755	 9.99009356418212E-02 
1756	 9.97835412273031E-02 
1757	 9.96586859493282E-02 
1758	 9.95395429000079E-02 
1759	 9.94116941725311E-02 
1760	 9.92844189359927E-02 
1761	 9.91846901343261E-02 
1762	 9.90770689583279E-02 
1763	 9.89651670987573E-02 
1764	 0.098877032914862 
1765	 9.87802059154411E-02 
1766	 9.86723631132656E-02 
1767	 9.85849397291693E-02 
1768	 9.84757523377561E-02 
1769	 0.098333170858099 
1770	 9.82258747140878E-02 
1771	 9.81309393643898E-02 
1772	 9.80262978918058E-02 
1773	 9.79549301444976E-02 
1774	 9.78914836254549E-02 
1775	 9.78025807004728E-02 
1776	 9.77265425583061E-02 
1777	 9.76570685457524E-02 
1778	 0.097569681120587 
1779	 9.74866264170329E-02 
1780	 9.73980851405415E-02 
1781	 0.097324819886725 
1782	 0.097271063303589 
1783	 9.72316986876251E-02 
1784	 9.71945030564655E-02 
1785	 9.71669165054487E-02 
1786	 9.71206861856046E-02 
1787	 9.70706661934609E-02 
1788	 9.70157471116737E-02 
1789	 9.69338974399653E-02 
1790	 9.68890695651772E-02 
1791	 9.68686237676366E-02 
1792	 9.68289529436691E-02 
1793	 9.68014453946549E-02 
1794	 9.67663132276189E-02 
1795	 9.67158484208456E-02 
1796	 9.66707820688863E-02 
1797	 9.66211725564653E-02 
1798	 9.65929581729509E-02 
1799	 9.65708618574658E-02 
1800	 9.65595366150532E-02 
1801	 9.44829262624237E-02 
1802	 9.45671919407408E-02 
1803	 9.46400771972142E-02 
1804	 9.47384573233707E-02 
1805	 9.48313487486996E-02 
1806	 9.48812154399534E-02 
1807	 9.49402612821622E-02 
1808	 0.094987937877153 
1809	 9.50311603055817E-02 
1810	 9.50517159216804E-02 
1811	 9.50569142782793E-02 
1812	 9.50649614637808E-02 
1813	 9.50450884608813E-02 
1814	 9.50176713249415E-02 
1815	 0.095008413450521 
1816	 9.49820317108458E-02 
1817	 9.49555990044316E-02 
1818	 9.49232091312294E-02 
1819	 9.48992022089755E-02 
1820	 9.48724751711161E-02 
1821	 0.094850894643257 
1822	 9.48345672917849E-02 
1823	 9.48332496510482E-02 
1824	 9.48097669086007E-02 
1825	 0.094758595255612 
1826	 9.47271918029037E-02 
1827	 0.094681973630863 
1828	 9.46305499902918E-02 
1829	 9.45995436875514E-02 
1830	 9.45317026344481E-02 
1831	 9.44295863299883E-02 
1832	 9.43331286037373E-02 
1833	 0.094252926153248 
1834	 9.41556122116478E-02 
1835	 9.40819322258475E-02 
1836	 9.40028153446141E-02 
1837	 9.38887724346271E-02 
1838	 9.37782400281968E-02 
1839	 9.36770365615309E-02 
1840	 9.35787786519161E-02 
1841	 9.34815927184248E-02 
1842	 9.34016840310214E-02 
1843	 9.32995976852131E-02 
1844	 9.31931763000614E-02 
1845	 9.30877267734037E-02 
1846	 9.29574786904775E-02 
1847	 9.28392123035854E-02 
1848	 9.27167904475314E-02 
1849	 9.25724946891111E-02 
1850	 9.24073717150834E-02 
1851	 9.22274295364681E-02 
1852	 0.092032493462004 
1853	 9.18042846269988E-02 
1854	 9.15387991534218E-02 
1855	 9.12701860948223E-02 
1856	 9.09791232216618E-02 
1857	 9.06428327073395E-02 
1858	 0.090295867608932 
1859	 8.99467559049504E-02 
1860	 8.95443326398467E-02 
1861	 8.90995699731385E-02 
1862	 8.86329596497788E-02 
1863	 8.81352450008079E-02 
1864	 8.75643067969575E-02 
1865	 8.69654193713646E-02 
1866	 8.63398682140464E-02 
1867	 8.56793917758321E-02 
1868	 8.49670925156111E-02 
1869	 8.42168274737228E-02 
1870	 8.34440463712494E-02 
1871	 8.26293372474372E-02 
1872	 8.17690122302579E-02 
1873	 8.08981163751611E-02 
1874	 8.00132500213851E-02 
1875	 7.91032308805546E-02 
1876	 7.81748630841318E-02 
1877	 7.72165123958402E-02 
1878	 7.62081991501678E-02 
1879	 7.51267237257301E-02 
1880	 7.40098604905248E-02 
1881	 7.28268425523923E-02 
1882	 7.16362061742432E-02 
1883	 7.04046466864655E-02 
1884	 6.91423059581083E-02 
1885	 6.78870554509149E-02 
1886	 6.66011905044411E-02 
1887	 6.53005058029787E-02 
1888	 6.40363753578685E-02 
1889	 6.27643577093321E-02 
1890	 6.15144043137429E-02 
1891	 6.03033059984982E-02 
1892	 5.91043177119119E-02 
1893	 5.79550582362999E-02 
1894	 5.68401677514424E-02 
1895	 5.57746465460025E-02 
1896	 5.47296158750953E-02 
1897	 5.37266607024919E-02 
1898	 5.27915231616771E-02 
1899	 5.19196647819655E-02 
1900	 5.11070930493532E-02 
1901	 5.03747139487607E-02 
1902	 0.049706335018721 
1903	 4.91191369834592E-02 
1904	 0.048557290842161 
1905	 4.80576416832005E-02 
1906	 4.76060235304231E-02 
1907	 4.71793263097893E-02 
1908	 4.67870336394768E-02 
1909	 0.046430655859087 
1910	 4.61128435311305E-02 
1911	 4.58285191649063E-02 
1912	 0.04554757050108 
1913	 4.52962724257472E-02 
1914	 4.50759004999201E-02 
1915	 4.48725313188613E-02 
1916	 4.46841921451172E-02 
1917	 4.45316818386035E-02 
1918	 4.43909940422814E-02 
1919	 4.42595561142659E-02 
1920	 0.044148168422506 
1921	 4.40602961138798E-02 
1922	 0.043990081192137 
1923	 4.39442913954461E-02 
1924	 4.38953698774655E-02 
1925	 4.38564276727046E-02 
1926	 4.38106929952917E-02 
1927	 0.04375565355673 
1928	 0.043727940767166 
1929	 4.37000422813419E-02 
1930	 4.36971126253483E-02 
1931	 4.37210362611932E-02 
1932	 4.37278518313857E-02 
1933	 4.37556963609772E-02 
1934	 4.38058704845172E-02 
1935	 4.38677564626779E-02 
1936	 4.39588802445489E-02 
1937	 4.40401065594179E-02 
1938	 4.41262195175917E-02 
1939	 0.044219330052109 
1940	 4.43147274968004E-02 
1941	 4.44116303370003E-02 
1942	 0.044516945578442 
1943	 0.044625168893531 
1944	 4.47385376837432E-02 
1945	 4.48470385138787E-02 
1946	 4.49677137758894E-02 
1947	 4.51023070994626E-02 
1948	 4.52339519112635E-02 
1949	 4.53630730513626E-02 
1950	 4.55065675137945E-02 
1951	 4.56640259917891E-02 
1952	 4.58150424676746E-02 
1953	 4.59568942445075E-02 
1954	 4.61069524093004E-02 
1955	 4.62636743042564E-02 
1956	 4.64173314363215E-02 
1957	 4.65850902247705E-02 
1958	 4.67802684855345E-02 
1959	 4.69567936326707E-02 
1960	 4.71243225259333E-02 
1961	 0.047304624464915 
1962	 4.74774622704002E-02 
1963	 4.76696954485479E-02 
1964	 0.047884425589759 
1965	 4.80958981291416E-02 
1966	 4.82910530326257E-02 
1967	 4.84939197353434E-02 
1968	 4.87013722459246E-02 
1969	 4.88985531663841E-02 
1970	 4.91044279322737E-02 
1971	 0.049334801291714 
1972	 4.95453768629164E-02 
1973	 0.049737330937059 
1974	 4.99439621041514E-02 
1975	 5.01550114124506E-02 
1976	 5.03547924956564E-02 
1977	 5.05860923779377E-02 
1978	 5.08316342897202E-02 
1979	 5.10612401506374E-02 
1980	 5.12995783184561E-02 
1981	 5.15240819324984E-02 
1982	 5.17214566882398E-02 
1983	 0.051941156858694 
1984	 5.21758339295993E-02 
1985	 5.24008634619509E-02 
1986	 5.26157915328917E-02 
1987	 5.28522908747403E-02 
1988	 5.31120110241735E-02 
1989	 5.33429194451813E-02 
1990	 0.053565858658359 
1991	 5.38003078341187E-02 
1992	 5.40258495626199E-02 
1993	 5.42167675190311E-02 
1994	 5.44426312778944E-02 
1995	 5.47016659499495E-02 
1996	 5.49333997393359E-02 
1997	 5.51574604604333E-02 
1998	 5.53876318667573E-02 
1999	 5.56071114586295E-02 
2000	 5.58370919107343E-02 
2001	 5.60860721198985E-02 
2002	 5.63148490203227E-02 
2003	 5.65492190294426E-02 
2004	 5.67809789520401E-02 
2005	 5.70034425127242E-02 
2006	 5.72101820873241E-02 
2007	 5.74359504072397E-02 
2008	 5.76647612472871E-02 
2009	 5.78908330912131E-02 
2010	 5.81219881681684E-02 
2011	 5.83577946995496E-02 
2012	 5.86025713829349E-02 
2013	 5.88325273476716E-02 
2014	 0.059061806617873 
2015	 5.92901568526721E-02 
2016	 5.95105698932328E-02 
2017	 5.97087824418327E-02 
2018	 5.99165620765606E-02 
2019	 6.01268848559021E-02 
2020	 6.03375703973232E-02 
2021	 6.05349124952773E-02 
2022	 6.07527320457519E-02 
2023	 6.09933349334406E-02 
2024	 0.061215564318353 
2025	 6.14414124256356E-02 
2026	 6.16618570475074E-02 
2027	 6.18770879329682E-02 
2028	 0.06207826207557 
2029	 6.22808228764039E-02 
2030	 6.24784629999214E-02 
2031	 6.26861567716269E-02 
2032	 6.28916059397921E-02 
2033	 6.30973005929987E-02 
2034	 6.33067118597084E-02 
2035	 6.35236180351817E-02 
2036	 6.37503162929158E-02 
2037	 6.39594702746941E-02 
2038	 6.41805034361109E-02 
2039	 6.43808251042445E-02 
2040	 0.064544214708686 
2041	 6.47253458404655E-02 
2042	 6.49056145363914E-02 
2043	 6.50814876654274E-02 
2044	 6.52700912387994E-02 
2045	 6.54685331640395E-02 
2046	 6.56573536095546E-02 
2047	 6.58558792825523E-02 
2048	 6.60398572338674E-02 
2049	 6.62024678444473E-02 
2050	 6.63884327034942E-02 
2051	 6.65907133978655E-02 
2052	 6.67715381430467E-02 
2053	 6.69454081890573E-02 
2054	 0.067128955255828 
2055	 6.72939265044151E-02 
2056	 6.74775403720818E-02 
2057	 6.76627148062598E-02 
2058	 6.78786267909583E-02 
2059	 6.80533451567413E-02 
2060	 6.82008936000828E-02 
2061	 6.83694534910828E-02 
2062	 6.85265803956176E-02 
2063	 0.068698817089823 
2064	 6.88972179871497E-02 
2065	 6.90767286296909E-02 
2066	 6.92542578550617E-02 
2067	 6.94232757492246E-02 
2068	 6.95779149265294E-02 
2069	 6.97376400698637E-02 
2070	 6.98972820827977E-02 
2071	 7.00499891367588E-02 
2072	 7.02139457893963E-02 
2073	 7.03882270994476E-02 
2074	 7.05521319910903E-02 
2075	 7.07166426996212E-02 
2076	 7.08788602015338E-02 
2077	 0.071040140999609 
2078	 0.07119300009097 
2079	 7.13398093696754E-02 
2080	 7.14898126503486E-02 
2081	 7.16296085954297E-02 
2082	 7.17746555336431E-02 
2083	 7.19302746126776E-02 
2084	 7.20810972212337E-02 
2085	 7.22225323701926E-02 
2086	 7.23517039151018E-02 
2087	 7.25009522233258E-02 
2088	 7.26517750979613E-02 
2089	 7.28017572191422E-02 
2090	 7.29650233620185E-02 
2091	 7.31210629155625E-02 
2092	 7.32708621843812E-02 
2093	 7.34221840808243E-02 
2094	 0.073584658403502 
2095	 7.37320390650999E-02 
2096	 7.38566280859234E-02 
2097	 7.39975767261268E-02 
2098	 7.41485433095732E-02 
2099	 7.42931639041422E-02 
2100	 7.44197062294042E-02 
2101	 7.45390404417765E-02 
2102	 7.46729151320339E-02 
2103	 7.47820482045752E-02 
2104	 7.49260580864925E-02 
2105	 7.51218731642827E-02 
2106	 7.52701759256373E-02 
2107	 7.53972046124897E-02 
2108	 7.55385178643815E-02 
2109	 7.56680134052448E-02 
2110	 7.58013842504562E-02 
2111	 7.59593040298677E-02 
2112	 7.60957630028511E-02 
2113	 7.62142435212528E-02 
2114	 7.63249613475084E-02 
2115	 7.64554529771589E-02 
2116	 7.65907549993121E-02 
2117	 7.67124610030134E-02 
2118	 7.68339049181079E-02 
2119	 7.69693465686802E-02 
2120	 7.71119824718452E-02 
2121	 7.72283982393362E-02 
2122	 7.73500509346666E-02 
2123	 0.077463911177194 
2124	 7.75393257057921E-02 
2125	 7.76353158882261E-02 
2126	 0.077749232188518 
2127	 0.077858719776073 
2128	 7.79644358539408E-02 
2129	 7.80703789029874E-02 
2130	 7.81841799538103E-02 
2131	 7.82993253408664E-02 
2132	 7.83904082744659E-02 
2133	 0.078475653437905 
2134	 7.85363562647751E-02 
2135	 7.85592293984402E-02 
2136	 7.86135430057661E-02 
2137	 7.86621402480102E-02 
2138	 7.87179970997198E-02 
2139	 7.88024452859854E-02 
2140	 7.88610520493217E-02 
2141	 7.89041410423179E-02 
2142	 7.89462238048944E-02 
2143	 7.89790170224924E-02 
2144	 7.90117221705592E-02 
2145	 7.90547094593375E-02 
2146	 7.90770496287305E-02 
2147	 7.90974333736389E-02 
2148	 7.90859253663157E-02 
2149	 7.90842913239914E-02 
2150	 0.079057297221783 
2151	 7.90576761963271E-02 
2152	 7.90794931760936E-02 
2153	 7.90777229265387E-02 
2154	 7.90675430489877E-02 
2155	 7.90690539225591E-02 
2156	 7.90682757088565E-02 
2157	 7.90612654650837E-02 
2158	 7.90816389152629E-02 
2159	 0.079061635694435 
2160	 7.89975939844877E-02 
2161	 7.89538129603457E-02 
2162	 7.88984258333396E-02 
2163	 7.88482037432067E-02 
2164	 7.88049087705284E-02 
2165	 7.87691637671457E-02 
2166	 7.87289702506089E-02 
2167	 7.86877216069095E-02 
2168	 7.86397301387305E-02 
2169	 7.85927674667314E-02 
2170	 0.078541866395593 
2171	 7.84922111147043E-02 
2172	 7.84206312724696E-02 
2173	 0.078335663319208 
2174	 7.82533961410793E-02 
2175	 7.81371572109445E-02 
2176	 7.80572973092656E-02 
2177	 7.80083051193707E-02 
2178	 7.79437185579888E-02 
2179	 7.78902537134398E-02 
2180	 7.78271931699713E-02 
2181	 7.77453441740381E-02 
2182	 7.76747061675536E-02 
2183	 7.76146659113147E-02 
2184	 7.75485739051995E-02 
2185	 7.74731772833628E-02 
2186	 7.73882044515574E-02 
2187	 7.73236771170028E-02 
2188	 7.72578391538192E-02 
2189	 7.71955123475415E-02 
2190	 7.71602293756961E-02 
2191	 7.70976979704852E-02 
2192	 7.70144973010513E-02 
2193	 7.69400896733957E-02 
2194	 7.68500776020909E-02 
2195	 7.67841676884955E-02 
2196	 7.67235873965535E-02 
2197	 7.66782339063078E-02 
2198	 7.66596606350936E-02 
2199	 7.66350200110624E-02 
2200	 7.66196177392824E-02 
2201	 0.076603736411637 
2202	 7.65905773120385E-02 
2203	 7.65728382917002E-02 
2204	 7.65582963707734E-02 
2205	 7.65406978920264E-02 
2206	 7.65360825803377E-02 
2207	 7.65475165571292E-02 
2208	 7.65317448280101E-02 
2209	 7.65018445922889E-02 
2210	 7.64964763591398E-02 
2211	 7.64728245817954E-02 
2212	 7.64842173117985E-02 
2213	 7.65536191567576E-02 
2214	 7.65745383694442E-02 
2215	 7.65842535719376E-02 
2216	 7.65898898967188E-02 
2217	 7.65658298558436E-02 
2218	 7.65632690498993E-02 
2219	 7.65713756714226E-02 
2220	 7.65770873594733E-02 
2221	 7.65931005560902E-02 
2222	 7.66007869416295E-02 
2223	 7.66019139501841E-02 
2224	 7.65967910369607E-02 
2225	 7.65881707829581E-02 
2226	 7.65668776437132E-02 
2227	 7.65598124413546E-02 
2228	 7.65581885123973E-02 
2229	 7.65471011902324E-02 
2230	 0.076534278188349 
2231	 7.65280758121148E-02 
2232	 7.65198739677011E-02 
2233	 0.076510663173979 
2234	 7.65007085831676E-02 
2235	 7.65038654086757E-02 
2236	 0.076524180335005 
2237	 7.65163564859311E-02 
2238	 7.65202832422768E-02 
2239	 7.64964402321515E-02 
2240	 7.64187872948837E-02 
2241	 7.63690205340831E-02 
2242	 7.63192357338952E-02 
2243	 7.62777185496399E-02 
2244	 7.62488120279109E-02 
2245	 7.62251439508262E-02 
2246	 7.61920624589695E-02 
2247	 7.61402011044534E-02 
2248	 7.61015491894142E-02 
2249	 7.60533185685979E-02 
2250	 7.60235893839335E-02 
2251	 7.60186775589111E-02 
2252	 7.59815191877963E-02 
2253	 7.59342660194055E-02 
2254	 7.58843000302194E-02 
2255	 0.075820025750651 
2256	 7.57589574482579E-02 
2257	 7.56926163461194E-02 
2258	 7.56349597942061E-02 
2259	 7.55707419730376E-02 
2260	 7.55212133439322E-02 
2261	 0.075486244177802 
2262	 7.54536280629174E-02 
2263	 7.54356400121995E-02 
2264	 7.54021170209445E-02 
2265	 7.53627528929015E-02 
2266	 7.53306959692335E-02 
2267	 7.53014568533887E-02 
2268	 0.075255837172002 
2269	 7.52062446874405E-02 
2270	 7.51616458777973E-02 
2271	 7.50627242989814E-02 
2272	 7.50028433813109E-02 
2273	 7.49879045075057E-02 
2274	 7.49448805696044E-02 
2275	 7.48900621294366E-02 
2276	 7.48537691254367E-02 
2277	 7.47839668707726E-02 
2278	 7.46598985251767E-02 
2279	 7.45804390696329E-02 
2280	 7.45177624027187E-02 
2281	 7.44419654178614E-02 
2282	 0.074367672619596 
2283	 7.43030299359001E-02 
2284	 7.42333194045877E-02 
2285	 7.41703267312915E-02 
2286	 7.41279634789567E-02 
2287	 7.40683044607551E-02 
2288	 0.073993400523425 
2289	 7.39370974989487E-02 
2290	 7.38893853092815E-02 
2291	 7.38367664019252E-02 
2292	 0.073800663214786 
2293	 7.37424827725802E-02 
2294	 7.36659129986025E-02 
2295	 7.35902343605193E-02 
2296	 7.35004671856384E-02 
2297	 7.34226051735929E-02 
2298	 7.33235510436866E-02 
2299	 7.32186672826483E-02 
2300	 7.31687244398107E-02 
2301	 7.30787495494044E-02 
2302	 7.29938615210677E-02 
2303	 7.29338027256493E-02 
2304	 7.27961337182365E-02 
2305	 7.26839654322425E-02 
2306	 7.25749876278999E-02 
2307	 7.24616223774226E-02 
2308	 7.23672138140725E-02 
2309	 7.22915556308105E-02 
2310	 7.22057343562852E-02 
2311	 7.21420718022147E-02 
2312	 7.20486910085939E-02 
2313	 7.19261718196471E-02 
2314	 7.18270719931227E-02 
2315	 7.17268834619959E-02 
2316	 7.16258851219762E-02 
2317	 0.071544681528654 
2318	 7.14478584293977E-02 
2319	 7.13336000033827E-02 
2320	 7.12267130305757E-02 
2321	 7.10997482624932E-02 
2322	 7.10100350728486E-02 
2323	 7.09618130092674E-02 
2324	 7.08728099434391E-02 
2325	 7.07988137151653E-02 
2326	 7.06993718572657E-02 
2327	 7.05446431257025E-02 
2328	 7.04165107301393E-02 
2329	 7.02995084751155E-02 
2330	 7.02058413964503E-02 
2331	 7.01444537049383E-02 
2332	 7.00509324482272E-02 
2333	 6.99477226642141E-02 
2334	 6.98518445714582E-02 
2335	 6.97383986382097E-02 
2336	 6.96297291169765E-02 
2337	 6.95397863910474E-02 
2338	 0.069436372586084 
2339	 0.069286374833234 
2340	 6.91507133834817E-02 
2341	 6.90336467268964E-02 
2342	 0.068928281714978 
2343	 6.88783789773359E-02 
2344	 6.88047122412485E-02 
2345	 6.86891937087054E-02 
2346	 6.85249991596758E-02 
2347	 6.84026366185047E-02 
2348	 6.82872411209715E-02 
2349	 6.81354634801453E-02 
2350	 6.79824117937591E-02 
2351	 6.78388406674319E-02 
2352	 6.76469579231145E-02 
2353	 6.74935533010892E-02 
2354	 6.73832517946432E-02 
2355	 6.72571601286874E-02 
2356	 6.71313406412797E-02 
2357	 6.69786649065967E-02 
2358	 6.68228404601806E-02 
2359	 6.66894395158226E-02 
2360	 6.65244474960651E-02 
2361	 6.63943863376784E-02 
2362	 6.63144602791733E-02 
2363	 6.62026108926041E-02 
2364	 6.60855196855448E-02 
2365	 6.59760026815623E-02 
2366	 6.58727873192859E-02 
2367	 6.57571837709262E-02 
2368	 6.56438666507848E-02 
2369	 6.55011034723375E-02 
2370	 6.53409621576532E-02 
2371	 6.51553919142987E-02 
2372	 6.49592282730638E-02 
2373	 6.48172460279203E-02 
2374	 6.46936569875021E-02 
2375	 6.45804595451821E-02 
2376	 6.44577876790832E-02 
2377	 6.42839710000131E-02 
2378	 6.40647972034901E-02 
2379	 0.0638495583588 
2380	 6.36930965819943E-02 
2381	 6.35629013909872E-02 
2382	 6.34656135522735E-02 
2383	 6.33589470362707E-02 
2384	 6.31895894761139E-02 
2385	 6.29938333947342E-02 
2386	 6.28449678862339E-02 
2387	 6.27205730704361E-02 
2388	 6.25507266065336E-02 
2389	 6.24376907615763E-02 
2390	 6.22747830869942E-02 
2391	 6.20587252742139E-02 
2392	 6.19637563691244E-02 
2393	 6.18659252328531E-02 
2394	 6.17418403699917E-02 
2395	 6.16390917496786E-02 
2396	 6.14824335982182E-02 
2397	 6.13388860225887E-02 
2398	 6.12300369881388E-02 
2399	 6.10511507431884E-02 
2400	 6.08654782637658E-02 
2401	 6.06212655066942E-02 
2402	 6.03273256799945E-02 
2403	 0.060137050699885 
2404	 0.059942000650104 
2405	 5.97760599297073E-02 
2406	 5.96531077136009E-02 
2407	 5.94951407662576E-02 
2408	 5.94472363679849E-02 
2409	 5.93078362237237E-02 
2410	 5.91128710423601E-02 
2411	 0.059121555135418 
2412	 5.89655131846727E-02 
2413	 5.86994944297153E-02 
2414	 5.85566028634622E-02 
2415	 5.83102492263087E-02 
2416	 5.80956191014214E-02 
2417	 5.79201407534594E-02 
2418	 5.77578916342728E-02 
2419	 5.75810852448328E-02 
2420	 5.74159544560337E-02 
2421	 0.057309762110578 
2422	 5.71185665891923E-02 
2423	 5.68610133695249E-02 
2424	 0.056662366943271 
2425	 5.64179896728075E-02 
2426	 5.62549716242747E-02 
2427	 5.62061303056265E-02 
2428	 5.60621866635797E-02 
2429	 5.58909789654702E-02 
2430	 5.57170220230527E-02 
2431	 5.55304334641429E-02 
2432	 5.53656348500777E-02 
2433	 5.51726306048354E-02 
2434	 5.50121627005757E-02 
2435	 5.49142756369623E-02 
2436	 5.46846487657545E-02 
2437	 5.43983716351431E-02 
2438	 5.42195237457413E-02 
2439	 5.39686861461218E-02 
2440	 0.053773136449183 
2441	 5.37478107522139E-02 
2442	 5.35733640678457E-02 
2443	 5.32681790547579E-02 
2444	 5.30915862624653E-02 
2445	 5.29372680556399E-02 
2446	 5.27767801370852E-02 
2447	 5.26945184190343E-02 
2448	 5.25611235403283E-02 
2449	 5.23660087095952E-02 
2450	 5.21678804851625E-02 
2451	 5.19959264330155E-02 
2452	 5.18650959171914E-02 
2453	 0.051713634926333 
2454	 5.15483455640649E-02 
2455	 5.14296258258514E-02 
2456	 5.12636945979593E-02 
2457	 5.10549807966644E-02 
2458	 5.08999135689124E-02 
2459	 5.07011003421936E-02 
2460	 5.05406010784654E-02 
2461	 5.04311743286175E-02 
2462	 5.02616563543704E-02 
2463	 5.02023740346247E-02 
2464	 5.00937751320506E-02 
2465	 0.049852987330435 
2466	 4.96432916423294E-02 
2467	 4.93447236657621E-02 
2468	 4.92419798865309E-02 
2469	 0.049331279106227 
2470	 4.92783902641852E-02 
2471	 4.91063453942203E-02 
2472	 4.89169179699683E-02 
2473	 4.87160058750999E-02 
2474	 0.048629477155527 
2475	 0.048635099762056 
2476	 4.83423300867354E-02 
2477	 4.79177034411321E-02 
2478	 4.76350601647257E-02 
2479	 4.74493166362172E-02 
2480	 4.72746822873753E-02 
2481	 4.72493828092829E-02 
2482	 4.72098860825896E-02 
2483	 0.047168541558563 
2484	 4.72159937134117E-02 
2485	 4.70222809316674E-02 
2486	 4.70094210881836E-02 
2487	 4.69607113534409E-02 
2488	 4.67311495021792E-02 
2489	 4.68169805408078E-02 
2490	 4.67034448989929E-02 
2491	 4.63427536509249E-02 
2492	 4.61544230415831E-02 
2493	 4.59982112660407E-02 
2494	 4.58568534432679E-02 
2495	 0.045813866245622 
2496	 4.57432415051751E-02 
2497	 4.56980135675461E-02 
2498	 4.54936845298657E-02 
2499	 4.52954072044292E-02 
2500	 4.53828830414925E-02 
