Wavelength	MM_3200009.asd
350	 3.70721952285427E-02 
351	 3.21552671505844E-02 
352	 2.84569674319314E-02 
353	 2.60545119822545E-02 
354	 2.76915933243486E-02 
355	 2.30406953678165E-02 
356	 2.33031277387878E-02 
357	 3.67084021330206E-02 
358	 4.14095837869039E-02 
359	 3.66369324687048E-02 
360	 2.91888239234101E-02 
361	 2.88243319358129E-02 
362	 2.42139291394541E-02 
363	 2.49033390340299E-02 
364	 3.18540905595277E-02 
365	 2.90193700519273E-02 
366	 2.72079940171936E-02 
367	 2.89369275974724E-02 
368	 3.33512027883296E-02 
369	 3.73504869797144E-02 
370	 0.034093421598985 
371	 2.83714178656004E-02 
372	 3.14781877181283E-02 
373	 3.35746609535636E-02 
374	 3.52507507780546E-02 
375	 3.68191038595565E-02 
376	 3.55475055966707E-02 
377	 3.44935403984116E-02 
378	 3.41635942218414E-02 
379	 3.44779942279418E-02 
380	 3.68192078073889E-02 
381	 3.73052750438484E-02 
382	 3.64993957814349E-02 
383	 3.81012418962058E-02 
384	 3.93149116329711E-02 
385	 3.79219501424621E-02 
386	 3.50568038131567E-02 
387	 3.80721271919908E-02 
388	 3.99930412066722E-02 
389	 4.07236337986995E-02 
390	 4.17512715480388E-02 
391	 4.09164525864238E-02 
392	 4.10241101477028E-02 
393	 4.26569949842916E-02 
394	 4.43134783096233E-02 
395	 4.52539171972685E-02 
396	 4.45111606067345E-02 
397	 4.25573769924226E-02 
398	 4.26268846121696E-02 
399	 4.44888523598585E-02 
400	 4.71246367699243E-02 
401	 4.91077751947016E-02 
402	 4.92496988236662E-02 
403	 4.89779928327055E-02 
404	 4.89045783396487E-02 
405	 4.86603197604496E-02 
406	 4.91796682434946E-02 
407	 5.02108633034836E-02 
408	 5.09967288082054E-02 
409	 4.99828838095381E-02 
410	 4.96190833467861E-02 
411	 5.03496966211111E-02 
412	 5.14935778771705E-02 
413	 5.20389136685849E-02 
414	 5.25201314110253E-02 
415	 5.28765890285838E-02 
416	 5.20733321758375E-02 
417	 5.17641480715705E-02 
418	 5.22404642502046E-02 
419	 5.31467640940435E-02 
420	 5.34113182740133E-02 
421	 5.29859939091777E-02 
422	 5.28181390405378E-02 
423	 5.41372736612799E-02 
424	 5.40483917344716E-02 
425	 5.41057640468759E-02 
426	 5.50503028148317E-02 
427	 5.51329553776269E-02 
428	 0.055140254052571 
429	 5.52412046715731E-02 
430	 5.54024571782036E-02 
431	 5.54748264999266E-02 
432	 5.56841216199611E-02 
433	 5.60337606809576E-02 
434	 0.056306581177318 
435	 5.64604871233758E-02 
436	 5.67657523441696E-02 
437	 5.72613204095346E-02 
438	 5.72205656474164E-02 
439	 0.05699827601575 
440	 5.70616965524778E-02 
441	 5.77719828155773E-02 
442	 5.82159591935341E-02 
443	 5.83434041499151E-02 
444	 5.83702400665086E-02 
445	 5.87581794544214E-02 
446	 5.90541176236769E-02 
447	 5.91341075629254E-02 
448	 5.90757148285858E-02 
449	 5.93469995609534E-02 
450	 5.96870944161546E-02 
451	 5.99334091860707E-02 
452	 6.00402455372625E-02 
453	 0.06010348602936 
454	 6.01611045667021E-02 
455	 0.060259764652641 
456	 6.05317428019578E-02 
457	 6.06217433016766E-02 
458	 6.05064108319002E-02 
459	 6.03551128550089E-02 
460	 6.04542844770689E-02 
461	 6.05514574335029E-02 
462	 6.06026743811292E-02 
463	 6.09270053321371E-02 
464	 6.12398115262685E-02 
465	 6.14925363938709E-02 
466	 6.17196591688771E-02 
467	 6.20381869237669E-02 
468	 6.21538887050531E-02 
469	 6.20843586323896E-02 
470	 6.20974230068263E-02 
471	 6.20776723267201E-02 
472	 6.22261228470336E-02 
473	 6.25650271721538E-02 
474	 0.062574923563703 
475	 6.26957844961529E-02 
476	 6.29105104241757E-02 
477	 6.30325936820439E-02 
478	 6.31767755359891E-02 
479	 6.34667191464384E-02 
480	 6.37381408944053E-02 
481	 6.34215269477984E-02 
482	 6.35540009987767E-02 
483	 6.37522547756169E-02 
484	 6.35395797147324E-02 
485	 6.37866939790434E-02 
486	 6.38731057295292E-02 
487	 6.37622794843698E-02 
488	 6.39066380431388E-02 
489	 6.40339397300198E-02 
490	 6.41178168345389E-02 
491	 6.41923719960922E-02 
492	 6.43495516402267E-02 
493	 6.44121747197931E-02 
494	 6.44299945079117E-02 
495	 6.45508585384214E-02 
496	 6.47782374910762E-02 
497	 6.49240388479955E-02 
498	 6.49554118717369E-02 
499	 6.50992836774361E-02 
500	 6.50204208875731E-02 
501	 6.49885244337455E-02 
502	 6.52670955762504E-02 
503	 6.52834579872571E-02 
504	 6.53268441481367E-02 
505	 6.54435474711875E-02 
506	 6.54386705816615E-02 
507	 6.53192115431825E-02 
508	 6.53693526881968E-02 
509	 6.56676093950133E-02 
510	 6.56017867065139E-02 
511	 6.55951801636455E-02 
512	 6.56493115460951E-02 
513	 6.55876808052676E-02 
514	 6.57799370673863E-02 
515	 6.59255731090434E-02 
516	 6.59105664504099E-02 
517	 6.60741217262542E-02 
518	 6.60786158080636E-02 
519	 6.60226736149066E-02 
520	 6.60854351417491E-02 
521	 6.60627302205965E-02 
522	 6.61289957597444E-02 
523	 6.62808367473107E-02 
524	 0.066314195005488 
525	 6.63140986984544E-02 
526	 6.63189633395857E-02 
527	 6.63547354075292E-02 
528	 6.64437298560978E-02 
529	 6.64910372109204E-02 
530	 0.066512838567249 
531	 6.65892993692084E-02 
532	 6.66042455005683E-02 
533	 6.66947109544282E-02 
534	 6.68816774626673E-02 
535	 6.68729630096147E-02 
536	 0.066811465108115 
537	 6.67874920100942E-02 
538	 6.68571505499631E-02 
539	 0.066963636839823 
540	 6.69829717196426E-02 
541	 6.69371880109912E-02 
542	 6.70442568787069E-02 
543	 6.71278941417514E-02 
544	 6.71384114379799E-02 
545	 6.71054667640975E-02 
546	 6.72426021790238E-02 
547	 6.72586358260676E-02 
548	 6.71756869290091E-02 
549	 0.067275403366043 
550	 6.73258478692578E-02 
551	 0.067367049713637 
552	 6.74581901856489E-02 
553	 0.067605063587766 
554	 6.75565933223308E-02 
555	 6.74609859242545E-02 
556	 0.067630796645336 
557	 6.77569500025591E-02 
558	 6.78162031304524E-02 
559	 6.78508852202391E-02 
560	 6.79622428550144E-02 
561	 6.80232236706727E-02 
562	 6.80556368273174E-02 
563	 6.81269045029415E-02 
564	 6.82657354268743E-02 
565	 6.82832115978933E-02 
566	 0.068192531716448 
567	 6.82400643748434E-02 
568	 6.83221679543842E-02 
569	 6.84197910784858E-02 
570	 6.85333370732299E-02 
571	 6.86801012431574E-02 
572	 6.87988923690114E-02 
573	 6.88931068123719E-02 
574	 6.90091677189671E-02 
575	 6.91021128765567E-02 
576	 6.91929912355924E-02 
577	 6.92825882334775E-02 
578	 6.93025448288982E-02 
579	 6.93015037728009E-02 
580	 6.92994723079618E-02 
581	 6.93025996785374E-02 
582	 6.93018998223543E-02 
583	 6.92923142388092E-02 
584	 6.92919769489525E-02 
585	 6.93500686879377E-02 
586	 6.94735508470251E-02 
587	 6.95957084732588E-02 
588	 6.96646814221235E-02 
589	 6.98029940054632E-02 
590	 6.99181231359084E-02 
591	 6.99908424239902E-02 
592	 7.00764030240622E-02 
593	 7.02099460275334E-02 
594	 7.03540099989843E-02 
595	 0.070466575782854 
596	 7.05383302918287E-02 
597	 7.05834902505007E-02 
598	 7.05845706521091E-02 
599	 7.05241813017677E-02 
600	 7.05375768401754E-02 
601	 0.070595027329584 
602	 7.06502093713112E-02 
603	 7.06641913764545E-02 
604	 7.06689403222475E-02 
605	 7.07039930742768E-02 
606	 7.07915864058964E-02 
607	 7.08471075984519E-02 
608	 7.08818003841296E-02 
609	 7.09289925722658E-02 
610	 7.10374906108421E-02 
611	 7.10599101238158E-02 
612	 7.10683146695222E-02 
613	 7.11355342797058E-02 
614	 7.11490052417017E-02 
615	 7.11218975372321E-02 
616	 7.10999070867494E-02 
617	 7.11422453227189E-02 
618	 7.11718938452251E-02 
619	 7.11915951988519E-02 
620	 7.12171923746031E-02 
621	 7.12725266681304E-02 
622	 7.12825894162737E-02 
623	 7.12590010066927E-02 
624	 7.12517480453755E-02 
625	 7.12967991180894E-02 
626	 7.13290421540661E-02 
627	 7.13305321886804E-02 
628	 7.13560579821659E-02 
629	 7.13771354673969E-02 
630	 7.14082192483569E-02 
631	 7.14559216072119E-02 
632	 7.14504004560339E-02 
633	 0.071470077565962 
634	 7.15072724481016E-02 
635	 7.14890153362826E-02 
636	 7.15162834524189E-02 
637	 7.15451206268032E-02 
638	 0.071538202303213 
639	 7.15330329222076E-02 
640	 7.15463730153198E-02 
641	 7.15890205396398E-02 
642	 7.16593418394091E-02 
643	 0.071716733884177 
644	 7.17063781704525E-02 
645	 7.16623936835912E-02 
646	 0.071748166100071 
647	 7.17983693318335E-02 
648	 7.17989503692976E-02 
649	 7.17866815839256E-02 
650	 7.18086159845712E-02 
651	 7.18421271963741E-02 
652	 7.18664116207987E-02 
653	 0.071867847739589 
654	 0.071898809913274 
655	 7.19219379309626E-02 
656	 7.19157065987418E-02 
657	 7.19371638206174E-02 
658	 7.19879444998567E-02 
659	 7.20373339996066E-02 
660	 7.20443649726847E-02 
661	 7.20310022508106E-02 
662	 0.072046893454165 
663	 7.21014754767079E-02 
664	 7.21437794931157E-02 
665	 7.21945483629604E-02 
666	 7.21997291323298E-02 
667	 7.21377584245393E-02 
668	 7.22042195913164E-02 
669	 7.22235283443464E-02 
670	 7.21938921261319E-02 
671	 7.22565028365211E-02 
672	 7.22994805039031E-02 
673	 0.072351865873694 
674	 7.24186538926086E-02 
675	 7.23841653541174E-02 
676	 7.23707647705443E-02 
677	 0.072401240110753 
678	 7.24456029417859E-02 
679	 7.24380130010614E-02 
680	 7.24554269229117E-02 
681	 7.25065460833477E-02 
682	 7.24957241904997E-02 
683	 0.072524760210863 
684	 7.25486457043723E-02 
685	 7.25276042710541E-02 
686	 7.25834657295854E-02 
687	 7.26313575913113E-02 
688	 7.26669600399826E-02 
689	 7.27353500296441E-02 
690	 7.27229538795814E-02 
691	 7.27069461069175E-02 
692	 7.27367051808099E-02 
693	 7.27506649646122E-02 
694	 7.27689131522008E-02 
695	 7.27802119533877E-02 
696	 7.27758056606864E-02 
697	 7.28188807333506E-02 
698	 7.28387013472548E-02 
699	 7.28296617057309E-02 
700	 7.28605207721109E-02 
701	 7.29087944261828E-02 
702	 7.29363213877134E-02 
703	 7.29207592540886E-02 
704	 7.28869681356112E-02 
705	 7.28886559100049E-02 
706	 7.29097218092926E-02 
707	 7.29024926305035E-02 
708	 7.29041585658259E-02 
709	 7.29189039577705E-02 
710	 7.29358435476797E-02 
711	 7.29266433845141E-02 
712	 7.29487136656595E-02 
713	 7.29788570029018E-02 
714	 7.29847775446152E-02 
715	 7.29911861532436E-02 
716	 7.30041728722101E-02 
717	 7.30159228197062E-02 
718	 7.30107264050946E-02 
719	 7.30057250420069E-02 
720	 7.30043252672523E-02 
721	 0.073002521197225 
722	 7.29826215464698E-02 
723	 7.30034534859817E-02 
724	 7.30413657406848E-02 
725	 7.30454701562741E-02 
726	 7.29855486288391E-02 
727	 7.29552996462022E-02 
728	 7.29709576008006E-02 
729	 7.29730213329933E-02 
730	 7.29931505872781E-02 
731	 7.29993095197341E-02 
732	 7.29748068183941E-02 
733	 0.072963785530864 
734	 7.29441350466596E-02 
735	 7.29329616975717E-02 
736	 0.072949049404837 
737	 0.072922607566816 
738	 7.29076426043193E-02 
739	 7.29123469688365E-02 
740	 7.28871663909952E-02 
741	 7.28844412622722E-02 
742	 7.28782631389522E-02 
743	 7.28399500356655E-02 
744	 7.27713490079836E-02 
745	 0.072740706241086 
746	 0.072761250879602 
747	 7.28031150885868E-02 
748	 7.27688056547857E-02 
749	 7.27044158970975E-02 
750	 7.26654284817875E-02 
751	 7.26979098966263E-02 
752	 7.26685084340726E-02 
753	 7.26224841671718E-02 
754	 7.26142798551769E-02 
755	 7.25927472647032E-02 
756	 7.25872964215038E-02 
757	 7.25863284105357E-02 
758	 7.25631178863352E-02 
759	 7.25484042331888E-02 
760	 7.25096882485854E-02 
761	 7.24531112594439E-02 
762	 7.24382420480617E-02 
763	 7.24574576009502E-02 
764	 7.24527940891236E-02 
765	 7.23954611526674E-02 
766	 7.23768316482735E-02 
767	 7.23624861545473E-02 
768	 7.23381323543998E-02 
769	 7.23019317588645E-02 
770	 7.22653612020712E-02 
771	 7.22532900699755E-02 
772	 7.22542476104402E-02 
773	 7.22152635989848E-02 
774	 7.22133095932774E-02 
775	 7.21950223867617E-02 
776	 7.21250741579318E-02 
777	 7.20955523810873E-02 
778	 7.20811440770386E-02 
779	 7.20691233117311E-02 
780	 7.20512144482801E-02 
781	 7.20194247517646E-02 
782	 7.20084177826285E-02 
783	 7.20063590195962E-02 
784	 7.19541673984841E-02 
785	 7.19359512098503E-02 
786	 7.19286282829678E-02 
787	 7.19013550695083E-02 
788	 7.18517659941579E-02 
789	 7.18382254751647E-02 
790	 7.18255704276495E-02 
791	 7.17644426713282E-02 
792	 7.17359618496139E-02 
793	 7.17185289547582E-02 
794	 7.16982143731776E-02 
795	 7.16726842855277E-02 
796	 7.16415681402377E-02 
797	 0.071618939008192 
798	 7.16016760305151E-02 
799	 7.15500589910054E-02 
800	 7.15244129547539E-02 
801	 7.15159275165375E-02 
802	 7.14980498425296E-02 
803	 7.14644239540735E-02 
804	 7.14503246673765E-02 
805	 7.14566374845719E-02 
806	 7.14539607663938E-02 
807	 7.13666527341428E-02 
808	 7.13056557301429E-02 
809	 0.071311739839495 
810	 7.13076409579143E-02 
811	 7.12944671994451E-02 
812	 7.12556191985891E-02 
813	 7.11984987378873E-02 
814	 7.12005251518201E-02 
815	 7.11851748248149E-02 
816	 7.11599010878267E-02 
817	 7.11557407333257E-02 
818	 7.11277163063345E-02 
819	 7.11127763931957E-02 
820	 7.10946817066912E-02 
821	 7.10211715235041E-02 
822	 7.10160408146528E-02 
823	 7.10286043911411E-02 
824	 7.10060356319706E-02 
825	 7.09369514071878E-02 
826	 7.09150178867144E-02 
827	 7.09156447216557E-02 
828	 7.08957499271104E-02 
829	 7.08703172014519E-02 
830	 7.08371595083316E-02 
831	 7.08065538325061E-02 
832	 7.07936193502871E-02 
833	 7.08048894280536E-02 
834	 7.08199430121496E-02 
835	 0.07080271918576 
836	 7.07199370656047E-02 
837	 7.07358435756752E-02 
838	 7.07655143353721E-02 
839	 7.07487670516883E-02 
840	 7.07410791526929E-02 
841	 0.070716838972914 
842	 7.06828529846081E-02 
843	 7.06522513888469E-02 
844	 7.06250477446313E-02 
845	 7.06541804092006E-02 
846	 7.06780020168661E-02 
847	 7.06154043855831E-02 
848	 7.06061177524153E-02 
849	 7.05803805996405E-02 
850	 7.05299158571682E-02 
851	 7.05070293035641E-02 
852	 7.05087469183123E-02 
853	 7.05211084817198E-02 
854	 7.05293185515562E-02 
855	 7.05221528739666E-02 
856	 7.04997439416077E-02 
857	 7.05104631545122E-02 
858	 7.05642292308937E-02 
859	 7.05468921313887E-02 
860	 7.05234454498436E-02 
861	 7.04920845893678E-02 
862	 7.04457532090787E-02 
863	 7.04536228031283E-02 
864	 7.04526220762498E-02 
865	 7.04386045069524E-02 
866	 7.04389179003657E-02 
867	 7.03996940194958E-02 
868	 7.04117702071186E-02 
869	 7.04554870567772E-02 
870	 7.04020466314069E-02 
871	 7.03870280359685E-02 
872	 7.03786437351613E-02 
873	 7.03558221037715E-02 
874	 7.03581670206574E-02 
875	 7.03626750912671E-02 
876	 7.03538740617899E-02 
877	 7.03298829217573E-02 
878	 7.03165734628295E-02 
879	 7.03186540335758E-02 
880	 7.03368996042875E-02 
881	 7.03648825694722E-02 
882	 0.070385866428713 
883	 7.03678082276805E-02 
884	 7.03298700088315E-02 
885	 7.03132243410458E-02 
886	 7.02931825733568E-02 
887	 7.02979019015555E-02 
888	 7.03168443657672E-02 
889	 7.03117408308335E-02 
890	 7.03424629520585E-02 
891	 7.03424429428132E-02 
892	 7.02901711652153E-02 
893	 0.070241263064888 
894	 7.02463381366801E-02 
895	 7.02721604392178E-02 
896	 7.02856696186394E-02 
897	 7.02890613510628E-02 
898	 7.03256207109466E-02 
899	 0.070325512595217 
900	 0.070253981277548 
901	 7.02435285396571E-02 
902	 0.070265951838804 
903	 7.02701539136429E-02 
904	 7.02333092858479E-02 
905	 7.02788412021923E-02 
906	 7.02895791511747E-02 
907	 0.070273820339852 
908	 7.02871838821819E-02 
909	 7.02803676230495E-02 
910	 7.02485610078924E-02 
911	 0.070267262402588 
912	 0.070410846613501 
913	 7.04099321855185E-02 
914	 7.03427561945172E-02 
915	 0.070304820136009 
916	 7.03529741151377E-02 
917	 7.03263371367426E-02 
918	 7.03341666883601E-02 
919	 0.070371434150597 
920	 0.070285255383193 
921	 0.070296679775636 
922	 0.070319728346902 
923	 7.03038621803111E-02 
924	 7.03251638536039E-02 
925	 7.03327464190284E-02 
926	 7.03975918397797E-02 
927	 7.04783688680298E-02 
928	 7.02958263492825E-02 
929	 7.03382999371704E-02 
930	 7.04233667139885E-02 
931	 0.07036893945689 
932	 7.04070263138075E-02 
933	 7.04386998997293E-02 
934	 7.04555787925604E-02 
935	 7.04699224071206E-02 
936	 7.04872820718475E-02 
937	 7.04293593046138E-02 
938	 7.03795464333614E-02 
939	 7.04241893972367E-02 
940	 7.04633202323163E-02 
941	 7.04954215041595E-02 
942	 0.070528540986883 
943	 7.05677007193204E-02 
944	 7.05931444910994E-02 
945	 7.04971044232495E-02 
946	 0.070418660226803 
947	 7.05141805625738E-02 
948	 7.04866041241903E-02 
949	 7.05110420650516E-02 
950	 7.05355979152882E-02 
951	 7.04447036446857E-02 
952	 0.07043896906932 
953	 7.04862652433137E-02 
954	 7.05094539099067E-02 
955	 7.04570727026832E-02 
956	 7.05054085155053E-02 
957	 7.06138539188867E-02 
958	 7.06717450795759E-02 
959	 7.05983110513403E-02 
960	 7.06655052069192E-02 
961	 7.06779976564106E-02 
962	 7.06130185993097E-02 
963	 7.05767290147916E-02 
964	 7.05902567874912E-02 
965	 7.06063689057258E-02 
966	 7.06179355624906E-02 
967	 0.070650473615417 
968	 7.07285530541401E-02 
969	 7.07489299761112E-02 
970	 7.07108119694894E-02 
971	 7.06880791261956E-02 
972	 7.06961659171872E-02 
973	 7.07112493664296E-02 
974	 7.07141304253267E-02 
975	 7.06999941508984E-02 
976	 7.07143092381355E-02 
977	 7.06141320826307E-02 
978	 7.05731816140592E-02 
979	 7.08385923217867E-02 
980	 7.08591562643793E-02 
981	 7.07844795820688E-02 
982	 7.07396045011748E-02 
983	 7.07739619872527E-02 
984	 0.07079458710985 
985	 7.07868658117943E-02 
986	 7.07909745427389E-02 
987	 7.08492192670289E-02 
988	 7.08755642384757E-02 
989	 7.08115920458668E-02 
990	 7.07705288855086E-02 
991	 7.08867216277741E-02 
992	 7.09909176628053E-02 
993	 7.09945431463226E-02 
994	 7.09985651828157E-02 
995	 7.10956112161191E-02 
996	 7.09682844964195E-02 
997	 7.09690374576824E-02 
998	 7.09763521211403E-02 
999	 7.08635245090197E-02 
1000	 7.12243416543949E-02 
1001	 7.02920444975248E-02 
1002	 7.02468638360652E-02 
1003	 0.070327950329694 
1004	 7.03678452671812E-02 
1005	 7.04175410207745E-02 
1006	 7.04587126650866E-02 
1007	 7.05325354363439E-02 
1008	 7.04720814881687E-02 
1009	 7.04610949381166E-02 
1010	 7.05337208674919E-02 
1011	 7.05157302374911E-02 
1012	 7.05226069414005E-02 
1013	 0.070490808847162 
1014	 7.04263102821524E-02 
1015	 7.04416386503806E-02 
1016	 7.04553813689037E-02 
1017	 7.04473321206957E-02 
1018	 7.04546009409743E-02 
1019	 0.070447209952168 
1020	 7.04000195881134E-02 
1021	 7.04206441384976E-02 
1022	 7.04666585830031E-02 
1023	 7.04895846059132E-02 
1024	 7.05190411017074E-02 
1025	 7.04731731702449E-02 
1026	 7.04166418129826E-02 
1027	 7.04164290618095E-02 
1028	 7.03946144851092E-02 
1029	 7.03608293969619E-02 
1030	 7.03352277644222E-02 
1031	 7.03352416752516E-02 
1032	 7.03407561784015E-02 
1033	 7.03716749550529E-02 
1034	 7.04042920762312E-02 
1035	 7.04448928690341E-02 
1036	 0.070430448058248 
1037	 7.03690750418999E-02 
1038	 7.03277495727256E-02 
1039	 7.02783877983866E-02 
1040	 7.02617658416641E-02 
1041	 7.02710773307532E-02 
1042	 7.02662023662038E-02 
1043	 7.02540298602672E-02 
1044	 7.02539968436471E-02 
1045	 7.02449901210558E-02 
1046	 7.02487395872133E-02 
1047	 7.02767884014136E-02 
1048	 0.07033698058763 
1049	 7.03262984934356E-02 
1050	 7.02797924980112E-02 
1051	 7.03063015205863E-02 
1052	 7.03106667373498E-02 
1053	 0.070329390450132 
1054	 7.04006843184306E-02 
1055	 7.03807882639734E-02 
1056	 7.03369123807045E-02 
1057	 7.03320933287537E-02 
1058	 7.03092410771154E-02 
1059	 7.03423105534614E-02 
1060	 7.04352980450313E-02 
1061	 7.05172095047224E-02 
1062	 7.05745418796602E-02 
1063	 7.06284286265277E-02 
1064	 7.06005462182087E-02 
1065	 7.05732269004302E-02 
1066	 7.05590188564149E-02 
1067	 7.05388836885783E-02 
1068	 0.070589100743746 
1069	 7.06498927605471E-02 
1070	 7.06706092255175E-02 
1071	 7.06822110521664E-02 
1072	 7.07080732525497E-02 
1073	 7.06885080292278E-02 
1074	 7.06971332082449E-02 
1075	 7.07354691759103E-02 
1076	 7.07995187908747E-02 
1077	 7.07858885311365E-02 
1078	 7.08133032583472E-02 
1079	 7.08544780535572E-02 
1080	 7.08488029966854E-02 
1081	 0.070873852825902 
1082	 0.070870796153229 
1083	 7.08659494559905E-02 
1084	 7.08295988639686E-02 
1085	 7.08367326801337E-02 
1086	 7.08814313323942E-02 
1087	 7.08903571440245E-02 
1088	 7.08983284028692E-02 
1089	 7.08944938048392E-02 
1090	 7.08809533880346E-02 
1091	 7.08666811678746E-02 
1092	 0.070905141121224 
1093	 7.09418199448659E-02 
1094	 0.070966919690907 
1095	 7.09806153670449E-02 
1096	 7.09699357040997E-02 
1097	 7.09654826772208E-02 
1098	 7.09748764078716E-02 
1099	 7.10074819518577E-02 
1100	 7.10118055302772E-02 
1101	 7.10025209620815E-02 
1102	 7.10070565374056E-02 
1103	 7.10163373345214E-02 
1104	 7.09956418891982E-02 
1105	 7.09688638727481E-02 
1106	 7.09777026958653E-02 
1107	 7.09689713911731E-02 
1108	 7.09507660338818E-02 
1109	 7.09670494129326E-02 
1110	 7.09681471413918E-02 
1111	 7.09628369144035E-02 
1112	 0.070929683777457 
1113	 7.09358345773452E-02 
1114	 7.09667243312098E-02 
1115	 7.09788295864766E-02 
1116	 7.09966620795559E-02 
1117	 7.10147484152585E-02 
1118	 7.10241534288381E-02 
1119	 0.071029213947958 
1120	 0.071054239174226 
1121	 7.10828853730699E-02 
1122	 7.10842767988347E-02 
1123	 7.10854855667858E-02 
1124	 7.10978522271851E-02 
1125	 7.11108732094679E-02 
1126	 7.11183053722943E-02 
1127	 7.11369351802581E-02 
1128	 7.11440154458064E-02 
1129	 7.11430847373558E-02 
1130	 7.11356594968882E-02 
1131	 0.07111712371272 
1132	 7.11094085485262E-02 
1133	 7.10880304743138E-02 
1134	 7.10834660624643E-02 
1135	 7.10952066150634E-02 
1136	 7.11125438619834E-02 
1137	 7.11328315359798E-02 
1138	 7.11543996355363E-02 
1139	 7.11550351392403E-02 
1140	 0.07115125162532 
1141	 0.071133498847802 
1142	 7.10801997951211E-02 
1143	 7.10650684288822E-02 
1144	 7.10728472455566E-02 
1145	 7.10550860920157E-02 
1146	 7.10270973294807E-02 
1147	 7.10192831062733E-02 
1148	 7.10013420198165E-02 
1149	 7.09940234892384E-02 
1150	 7.10119358292916E-02 
1151	 7.10371515651499E-02 
1152	 7.10320341637396E-02 
1153	 7.10228431119276E-02 
1154	 7.10187322746382E-02 
1155	 7.10106805445839E-02 
1156	 7.10061478338167E-02 
1157	 7.10049805689221E-02 
1158	 7.10021464291216E-02 
1159	 7.10029926983534E-02 
1160	 7.09973900012656E-02 
1161	 7.09853474264927E-02 
1162	 7.09792800320523E-02 
1163	 7.09652247788375E-02 
1164	 7.09613422069667E-02 
1165	 0.070963301969619 
1166	 7.09772010958321E-02 
1167	 7.09873710139705E-02 
1168	 7.09938997606877E-02 
1169	 7.09996301200045E-02 
1170	 7.10008150502551E-02 
1171	 7.10073960448032E-02 
1172	 7.10087019681766E-02 
1173	 7.10275659465328E-02 
1174	 7.10575277217643E-02 
1175	 7.10870467614371E-02 
1176	 7.11468293462179E-02 
1177	 7.11656604522442E-02 
1178	 7.11543881405102E-02 
1179	 7.11584360186303E-02 
1180	 7.11372701281355E-02 
1181	 0.0711385907033 
1182	 7.11551367488221E-02 
1183	 7.11890958006366E-02 
1184	 7.12145280454598E-02 
1185	 7.12507741353771E-02 
1186	 7.12654926009829E-02 
1187	 7.12725378895571E-02 
1188	 7.12799199824786E-02 
1189	 7.12674385768648E-02 
1190	 7.12762886254003E-02 
1191	 7.12913857089005E-02 
1192	 0.071314985107769 
1193	 7.13597239635066E-02 
1194	 7.13869728271285E-02 
1195	 7.14155306908976E-02 
1196	 7.14381521835661E-02 
1197	 7.14351851214465E-02 
1198	 7.14532508758707E-02 
1199	 7.14794598163867E-02 
1200	 7.15217360368855E-02 
1201	 7.15383859985743E-02 
1202	 7.15557123585527E-02 
1203	 7.15695531174722E-02 
1204	 7.15603513646948E-02 
1205	 7.15704896285224E-02 
1206	 0.071585395750244 
1207	 7.16151267891231E-02 
1208	 0.071659600661489 
1209	 7.16950080854194E-02 
1210	 7.17554861065407E-02 
1211	 7.17867285032081E-02 
1212	 7.17904424225281E-02 
1213	 7.18023509142085E-02 
1214	 7.17985379828601E-02 
1215	 0.071806632211243 
1216	 7.18202381660947E-02 
1217	 7.18441011997853E-02 
1218	 0.071857949543993 
1219	 7.18714360109241E-02 
1220	 7.18888064202606E-02 
1221	 7.19019311727365E-02 
1222	 7.19207943694048E-02 
1223	 7.19500306745517E-02 
1224	 7.19719967251529E-02 
1225	 7.19935216349577E-02 
1226	 7.20105365474115E-02 
1227	 7.20245203843322E-02 
1228	 7.20367882217627E-02 
1229	 7.20365364751164E-02 
1230	 7.20495751054728E-02 
1231	 7.20744745654467E-02 
1232	 7.20918616341123E-02 
1233	 7.21092442872365E-02 
1234	 0.072134309816625 
1235	 7.21482163904993E-02 
1236	 7.21531010622222E-02 
1237	 7.21587862651629E-02 
1238	 7.21563708220429E-02 
1239	 0.07216835212658 
1240	 7.21799118035954E-02 
1241	 7.22010607047586E-02 
1242	 7.22441580494271E-02 
1243	 7.22692805526233E-02 
1244	 7.22917379844615E-02 
1245	 7.23092813596862E-02 
1246	 7.23131468394833E-02 
1247	 7.23260696097704E-02 
1248	 7.23456975217562E-02 
1249	 7.23574342590004E-02 
1250	 0.072371355827148 
1251	 0.072379059350175 
1252	 7.23897716761319E-02 
1253	 0.072396525325826 
1254	 7.24036100734778E-02 
1255	 0.072411350630311 
1256	 7.24218338401717E-02 
1257	 7.24313750775888E-02 
1258	 7.24404110560326E-02 
1259	 7.24562725358031E-02 
1260	 7.24657133811388E-02 
1261	 7.24740470990856E-02 
1262	 7.24722629378587E-02 
1263	 7.24594863978999E-02 
1264	 7.24533411440479E-02 
1265	 7.24295336318653E-02 
1266	 0.072427286876831 
1267	 7.24480627554333E-02 
1268	 7.24616666678332E-02 
1269	 7.24757808524652E-02 
1270	 7.25027952816908E-02 
1271	 7.25102642148632E-02 
1272	 0.072500672241553 
1273	 7.25090660439619E-02 
1274	 7.25176047675664E-02 
1275	 7.25292168915212E-02 
1276	 7.25459680710189E-02 
1277	 7.25691577124881E-02 
1278	 7.25953462088816E-02 
1279	 0.072621562967224 
1280	 7.26596760454271E-02 
1281	 7.26936624899994E-02 
1282	 7.27095782456393E-02 
1283	 7.27484850642456E-02 
1284	 7.28059224355661E-02 
1285	 0.072859293977011 
1286	 7.29136175190963E-02 
1287	 7.29868029999911E-02 
1288	 7.30369730016117E-02 
1289	 7.30725593382014E-02 
1290	 7.31188794350686E-02 
1291	 7.31558819742369E-02 
1292	 7.32103916184774E-02 
1293	 7.32824262875761E-02 
1294	 7.33378014021358E-02 
1295	 0.07340333770928 
1296	 7.34492029618821E-02 
1297	 7.34730747526247E-02 
1298	 7.35062177191117E-02 
1299	 7.35299565268833E-02 
1300	 7.35596785629629E-02 
1301	 7.36041985011487E-02 
1302	 7.36311690251679E-02 
1303	 7.36431168831919E-02 
1304	 0.073668055424904 
1305	 7.36769960245629E-02 
1306	 7.36989601278076E-02 
1307	 0.073741747963337 
1308	 7.37626319075119E-02 
1309	 7.37739816088154E-02 
1310	 7.37734856877481E-02 
1311	 7.37792613155098E-02 
1312	 7.37692096577749E-02 
1313	 7.37755819800844E-02 
1314	 7.38010677523414E-02 
1315	 0.073808678905975 
1316	 7.38111099286122E-02 
1317	 7.38144929701284E-02 
1318	 7.38093314729982E-02 
1319	 7.38093035883225E-02 
1320	 7.38135484419406E-02 
1321	 7.38137197486821E-02 
1322	 7.38161087687121E-02 
1323	 7.38085683682212E-02 
1324	 0.073811514418603 
1325	 7.38175920197312E-02 
1326	 7.38070415037381E-02 
1327	 7.37946132852441E-02 
1328	 7.37776415397207E-02 
1329	 7.37505505116823E-02 
1330	 7.37348288448237E-02 
1331	 7.37292746125363E-02 
1332	 7.37182245348012E-02 
1333	 7.37079073283098E-02 
1334	 7.36941808727748E-02 
1335	 7.36788719317713E-02 
1336	 7.36641872033842E-02 
1337	 7.36489969123255E-02 
1338	 7.36314600880994E-02 
1339	 0.073604928806252 
1340	 7.35920746816191E-02 
1341	 7.35909224725065E-02 
1342	 7.35798008119564E-02 
1343	 7.35674798614192E-02 
1344	 7.35623600570651E-02 
1345	 7.35557441642835E-02 
1346	 7.35446940164685E-02 
1347	 7.35404033113604E-02 
1348	 7.35457882600782E-02 
1349	 7.35475861406043E-02 
1350	 7.35354854733166E-02 
1351	 0.073538480894856 
1352	 0.073554715529365 
1353	 0.073552982018896 
1354	 7.35508043125952E-02 
1355	 7.35461324325321E-02 
1356	 7.35234597985493E-02 
1357	 7.35188400887886E-02 
1358	 7.35254418031004E-02 
1359	 7.35268520722768E-02 
1360	 0.073534628006461 
1361	 7.35353587809393E-02 
1362	 7.35289310539229E-02 
1363	 7.35270109003985E-02 
1364	 0.073534744400216 
1365	 7.35275315898758E-02 
1366	 7.35205378485207E-02 
1367	 7.34981776306861E-02 
1368	 0.073465813529625 
1369	 7.34240704606659E-02 
1370	 7.33802793916908E-02 
1371	 7.33399290521821E-02 
1372	 7.33018416081596E-02 
1373	 7.32683322790133E-02 
1374	 7.32273656740401E-02 
1375	 7.31924279243702E-02 
1376	 0.073138820129412 
1377	 7.30718356075381E-02 
1378	 7.30019989442617E-02 
1379	 7.29295204806601E-02 
1380	 7.28433628722085E-02 
1381	 7.27456580297727E-02 
1382	 7.26457063978954E-02 
1383	 7.25279029224148E-02 
1384	 7.24182338015969E-02 
1385	 7.23219508693922E-02 
1386	 0.072208603001062 
1387	 7.20931082024664E-02 
1388	 7.19645563306175E-02 
1389	 7.18283985859787E-02 
1390	 7.16690041605099E-02 
1391	 7.15011694574112E-02 
1392	 7.13399527251621E-02 
1393	 7.11605667024007E-02 
1394	 7.09807904255829E-02 
1395	 7.08178035318143E-02 
1396	 0.070629329675807 
1397	 0.070439277068186 
1398	 7.02554563515514E-02 
1399	 0.070046820931239 
1400	 6.98091768349877E-02 
1401	 0.069595354181178 
1402	 0.069379984554521 
1403	 6.91664469401173E-02 
1404	 6.89527228828305E-02 
1405	 6.87582849212055E-02 
1406	 6.85697232966953E-02 
1407	 6.83851751863457E-02 
1408	 6.82121191364037E-02 
1409	 6.80493554923797E-02 
1410	 6.78874832388036E-02 
1411	 6.77374669026758E-02 
1412	 6.75975212029458E-02 
1413	 6.74785027297568E-02 
1414	 6.73714654349414E-02 
1415	 6.72729975281657E-02 
1416	 6.71802753732448E-02 
1417	 6.70986432065362E-02 
1418	 6.70183007149859E-02 
1419	 6.69349220629085E-02 
1420	 6.68790427862092E-02 
1421	 6.68391231207394E-02 
1422	 6.67951215637284E-02 
1423	 6.67679282824832E-02 
1424	 6.67307866301548E-02 
1425	 6.66880170834921E-02 
1426	 6.66510904635282E-02 
1427	 6.66131543979998E-02 
1428	 6.65819747687587E-02 
1429	 6.65548931425749E-02 
1430	 0.066536423025973 
1431	 6.65237209435741E-02 
1432	 6.65148118886398E-02 
1433	 0.066512282038072 
1434	 6.65123267315484E-02 
1435	 6.65139616746519E-02 
1436	 6.65261605170045E-02 
1437	 6.65481366443637E-02 
1438	 0.066569650016005 
1439	 6.66009166669395E-02 
1440	 6.66256298705236E-02 
1441	 6.66548517766291E-02 
1442	 6.66807429166549E-02 
1443	 6.66965280706978E-02 
1444	 6.67245586315789E-02 
1445	 6.67470340835139E-02 
1446	 6.67663730555616E-02 
1447	 6.67989158436482E-02 
1448	 6.68229541952321E-02 
1449	 6.68334786145819E-02 
1450	 0.066847052019127 
1451	 6.68718238076015E-02 
1452	 6.69003461265229E-02 
1453	 6.69259225781457E-02 
1454	 0.066965261674102 
1455	 6.69923564121026E-02 
1456	 6.70041574536495E-02 
1457	 0.067032262972995 
1458	 6.70687607127108E-02 
1459	 6.70950464248326E-02 
1460	 6.71128152832713E-02 
1461	 6.71533388055096E-02 
1462	 6.72012168787838E-02 
1463	 6.72482105664775E-02 
1464	 6.73149454018403E-02 
1465	 6.73738069419193E-02 
1466	 6.74198610850422E-02 
1467	 0.06747557925912 
1468	 6.75342355057154E-02 
1469	 6.75997967994902E-02 
1470	 6.76676257357005E-02 
1471	 0.067749634902284 
1472	 0.067823673519298 
1473	 6.79011286221872E-02 
1474	 6.79627400910907E-02 
1475	 0.068016510568516 
1476	 6.80875312541276E-02 
1477	 0.068162042990053 
1478	 0.068239621302908 
1479	 6.83069388861163E-02 
1480	 6.83655819287376E-02 
1481	 6.84339711812848E-02 
1482	 0.068507405014931 
1483	 6.85899308618614E-02 
1484	 6.86706000971391E-02 
1485	 6.87529774234738E-02 
1486	 6.88331841774159E-02 
1487	 6.89161503752213E-02 
1488	 6.89922035946834E-02 
1489	 6.90677364787354E-02 
1490	 6.91413408126577E-02 
1491	 6.92088989797985E-02 
1492	 6.92768461322671E-02 
1493	 6.93408419249185E-02 
1494	 6.94124465499266E-02 
1495	 6.94828978974062E-02 
1496	 6.95576930551197E-02 
1497	 6.96455974696022E-02 
1498	 6.97237914442622E-02 
1499	 6.97995088719771E-02 
1500	 6.98742669248008E-02 
1501	 0.069948425029687 
1502	 7.00134864371323E-02 
1503	 7.00726519455857E-02 
1504	 7.01297620068033E-02 
1505	 7.01853333954769E-02 
1506	 7.02477499511825E-02 
1507	 7.03130246602796E-02 
1508	 7.03881973669087E-02 
1509	 7.04623242813348E-02 
1510	 7.05210109160521E-02 
1511	 7.05755712099726E-02 
1512	 7.06338700265418E-02 
1513	 0.070688399859402 
1514	 7.07435202316614E-02 
1515	 0.070815714267386 
1516	 7.08845919102061E-02 
1517	 7.09452592942327E-02 
1518	 7.10017377243299E-02 
1519	 7.10681615559955E-02 
1520	 7.11382784010111E-02 
1521	 7.11895835875802E-02 
1522	 7.12333965901985E-02 
1523	 7.12910404830271E-02 
1524	 7.13423886455304E-02 
1525	 7.13911023167308E-02 
1526	 7.14564372198221E-02 
1527	 0.071511758506348 
1528	 7.15450513028549E-02 
1529	 7.15883648097326E-02 
1530	 7.16509145778903E-02 
1531	 7.16942338469826E-02 
1532	 0.071714134610269 
1533	 7.17544703870614E-02 
1534	 7.18023876843209E-02 
1535	 7.18431367789009E-02 
1536	 7.18913583923806E-02 
1537	 7.19366898337143E-02 
1538	 7.19676028408732E-02 
1539	 7.20114117675768E-02 
1540	 7.20691785307527E-02 
1541	 7.21186822877661E-02 
1542	 7.21738229699471E-02 
1543	 7.22187413131221E-02 
1544	 7.22438658330908E-02 
1545	 7.22864733822863E-02 
1546	 7.23358713323419E-02 
1547	 0.072383293056046 
1548	 7.24422286434672E-02 
1549	 7.25003859941756E-02 
1550	 7.25157741710783E-02 
1551	 7.25246330268612E-02 
1552	 7.25399258328283E-02 
1553	 7.25482925178118E-02 
1554	 7.25826926460746E-02 
1555	 7.26240003883959E-02 
1556	 7.26541431507186E-02 
1557	 7.26790296122849E-02 
1558	 0.072698823365445 
1559	 7.27346090474731E-02 
1560	 7.27713724870408E-02 
1561	 7.28168310328515E-02 
1562	 7.28521294107341E-02 
1563	 7.28917735470394E-02 
1564	 7.29185465701861E-02 
1565	 7.29298206734252E-02 
1566	 7.29564986447813E-02 
1567	 7.29820472758965E-02 
1568	 7.30114620532188E-02 
1569	 7.30545525743749E-02 
1570	 7.30836700441955E-02 
1571	 7.31097559042845E-02 
1572	 7.31305451245375E-02 
1573	 7.31402336688889E-02 
1574	 7.31583857660379E-02 
1575	 7.31741466329122E-02 
1576	 7.31945603837535E-02 
1577	 7.32148079797129E-02 
1578	 7.32475911476617E-02 
1579	 7.32959878175464E-02 
1580	 7.33282051201151E-02 
1581	 7.33656435669757E-02 
1582	 0.07339453574161 
1583	 0.073409172915871 
1584	 7.34244295688745E-02 
1585	 7.34391201700851E-02 
1586	 7.34516002136148E-02 
1587	 7.34480115069061E-02 
1588	 7.34636341862161E-02 
1589	 7.34959801698651E-02 
1590	 7.35167332852193E-02 
1591	 7.35429539891796E-02 
1592	 7.35619349951788E-02 
1593	 7.35676959222836E-02 
1594	 7.35841323736676E-02 
1595	 7.36046838293178E-02 
1596	 7.36234503120697E-02 
1597	 7.36431840995994E-02 
1598	 7.36626403914408E-02 
1599	 7.36824492349323E-02 
1600	 7.37045312609497E-02 
1601	 7.37422840413125E-02 
1602	 7.37557974782059E-02 
1603	 7.37481008699919E-02 
1604	 7.37511468960616E-02 
1605	 7.37394765079431E-02 
1606	 7.37377925505629E-02 
1607	 0.073746384231337 
1608	 7.37597075837858E-02 
1609	 7.37926529143876E-02 
1610	 7.38063011978036E-02 
1611	 7.38147647865602E-02 
1612	 0.073830784308164 
1613	 7.38225815489195E-02 
1614	 0.073830147215043 
1615	 7.38556515629003E-02 
1616	 7.38771837422254E-02 
1617	 7.39007582230393E-02 
1618	 7.39106704250235E-02 
1619	 7.39186993952425E-02 
1620	 7.39361593257164E-02 
1621	 7.39500944343412E-02 
1622	 0.073966775561187 
1623	 7.39773971005764E-02 
1624	 7.39855107757484E-02 
1625	 0.073995800766493 
1626	 7.40044915315805E-02 
1627	 7.40132261684694E-02 
1628	 7.40240316833306E-02 
1629	 7.40274229955223E-02 
1630	 0.074020091579431 
1631	 7.40366404256645E-02 
1632	 7.40638525691879E-02 
1633	 7.40789807065962E-02 
1634	 7.41126941544232E-02 
1635	 7.41100040138506E-02 
1636	 7.40723501116349E-02 
1637	 7.40667119526098E-02 
1638	 7.40512240633979E-02 
1639	 7.40668144324591E-02 
1640	 7.41222816337563E-02 
1641	 7.41369246640455E-02 
1642	 7.41496174498955E-02 
1643	 7.41538007110364E-02 
1644	 7.41271057996525E-02 
1645	 7.41300904418658E-02 
1646	 7.41496453775581E-02 
1647	 0.07415877970577 
1648	 7.41803850481629E-02 
1649	 7.41757787771853E-02 
1650	 7.41464601422958E-02 
1651	 7.41415570444642E-02 
1652	 7.41300742164307E-02 
1653	 7.41327608478269E-02 
1654	 7.41656227518361E-02 
1655	 7.41696163987454E-02 
1656	 0.074158252823133 
1657	 0.074157732149224 
1658	 7.41593213207808E-02 
1659	 7.41463136929716E-02 
1660	 7.41224004514784E-02 
1661	 7.41184903562618E-02 
1662	 7.41070114170625E-02 
1663	 7.41086505827452E-02 
1664	 0.074147788358125 
1665	 7.41492452524156E-02 
1666	 7.41215429897967E-02 
1667	 7.41201912606062E-02 
1668	 7.41162673097513E-02 
1669	 7.41214769104445E-02 
1670	 7.41513003593331E-02 
1671	 7.41614873400049E-02 
1672	 7.41627034883046E-02 
1673	 7.41647683733759E-02 
1674	 0.074162563455736 
1675	 0.074160986322402 
1676	 7.41594907466057E-02 
1677	 7.41540440586039E-02 
1678	 7.41470776415295E-02 
1679	 7.41363572133587E-02 
1680	 7.41144901093123E-02 
1681	 7.41083574581467E-02 
1682	 7.41045029169049E-02 
1683	 7.41090096752506E-02 
1684	 0.074139406811934 
1685	 7.41371146893367E-02 
1686	 7.41143801015144E-02 
1687	 7.41101723396756E-02 
1688	 7.40957820260961E-02 
1689	 7.40924529995766E-02 
1690	 7.41126343169255E-02 
1691	 7.41182577503955E-02 
1692	 0.074116208806538 
1693	 7.41125226804442E-02 
1694	 7.41022041869376E-02 
1695	 7.41040534495628E-02 
1696	 0.074120539566755 
1697	 7.41079520040693E-02 
1698	 7.40869533763052E-02 
1699	 7.40668441406687E-02 
1700	 0.074011906821073 
1701	 7.39955184349945E-02 
1702	 7.40080690792251E-02 
1703	 7.40116743116711E-02 
1704	 7.40298342348466E-02 
1705	 7.40304053822963E-02 
1706	 7.40163556865732E-02 
1707	 7.40203794077922E-02 
1708	 7.40381565310997E-02 
1709	 7.40251471644436E-02 
1710	 0.074000461704426 
1711	 0.073992228265864 
1712	 7.39638440773059E-02 
1713	 7.39547391204427E-02 
1714	 7.39801119566106E-02 
1715	 7.39781488087599E-02 
1716	 7.39680341530181E-02 
1717	 7.39430820872801E-02 
1718	 7.38987220088743E-02 
1719	 7.38757828041317E-02 
1720	 7.38391979505592E-02 
1721	 7.38269999603568E-02 
1722	 7.38455536880894E-02 
1723	 7.38489368399648E-02 
1724	 7.38620310308475E-02 
1725	 7.38555193582286E-02 
1726	 7.38423481249281E-02 
1727	 7.38179048564292E-02 
1728	 7.37630335928002E-02 
1729	 7.37395364333265E-02 
1730	 7.37292737267044E-02 
1731	 7.37134534570428E-02 
1732	 7.37198058518375E-02 
1733	 7.36944402559326E-02 
1734	 7.36378779970008E-02 
1735	 7.36005308808577E-02 
1736	 7.35532328521378E-02 
1737	 7.35348388396703E-02 
1738	 7.35491873622113E-02 
1739	 0.073531824216657 
1740	 7.35138055179184E-02 
1741	 7.34844787694014E-02 
1742	 7.34325374441331E-02 
1743	 7.33986453345042E-02 
1744	 7.33701193321119E-02 
1745	 7.33407525490713E-02 
1746	 7.33081179448652E-02 
1747	 7.32788331871968E-02 
1748	 7.32829581026117E-02 
1749	 0.073266606010179 
1750	 7.32074615992688E-02 
1751	 7.31649904479488E-02 
1752	 7.31202371367543E-02 
1753	 7.30922189526796E-02 
1754	 7.31133408530926E-02 
1755	 7.31158273042662E-02 
1756	 7.30864226928704E-02 
1757	 7.30493518262766E-02 
1758	 7.30278431061236E-02 
1759	 7.30115891002273E-02 
1760	 7.29681670421223E-02 
1761	 0.072921701325314 
1762	 7.28895187064731E-02 
1763	 0.072854617019866 
1764	 0.072831271796319 
1765	 7.28185640475964E-02 
1766	 0.072790272630502 
1767	 7.27631122137463E-02 
1768	 7.27389832103376E-02 
1769	 7.27138518414373E-02 
1770	 7.26821596274534E-02 
1771	 7.26518216389434E-02 
1772	 7.26453803150105E-02 
1773	 7.26412356046639E-02 
1774	 7.26119294635404E-02 
1775	 7.25566312997628E-02 
1776	 7.25089743573931E-02 
1777	 7.24803519493903E-02 
1778	 7.24538266218256E-02 
1779	 7.24320073503064E-02 
1780	 7.24163948923854E-02 
1781	 7.24018927847418E-02 
1782	 0.072385899709082 
1783	 7.23892959143352E-02 
1784	 7.23742466416524E-02 
1785	 7.23292211756429E-02 
1786	 0.072305980692451 
1787	 7.22893875967188E-02 
1788	 7.22729428986476E-02 
1789	 7.22669357314659E-02 
1790	 0.072262944107997 
1791	 7.22623404765774E-02 
1792	 7.22576577217112E-02 
1793	 7.22529632099592E-02 
1794	 7.22457488487579E-02 
1795	 7.22397422205782E-02 
1796	 7.22200660590442E-02 
1797	 7.21726630524465E-02 
1798	 7.21725087560487E-02 
1799	 7.21996897139576E-02 
1800	 7.22184856642601E-02 
1801	 6.90978654100779E-02 
1802	 6.91018749564758E-02 
1803	 6.91017094021609E-02 
1804	 6.91134516252845E-02 
1805	 6.91499881928151E-02 
1806	 0.069187649305605 
1807	 6.92257271686459E-02 
1808	 6.92460263456456E-02 
1809	 6.92551921825887E-02 
1810	 0.069262555203545 
1811	 6.92539822368205E-02 
1812	 6.92489250793936E-02 
1813	 6.92666735108542E-02 
1814	 6.92877588228494E-02 
1815	 6.93131586926069E-02 
1816	 6.93268965755718E-02 
1817	 6.93421482177314E-02 
1818	 6.93549111214795E-02 
1819	 6.93729064908328E-02 
1820	 6.93954961164872E-02 
1821	 6.94088091960542E-02 
1822	 6.94234510687356E-02 
1823	 6.94019381887323E-02 
1824	 6.93907307916781E-02 
1825	 0.069400727201172 
1826	 6.93774954401839E-02 
1827	 6.93734881964401E-02 
1828	 6.93765593941914E-02 
1829	 6.93803396175153E-02 
1830	 6.93717897283326E-02 
1831	 6.93814633900448E-02 
1832	 6.93598353513137E-02 
1833	 6.93290132626809E-02 
1834	 6.93104050589195E-02 
1835	 6.92989476928722E-02 
1836	 6.93321399993375E-02 
1837	 6.93501429425514E-02 
1838	 6.93213550404211E-02 
1839	 6.93049573547167E-02 
1840	 6.92855125942483E-02 
1841	 0.069256154866138 
1842	 6.92199282049166E-02 
1843	 6.92302631333137E-02 
1844	 6.92483567389754E-02 
1845	 6.92211110254722E-02 
1846	 6.91832059073289E-02 
1847	 6.91436138343888E-02 
1848	 6.90873426747553E-02 
1849	 6.90391410794097E-02 
1850	 0.069002640630965 
1851	 0.068992446328619 
1852	 6.89611804221695E-02 
1853	 6.89028420607121E-02 
1854	 0.068840014054591 
1855	 6.87686411953852E-02 
1856	 0.068697077695712 
1857	 6.86107021985156E-02 
1858	 6.85013081636134E-02 
1859	 6.84012154987578E-02 
1860	 6.83024718515302E-02 
1861	 6.81929497864708E-02 
1862	 0.068085715275317 
1863	 6.79977608367931E-02 
1864	 6.78722105034318E-02 
1865	 0.067708888571446 
1866	 6.75442491673249E-02 
1867	 6.73621935531902E-02 
1868	 6.71829790147671E-02 
1869	 6.69950324458623E-02 
1870	 6.67817131787704E-02 
1871	 6.65558835864157E-02 
1872	 6.63247714040461E-02 
1873	 6.60644670731532E-02 
1874	 6.57710755007081E-02 
1875	 6.54479532347315E-02 
1876	 6.51039539120566E-02 
1877	 6.47333596771154E-02 
1878	 6.43407962805538E-02 
1879	 6.39581732882846E-02 
1880	 6.35482259524268E-02 
1881	 6.31194560390776E-02 
1882	 0.062664696154159 
1883	 6.21915444451691E-02 
1884	 6.16843812035105E-02 
1885	 6.11627519327768E-02 
1886	 6.06203340915893E-02 
1887	 6.00614558093645E-02 
1888	 5.94796168005488E-02 
1889	 5.88941909240109E-02 
1890	 5.83019452842403E-02 
1891	 5.76880254552877E-02 
1892	 5.70335703289791E-02 
1893	 5.64212976843553E-02 
1894	 0.055808550432008 
1895	 5.51927257868054E-02 
1896	 5.45965402540033E-02 
1897	 5.40683724671611E-02 
1898	 5.35229269075909E-02 
1899	 5.29927068039026E-02 
1900	 5.25279693209113E-02 
1901	 5.20559849685235E-02 
1902	 5.16106498577794E-02 
1903	 5.11970032515947E-02 
1904	 0.05079542193388 
1905	 5.04080345596464E-02 
1906	 5.00426379425719E-02 
1907	 4.96935532891322E-02 
1908	 4.93820096323921E-02 
1909	 4.90840182493259E-02 
1910	 4.88176951450324E-02 
1911	 4.86008507506532E-02 
1912	 4.83918983836108E-02 
1913	 4.81896458096806E-02 
1914	 0.048009823704001 
1915	 4.78371769909798E-02 
1916	 0.047663986619863 
1917	 4.75091854995252E-02 
1918	 4.73829123933434E-02 
1919	 4.72490085309505E-02 
1920	 4.71370038445425E-02 
1921	 4.70770728955418E-02 
1922	 4.70251638867803E-02 
1923	 4.69908280875199E-02 
1924	 4.69567781051176E-02 
1925	 4.69340085994555E-02 
1926	 4.69025031952891E-02 
1927	 4.68614662682346E-02 
1928	 4.68448356678682E-02 
1929	 4.68406265395381E-02 
1930	 0.046835035818747 
1931	 4.68270400957719E-02 
1932	 4.68370044172212E-02 
1933	 4.68513845676636E-02 
1934	 0.046869025716242 
1935	 4.69116640450826E-02 
1936	 4.69887977170963E-02 
1937	 4.70494119316717E-02 
1938	 4.71215869910063E-02 
1939	 4.71938773534843E-02 
1940	 4.72663569237094E-02 
1941	 4.73345648991738E-02 
1942	 4.74059545892881E-02 
1943	 4.74651743358064E-02 
1944	 4.75213892355268E-02 
1945	 4.75870134310278E-02 
1946	 4.76767102981713E-02 
1947	 4.77999053113993E-02 
1948	 4.79035077777501E-02 
1949	 4.80215803368697E-02 
1950	 4.81267417927502E-02 
1951	 4.82166484753867E-02 
1952	 4.83035985268262E-02 
1953	 4.84159016737502E-02 
1954	 4.85318696063062E-02 
1955	 4.86539755649111E-02 
1956	 0.048773848061101 
1957	 4.88956660611703E-02 
1958	 0.049000839034023 
1959	 4.91402634643758E-02 
1960	 4.93198603651516E-02 
1961	 4.94598821841904E-02 
1962	 4.95919630802936E-02 
1963	 4.97323972966304E-02 
1964	 4.98569771921318E-02 
1965	 0.04997904434469 
1966	 0.050123014957921 
1967	 5.02628528290712E-02 
1968	 5.04078560661794E-02 
1969	 5.05464405200043E-02 
1970	 5.06948328115044E-02 
1971	 0.050865428398442 
1972	 5.10164620418085E-02 
1973	 0.051150706223561 
1974	 5.12985845965533E-02 
1975	 5.14526783623141E-02 
1976	 5.15950923744808E-02 
1977	 5.17507539450828E-02 
1978	 5.19003925401188E-02 
1979	 0.052034505615261 
1980	 5.21669234707739E-02 
1981	 5.23058044845546E-02 
1982	 5.24376727540573E-02 
1983	 5.25906749879717E-02 
1984	 5.27640336142057E-02 
1985	 5.29228941291164E-02 
1986	 5.30979233143083E-02 
1987	 5.32530422001645E-02 
1988	 5.33828139775141E-02 
1989	 5.35265719543451E-02 
1990	 5.36731585196652E-02 
1991	 5.37904396659677E-02 
1992	 5.39428054025742E-02 
1993	 5.41136192895853E-02 
1994	 5.42684369561135E-02 
1995	 5.44424001283019E-02 
1996	 0.054598259437208 
1997	 5.47256964403895E-02 
1998	 5.48745668073174E-02 
1999	 5.50352565105071E-02 
2000	 5.51826058808699E-02 
2001	 0.055324438127284 
2002	 5.54810770174128E-02 
2003	 5.56197666212564E-02 
2004	 5.57590322309039E-02 
2005	 5.58974863234245E-02 
2006	 0.056036958893172 
2007	 5.61721996836505E-02 
2008	 5.63000187241378E-02 
2009	 5.64368612064562E-02 
2010	 5.65835429017011E-02 
2011	 5.67184888218367E-02 
2012	 5.68427678161405E-02 
2013	 5.69789342248455E-02 
2014	 5.71100550152603E-02 
2015	 5.72533725058656E-02 
2016	 5.74040355531405E-02 
2017	 5.75522580809044E-02 
2018	 5.76842538293421E-02 
2019	 5.77954645643838E-02 
2020	 5.79218257391345E-02 
2021	 5.80478185240568E-02 
2022	 0.058172233721638 
2023	 5.83072467372541E-02 
2024	 5.84272233313887E-02 
2025	 0.058531886655396 
2026	 5.86438024722915E-02 
2027	 5.87478378985372E-02 
2028	 5.88686227889074E-02 
2029	 0.058970127731992 
2030	 5.90636482917535E-02 
2031	 5.91639711920282E-02 
2032	 5.92522531204033E-02 
2033	 5.93569412541924E-02 
2034	 5.94745361929805E-02 
2035	 5.95952360853783E-02 
2036	 5.97297847357652E-02 
2037	 5.98482168903692E-02 
2038	 5.99618581788506E-02 
2039	 0.060079221565055 
2040	 6.01978802125346E-02 
2041	 0.060299547635757 
2042	 6.04085335811465E-02 
2043	 6.05343558020487E-02 
2044	 0.060625170234614 
2045	 6.06818686993655E-02 
2046	 6.07760099582304E-02 
2047	 6.08655123950676E-02 
2048	 6.09648137966257E-02 
2049	 6.11052429289264E-02 
2050	 6.12072256400076E-02 
2051	 6.12812804067786E-02 
2052	 6.13716333304008E-02 
2053	 6.14520659922532E-02 
2054	 6.15404718338844E-02 
2055	 0.061648186354859 
2056	 6.17410991396468E-02 
2057	 6.18374400219436E-02 
2058	 6.19428370232123E-02 
2059	 0.062022364213547 
2060	 6.20784264917092E-02 
2061	 6.21613562631283E-02 
2062	 6.22364813884112E-02 
2063	 6.23190987892043E-02 
2064	 6.24280611483838E-02 
2065	 6.25238618504472E-02 
2066	 6.26107271734046E-02 
2067	 6.26990788087387E-02 
2068	 6.27941088179023E-02 
2069	 0.062878475820975 
2070	 6.29634916849347E-02 
2071	 6.30476365901297E-02 
2072	 6.31157999199202E-02 
2073	 6.31692415875565E-02 
2074	 6.32406805738447E-02 
2075	 6.33058883786477E-02 
2076	 0.063377856656856 
2077	 6.34635835443696E-02 
2078	 6.35479760372604E-02 
2079	 6.36256360212806E-02 
2080	 6.37124447354481E-02 
2081	 6.38229375499254E-02 
2082	 6.39141755775938E-02 
2083	 6.40033891624717E-02 
2084	 6.40777533145844E-02 
2085	 6.41530246277337E-02 
2086	 6.42183912311616E-02 
2087	 6.42845721735337E-02 
2088	 6.43518872986486E-02 
2089	 6.44095517943981E-02 
2090	 6.44481912615126E-02 
2091	 6.45087455400717E-02 
2092	 6.45700475381412E-02 
2093	 0.064641950898105 
2094	 0.064732153750241 
2095	 6.48198408293663E-02 
2096	 6.49250457626329E-02 
2097	 6.50076346011286E-02 
2098	 0.065095584588392 
2099	 6.51505048295887E-02 
2100	 6.52143277575788E-02 
2101	 6.52452450190717E-02 
2102	 6.53276350518165E-02 
2103	 6.54485163074091E-02 
2104	 6.55295678771448E-02 
2105	 6.56187120338617E-02 
2106	 0.065696022559761 
2107	 6.57364903100684E-02 
2108	 6.57987093006655E-02 
2109	 0.065877798065236 
2110	 6.59484501651333E-02 
2111	 6.60084110677417E-02 
2112	 6.60805274364092E-02 
2113	 6.61586826234358E-02 
2114	 6.62451979361064E-02 
2115	 6.63157524389138E-02 
2116	 6.63946671303625E-02 
2117	 6.64468463609641E-02 
2118	 6.64696428809374E-02 
2119	 6.65152737445795E-02 
2120	 6.65594661582234E-02 
2121	 6.66022755903996E-02 
2122	 6.66514026072908E-02 
2123	 6.66992732640401E-02 
2124	 0.066735721919639 
2125	 6.67855851819774E-02 
2126	 6.68581260151928E-02 
2127	 6.69101565180603E-02 
2128	 6.69534474593075E-02 
2129	 6.69994479304213E-02 
2130	 6.70371813849305E-02 
2131	 6.70730748533463E-02 
2132	 6.71076286262811E-02 
2133	 0.067144886827135 
2134	 6.71821649164659E-02 
2135	 6.72191662518486E-02 
2136	 6.72463044894543E-02 
2137	 0.067278180932789 
2138	 6.72950808422237E-02 
2139	 6.72832798610361E-02 
2140	 6.72947229141639E-02 
2141	 6.73149778113742E-02 
2142	 6.73311143014223E-02 
2143	 6.73638290860285E-02 
2144	 6.73779731733199E-02 
2145	 6.73747764503484E-02 
2146	 6.73758798061719E-02 
2147	 0.067370794009412 
2148	 6.73720004510792E-02 
2149	 6.73527026693816E-02 
2150	 6.73220399422062E-02 
2151	 6.73016411654781E-02 
2152	 6.72654932073953E-02 
2153	 6.72470732085145E-02 
2154	 0.067249534368054 
2155	 6.72418561299991E-02 
2156	 6.72374189718281E-02 
2157	 6.72213643199967E-02 
2158	 6.72004918319433E-02 
2159	 0.067176292082841 
2160	 0.067154788557047 
2161	 6.71122197564673E-02 
2162	 6.70502161969899E-02 
2163	 6.69956619197362E-02 
2164	 6.69215288178691E-02 
2165	 6.68572380062703E-02 
2166	 6.67973483835152E-02 
2167	 6.67444050307995E-02 
2168	 6.67021114683866E-02 
2169	 6.66632406448647E-02 
2170	 0.066631068767152 
2171	 6.66162075284567E-02 
2172	 6.65960850641267E-02 
2173	 6.65843970111935E-02 
2174	 6.65542721782113E-02 
2175	 6.65239643174652E-02 
2176	 6.64828669311602E-02 
2177	 6.64060149992787E-02 
2178	 6.63608848184783E-02 
2179	 6.63398963525359E-02 
2180	 6.62990073708901E-02 
2181	 6.62653550786592E-02 
2182	 6.62265747468432E-02 
2183	 6.61759074304804E-02 
2184	 6.61094784336164E-02 
2185	 6.60573632592681E-02 
2186	 6.60178324567288E-02 
2187	 6.59541918532499E-02 
2188	 6.58694393582258E-02 
2189	 6.58177492339851E-02 
2190	 6.57663982067841E-02 
2191	 6.57251431678194E-02 
2192	 6.57086646286148E-02 
2193	 6.56882597190424E-02 
2194	 6.56604167738996E-02 
2195	 6.56463380441637E-02 
2196	 6.56638932564099E-02 
2197	 6.56538972775675E-02 
2198	 6.56423776637656E-02 
2199	 6.56166220102341E-02 
2200	 6.55540539388663E-02 
2201	 6.55150346917969E-02 
2202	 6.54796585285328E-02 
2203	 6.54370882947148E-02 
2204	 6.54315311283989E-02 
2205	 6.54614644220566E-02 
2206	 6.54633941636079E-02 
2207	 6.54824987466637E-02 
2208	 6.54773452046279E-02 
2209	 0.065446729115825 
2210	 6.54275861070399E-02 
2211	 0.065396389936035 
2212	 6.53872746365497E-02 
2213	 6.53966081752059E-02 
2214	 6.53876456641158E-02 
2215	 6.53649352187707E-02 
2216	 6.53764754051979E-02 
2217	 6.54038218646469E-02 
2218	 6.54218574645521E-02 
2219	 6.54780190484626E-02 
2220	 6.55032057086911E-02 
2221	 6.55070335518122E-02 
2222	 6.54804431926951E-02 
2223	 6.54789492323301E-02 
2224	 6.54997539925904E-02 
2225	 6.55061232193034E-02 
2226	 6.55208984696695E-02 
2227	 6.55232110885332E-02 
2228	 6.55130445283545E-02 
2229	 6.55133364195371E-02 
2230	 0.065504416025491 
2231	 0.065515578977388 
2232	 6.55520218418699E-02 
2233	 6.55583824770311E-02 
2234	 6.55644358574301E-02 
2235	 6.55687656521734E-02 
2236	 6.55368484886678E-02 
2237	 6.55420988019831E-02 
2238	 6.55823137527188E-02 
2239	 6.55969680633221E-02 
2240	 6.56186238562979E-02 
2241	 6.56298083420147E-02 
2242	 6.56136906450061E-02 
2243	 6.56157057213872E-02 
2244	 6.56412696687654E-02 
2245	 6.56482295763822E-02 
2246	 6.56088682873137E-02 
2247	 6.55564138271785E-02 
2248	 6.55331759077765E-02 
2249	 6.54743379016073E-02 
2250	 6.54740116706569E-02 
2251	 6.55426230326101E-02 
2252	 6.55578787252378E-02 
2253	 6.55704310495991E-02 
2254	 6.55678193482076E-02 
2255	 6.55327707463013E-02 
2256	 6.55347511353379E-02 
2257	 6.55454279117066E-02 
2258	 6.55575737365304E-02 
2259	 6.56029387507906E-02 
2260	 6.56098732941648E-02 
2261	 6.55807566381017E-02 
2262	 6.55838000071293E-02 
2263	 6.55980861287453E-02 
2264	 6.55997797005525E-02 
2265	 6.56119327687733E-02 
2266	 6.56144967766742E-02 
2267	 6.55932809869462E-02 
2268	 6.55853543733165E-02 
2269	 6.56072473428922E-02 
2270	 6.55897746322857E-02 
2271	 6.55735932685583E-02 
2272	 6.55421820870488E-02 
2273	 6.55000375134123E-02 
2274	 6.55266261170048E-02 
2275	 6.55264274859565E-02 
2276	 6.55437039960108E-02 
2277	 6.55428473674398E-02 
2278	 0.065528376573547 
2279	 0.065523186377946 
2280	 6.55293196600972E-02 
2281	 0.065511360245037 
2282	 6.54735567444767E-02 
2283	 6.54527141122001E-02 
2284	 6.54340657009254E-02 
2285	 6.54066944049534E-02 
2286	 6.53607089605287E-02 
2287	 6.53653807511029E-02 
2288	 6.53894189306917E-02 
2289	 6.54003575250175E-02 
2290	 6.54636213845172E-02 
2291	 6.54894458415716E-02 
2292	 6.54810769360689E-02 
2293	 6.54787733338197E-02 
2294	 6.54734591829627E-02 
2295	 6.54598027175506E-02 
2296	 6.54463306701051E-02 
2297	 6.53889713467752E-02 
2298	 6.53704415210468E-02 
2299	 6.53682163297312E-02 
2300	 6.53311149763408E-02 
2301	 6.53420199720949E-02 
2302	 0.065328285426052 
2303	 6.53195528290988E-02 
2304	 6.53572535986503E-02 
2305	 6.53315080983245E-02 
2306	 6.53258414388137E-02 
2307	 6.53240753383492E-02 
2308	 6.52952249063477E-02 
2309	 6.52591354773707E-02 
2310	 6.52026642916296E-02 
2311	 6.51092399620665E-02 
2312	 6.50507007275347E-02 
2313	 6.49752203686603E-02 
2314	 0.064951339761865 
2315	 6.49720502813703E-02 
2316	 6.49606780376456E-02 
2317	 6.49823520577439E-02 
2318	 6.49602909168941E-02 
2319	 6.48887801197024E-02 
2320	 6.48600882787931E-02 
2321	 6.48392145393444E-02 
2322	 6.48062519526107E-02 
2323	 6.47654435669841E-02 
2324	 6.47569716769741E-02 
2325	 0.064756611562794 
2326	 6.47666474237033E-02 
2327	 6.48338160952873E-02 
2328	 6.48686457097178E-02 
2329	 6.48308794706695E-02 
2330	 0.064750041488975 
2331	 6.47004464433602E-02 
2332	 6.46465987471333E-02 
2333	 6.45851991269823E-02 
2334	 6.45602481761415E-02 
2335	 0.064528901134982 
2336	 6.44821916759377E-02 
2337	 6.44375989077478E-02 
2338	 6.44086292613114E-02 
2339	 6.43726516071949E-02 
2340	 6.43283533346166E-02 
2341	 6.43054764318009E-02 
2342	 6.42910309715212E-02 
2343	 6.42673363817881E-02 
2344	 0.064237769114889 
2345	 6.41970193523165E-02 
2346	 6.41556962230871E-02 
2347	 6.41168374054416E-02 
2348	 6.40594658780537E-02 
2349	 6.40213798247841E-02 
2350	 0.064029690080207 
2351	 6.39650235338611E-02 
2352	 6.38576992834031E-02 
2353	 6.37633941374146E-02 
2354	 6.36087682625157E-02 
2355	 6.35336002309601E-02 
2356	 6.35353557535274E-02 
2357	 6.34648687096696E-02 
2358	 6.33753424101303E-02 
2359	 6.32899237462369E-02 
2360	 6.31716793040195E-02 
2361	 6.30859575150936E-02 
2362	 6.30290399553433E-02 
2363	 6.29799934019276E-02 
2364	 6.29287366545978E-02 
2365	 6.28618533545847E-02 
2366	 6.28202721044326E-02 
2367	 6.27574419970768E-02 
2368	 6.26908764120219E-02 
2369	 6.26090100119917E-02 
2370	 6.25141872501692E-02 
2371	 6.23801520490938E-02 
2372	 6.22774915667689E-02 
2373	 6.21661982209101E-02 
2374	 6.20245845871745E-02 
2375	 6.19734809165586E-02 
2376	 6.19926304667917E-02 
2377	 6.20029700281945E-02 
2378	 0.061986683744441 
2379	 6.19276949353865E-02 
2380	 0.061886179646362 
2381	 0.061774971362151 
2382	 6.17172465305014E-02 
2383	 6.17745268405911E-02 
2384	 6.17055047511664E-02 
2385	 6.15420249457951E-02 
2386	 6.14091068661724E-02 
2387	 6.12939639606291E-02 
2388	 6.11974713113601E-02 
2389	 6.12412013915671E-02 
2390	 6.12943524835881E-02 
2391	 6.12308116976333E-02 
2392	 6.11575452011268E-02 
2393	 6.10882880455298E-02 
2394	 6.10654925423029E-02 
2395	 6.10614906136264E-02 
2396	 6.10073225393545E-02 
2397	 6.08708361203754E-02 
2398	 6.06299880920211E-02 
2399	 6.04362498086656E-02 
2400	 6.03977171899805E-02 
2401	 6.03672436722584E-02 
2402	 6.03553981458274E-02 
2403	 6.03371777991413E-02 
2404	 0.060258629386053 
2405	 6.01524561612553E-02 
2406	 0.059977993748119 
2407	 5.99110940987715E-02 
2408	 5.98812071544812E-02 
2409	 5.97238771705316E-02 
2410	 5.95810752784383E-02 
2411	 5.93882800224998E-02 
2412	 5.90703855155159E-02 
2413	 5.88957250428791E-02 
2414	 0.05894503204948 
2415	 5.90010142549938E-02 
2416	 5.89992215562954E-02 
2417	 5.90663639578032E-02 
2418	 5.90136961540338E-02 
2419	 5.88305760262129E-02 
2420	 5.87687734934767E-02 
2421	 5.87393200892182E-02 
2422	 5.86250917447521E-02 
2423	 5.84425299378564E-02 
2424	 5.83469249753085E-02 
2425	 5.82872099889384E-02 
2426	 5.82138346236053E-02 
2427	 5.82317134215232E-02 
2428	 5.81731810354476E-02 
2429	 5.79639286985098E-02 
2430	 5.79104246274122E-02 
2431	 0.058012235839508 
2432	 5.79127693000937E-02 
2433	 5.77649324409154E-02 
2434	 0.057592398507462 
2435	 0.057254398467337 
2436	 5.70768504931892E-02 
2437	 0.056988001832864 
2438	 5.69207120179636E-02 
2439	 5.69064881278557E-02 
2440	 5.68881788844658E-02 
2441	 5.69482514110386E-02 
2442	 0.056870054515478 
2443	 5.66643284275892E-02 
2444	 5.65315994850927E-02 
2445	 5.63916301788706E-02 
2446	 5.62519777805027E-02 
2447	 5.61949685894196E-02 
2448	 5.61264448986574E-02 
2449	 5.59965121769919E-02 
2450	 5.58891519486821E-02 
2451	 5.58366790199374E-02 
2452	 5.56755807732192E-02 
2453	 0.055437531109947 
2454	 5.51918944387444E-02 
2455	 5.48352399639281E-02 
2456	 5.46686271343097E-02 
2457	 5.46376230482243E-02 
2458	 5.45862154334904E-02 
2459	 5.46211276908471E-02 
2460	 5.45597359470309E-02 
2461	 5.43839702624056E-02 
2462	 5.42689284294577E-02 
2463	 5.41956538257809E-02 
2464	 5.41504902825615E-02 
2465	 5.42054711439973E-02 
2466	 0.054119683352668 
2467	 5.39825428490522E-02 
2468	 5.38233775913015E-02 
2469	 5.34881143306405E-02 
2470	 5.34509865389478E-02 
2471	 5.32531933911902E-02 
2472	 5.32215362997926E-02 
2473	 5.33031032246667E-02 
2474	 5.31614949211883E-02 
2475	 5.32232696733304E-02 
2476	 5.32479531228121E-02 
2477	 5.31250413892142E-02 
2478	 5.31003074851773E-02 
2479	 5.29460647931559E-02 
2480	 5.27398393840767E-02 
2481	 5.26783331867201E-02 
2482	 5.25219301973323E-02 
2483	 0.0523378565126 
2484	 5.21714832682974E-02 
2485	 0.05193446555882 
2486	 5.17868211572305E-02 
2487	 5.17278535079824E-02 
2488	 5.18705545043655E-02 
2489	 5.19745632211866E-02 
2490	 0.05196466262021 
2491	 5.20676019629691E-02 
2492	 5.19932135026236E-02 
2493	 0.051916154344957 
2494	 5.18530564860734E-02 
2495	 5.17144947448905E-02 
2496	 5.15999862201726E-02 
2497	 5.14160094586931E-02 
2498	 5.13208250129005E-02 
2499	 5.12209800375225E-02 
2500	 0.051065396891777 
