Wavelength	MM_3300008.asd
350	 3.42312237046027E-02 
351	 3.99673611470698E-02 
352	 4.22775366792299E-02 
353	 3.67606995628133E-02 
354	 0.04585141740405 
355	 5.01615345731834E-02 
356	 4.90433061434218E-02 
357	 4.63410272293056E-02 
358	 4.29835407858815E-02 
359	 3.85811876243463E-02 
360	 0.036685491374661 
361	 0.041809611240368 
362	 0.039936607516391 
363	 3.83319416752057E-02 
364	 3.96726851994469E-02 
365	 0.034887184582783 
366	 3.51925533708115E-02 
367	 3.69398726283168E-02 
368	 3.53885973672943E-02 
369	 3.90506360858765E-02 
370	 3.79263603176498E-02 
371	 3.49530429967587E-02 
372	 4.04711421688328E-02 
373	 3.87621664217613E-02 
374	 3.72543432506046E-02 
375	 3.97195315359073E-02 
376	 3.84422246380541E-02 
377	 3.69717678031051E-02 
378	 3.74158603685683E-02 
379	 0.040340339597724 
380	 4.21803401241255E-02 
381	 4.11924253009268E-02 
382	 3.96874520019493E-02 
383	 4.21798722382307E-02 
384	 4.06639888092224E-02 
385	 3.97530334245295E-02 
386	 4.20859459757444E-02 
387	 4.32735359313541E-02 
388	 4.41041120109339E-02 
389	 4.46611234413224E-02 
390	 4.48509759169605E-02 
391	 4.41424701956007E-02 
392	 4.44242990513649E-02 
393	 4.57333539209293E-02 
394	 4.65372641435183E-02 
395	 4.72044644852262E-02 
396	 4.81722522235607E-02 
397	 4.95748249799422E-02 
398	 5.09821576016899E-02 
399	 5.15406130288895E-02 
400	 5.20254477302643E-02 
401	 5.33007639174295E-02 
402	 5.30895087577797E-02 
403	 5.23759098296671E-02 
404	 5.24269367871506E-02 
405	 5.44235964481429E-02 
406	 5.50836023233677E-02 
407	 5.54953899371367E-02 
408	 0.056569028468093 
409	 5.63059129965364E-02 
410	 5.64509448257799E-02 
411	 5.72055582050131E-02 
412	 5.80052515403066E-02 
413	 5.86293246530541E-02 
414	 5.86983873180294E-02 
415	 5.85835238577412E-02 
416	 5.95959219358532E-02 
417	 5.99251479483265E-02 
418	 6.02571713467508E-02 
419	 6.12102921470134E-02 
420	 6.10813151588817E-02 
421	 6.04832611287192E-02 
422	 6.03441500526207E-02 
423	 6.15111464965633E-02 
424	 6.21432967771164E-02 
425	 6.20327712056965E-02 
426	 6.15616217106802E-02 
427	 6.17084736506801E-02 
428	 6.17874284902964E-02 
429	 6.19000793115619E-02 
430	 6.23160530519826E-02 
431	 6.29549784373703E-02 
432	 6.32517041292572E-02 
433	 6.31254867676507E-02 
434	 6.29750122458025E-02 
435	 6.32366971156397E-02 
436	 6.36779251721523E-02 
437	 6.40039442178668E-02 
438	 6.41150831418281E-02 
439	 6.44554717188199E-02 
440	 6.49184249602371E-02 
441	 6.51331342924068E-02 
442	 6.49926325148266E-02 
443	 0.065299384928266 
444	 6.60424421033749E-02 
445	 6.58659388439074E-02 
446	 6.61011126128329E-02 
447	 6.65800486491221E-02 
448	 6.68307473588491E-02 
449	 6.70150502807667E-02 
450	 6.72668128023307E-02 
451	 6.76335476073951E-02 
452	 6.80702836528657E-02 
453	 6.82431560185111E-02 
454	 6.82854713859675E-02 
455	 6.84375781986164E-02 
456	 6.90598091038388E-02 
457	 6.91913261755899E-02 
458	 6.90469626614488E-02 
459	 6.92875555043896E-02 
460	 6.93965538231274E-02 
461	 6.95626283092628E-02 
462	 6.97999765492879E-02 
463	 6.97906333843562E-02 
464	 7.00501894977422E-02 
465	 7.03091127111259E-02 
466	 7.02698614020778E-02 
467	 7.04392281621106E-02 
468	 7.06087109137344E-02 
469	 7.06843602485152E-02 
470	 0.070686967460897 
471	 7.07177083234749E-02 
472	 7.07571687022382E-02 
473	 7.08592146263105E-02 
474	 0.071365109283295 
475	 7.15798747751802E-02 
476	 7.15187975550332E-02 
477	 7.14962035734208E-02 
478	 7.13742662414241E-02 
479	 7.15764071802249E-02 
480	 7.20136506693634E-02 
481	 7.18331249614429E-02 
482	 7.20926991228428E-02 
483	 7.25084102759643E-02 
484	 7.25927042739162E-02 
485	 7.26393732627752E-02 
486	 7.25941563427544E-02 
487	 7.25339060703994E-02 
488	 0.072621582052667 
489	 7.24535514843013E-02 
490	 7.24376624005567E-02 
491	 7.27996528118336E-02 
492	 7.30249606966424E-02 
493	 7.29321707970663E-02 
494	 7.28352254296475E-02 
495	 7.31814688861696E-02 
496	 7.33562628832202E-02 
497	 0.073361898754253 
498	 7.33254621073655E-02 
499	 7.34662280434932E-02 
500	 7.34834675348235E-02 
501	 7.35259330175713E-02 
502	 7.37519178707381E-02 
503	 7.37684169101201E-02 
504	 7.37132612164455E-02 
505	 7.37225426252045E-02 
506	 7.38975704726346E-02 
507	 0.074000762583151 
508	 7.41214122325019E-02 
509	 7.43019162917554E-02 
510	 7.42628794862483E-02 
511	 7.43363018855348E-02 
512	 7.44516569948336E-02 
513	 7.43659015377004E-02 
514	 7.43607261655585E-02 
515	 0.074461211377915 
516	 7.46170004900226E-02 
517	 7.47099018234544E-02 
518	 7.47602073085902E-02 
519	 7.47723458886701E-02 
520	 7.47675605675664E-02 
521	 7.48466247074256E-02 
522	 7.49603544568497E-02 
523	 7.50671999540491E-02 
524	 7.51436724836084E-02 
525	 7.50792590173171E-02 
526	 0.075080913524281 
527	 7.52753673818109E-02 
528	 7.53103347646335E-02 
529	 7.53797388508994E-02 
530	 7.55052454440511E-02 
531	 7.55936804615376E-02 
532	 7.56194923180552E-02 
533	 7.56797580856543E-02 
534	 7.58043587727317E-02 
535	 7.58492061277265E-02 
536	 7.58590268016271E-02 
537	 7.59106001770741E-02 
538	 7.60728762436516E-02 
539	 7.62785392039773E-02 
540	 7.62725722619513E-02 
541	 7.61293937078905E-02 
542	 7.63719741828124E-02 
543	 0.076467254547519 
544	 7.64864668914034E-02 
545	 7.66206310583822E-02 
546	 7.68628148478741E-02 
547	 7.70027264574827E-02 
548	 0.077031705693701 
549	 7.71140402450611E-02 
550	 7.72260707382223E-02 
551	 7.73557766169632E-02 
552	 7.74989335893902E-02 
553	 7.76887295324337E-02 
554	 7.77820151951649E-02 
555	 7.78456761936176E-02 
556	 7.80357959351513E-02 
557	 0.078202264059646 
558	 7.83879918078451E-02 
559	 7.85880853109323E-02 
560	 7.86675973901323E-02 
561	 7.88081453243288E-02 
562	 7.90348504386882E-02 
563	 7.93053659500827E-02 
564	 0.079545296494403 
565	 7.97887177984137E-02 
566	 8.00584086138699E-02 
567	 8.03563421525602E-02 
568	 8.07449427558426E-02 
569	 8.10640435241654E-02 
570	 8.12067919036384E-02 
571	 8.14076362849724E-02 
572	 8.16746958749699E-02 
573	 8.19742435890777E-02 
574	 0.082243747751604 
575	 8.24801935521915E-02 
576	 8.27995946192019E-02 
577	 8.32334601079603E-02 
578	 0.083590493668952 
579	 0.083956681442932 
580	 8.43322041136776E-02 
581	 8.46851661184566E-02 
582	 8.50111322867154E-02 
583	 8.52551824501121E-02 
584	 8.54380688270518E-02 
585	 8.56891169043792E-02 
586	 8.60317460775661E-02 
587	 8.63882996035011E-02 
588	 8.66939510637604E-02 
589	 8.71142929587196E-02 
590	 8.74473869008072E-02 
591	 8.76860607630674E-02 
592	 0.08800163831343 
593	 8.81987152487799E-02 
594	 8.83799093022405E-02 
595	 8.86586701168165E-02 
596	 8.90261839191846E-02 
597	 8.94366594821909E-02 
598	 8.98789248962159E-02 
599	 9.03563345738746E-02 
600	 9.08129744377513E-02 
601	 0.091199789321494 
602	 9.14894626037369E-02 
603	 9.16806680801781E-02 
604	 9.18980897306806E-02 
605	 9.21519352968789E-02 
606	 9.24084193270134E-02 
607	 9.26640182305425E-02 
608	 9.28918484288856E-02 
609	 9.30998703913403E-02 
610	 9.33359653055309E-02 
611	 0.093562253201912 
612	 9.37613223189491E-02 
613	 9.39356487217113E-02 
614	 9.41403560652582E-02 
615	 9.43276354879016E-02 
616	 9.44929513438485E-02 
617	 9.46619811345046E-02 
618	 0.094855123111536 
619	 9.49693902627453E-02 
620	 9.49890803870123E-02 
621	 9.51233871031183E-02 
622	 9.52682386679638E-02 
623	 9.54084435045999E-02 
624	 9.55571780817837E-02 
625	 9.57048179919467E-02 
626	 9.58191595875531E-02 
627	 9.59009937722635E-02 
628	 9.59945898295708E-02 
629	 9.61179404943929E-02 
630	 9.62423902737508E-02 
631	 9.63337025372239E-02 
632	 9.63866215945479E-02 
633	 9.64925982230535E-02 
634	 9.66326389627161E-02 
635	 9.67049971177334E-02 
636	 0.096836359708622 
637	 9.69546999216711E-02 
638	 9.70028251436903E-02 
639	 9.70321573916504E-02 
640	 9.71353335127447E-02 
641	 9.72678706681326E-02 
642	 9.73358167741641E-02 
643	 0.097441006539393 
644	 9.75451670817695E-02 
645	 9.76283774323988E-02 
646	 9.77168917742694E-02 
647	 9.77545651502345E-02 
648	 9.78176697706027E-02 
649	 9.79700555071325E-02 
650	 9.80588921241615E-02 
651	 9.81288617579224E-02 
652	 9.82076751335923E-02 
653	 9.83043842261293E-02 
654	 9.84572209585554E-02 
655	 9.85617299431332E-02 
656	 9.85784435968878E-02 
657	 9.86931871598777E-02 
658	 9.88053422324671E-02 
659	 9.89146321533157E-02 
660	 9.90551748737456E-02 
661	 9.91602747814843E-02 
662	 9.92754085386847E-02 
663	 9.93944327069798E-02 
664	 9.94185495073415E-02 
665	 9.95067262559347E-02 
666	 9.96335203078406E-02 
667	 9.97331954152632E-02 
668	 9.98075763626436E-02 
669	 9.99494715204522E-02 
670	 0.100131110504457 
671	 0.100230821948047 
672	 0.100339993648113 
673	 0.100476056848395 
674	 0.100624512907156 
675	 0.100727505035519 
676	 0.100798936960313 
677	 0.100896922486032 
678	 0.101076606996046 
679	 0.101221506881196 
680	 0.101348272994651 
681	 0.101475499675921 
682	 0.101608686270618 
683	 0.101716190171583 
684	 0.10184141442509 
685	 0.102014767210753 
686	 0.102148372077077 
687	 0.102283713017628 
688	 0.102430322027198 
689	 0.102574596606913 
690	 0.102731618775131 
691	 0.102866151302699 
692	 0.102977153848719 
693	 0.103150310217708 
694	 0.103282095405568 
695	 0.103400516838412 
696	 0.103562831936044 
697	 0.103705172514803 
698	 0.103831496802023 
699	 0.103966893764495 
700	 0.104150514870842 
701	 0.104280887221812 
702	 0.10440674791698 
703	 0.10456700606371 
704	 0.104671429176198 
705	 0.104828843349106 
706	 0.1049876145271 
707	 0.105045123420197 
708	 0.105226571526017 
709	 0.105405316345015 
710	 0.105526398496658 
711	 0.105694021161205 
712	 0.10580414927712 
713	 0.105895482768163 
714	 0.106020513246031 
715	 0.106122752148452 
716	 0.106230979041717 
717	 0.106359480635466 
718	 0.106504655580131 
719	 0.106599669375157 
720	 0.106698884627558 
721	 0.106823115504843 
722	 0.106889845939524 
723	 0.106987315243257 
724	 0.107113123380987 
725	 0.107228562249624 
726	 0.107284487400814 
727	 0.107346725062048 
728	 0.107432909913941 
729	 0.10751246172178 
730	 0.107640197205213 
731	 0.10771920147504 
732	 0.107714447650125 
733	 0.107800904778451 
734	 0.107894244444167 
735	 0.107944619836852 
736	 0.1079390243377 
737	 0.108009312342113 
738	 0.108075206564967 
739	 0.108102387341265 
740	 0.108124731026518 
741	 0.108162452753471 
742	 0.108194958095528 
743	 0.108204041704267 
744	 0.108207150012703 
745	 0.108167223204145 
746	 0.108165659110557 
747	 0.108289102616175 
748	 0.108248160802898 
749	 0.108183723742727 
750	 0.108182190466862 
751	 0.108214323249326 
752	 0.10817978585334 
753	 0.108126363016851 
754	 0.108110476756751 
755	 0.108102781259379 
756	 0.108088905646781 
757	 0.108056393312146 
758	 0.108001039276219 
759	 0.107960910871537 
760	 0.10789769183947 
761	 0.107824517235162 
762	 0.107824472345928 
763	 0.107786828017933 
764	 0.107712885776734 
765	 0.107631582498217 
766	 0.107565349970777 
767	 0.107514147737104 
768	 0.107466876264104 
769	 0.107410343254753 
770	 0.107368122068619 
771	 0.107308389847978 
772	 0.107228138854699 
773	 0.107163222260338 
774	 0.107084054585877 
775	 0.107001835956536 
776	 0.106930681271205 
777	 0.106870109453781 
778	 0.10679546104238 
779	 0.106738232449641 
780	 0.10672810389444 
781	 0.106610773094784 
782	 0.106500347540292 
783	 0.106434260211794 
784	 0.106348967367566 
785	 0.106298737198588 
786	 0.106223375998968 
787	 0.10610136067688 
788	 0.106055923566182 
789	 0.105999306375686 
790	 0.10592797669641 
791	 0.105859251248013 
792	 0.10574479663096 
793	 0.105664121603621 
794	 0.105627579315263 
795	 0.10557813905613 
796	 0.105472446021343 
797	 0.105368175422968 
798	 0.105303144408628 
799	 0.105248967669627 
800	 0.105168618773988 
801	 0.105096200423481 
802	 0.105058738985006 
803	 0.104957655494073 
804	 0.104901604125821 
805	 0.104865714447457 
806	 0.104757598642779 
807	 0.104706194419616 
808	 0.104640177129814 
809	 0.104540608648826 
810	 0.104482624600812 
811	 0.104455506645123 
812	 0.10438279097532 
813	 0.1042500711862 
814	 0.104257066729256 
815	 0.104197144703945 
816	 0.104116236544415 
817	 0.104125474168259 
818	 0.104083105264404 
819	 0.104009411607003 
820	 0.103926783209542 
821	 0.103851703770124 
822	 0.103790063295576 
823	 0.103731910260168 
824	 0.103680074193942 
825	 0.103663262529182 
826	 0.103629429925572 
827	 0.103557691861381 
828	 0.103470860954143 
829	 0.103504795610308 
830	 0.103452474896001 
831	 0.103356656906116 
832	 0.103358762445034 
833	 0.103373969149686 
834	 0.103336805643554 
835	 0.103243986531474 
836	 0.103156213539075 
837	 0.103172684521833 
838	 0.103200251782441 
839	 0.103160918274458 
840	 0.103060381169556 
841	 0.103006492317078 
842	 0.103006361527366 
843	 0.103028960199389 
844	 0.103037924787114 
845	 0.103004495866503 
846	 0.102941600570457 
847	 0.102890660935023 
848	 0.102915067060741 
849	 0.102929543505347 
850	 0.102907073185639 
851	 0.102880933706972 
852	 0.102865290458769 
853	 0.102857169838284 
854	 0.102847398408327 
855	 0.102823766749137 
856	 0.102835402990704 
857	 0.102850382076163 
858	 0.102837578147309 
859	 0.102813418653136 
860	 0.102845495864863 
861	 0.102885113272228 
862	 0.102867107863118 
863	 0.102856965905203 
864	 0.102867785318192 
865	 0.10288894770205 
866	 0.102894714594993 
867	 0.10286842970722 
868	 0.102836718770479 
869	 0.102822707567866 
870	 0.10283897217327 
871	 0.102881931561551 
872	 0.102938511974381 
873	 0.102990283697214 
874	 0.103014868041138 
875	 0.103008056476144 
876	 0.102988244909298 
877	 0.102986864050447 
878	 0.103058615393306 
879	 0.10308365788032 
880	 0.10308483671625 
881	 0.103121398280043 
882	 0.103165165022136 
883	 0.103239195508168 
884	 0.103300116664657 
885	 0.103293885918507 
886	 0.103338811261304 
887	 0.103366572811029 
888	 0.103373397304649 
889	 0.103417281667727 
890	 0.103480810508489 
891	 0.103564064584847 
892	 0.103638313090028 
893	 0.103645441206129 
894	 0.103666279385026 
895	 0.103726740265646 
896	 0.103811504999311 
897	 0.10385558226016 
898	 0.10391543463185 
899	 0.103966870835612 
900	 0.103990946940051 
901	 0.104033929403288 
902	 0.10410954293058 
903	 0.10421405140757 
904	 0.104320300767513 
905	 0.104351229895765 
906	 0.104393497201592 
907	 0.104450215719976 
908	 0.104501797926146 
909	 0.104646953009368 
910	 0.104763128381474 
911	 0.104856960658465 
912	 0.104998677841431 
913	 0.105009691631327 
914	 0.105048604232203 
915	 0.105153604007322 
916	 0.105231985219228 
917	 0.105283831978192 
918	 0.105334095096357 
919	 0.105398682010271 
920	 0.105475751273336 
921	 0.105551326089865 
922	 0.105639778465057 
923	 0.105769024133064 
924	 0.105971307632115 
925	 0.106053547185802 
926	 0.106119468234815 
927	 0.106233041246301 
928	 0.106263063401799 
929	 0.106401462108963 
930	 0.106540211128756 
931	 0.106590504690274 
932	 0.106685100531605 
933	 0.106847979609507 
934	 0.106968878551857 
935	 0.106982250568241 
936	 0.10706205586173 
937	 0.107236528841813 
938	 0.107382644975779 
939	 0.107424989681562 
940	 0.107647133595566 
941	 0.107811865090527 
942	 0.107879279399938 
943	 0.107914996958478 
944	 0.108045383959883 
945	 0.108047389597753 
946	 0.10810084400689 
947	 0.108410028414801 
948	 0.108427888267381 
949	 0.108501154023984 
950	 0.108639878169067 
951	 0.108719492321139 
952	 0.108959614388802 
953	 0.109102586631768 
954	 0.109118546741779 
955	 0.109138897536476 
956	 0.109293698577779 
957	 0.109447181663902 
958	 0.109548115398039 
959	 0.10962259946961 
960	 0.109728256868751 
961	 0.109862265173165 
962	 0.110032145525062 
963	 0.110229003262131 
964	 0.110311117310269 
965	 0.110379268183611 
966	 0.11050443759811 
967	 0.11070323945159 
968	 0.110913190893605 
969	 0.111032880351828 
970	 0.111072011372597 
971	 0.11113074245086 
972	 0.111323712412358 
973	 0.111532525546498 
974	 0.111705250703461 
975	 0.111857983281807 
976	 0.112019775745352 
977	 0.112189866736748 
978	 0.112348504354958 
979	 0.112462024536206 
980	 0.112476053834585 
981	 0.112558929043652 
982	 0.112708715127095 
983	 0.112828504347411 
984	 0.112988271395938 
985	 0.113180188856018 
986	 0.113339838100166 
987	 0.113423967384628 
988	 0.113621592738017 
989	 0.113875799826087 
990	 0.114094297309233 
991	 0.114224454342877 
992	 0.114437735942212 
993	 0.114557769899685 
994	 0.11462536338013 
995	 0.114748988188835 
996	 0.114838017898031 
997	 0.115038236564872 
998	 0.115260615199004 
999	 0.115373767981966 
1000	 0.115440778513423 
1001	 0.113576981630648 
1002	 0.113633714580004 
1003	 0.113750574046468 
1004	 0.11388720897346 
1005	 0.114086463045146 
1006	 0.11419698693341 
1007	 0.114300373170388 
1008	 0.114386891253009 
1009	 0.114420254546555 
1010	 0.114465758732949 
1011	 0.114619449387701 
1012	 0.114744115602442 
1013	 0.114812468955068 
1014	 0.114910616293657 
1015	 0.114980111983148 
1016	 0.115015148758313 
1017	 0.115096235299016 
1018	 0.115205519509386 
1019	 0.115333452995987 
1020	 0.115427618218614 
1021	 0.115509811115402 
1022	 0.115597979117474 
1023	 0.115649535182066 
1024	 0.115706933120926 
1025	 0.115837908333518 
1026	 0.115999370916008 
1027	 0.116075493025827 
1028	 0.116094472987688 
1029	 0.116173393577027 
1030	 0.116214615357658 
1031	 0.116258556422529 
1032	 0.116303349939651 
1033	 0.116443583974316 
1034	 0.116486718053242 
1035	 0.116501899004832 
1036	 0.1166332615344 
1037	 0.116690944882999 
1038	 0.116690999023014 
1039	 0.116786536928774 
1040	 0.116883671629482 
1041	 0.116968396304761 
1042	 0.117101459834925 
1043	 0.117205126980066 
1044	 0.117285465362237 
1045	 0.117303887963827 
1046	 0.117349287505441 
1047	 0.117452548041845 
1048	 0.117571498453562 
1049	 0.117652328432737 
1050	 0.117727501624454 
1051	 0.117791751579313 
1052	 0.117805558768901 
1053	 0.11788223862488 
1054	 0.118007551863441 
1055	 0.118084546789669 
1056	 0.118156873780987 
1057	 0.118238542115674 
1058	 0.118310616877329 
1059	 0.118375255776646 
1060	 0.118447335019603 
1061	 0.118514099343412 
1062	 0.118545697923211 
1063	 0.118600740304956 
1064	 0.118661682226201 
1065	 0.11876280858743 
1066	 0.118866503415192 
1067	 0.118886005745654 
1068	 0.118916659562473 
1069	 0.118940606974087 
1070	 0.118958493201509 
1071	 0.118970821051712 
1072	 0.118997541975815 
1073	 0.119012461923712 
1074	 0.119059794483404 
1075	 0.119133186631008 
1076	 0.119209203331168 
1077	 0.119274692032429 
1078	 0.119300450265219 
1079	 0.119295967414242 
1080	 0.119272758072548 
1081	 0.119285342301316 
1082	 0.119307474452776 
1083	 0.119323143587229 
1084	 0.119365363320243 
1085	 0.119374985447749 
1086	 0.119347213624537 
1087	 0.119346636391826 
1088	 0.11933874783573 
1089	 0.119346710573264 
1090	 0.119379257169433 
1091	 0.119426407260672 
1092	 0.119485587628032 
1093	 0.119526266880628 
1094	 0.119534628225017 
1095	 0.119533111604228 
1096	 0.119506893640786 
1097	 0.119494158675368 
1098	 0.119497572338743 
1099	 0.119531588444328 
1100	 0.11954084170721 
1101	 0.11953194165602 
1102	 0.119544987482841 
1103	 0.119543959944837 
1104	 0.119595709050591 
1105	 0.11965386334084 
1106	 0.119695998949978 
1107	 0.119753194523102 
1108	 0.119781479272664 
1109	 0.119786085628942 
1110	 0.119813835202535 
1111	 0.119833532165478 
1112	 0.119834900664854 
1113	 0.119855941805962 
1114	 0.119895029366693 
1115	 0.119924227583724 
1116	 0.119964776570689 
1117	 0.119982772974718 
1118	 0.11998990836813 
1119	 0.11998133154075 
1120	 0.119993793113689 
1121	 0.120006045237936 
1122	 0.120015351957644 
1123	 0.120074774639174 
1124	 0.120108663818675 
1125	 0.120136284298741 
1126	 0.120163689392995 
1127	 0.120199463615011 
1128	 0.12021196380899 
1129	 0.120207800013763 
1130	 0.120209521388624 
1131	 0.120201315990901 
1132	 0.120199868889601 
1133	 0.120212738246718 
1134	 0.120205976746718 
1135	 0.120177558578122 
1136	 0.120164201090158 
1137	 0.120177855515059 
1138	 0.120184395888536 
1139	 0.120170604374331 
1140	 0.120183037415044 
1141	 0.120141956811533 
1142	 0.120031511944639 
1143	 0.119978787923871 
1144	 0.119927888889698 
1145	 0.119890852874229 
1146	 0.119894115841999 
1147	 0.119864724593322 
1148	 0.119818359952634 
1149	 0.119780867330186 
1150	 0.119727487376251 
1151	 0.119691996433554 
1152	 0.119649568257928 
1153	 0.119643955832183 
1154	 0.119633160454227 
1155	 0.119626673584637 
1156	 0.119620626447178 
1157	 0.119628643946659 
1158	 0.119623854850368 
1159	 0.119611014991074 
1160	 0.119605312971431 
1161	 0.119592756785757 
1162	 0.119595914871326 
1163	 0.119610785897371 
1164	 0.119624119017189 
1165	 0.119651227386663 
1166	 0.119669417022298 
1167	 0.119678965635417 
1168	 0.119683937205445 
1169	 0.119694338988978 
1170	 0.119703347637331 
1171	 0.119711953852667 
1172	 0.119728519592738 
1173	 0.119731764515873 
1174	 0.119717270311574 
1175	 0.119722182905805 
1176	 0.11972958526794 
1177	 0.119740638754942 
1178	 0.119769217954169 
1179	 0.119786410930096 
1180	 0.1198010668435 
1181	 0.119810539509468 
1182	 0.119812076206516 
1183	 0.119817587947603 
1184	 0.119819703229383 
1185	 0.119809891798197 
1186	 0.119821721367186 
1187	 0.119841379719912 
1188	 0.119862419130559 
1189	 0.119906223337314 
1190	 0.11992529961883 
1191	 0.119929703398803 
1192	 0.119942266189645 
1193	 0.119939697466135 
1194	 0.119954663802507 
1195	 0.119989698651916 
1196	 0.120013415257414 
1197	 0.120050598514396 
1198	 0.120067600836945 
1199	 0.120073384361755 
1200	 0.120057742466672 
1201	 0.120067295439659 
1202	 0.120068969265667 
1203	 0.120090113942157 
1204	 0.120142950643482 
1205	 0.120165568153651 
1206	 0.120172991615859 
1207	 0.120196496069921 
1208	 0.120219801952915 
1209	 0.120240325669305 
1210	 0.120272266138303 
1211	 0.120297931625185 
1212	 0.120310250639557 
1213	 0.120328700276927 
1214	 0.120357220311179 
1215	 0.120378472374976 
1216	 0.120396621615062 
1217	 0.120409242093758 
1218	 0.120427720891019 
1219	 0.120443760434539 
1220	 0.120464572173645 
1221	 0.120496430704858 
1222	 0.120512781306673 
1223	 0.120516862788326 
1224	 0.12053437667406 
1225	 0.120547493252231 
1226	 0.120568771627267 
1227	 0.120611832909349 
1228	 0.120637509024547 
1229	 0.120646201398464 
1230	 0.120670152509964 
1231	 0.120699868320937 
1232	 0.120724549391833 
1233	 0.120751049343304 
1234	 0.120792815324742 
1235	 0.120811030947624 
1236	 0.120813086215776 
1237	 0.12082293150626 
1238	 0.120824298755204 
1239	 0.12083627963487 
1240	 0.120855694275678 
1241	 0.120869985118262 
1242	 0.120883018920454 
1243	 0.120900805760225 
1244	 0.120918284662707 
1245	 0.120937650923841 
1246	 0.120966803122338 
1247	 0.1209893660883 
1248	 0.121016150247867 
1249	 0.121024840500841 
1250	 0.121036287808733 
1251	 0.121062157355445 
1252	 0.121069155818686 
1253	 0.121069665388126 
1254	 0.121072318752263 
1255	 0.121060375869244 
1256	 0.121062909910542 
1257	 0.121080763346022 
1258	 0.121084026541501 
1259	 0.121084485320348 
1260	 0.1210866226275 
1261	 0.121072049097767 
1262	 0.121075076110751 
1263	 0.121098242899554 
1264	 0.121106997608023 
1265	 0.121119232423824 
1266	 0.121128500215237 
1267	 0.121137578814136 
1268	 0.121123277208369 
1269	 0.121122704746664 
1270	 0.121120990425776 
1271	 0.121129891318363 
1272	 0.121142487965788 
1273	 0.121156993621745 
1274	 0.121181201292928 
1275	 0.12120273934893 
1276	 0.121222480131179 
1277	 0.121246710015206 
1278	 0.121274539890141 
1279	 0.121302233018024 
1280	 0.121331443939898 
1281	 0.121360884307496 
1282	 0.12139821937364 
1283	 0.12142527273913 
1284	 0.121440229001113 
1285	 0.121468006174194 
1286	 0.121484616205884 
1287	 0.121508310013279 
1288	 0.121528043085345 
1289	 0.121550105769877 
1290	 0.121567057533163 
1291	 0.121581999530403 
1292	 0.12159060164306 
1293	 0.121609193871664 
1294	 0.121597834769466 
1295	 0.121560491489255 
1296	 0.121533842930585 
1297	 0.121494105836538 
1298	 0.121455731746774 
1299	 0.121431168802716 
1300	 0.121386190820407 
1301	 0.121324360069877 
1302	 0.121261916871167 
1303	 0.12117909416335 
1304	 0.121115751571966 
1305	 0.121063911613305 
1306	 0.12099308424798 
1307	 0.120933738687958 
1308	 0.120868822433372 
1309	 0.120797231277194 
1310	 0.120714941821039 
1311	 0.120642820687223 
1312	 0.120573592315733 
1313	 0.12049226612399 
1314	 0.120415929340848 
1315	 0.120320443282104 
1316	 0.120200584273541 
1317	 0.120100981488428 
1318	 0.120003732730764 
1319	 0.119902676429133 
1320	 0.119809947928162 
1321	 0.119711078983131 
1322	 0.119608932681231 
1323	 0.119495255363244 
1324	 0.119390712396651 
1325	 0.119294914034112 
1326	 0.119181906252334 
1327	 0.119079461249688 
1328	 0.11898461725754 
1329	 0.118866724382999 
1330	 0.118754707722667 
1331	 0.118638798077216 
1332	 0.118535156777577 
1333	 0.118426738666838 
1334	 0.118339123463703 
1335	 0.118275810585052 
1336	 0.118200014815577 
1337	 0.118134661553092 
1338	 0.118051065057388 
1339	 0.117947261141205 
1340	 0.117860851218742 
1341	 0.117791674283179 
1342	 0.117692018922392 
1343	 0.117572687139124 
1344	 0.117477439988386 
1345	 0.117365822701698 
1346	 0.117250736296742 
1347	 0.117168935016466 
1348	 0.117071066975743 
1349	 0.116952522221255 
1350	 0.116832884141582 
1351	 0.116720365519081 
1352	 0.116609418426977 
1353	 0.116498837997196 
1354	 0.116393103862467 
1355	 0.116280583674164 
1356	 0.116169020793917 
1357	 0.116046284120779 
1358	 0.115908389723295 
1359	 0.115787914001575 
1360	 0.115657767786251 
1361	 0.115547762060457 
1362	 0.115468606693625 
1363	 0.11537078757076 
1364	 0.115272555515799 
1365	 0.115173771024352 
1366	 0.115066844419134 
1367	 0.114967030707235 
1368	 0.114869109182172 
1369	 0.114754161145044 
1370	 0.114607789357018 
1371	 0.114439526141723 
1372	 0.114253122813161 
1373	 0.114032555285884 
1374	 0.113776356548671 
1375	 0.113500811029529 
1376	 0.113169599387919 
1377	 0.112790540380534 
1378	 0.112381411690161 
1379	 0.111930062911598 
1380	 0.111454020563254 
1381	 0.110933016656515 
1382	 0.110401272575338 
1383	 0.109856612943233 
1384	 0.10927331606988 
1385	 0.108689114769607 
1386	 0.108045410448982 
1387	 0.107348236508561 
1388	 0.10662636495461 
1389	 0.105880586739171 
1390	 0.105068966816692 
1391	 0.104213076668874 
1392	 0.103341833122887 
1393	 0.102417359895523 
1394	 0.101471025026912 
1395	 0.100530889339739 
1396	 9.95895415962502E-02 
1397	 9.86555250511451E-02 
1398	 9.77205697144172E-02 
1399	 9.67958104051458E-02 
1400	 9.58612561801232E-02 
1401	 9.49680925873047E-02 
1402	 9.40802344009144E-02 
1403	 9.32443687471919E-02 
1404	 9.24501717178596E-02 
1405	 9.16826321565467E-02 
1406	 9.09377992696263E-02 
1407	 9.02350176930071E-02 
1408	 8.95603826994274E-02 
1409	 8.89327027487693E-02 
1410	 8.83420372818653E-02 
1411	 8.78049976040428E-02 
1412	 8.73138781016726E-02 
1413	 8.68647667360666E-02 
1414	 8.64727528871188E-02 
1415	 8.61037020870069E-02 
1416	 8.57387568109406E-02 
1417	 8.54012528417275E-02 
1418	 8.50945350307099E-02 
1419	 8.48194005954708E-02 
1420	 8.45808697001501E-02 
1421	 8.43610428398719E-02 
1422	 8.41520124633652E-02 
1423	 8.39534105392227E-02 
1424	 8.37628908252775E-02 
1425	 8.35891346612709E-02 
1426	 8.34208167058024E-02 
1427	 8.32506280743079E-02 
1428	 8.31067594973272E-02 
1429	 8.29775858113242E-02 
1430	 8.28633578913856E-02 
1431	 8.27792574244157E-02 
1432	 8.26821238443111E-02 
1433	 8.25813845034324E-02 
1434	 0.082503581831622 
1435	 0.082431001580889 
1436	 8.23677993644236E-02 
1437	 8.23353630327734E-02 
1438	 8.22911572906305E-02 
1439	 8.22372432748443E-02 
1440	 8.21967594480866E-02 
1441	 8.21679343980659E-02 
1442	 0.082134772287109 
1443	 8.21282507803988E-02 
1444	 8.21253093730573E-02 
1445	 8.21245061304359E-02 
1446	 8.21300645532116E-02 
1447	 8.21387188013048E-02 
1448	 8.21544077094823E-02 
1449	 8.21582268396189E-02 
1450	 8.21698095464624E-02 
1451	 8.21797175668839E-02 
1452	 8.21762330113757E-02 
1453	 8.21956362751681E-02 
1454	 8.22255496625907E-02 
1455	 8.22604648716295E-02 
1456	 8.23127120918752E-02 
1457	 8.23576784823348E-02 
1458	 8.24020024541525E-02 
1459	 8.24540206344628E-02 
1460	 8.24927126594365E-02 
1461	 8.25669930123799E-02 
1462	 8.26652482939225E-02 
1463	 8.27659914654294E-02 
1464	 8.28871889139423E-02 
1465	 8.30120406039272E-02 
1466	 8.31384097776733E-02 
1467	 8.32748624311147E-02 
1468	 8.34216568003069E-02 
1469	 8.35827175181983E-02 
1470	 8.37523150413425E-02 
1471	 8.39338890955719E-02 
1472	 8.41289069048826E-02 
1473	 8.43275196686136E-02 
1474	 8.45198159126207E-02 
1475	 8.47151896407673E-02 
1476	 8.49252267235113E-02 
1477	 8.51382383351458E-02 
1478	 8.53708047115915E-02 
1479	 8.56082954789406E-02 
1480	 8.58383937082525E-02 
1481	 8.60801059498015E-02 
1482	 8.63061121819298E-02 
1483	 8.65181088787269E-02 
1484	 8.67434128831448E-02 
1485	 0.086961493510575 
1486	 8.71969437738868E-02 
1487	 8.74496877053446E-02 
1488	 8.76964268526269E-02 
1489	 8.79503345292639E-02 
1490	 8.82006506796745E-02 
1491	 0.088460447624553 
1492	 8.86964991579697E-02 
1493	 0.088916980085274 
1494	 8.91456722118806E-02 
1495	 8.93463706893097E-02 
1496	 8.95749335041225E-02 
1497	 8.98336290594554E-02 
1498	 9.00781675047098E-02 
1499	 0.090337068932578 
1500	 9.05815200697283E-02 
1501	 9.08060001096569E-02 
1502	 9.10364092722136E-02 
1503	 9.12656689573617E-02 
1504	 9.14867640324688E-02 
1505	 9.17178821578483E-02 
1506	 9.19579302963881E-02 
1507	 9.21823676005515E-02 
1508	 9.24084171839824E-02 
1509	 0.092625436489442 
1510	 9.28424451868655E-02 
1511	 0.093063147764189 
1512	 9.32759823101686E-02 
1513	 9.34915614843792E-02 
1514	 9.36972177016648E-02 
1515	 9.38967353783487E-02 
1516	 9.40924010430819E-02 
1517	 9.42872098821308E-02 
1518	 0.094477599305239 
1519	 9.46686515563727E-02 
1520	 9.48550727528921E-02 
1521	 0.095052136681811 
1522	 9.52551316781333E-02 
1523	 9.54465427705915E-02 
1524	 9.56370585043246E-02 
1525	 0.095832531518196 
1526	 9.60256685051273E-02 
1527	 9.62129169618582E-02 
1528	 9.64134212224221E-02 
1529	 9.65922748428981E-02 
1530	 9.67458009566357E-02 
1531	 9.69102302819459E-02 
1532	 9.70709929864205E-02 
1533	 9.72333199216862E-02 
1534	 9.73938724801636E-02 
1535	 9.75611290978848E-02 
1536	 9.77398417568915E-02 
1537	 9.79035459510305E-02 
1538	 9.80663872819789E-02 
1539	 9.82225630001953E-02 
1540	 9.83566533459347E-02 
1541	 9.85049421919261E-02 
1542	 9.86619745312393E-02 
1543	 9.88153287245177E-02 
1544	 9.89816362487339E-02 
1545	 9.91290631836872E-02 
1546	 9.92588071048997E-02 
1547	 0.0993959112416 
1548	 9.95332436392417E-02 
1549	 9.96612942306384E-02 
1550	 9.98004593974654E-02 
1551	 0.099935123065476 
1552	 0.100054712204576 
1553	 0.100185262551922 
1554	 0.100320697375331 
1555	 0.100441614124305 
1556	 0.10055774839272 
1557	 0.100679579354781 
1558	 0.100783252613744 
1559	 0.100878162704097 
1560	 0.100983975727223 
1561	 0.101088260662262 
1562	 0.101191291457519 
1563	 0.101302436497671 
1564	 0.101409333494897 
1565	 0.101512149047623 
1566	 0.101608850390941 
1567	 0.101704060973079 
1568	 0.101796852626614 
1569	 0.101885464467501 
1570	 0.101969443881178 
1571	 0.10205159161887 
1572	 0.102134908445229 
1573	 0.10221137149863 
1574	 0.102283807757042 
1575	 0.102352290831706 
1576	 0.102430709271062 
1577	 0.102508166048282 
1578	 0.102589256287277 
1579	 0.102689654104923 
1580	 0.102768630862132 
1581	 0.102827350729782 
1582	 0.102901249159427 
1583	 0.102976719516436 
1584	 0.103050959165396 
1585	 0.103135791275488 
1586	 0.103209091277782 
1587	 0.103274991708445 
1588	 0.103336485927595 
1589	 0.103393745258323 
1590	 0.103447975034258 
1591	 0.103491905979908 
1592	 0.103543305492822 
1593	 0.103598592172964 
1594	 0.103648291910497 
1595	 0.103700759577214 
1596	 0.103745849831519 
1597	 0.103779816339554 
1598	 0.103820395278423 
1599	 0.103862074509941 
1600	 0.103900857185208 
1601	 0.10393759993578 
1602	 0.103979056118107 
1603	 0.104029179685537 
1604	 0.104066549002134 
1605	 0.104093411870204 
1606	 0.104131137152776 
1607	 0.104170133967041 
1608	 0.104195735355906 
1609	 0.10425425695625 
1610	 0.10430503818885 
1611	 0.10432752154809 
1612	 0.104375094551862 
1613	 0.104402191487167 
1614	 0.104413709861482 
1615	 0.104443486231446 
1616	 0.104463512847214 
1617	 0.104494029941014 
1618	 0.104531126039435 
1619	 0.104559496116496 
1620	 0.104587467040313 
1621	 0.1046201469589 
1622	 0.10465514410167 
1623	 0.104682029803378 
1624	 0.104708846448551 
1625	 0.104735711997508 
1626	 0.104754121229441 
1627	 0.104778267907808 
1628	 0.104812984908049 
1629	 0.10483270526434 
1630	 0.104844719625035 
1631	 0.104853390835418 
1632	 0.104854687640947 
1633	 0.104863058777104 
1634	 0.104868530535598 
1635	 0.104877630509578 
1636	 0.104893354420025 
1637	 0.104897883008834 
1638	 0.104895318466045 
1639	 0.104903278051502 
1640	 0.104908559286653 
1641	 0.104923898238887 
1642	 0.104956661150757 
1643	 0.104966917753336 
1644	 0.104970496603338 
1645	 0.104973558559957 
1646	 0.104960907817317 
1647	 0.10496559158226 
1648	 0.104983303502463 
1649	 0.104988390098575 
1650	 0.104994612675509 
1651	 0.104995182033785 
1652	 0.104987334817286 
1653	 0.104980600448153 
1654	 0.104969415868605 
1655	 0.104966879649461 
1656	 0.104974475770178 
1657	 0.104960200063113 
1658	 0.104936803048215 
1659	 0.104922644012665 
1660	 0.104891287451706 
1661	 0.10487840831531 
1662	 0.104887847339043 
1663	 0.104886158690118 
1664	 0.104889786234163 
1665	 0.104874079229467 
1666	 0.104850641807529 
1667	 0.10482400338405 
1668	 0.104770851523631 
1669	 0.104745586008717 
1670	 0.104734972118138 
1671	 0.104720715620286 
1672	 0.104717035191693 
1673	 0.10470810732247 
1674	 0.104700585009411 
1675	 0.104683768360632 
1676	 0.104668073786889 
1677	 0.104639825839841 
1678	 0.104593914481762 
1679	 0.104557790017199 
1680	 0.104509788026371 
1681	 0.10448546332867 
1682	 0.104482229877407 
1683	 0.104463885230459 
1684	 0.104456349135801 
1685	 0.104433621456674 
1686	 0.104396614430037 
1687	 0.104358619397318 
1688	 0.104314091925681 
1689	 0.104274179157269 
1690	 0.104222002000029 
1691	 0.10418781605581 
1692	 0.1041778720677 
1693	 0.104140275105013 
1694	 0.104098668170507 
1695	 0.104054134885939 
1696	 0.103981552894854 
1697	 0.103936059655951 
1698	 0.103918026567587 
1699	 0.103869926325108 
1700	 0.103809290171034 
1701	 0.103763191881595 
1702	 0.103701142796507 
1703	 0.103661765026048 
1704	 0.10365705568444 
1705	 0.103620634458475 
1706	 0.103571450521263 
1707	 0.103528548854929 
1708	 0.103474555859721 
1709	 0.103430650978061 
1710	 0.103402870582115 
1711	 0.103357457211997 
1712	 0.10330561880132 
1713	 0.103250970528281 
1714	 0.103188649600746 
1715	 0.103121127812361 
1716	 0.103039466338633 
1717	 0.102980344606053 
1718	 0.102934096581451 
1719	 0.102870077352773 
1720	 0.102814104423094 
1721	 0.102745571075295 
1722	 0.102651581854606 
1723	 0.102574576961224 
1724	 0.102520912761763 
1725	 0.102431045361535 
1726	 0.102318578099636 
1727	 0.102215330785502 
1728	 0.102093415478737 
1729	 0.101988981277016 
1730	 0.10189402482309 
1731	 0.101809257931783 
1732	 0.101732304176417 
1733	 0.101650898547359 
1734	 0.101587429565606 
1735	 0.101501476134848 
1736	 0.101400003104292 
1737	 0.101296077701776 
1738	 0.101183535401591 
1739	 0.101077335434631 
1740	 0.10097066595729 
1741	 0.100860349399069 
1742	 0.100744174210666 
1743	 0.100639128482332 
1744	 0.100533817066276 
1745	 0.100434468632301 
1746	 0.100357505442226 
1747	 0.100254075008743 
1748	 0.100130315493458 
1749	 0.100004670298781 
1750	 9.98676019347995E-02 
1751	 9.97429678805364E-02 
1752	 0.099635661933585 
1753	 9.95535926442331E-02 
1754	 9.94775941032661E-02 
1755	 9.93809780678153E-02 
1756	 9.92770880876249E-02 
1757	 9.91458046850844E-02 
1758	 9.90091532201913E-02 
1759	 0.098895955651766 
1760	 9.87730195379498E-02 
1761	 9.86588563628456E-02 
1762	 9.85603999197016E-02 
1763	 9.84393237515367E-02 
1764	 9.83423782338596E-02 
1765	 9.82587950800487E-02 
1766	 9.81420093954766E-02 
1767	 9.80321694601083E-02 
1768	 9.79061743610281E-02 
1769	 9.77786113512926E-02 
1770	 9.76797528369219E-02 
1771	 9.75713943239731E-02 
1772	 9.74938713563799E-02 
1773	 9.74231936688439E-02 
1774	 9.73309875066983E-02 
1775	 9.72579739044098E-02 
1776	 9.71733057802315E-02 
1777	 9.70805717072352E-02 
1778	 9.70060493076232E-02 
1779	 9.69475389518872E-02 
1780	 9.68903473330708E-02 
1781	 9.68350310970888E-02 
1782	 0.096779490239043 
1783	 9.67078914972048E-02 
1784	 9.66406216706735E-02 
1785	 9.65671014099702E-02 
1786	 9.64980661895561E-02 
1787	 0.096429711651012 
1788	 9.63653493082554E-02 
1789	 9.63011693219346E-02 
1790	 9.62543876902181E-02 
1791	 9.62213382599265E-02 
1792	 9.61912389628698E-02 
1793	 9.61786187267891E-02 
1794	 9.61598676576222E-02 
1795	 9.61354851450125E-02 
1796	 9.61039462114169E-02 
1797	 9.60738456960671E-02 
1798	 0.09604395227119 
1799	 9.60031969744376E-02 
1800	 0.095977751343892 
1801	 9.39091837994274E-02 
1802	 9.39627147467216E-02 
1803	 9.40668660300464E-02 
1804	 9.41626015985749E-02 
1805	 9.42490526068299E-02 
1806	 9.43409782811376E-02 
1807	 9.43874230990666E-02 
1808	 9.44334909539508E-02 
1809	 9.44866039015754E-02 
1810	 9.45103478943962E-02 
1811	 0.09451669168005 
1812	 9.44912105378776E-02 
1813	 9.44579400188905E-02 
1814	 9.44581383945358E-02 
1815	 9.44591663836037E-02 
1816	 0.094448375171008 
1817	 9.44275671425768E-02 
1818	 9.43868676186191E-02 
1819	 9.43676649139292E-02 
1820	 9.43575345697265E-02 
1821	 9.43241400455189E-02 
1822	 9.42966265973657E-02 
1823	 9.42666236447713E-02 
1824	 9.41839520337313E-02 
1825	 9.41163584387153E-02 
1826	 9.40943073893851E-02 
1827	 9.40583595942619E-02 
1828	 9.40087400745669E-02 
1829	 9.39736650510761E-02 
1830	 9.39080822899546E-02 
1831	 9.38165854642335E-02 
1832	 9.37103038703788E-02 
1833	 9.36137945181646E-02 
1834	 0.093543715161676 
1835	 9.34673020009666E-02 
1836	 9.33904977844738E-02 
1837	 9.33008379701689E-02 
1838	 9.31732884597919E-02 
1839	 9.30830172837676E-02 
1840	 9.30141275765709E-02 
1841	 0.092937709934443 
1842	 9.28459406728622E-02 
1843	 9.27741979293235E-02 
1844	 9.26416670284313E-02 
1845	 9.24728780026027E-02 
1846	 9.23377598469581E-02 
1847	 0.092203965980852 
1848	 9.20453550273287E-02 
1849	 9.19040327686184E-02 
1850	 9.17391783166831E-02 
1851	 9.15595626767714E-02 
1852	 9.13347247671581E-02 
1853	 9.11247716097894E-02 
1854	 9.08808713324713E-02 
1855	 9.05854228222803E-02 
1856	 9.02722523218075E-02 
1857	 8.99359985897122E-02 
1858	 8.95752369893622E-02 
1859	 8.92063629216686E-02 
1860	 0.088800867574648 
1861	 8.83763867163587E-02 
1862	 8.79092831677142E-02 
1863	 0.087397396375349 
1864	 8.68280796382151E-02 
1865	 8.62334086373207E-02 
1866	 8.55754518725944E-02 
1867	 8.48838011112849E-02 
1868	 8.41771958588649E-02 
1869	 8.34132023081908E-02 
1870	 8.26277181127453E-02 
1871	 8.17945427167267E-02 
1872	 8.09160107959887E-02 
1873	 8.00054308513244E-02 
1874	 7.90957530808258E-02 
1875	 7.81527205212886E-02 
1876	 7.72021418412967E-02 
1877	 7.62150954292359E-02 
1878	 0.075168484891438 
1879	 7.40871920596944E-02 
1880	 7.29579040162587E-02 
1881	 7.17633132735652E-02 
1882	 7.05583844910943E-02 
1883	 6.93131202931951E-02 
1884	 6.80333432341104E-02 
1885	 6.67514466374063E-02 
1886	 6.54694419980899E-02 
1887	 6.41742111983337E-02 
1888	 6.28744319682515E-02 
1889	 6.15624631711003E-02 
1890	 6.02868563909274E-02 
1891	 5.90612781994215E-02 
1892	 5.78562497805456E-02 
1893	 5.67016734006856E-02 
1894	 5.56004183994614E-02 
1895	 5.45252892761867E-02 
1896	 5.34824045266834E-02 
1897	 5.25101539243833E-02 
1898	 5.15750140492116E-02 
1899	 5.07007112508617E-02 
1900	 4.99051124593801E-02 
1901	 4.91647533596717E-02 
1902	 0.048474983346518 
1903	 4.78616598804028E-02 
1904	 0.047290005895373 
1905	 4.67655084808478E-02 
1906	 4.62858313806455E-02 
1907	 0.045872605413562 
1908	 4.54782534471206E-02 
1909	 4.51139043052643E-02 
1910	 4.47683063440356E-02 
1911	 4.44604762121511E-02 
1912	 4.42181544386591E-02 
1913	 4.39722819512308E-02 
1914	 4.37552986039983E-02 
1915	 4.35552712888745E-02 
1916	 0.043377826031607 
1917	 4.31832831540216E-02 
1918	 4.30292893765245E-02 
1919	 4.29233311798355E-02 
1920	 4.28180486242873E-02 
1921	 4.27314732150411E-02 
1922	 4.26600464286366E-02 
1923	 4.25871681970167E-02 
1924	 4.25267018454116E-02 
1925	 4.24587962876183E-02 
1926	 0.042430700158873 
1927	 4.24303844703456E-02 
1928	 4.24375938967127E-02 
1929	 0.042458181811985 
1930	 4.24877677582407E-02 
1931	 4.24957613795808E-02 
1932	 4.25096183505618E-02 
1933	 4.25402010175638E-02 
1934	 4.25845116907565E-02 
1935	 4.26324045031752E-02 
1936	 4.26862131270358E-02 
1937	 4.27534857401168E-02 
1938	 0.042830226681395 
1939	 4.29126336597984E-02 
1940	 4.30023679284747E-02 
1941	 0.043110854654122 
1942	 0.043225718981928 
1943	 4.33458775402079E-02 
1944	 4.34786652645344E-02 
1945	 4.36179776113347E-02 
1946	 4.37418543316998E-02 
1947	 4.38399546580344E-02 
1948	 4.39693926666125E-02 
1949	 4.41030511413547E-02 
1950	 4.42499886104495E-02 
1951	 4.44156157928187E-02 
1952	 0.044600147717838 
1953	 4.47698332059585E-02 
1954	 4.49270407328543E-02 
1955	 4.50602682236134E-02 
1956	 4.51979209676333E-02 
1957	 4.53607340940075E-02 
1958	 4.55208482576967E-02 
1959	 4.57027810005165E-02 
1960	 4.59306852130188E-02 
1961	 4.61344287265192E-02 
1962	 4.63359216604483E-02 
1963	 4.65381730853873E-02 
1964	 4.67349887900768E-02 
1965	 4.69337773752178E-02 
1966	 4.71403552921524E-02 
1967	 4.73511204290236E-02 
1968	 4.75566015743395E-02 
1969	 4.77601166168454E-02 
1970	 4.79663254658179E-02 
1971	 4.81684256100738E-02 
1972	 4.83794873921716E-02 
1973	 4.86017471608533E-02 
1974	 4.88204121328846E-02 
1975	 4.90420896386664E-02 
1976	 4.92550155780636E-02 
1977	 4.94777223974558E-02 
1978	 4.97039126749874E-02 
1979	 4.99421389172271E-02 
1980	 5.01844457651708E-02 
1981	 5.04200491931788E-02 
1982	 0.050664308587736 
1983	 5.08872709155994E-02 
1984	 5.10895994298533E-02 
1985	 5.13077341472748E-02 
1986	 5.15178464939955E-02 
1987	 5.17370519292775E-02 
1988	 5.19620647251565E-02 
1989	 5.22006337892113E-02 
1990	 5.24417991771421E-02 
1991	 5.26675955240047E-02 
1992	 5.28921565512976E-02 
1993	 5.31061324426882E-02 
1994	 5.33439600035339E-02 
1995	 5.35917148853777E-02 
1996	 5.38287401499315E-02 
1997	 5.40830834138532E-02 
1998	 5.43238808203139E-02 
1999	 5.45438640346206E-02 
2000	 5.47693666279546E-02 
2001	 0.05499845504915 
2002	 5.52258896711821E-02 
2003	 5.54597782050337E-02 
2004	 5.56906881381549E-02 
2005	 5.59135631951958E-02 
2006	 5.61366991939214E-02 
2007	 5.63619108289837E-02 
2008	 0.056570669420831 
2009	 5.67968311458464E-02 
2010	 5.70465500132442E-02 
2011	 0.05728028247572 
2012	 5.75063777880248E-02 
2013	 5.77358401715247E-02 
2014	 5.79590636553084E-02 
2015	 5.81903692768859E-02 
2016	 5.84173537838018E-02 
2017	 5.86485751776199E-02 
2018	 5.88816018885911E-02 
2019	 5.91176161042705E-02 
2020	 5.93456205559167E-02 
2021	 5.95723202297292E-02 
2022	 5.98029395363658E-02 
2023	 6.00378246273715E-02 
2024	 6.02591745376858E-02 
2025	 6.04762323694397E-02 
2026	 6.06930802857887E-02 
2027	 6.09015330749011E-02 
2028	 6.10975770298924E-02 
2029	 6.13152113340306E-02 
2030	 6.15508312134698E-02 
2031	 0.061768792314594 
2032	 6.19960184842983E-02 
2033	 6.22002250066927E-02 
2034	 6.23830797008135E-02 
2035	 6.25729849556354E-02 
2036	 6.27455537546647E-02 
2037	 6.29339585563462E-02 
2038	 6.31312206305832E-02 
2039	 6.33288182316594E-02 
2040	 0.063530838541395 
2041	 6.37438266277715E-02 
2042	 6.39378561010571E-02 
2043	 6.41126605643086E-02 
2044	 6.42978112092323E-02 
2045	 0.064469123760557 
2046	 6.46533254683853E-02 
2047	 6.48510969777104E-02 
2048	 6.50407389073537E-02 
2049	 6.52276111877794E-02 
2050	 6.54162088979181E-02 
2051	 6.56015850076459E-02 
2052	 6.57913607953654E-02 
2053	 6.59921550291526E-02 
2054	 6.61793288708077E-02 
2055	 6.63572631080161E-02 
2056	 0.066545444395901 
2057	 6.67208705114587E-02 
2058	 6.68734705943587E-02 
2059	 6.70582163083509E-02 
2060	 6.72652741989983E-02 
2061	 6.74453787479827E-02 
2062	 6.76247094908595E-02 
2063	 6.78072313320357E-02 
2064	 6.79779935229916E-02 
2065	 6.81465683786833E-02 
2066	 6.83267538664717E-02 
2067	 6.84974920949234E-02 
2068	 6.86582030001905E-02 
2069	 6.88033034137782E-02 
2070	 6.89615964763712E-02 
2071	 6.91247242481146E-02 
2072	 6.92899111816812E-02 
2073	 6.94530453198347E-02 
2074	 6.96250258810177E-02 
2075	 6.98101467597605E-02 
2076	 6.99809393640544E-02 
2077	 7.01549107837852E-02 
2078	 7.03189668223617E-02 
2079	 7.04696974544176E-02 
2080	 7.06235693316191E-02 
2081	 7.07663993472757E-02 
2082	 7.09205724491236E-02 
2083	 7.10694131463061E-02 
2084	 7.12444219186752E-02 
2085	 7.14041595694421E-02 
2086	 7.15691866084632E-02 
2087	 7.17292262628197E-02 
2088	 7.18850902101672E-02 
2089	 7.20377345164648E-02 
2090	 7.21898549737959E-02 
2091	 7.23423923271097E-02 
2092	 0.072497309035701 
2093	 7.26378786473999E-02 
2094	 7.27641458101122E-02 
2095	 7.29047058258414E-02 
2096	 7.30361135075413E-02 
2097	 7.31749705803258E-02 
2098	 7.33318510218521E-02 
2099	 7.34930622106129E-02 
2100	 7.36308467382518E-02 
2101	 7.37576334638563E-02 
2102	 7.38841197668757E-02 
2103	 7.39923870622415E-02 
2104	 0.0741174472351 
2105	 7.42369392889799E-02 
2106	 7.43793599207533E-02 
2107	 7.45484201386182E-02 
2108	 0.074698066892039 
2109	 7.48578877231222E-02 
2110	 0.075007332026 
2111	 7.51357904730369E-02 
2112	 7.52735691288253E-02 
2113	 7.54142622180841E-02 
2114	 0.075558947086764 
2115	 7.56981524851359E-02 
2116	 7.58417698879503E-02 
2117	 7.59672265340687E-02 
2118	 0.076082537966854 
2119	 7.61975760493804E-02 
2120	 7.62918231841521E-02 
2121	 7.64102303024972E-02 
2122	 7.65501117421835E-02 
2123	 7.66672168919565E-02 
2124	 7.67929884793548E-02 
2125	 7.68967958217702E-02 
2126	 7.69701740504048E-02 
2127	 7.70532999505838E-02 
2128	 7.71138547453234E-02 
2129	 7.72013196452293E-02 
2130	 7.73056090961761E-02 
2131	 7.74167093716432E-02 
2132	 0.077516115060419 
2133	 7.76349717164129E-02 
2134	 7.77242323927446E-02 
2135	 7.77836338255838E-02 
2136	 7.78615433707731E-02 
2137	 7.79538921516657E-02 
2138	 7.80142550421977E-02 
2139	 7.80649547013955E-02 
2140	 7.81060997569286E-02 
2141	 7.81117545275584E-02 
2142	 7.81360086527691E-02 
2143	 7.81705008496842E-02 
2144	 7.81960418944073E-02 
2145	 7.82252137435611E-02 
2146	 7.82420011896449E-02 
2147	 7.82270039704199E-02 
2148	 7.82409226381252E-02 
2149	 7.82646733898766E-02 
2150	 7.83005601531709E-02 
2151	 7.83206194639561E-02 
2152	 7.83619689013826E-02 
2153	 7.83730443686693E-02 
2154	 7.83555632400769E-02 
2155	 7.83457435245711E-02 
2156	 7.83388861637895E-02 
2157	 7.83144812972475E-02 
2158	 7.82751077725315E-02 
2159	 7.82352794829304E-02 
2160	 7.81815474750089E-02 
2161	 0.078131407079163 
2162	 7.80679564633752E-02 
2163	 7.80239664665514E-02 
2164	 7.79886908928522E-02 
2165	 7.79617135607411E-02 
2166	 0.077929949287577 
2167	 0.077920280110015 
2168	 7.78773251052258E-02 
2169	 0.07781377763483 
2170	 7.77569259733158E-02 
2171	 7.76853991324599E-02 
2172	 7.76270982415118E-02 
2173	 7.75731138293467E-02 
2174	 0.077519652228094 
2175	 7.74741205633038E-02 
2176	 7.74201981861727E-02 
2177	 7.73627132950769E-02 
2178	 7.73078149138123E-02 
2179	 7.72743107582741E-02 
2180	 7.72004299785339E-02 
2181	 7.70857146828566E-02 
2182	 7.69960960087869E-02 
2183	 7.68935035332832E-02 
2184	 0.076785551412534 
2185	 7.66995152415447E-02 
2186	 7.66475679669511E-02 
2187	 7.65765883364675E-02 
2188	 7.64969146517272E-02 
2189	 7.64250867741095E-02 
2190	 7.63642683310484E-02 
2191	 7.62967543572449E-02 
2192	 7.62210517693654E-02 
2193	 7.61585374064959E-02 
2194	 7.60973521840163E-02 
2195	 7.60420718595773E-02 
2196	 0.075984350808781 
2197	 7.59497707448545E-02 
2198	 7.59383144105168E-02 
2199	 7.59213967770194E-02 
2200	 7.59306661992469E-02 
2201	 7.59241138346027E-02 
2202	 7.59110008921722E-02 
2203	 7.58777245523373E-02 
2204	 7.58609537593771E-02 
2205	 7.58430075507919E-02 
2206	 7.58255938913336E-02 
2207	 7.58068030593969E-02 
2208	 7.58052352578962E-02 
2209	 7.58147465984689E-02 
2210	 7.58145262841362E-02 
2211	 7.58211266345951E-02 
2212	 7.58308634129565E-02 
2213	 7.58366720829607E-02 
2214	 7.58394680059681E-02 
2215	 7.58503943395672E-02 
2216	 7.58576161336968E-02 
2217	 7.58552680932672E-02 
2218	 7.58545404882775E-02 
2219	 0.075854259943401 
2220	 7.58618165523857E-02 
2221	 0.075889230445908 
2222	 0.075876891448753 
2223	 7.58801549613041E-02 
2224	 7.58843080316998E-02 
2225	 7.58759064605207E-02 
2226	 7.58454144831941E-02 
2227	 7.58427126336375E-02 
2228	 7.58495582541459E-02 
2229	 7.58509249098707E-02 
2230	 7.58641311974881E-02 
2231	 7.58633686973946E-02 
2232	 7.58512686662297E-02 
2233	 7.58467483907644E-02 
2234	 7.58466675112339E-02 
2235	 7.58329029483591E-02 
2236	 7.58240871966635E-02 
2237	 7.57960923921718E-02 
2238	 7.57404068473572E-02 
2239	 7.56994580520657E-02 
2240	 7.56549190006548E-02 
2241	 7.56085315432558E-02 
2242	 7.55564158883563E-02 
2243	 7.55233305599021E-02 
2244	 7.55032551675381E-02 
2245	 7.54809779396386E-02 
2246	 7.54510191084175E-02 
2247	 7.53979352875357E-02 
2248	 7.53689238661614E-02 
2249	 7.53355149248841E-02 
2250	 7.52864857226171E-02 
2251	 7.52514320541608E-02 
2252	 0.075204577450603 
2253	 7.51220983659222E-02 
2254	 7.50615997786583E-02 
2255	 7.50107287883735E-02 
2256	 7.49765888836932E-02 
2257	 7.49520337092348E-02 
2258	 7.49202793611519E-02 
2259	 7.49051995263144E-02 
2260	 7.48834329202038E-02 
2261	 7.48581702911414E-02 
2262	 7.48165398752685E-02 
2263	 0.074774404638497 
2264	 7.47317032052543E-02 
2265	 7.46658280170438E-02 
2266	 7.46050243648498E-02 
2267	 7.45627881058858E-02 
2268	 7.45026916770034E-02 
2269	 0.074426097269478 
2270	 7.43408303079701E-02 
2271	 7.42923754998217E-02 
2272	 7.42222885027206E-02 
2273	 7.41493470070203E-02 
2274	 7.41070157147413E-02 
2275	 7.40470073310563E-02 
2276	 7.39545396953699E-02 
2277	 7.39245640139132E-02 
2278	 0.073935946482675 
2279	 7.39165008509551E-02 
2280	 7.39422851289741E-02 
2281	 7.38858471073575E-02 
2282	 7.37660047245652E-02 
2283	 7.36741499744799E-02 
2284	 7.35456609640798E-02 
2285	 7.34459645126976E-02 
2286	 7.33636206004788E-02 
2287	 7.32812382076613E-02 
2288	 7.32121509726127E-02 
2289	 7.31308548250542E-02 
2290	 7.30434702075254E-02 
2291	 7.29747065571655E-02 
2292	 7.29068939479061E-02 
2293	 7.28290807862842E-02 
2294	 7.27563685716769E-02 
2295	 7.26932560828656E-02 
2296	 0.072617844475793 
2297	 7.25700451558464E-02 
2298	 7.25210124111892E-02 
2299	 7.24360421237093E-02 
2300	 7.23549585019604E-02 
2301	 7.22988975177135E-02 
2302	 7.22021435728951E-02 
2303	 7.21224148310133E-02 
2304	 7.20405823849293E-02 
2305	 7.18914041211906E-02 
2306	 7.17992080314199E-02 
2307	 7.17495356324214E-02 
2308	 7.16721303058301E-02 
2309	 7.15979304968149E-02 
2310	 7.15188821076705E-02 
2311	 7.14288297044705E-02 
2312	 7.13338745309078E-02 
2313	 7.12420110501787E-02 
2314	 7.11325882339151E-02 
2315	 7.10207579099086E-02 
2316	 7.08927898897944E-02 
2317	 7.07218716800836E-02 
2318	 7.05959735413523E-02 
2319	 0.070487820825395 
2320	 7.03571601794745E-02 
2321	 7.02096384424373E-02 
2322	 7.01187055752509E-02 
2323	 0.070048052066456 
2324	 6.99773704417295E-02 
2325	 0.069992529811495 
2326	 6.99396457062783E-02 
2327	 0.069848062605555 
2328	 6.97169905811182E-02 
2329	 6.95996072198281E-02 
2330	 6.94939686126534E-02 
2331	 6.93720233961976E-02 
2332	 6.92630093950621E-02 
2333	 6.91299712028721E-02 
2334	 0.068974414007043 
2335	 6.88590236635341E-02 
2336	 6.87345800683761E-02 
2337	 0.068606707520713 
2338	 6.85179350239218E-02 
2339	 6.84381417010236E-02 
2340	 6.83517510317251E-02 
2341	 6.82366652300342E-02 
2342	 6.81071127631868E-02 
2343	 6.79893323165495E-02 
2344	 6.78556359058561E-02 
2345	 6.77263291527694E-02 
2346	 6.76307564434294E-02 
2347	 6.75154422110239E-02 
2348	 6.73647082186524E-02 
2349	 6.72348160478138E-02 
2350	 6.71325353164169E-02 
2351	 6.69962220620824E-02 
2352	 6.68412208776361E-02 
2353	 6.67038768325083E-02 
2354	 6.65463349555144E-02 
2355	 6.64298806386744E-02 
2356	 6.63624300229417E-02 
2357	 6.62286317261868E-02 
2358	 6.60755298947539E-02 
2359	 6.59358910904687E-02 
2360	 6.57389619687795E-02 
2361	 6.56101717584108E-02 
2362	 6.55781487429138E-02 
2363	 6.54666229428829E-02 
2364	 0.065341869745142 
2365	 6.51887987741416E-02 
2366	 6.49453048522927E-02 
2367	 6.47745001223263E-02 
2368	 6.46299803882979E-02 
2369	 6.44953053945592E-02 
2370	 6.44217773787876E-02 
2371	 6.42789449728796E-02 
2372	 6.41374030022605E-02 
2373	 6.41014621826891E-02 
2374	 6.39960227799135E-02 
2375	 6.38920417476819E-02 
2376	 6.37782290081974E-02 
2377	 6.35268563183166E-02 
2378	 6.33259858936466E-02 
2379	 6.31950303699197E-02 
2380	 6.30536111192363E-02 
2381	 6.29296972281122E-02 
2382	 6.27907979932433E-02 
2383	 6.26172548855514E-02 
2384	 6.24232835969296E-02 
2385	 6.22239419718798E-02 
2386	 6.20249766683402E-02 
2387	 0.061861571461417 
2388	 6.17151701410036E-02 
2389	 6.15534615112374E-02 
2390	 6.13617285066057E-02 
2391	 6.11502368235905E-02 
2392	 6.10122207583477E-02 
2393	 6.09412294554911E-02 
2394	 0.06080142157974 
2395	 6.06277094551609E-02 
2396	 6.04831994313436E-02 
2397	 6.02271833663561E-02 
2398	 6.00475499062543E-02 
2399	 6.00295691798413E-02 
2400	 5.98991282690303E-02 
2401	 0.059748302157851 
2402	 5.96698191119008E-02 
2403	 5.94677276191097E-02 
2404	 5.92501475945936E-02 
2405	 5.91302828975701E-02 
2406	 5.88568355561501E-02 
2407	 0.058589436611615 
2408	 5.84438381102644E-02 
2409	 5.81879027470466E-02 
2410	 5.80060650145464E-02 
2411	 5.79480546132876E-02 
2412	 5.77782662194442E-02 
2413	 5.75929701745589E-02 
2414	 5.74377806948279E-02 
2415	 0.057236758031083 
2416	 5.70722249838038E-02 
2417	 5.69052156695686E-02 
2418	 5.68009807788827E-02 
2419	 5.68242569603649E-02 
2420	 5.66682021587823E-02 
2421	 5.64471131600545E-02 
2422	 5.62202000350363E-02 
2423	 0.05582917263155 
2424	 5.55803032538169E-02 
2425	 5.54498061213759E-02 
2426	 5.53002000174861E-02 
2427	 0.055166455143503 
2428	 5.50013810784095E-02 
2429	 0.054794274242665 
2430	 5.46661126626278E-02 
2431	 5.46545407997509E-02 
2432	 5.44705466071152E-02 
2433	 5.42355165399887E-02 
2434	 5.39978303860551E-02 
2435	 5.35746395363104E-02 
2436	 5.33566307248166E-02 
2437	 5.33151067026822E-02 
2438	 5.31670059584772E-02 
2439	 0.05298624437981 
2440	 5.28758046573018E-02 
2441	 5.28367863781559E-02 
2442	 5.27105183603617E-02 
2443	 5.26009949372125E-02 
2444	 5.24357926176411E-02 
2445	 5.21092741302687E-02 
2446	 5.19173285035987E-02 
2447	 5.18252996850525E-02 
2448	 5.16571257592457E-02 
2449	 5.15198053378545E-02 
2450	 5.12571039522067E-02 
2451	 5.08482033918415E-02 
2452	 5.06504518133043E-02 
2453	 5.05007271256402E-02 
2454	 5.03608304542433E-02 
2455	 5.03193671715345E-02 
2456	 5.02522098144823E-02 
2457	 5.01987727736743E-02 
2458	 5.00681989801742E-02 
2459	 4.99510794884333E-02 
2460	 4.98097308369585E-02 
2461	 4.95425777453719E-02 
2462	 4.92659017696147E-02 
2463	 4.90498301888667E-02 
2464	 4.88158239899042E-02 
2465	 4.84491697357223E-02 
2466	 4.82994264632771E-02 
2467	 4.82578288609152E-02 
2468	 4.82017353471768E-02 
2469	 0.048279520153262 
2470	 0.048146974773865 
2471	 4.80450430827957E-02 
2472	 4.78194483661981E-02 
2473	 4.76844455476677E-02 
2474	 4.75795130887928E-02 
2475	 0.047533340187114 
2476	 4.74625573336055E-02 
2477	 4.72129018730803E-02 
2478	 4.70390248743222E-02 
2479	 4.66406059429976E-02 
2480	 4.61900169915294E-02 
2481	 4.61376281266008E-02 
2482	 4.62241851039876E-02 
2483	 4.64427618691514E-02 
2484	 4.66705215112594E-02 
2485	 4.65954697791403E-02 
2486	 4.63864378799571E-02 
2487	 4.62258492360025E-02 
2488	 4.59936274369517E-02 
2489	 4.57593579104223E-02 
2490	 4.55290739874167E-02 
2491	 4.50991115992217E-02 
2492	 4.49569162283857E-02 
2493	 4.50039762325859E-02 
2494	 4.48434096272238E-02 
2495	 4.48235556434764E-02 
2496	 4.46502849053674E-02 
2497	 4.43847589209797E-02 
2498	 4.42516844329773E-02 
2499	 4.41406167970349E-02 
2500	 4.42855920154396E-02 
