Wavelength	MM_3500002.asd
350	 4.14016415288527E-02 
351	 0.044441768939343 
352	 0.043017739652445 
353	 3.87841484623216E-02 
354	 4.07378539200043E-02 
355	 3.43377910736907E-02 
356	 3.05975017469036E-02 
357	 0.039677968052717 
358	 0.045266348309866 
359	 4.22489871146178E-02 
360	 3.65811722142356E-02 
361	 3.90964502172417E-02 
362	 3.30175783026629E-02 
363	 3.21127817442498E-02 
364	 3.87523163779356E-02 
365	 3.16323615888277E-02 
366	 3.13608412147909E-02 
367	 3.40722037835701E-02 
368	 3.26528385868095E-02 
369	 3.53626675050564E-02 
370	 3.59550050139729E-02 
371	 3.47709869755581E-02 
372	 3.63772937246815E-02 
373	 3.63492104416267E-02 
374	 3.64928099762773E-02 
375	 3.75173145569169E-02 
376	 3.69865005878118E-02 
377	 0.033846290536407 
378	 3.32508582031538E-02 
379	 3.86959788019548E-02 
380	 3.97756518926057E-02 
381	 3.64776688867599E-02 
382	 3.41689161942059E-02 
383	 4.04005864776338E-02 
384	 4.06070437818592E-02 
385	 3.77273882044512E-02 
386	 0.036234978043458 
387	 3.85498816214827E-02 
388	 4.03146564462022E-02 
389	 4.05214151826401E-02 
390	 3.97402687773785E-02 
391	 4.00974778902063E-02 
392	 4.01292486326578E-02 
393	 4.11096064192859E-02 
394	 4.60916174667673E-02 
395	 4.62401715300075E-02 
396	 4.46960074999633E-02 
397	 4.48827946582124E-02 
398	 4.66668434767149E-02 
399	 4.67911425327372E-02 
400	 4.69353722280912E-02 
401	 0.049440115396442 
402	 4.91693614286022E-02 
403	 4.88309724902897E-02 
404	 4.96625060634484E-02 
405	 0.050913883654678 
406	 5.23069257053506E-02 
407	 5.35699766606144E-02 
408	 5.41248259820241E-02 
409	 5.21710686273384E-02 
410	 5.16899403967101E-02 
411	 0.05260155935493 
412	 5.30953015763407E-02 
413	 5.45248220149339E-02 
414	 5.48807493663591E-02 
415	 0.053950844364892 
416	 5.40656196406479E-02 
417	 5.40693327934592E-02 
418	 5.45203971629458E-02 
419	 0.055668040297397 
420	 5.55066715986823E-02 
421	 5.49879900475045E-02 
422	 5.47254800887534E-02 
423	 5.49679848980763E-02 
424	 0.054998324170073 
425	 5.48805897392851E-02 
426	 5.46463738164401E-02 
427	 0.053991047613472 
428	 0.053848783968199 
429	 5.36801707757096E-02 
430	 5.28505963316904E-02 
431	 5.27925302589695E-02 
432	 5.28036566414034E-02 
433	 5.27130612831202E-02 
434	 5.29353508497193E-02 
435	 5.29147227788681E-02 
436	 5.29848747573751E-02 
437	 5.33220327337372E-02 
438	 5.32177440413147E-02 
439	 5.31364845153857E-02 
440	 5.33872744860105E-02 
441	 0.0540668052334 
442	 5.42692865518061E-02 
443	 5.45366345658416E-02 
444	 0.054956856242122 
445	 5.46840965457234E-02 
446	 5.49951910838208E-02 
447	 5.56393591590303E-02 
448	 5.60586197552675E-02 
449	 5.64286938889458E-02 
450	 0.056965976832738 
451	 5.75030600469833E-02 
452	 5.75893668836639E-02 
453	 5.76873628561471E-02 
454	 5.78645901043644E-02 
455	 5.80587395549683E-02 
456	 5.80508991804583E-02 
457	 5.81882354711578E-02 
458	 5.84572032760743E-02 
459	 5.86636560461804E-02 
460	 5.86474952017522E-02 
461	 5.86183972669639E-02 
462	 5.87308004577612E-02 
463	 5.90138315969604E-02 
464	 5.93488164572648E-02 
465	 0.059516073306972 
466	 5.94352169050918E-02 
467	 5.96523976411481E-02 
468	 5.98636332542244E-02 
469	 5.99469743283218E-02 
470	 5.99575470454751E-02 
471	 6.00572091084399E-02 
472	 0.060166481769797 
473	 6.02117830812687E-02 
474	 0.060242636677616 
475	 6.01849989598826E-02 
476	 6.01345528460618E-02 
477	 6.02232786642288E-02 
478	 6.02492315081894E-02 
479	 6.03750595015845E-02 
480	 6.05352605786186E-02 
481	 6.03031587215569E-02 
482	 6.03025463788796E-02 
483	 6.04832977562005E-02 
484	 6.06215403612855E-02 
485	 6.06288540168333E-02 
486	 6.06556418805317E-02 
487	 6.06773675864468E-02 
488	 6.05428551345694E-02 
489	 6.05999639605622E-02 
490	 6.07515283083721E-02 
491	 6.08639799468448E-02 
492	 6.09307957555232E-02 
493	 6.08707804510726E-02 
494	 6.07994786164143E-02 
495	 6.09022215172167E-02 
496	 6.11274393300652E-02 
497	 0.061187847525138 
498	 6.10827513363286E-02 
499	 6.12653113846525E-02 
500	 6.13312031374451E-02 
501	 6.12374536368769E-02 
502	 6.10814753230457E-02 
503	 6.10432957118089E-02 
504	 6.11898947750758E-02 
505	 6.13889778774027E-02 
506	 6.13560004100355E-02 
507	 6.13873740435215E-02 
508	 6.14991399227704E-02 
509	 6.15961222958232E-02 
510	 6.14048121162402E-02 
511	 6.14049092629003E-02 
512	 6.15350399089983E-02 
513	 6.14845835456886E-02 
514	 6.15576574879166E-02 
515	 6.16435829832501E-02 
516	 6.16709524038774E-02 
517	 6.17189034741196E-02 
518	 6.16542091547838E-02 
519	 6.16188762235129E-02 
520	 6.17651684189129E-02 
521	 6.18107544754452E-02 
522	 6.18480015680138E-02 
523	 6.18553361295219E-02 
524	 6.16783110356831E-02 
525	 6.17439213370904E-02 
526	 6.18778686953601E-02 
527	 6.18734115634505E-02 
528	 6.18728742055048E-02 
529	 6.18976888996651E-02 
530	 6.19553373401496E-02 
531	 6.20340842071634E-02 
532	 6.20281232456433E-02 
533	 6.20166669908872E-02 
534	 6.20598140550685E-02 
535	 6.21299355090168E-02 
536	 6.21597395695448E-02 
537	 6.21825432555613E-02 
538	 6.22649576750993E-02 
539	 6.23921150045295E-02 
540	 0.062484149919363 
541	 6.25179747964581E-02 
542	 6.25493165046136E-02 
543	 0.062590637365708 
544	 6.26513057886236E-02 
545	 6.27294520709669E-02 
546	 6.27976071932992E-02 
547	 6.28376779500287E-02 
548	 0.06290492980768 
549	 6.30995361996835E-02 
550	 6.31464212732416E-02 
551	 0.06315593354092 
552	 6.32529988870087E-02 
553	 6.34147020209459E-02 
554	 6.35486067768599E-02 
555	 6.36858606276397E-02 
556	 6.39037595550955E-02 
557	 6.40378338875509E-02 
558	 6.41908763293357E-02 
559	 6.44282097980007E-02 
560	 6.47054535206337E-02 
561	 6.49272883481571E-02 
562	 6.51223182134066E-02 
563	 6.53538824021173E-02 
564	 6.55914820243111E-02 
565	 6.58410933017743E-02 
566	 6.60886660668491E-02 
567	 6.62979512123852E-02 
568	 6.66359212108988E-02 
569	 0.067022485812649 
570	 6.73619660209404E-02 
571	 6.77209147428353E-02 
572	 0.068111638588888 
573	 6.85326054635022E-02 
574	 6.89688116425278E-02 
575	 6.93780476313657E-02 
576	 0.069785753551585 
577	 7.02121965511625E-02 
578	 7.06382861567953E-02 
579	 7.11110967109125E-02 
580	 7.15674246341138E-02 
581	 7.19401606934032E-02 
582	 7.24914619365161E-02 
583	 7.30397227446353E-02 
584	 7.35156695223205E-02 
585	 7.40637175862291E-02 
586	 0.074689988639051 
587	 7.52805248333862E-02 
588	 7.57559057678724E-02 
589	 7.63621127584434E-02 
590	 7.69964778714794E-02 
591	 7.76071281164545E-02 
592	 7.82018056429689E-02 
593	 7.87518920080339E-02 
594	 7.93587214649752E-02 
595	 8.00570899065724E-02 
596	 8.06479711327261E-02 
597	 0.081192818814744 
598	 8.17042144764162E-02 
599	 8.21805299041775E-02 
600	 0.082685034235696 
601	 8.31643200755153E-02 
602	 8.35991468689923E-02 
603	 8.40556745711275E-02 
604	 8.45582918676953E-02 
605	 8.50629184054392E-02 
606	 8.55070705300982E-02 
607	 8.58865864913344E-02 
608	 8.62960841994495E-02 
609	 8.67474939781994E-02 
610	 0.087152632518592 
611	 8.74921260962186E-02 
612	 8.77964458276599E-02 
613	 8.81087561258157E-02 
614	 8.84777042067122E-02 
615	 8.87438651857147E-02 
616	 8.89275969125902E-02 
617	 8.91727700311527E-02 
618	 8.94916906298265E-02 
619	 8.97320083930127E-02 
620	 8.98496176142506E-02 
621	 9.00877910079472E-02 
622	 9.03085539263193E-02 
623	 9.04953122977401E-02 
624	 9.06761539810507E-02 
625	 9.08570117341038E-02 
626	 9.10610347751005E-02 
627	 9.12637006372473E-02 
628	 9.13775112700352E-02 
629	 9.14867261077785E-02 
630	 9.16458051454219E-02 
631	 9.18567545856218E-02 
632	 9.19556163457714E-02 
633	 9.20654371150533E-02 
634	 9.22037510423139E-02 
635	 9.23050775766369E-02 
636	 9.24963372707428E-02 
637	 9.26800391117233E-02 
638	 0.092787754458112 
639	 9.29190938830863E-02 
640	 9.30173553120727E-02 
641	 9.31376324731548E-02 
642	 0.093355789915863 
643	 9.35074315495884E-02 
644	 9.36102571400984E-02 
645	 9.37138367699352E-02 
646	 9.38879589048378E-02 
647	 0.094022178068971 
648	 9.41507159017094E-02 
649	 9.43185776389013E-02 
650	 9.44226912640075E-02 
651	 0.094545885880405 
652	 9.47131498471476E-02 
653	 0.094893357137076 
654	 9.50697420348029E-02 
655	 9.52271450336634E-02 
656	 0.095363472211077 
657	 9.54958135146135E-02 
658	 9.56833031089048E-02 
659	 9.58931475273033E-02 
660	 9.60574395101204E-02 
661	 0.096223231660194 
662	 9.64407286881014E-02 
663	 0.096687256454753 
664	 9.68344884707142E-02 
665	 9.70160193776905E-02 
666	 9.72047286697477E-02 
667	 0.097361682047894 
668	 9.75954559967468E-02 
669	 9.78452907496265E-02 
670	 9.80736667827086E-02 
671	 9.82716969562714E-02 
672	 9.85163719874522E-02 
673	 9.87655394480913E-02 
674	 9.89886279721273E-02 
675	 9.92353313918708E-02 
676	 9.94769842302077E-02 
677	 9.97163528131596E-02 
678	 9.99628201081365E-02 
679	 0.100167114120808 
680	 0.100406450636086 
681	 0.10070713377868 
682	 0.101016798782802 
683	 0.101309400090824 
684	 0.10157184806981 
685	 0.101816397421519 
686	 0.102118022379662 
687	 0.102444014632936 
688	 0.102770921427018 
689	 0.103078210007035 
690	 0.103285103099894 
691	 0.103525364218117 
692	 0.103865379642563 
693	 0.104180660026824 
694	 0.104477031304069 
695	 0.104773568651828 
696	 0.10509197199757 
697	 0.105417945128363 
698	 0.105712173744444 
699	 0.105984786356136 
700	 0.106297594909232 
701	 0.106659524315432 
702	 0.106991335247545 
703	 0.107248471706967 
704	 0.107532087642529 
705	 0.107852310949115 
706	 0.108161534027814 
707	 0.108404267575237 
708	 0.108753386772305 
709	 0.109094761763909 
710	 0.109373020853612 
711	 0.109661211351982 
712	 0.109981946713241 
713	 0.110273733323573 
714	 0.110497125986848 
715	 0.110795192314471 
716	 0.111080426172942 
717	 0.111329130230387 
718	 0.11156745294319 
719	 0.111777669870853 
720	 0.112036764706182 
721	 0.112351726239764 
722	 0.112572657978324 
723	 0.112781574299754 
724	 0.11298927189243 
725	 0.11318594330115 
726	 0.113368551875071 
727	 0.113580864396767 
728	 0.113807366632026 
729	 0.113979118273361 
730	 0.11413308969206 
731	 0.114295924220465 
732	 0.114464507451808 
733	 0.114567617628608 
734	 0.114664164554871 
735	 0.11476195654279 
736	 0.114849844734843 
737	 0.114933537874666 
738	 0.115028944360081 
739	 0.115128933201457 
740	 0.115201359733604 
741	 0.115242442114261 
742	 0.115255971524507 
743	 0.115257810180702 
744	 0.115290204896096 
745	 0.115314885309598 
746	 0.11530768951235 
747	 0.115258034381635 
748	 0.115190233489884 
749	 0.115141624177279 
750	 0.115107609186564 
751	 0.115033883324267 
752	 0.114976045666152 
753	 0.114902673680891 
754	 0.114792028041866 
755	 0.114708804625297 
756	 0.114629181200877 
757	 0.114522545668397 
758	 0.114369620979808 
759	 0.11426314765964 
760	 0.114135726547726 
761	 0.113974129443319 
762	 0.113850156635999 
763	 0.113699196997772 
764	 0.113542841611442 
765	 0.113402052616728 
766	 0.113235428589251 
767	 0.113061123601983 
768	 0.112877372841094 
769	 0.112676610470703 
770	 0.112483926898887 
771	 0.112290254676425 
772	 0.112090900713506 
773	 0.111891418702733 
774	 0.111745891863011 
775	 0.111569908546693 
776	 0.111311021815485 
777	 0.111087444117454 
778	 0.110860490170655 
779	 0.110651722239157 
780	 0.110491022736702 
781	 0.110296485833081 
782	 0.110105968065557 
783	 0.109906495860739 
784	 0.109630651405624 
785	 0.109426012002677 
786	 0.109235589051934 
787	 0.109004964910673 
788	 0.108779753623028 
789	 0.108608464431276 
790	 0.108431858584601 
791	 0.108180739153485 
792	 0.107975508823724 
793	 0.107769690123204 
794	 0.107553281561123 
795	 0.107352685679736 
796	 0.107146217081273 
797	 0.106930756386689 
798	 0.106716665092982 
799	 0.106532865946509 
800	 0.106355338049226 
801	 0.106162481503629 
802	 0.105949748283216 
803	 0.105776596281858 
804	 0.105571046935605 
805	 0.105368834970157 
806	 0.105252639871835 
807	 0.105080276491471 
808	 0.104875403892876 
809	 0.104671025742503 
810	 0.104486223950171 
811	 0.104364477941517 
812	 0.104212561203754 
813	 0.103987626866794 
814	 0.103871140943884 
815	 0.103721601990945 
816	 0.103535601207777 
817	 0.103367844599828 
818	 0.103251994160857 
819	 0.103133957738145 
820	 0.102978122342873 
821	 0.102780725678916 
822	 0.102641379517162 
823	 0.102532387784531 
824	 0.102420403830669 
825	 0.102298503150998 
826	 0.102191599978607 
827	 0.102084633789737 
828	 0.101959597659317 
829	 0.101823068942645 
830	 0.101698076403255 
831	 0.101593934589651 
832	 0.101505368763462 
833	 0.101393539600441 
834	 0.101292548353097 
835	 0.10121294822157 
836	 0.101138823470958 
837	 0.101080290067145 
838	 0.101040590900378 
839	 0.100984075067471 
840	 0.100810629441432 
841	 0.100722284253141 
842	 0.100693659132502 
843	 0.100649420904613 
844	 0.100578582582665 
845	 0.100511946783147 
846	 0.100447266170712 
847	 0.100373863204374 
848	 0.100326896859928 
849	 0.100295805437338 
850	 0.100247500329645 
851	 0.100149277787128 
852	 0.10015415189767 
853	 0.10014230973233 
854	 0.100080007151911 
855	 0.100111013735154 
856	 0.100108518865266 
857	 0.100101239168049 
858	 0.100117526536632 
859	 0.100090828557046 
860	 0.100047042238891 
861	 0.100016281664906 
862	 0.100016953914793 
863	 0.100004815196389 
864	 0.100024262610961 
865	 0.100050368818598 
866	 0.100029908717463 
867	 0.100039543523253 
868	 0.100059808677444 
869	 0.100087295729076 
870	 0.100140486614707 
871	 0.100191983283989 
872	 0.100220384917901 
873	 0.100240211236679 
874	 0.10031807102897 
875	 0.100342279281416 
876	 0.100355990028242 
877	 0.1004085067666 
878	 0.100458847631942 
879	 0.100519585500832 
880	 0.100564003078819 
881	 0.100580131647836 
882	 0.100666240485174 
883	 0.100755479329832 
884	 0.100806867109517 
885	 0.100815965833751 
886	 0.100869577318437 
887	 0.100969142860713 
888	 0.101091148539743 
889	 0.101199200456235 
890	 0.101299107851187 
891	 0.101347185395126 
892	 0.101380735886323 
893	 0.101529878851935 
894	 0.10165828402953 
895	 0.101769303013933 
896	 0.1018818141756 
897	 0.101992293881637 
898	 0.102118746710502 
899	 0.102232209255005 
900	 0.102317448639338 
901	 0.102421531489984 
902	 0.102594634962661 
903	 0.102756652255127 
904	 0.102836785470905 
905	 0.102978893097232 
906	 0.103143708646706 
907	 0.103289448003744 
908	 0.103400059287395 
909	 0.10358987104779 
910	 0.103730040806709 
911	 0.103889058973199 
912	 0.104208663195067 
913	 0.104355315059575 
914	 0.104458374538419 
915	 0.104606903026441 
916	 0.104798205565636 
917	 0.104882138273759 
918	 0.105063445515582 
919	 0.105336093559124 
920	 0.105431867470788 
921	 0.105634700885439 
922	 0.105840076666383 
923	 0.10601320606152 
924	 0.106304968776844 
925	 0.106492826274276 
926	 0.10669819504338 
927	 0.106980110141698 
928	 0.107150802358891 
929	 0.107359838276993 
930	 0.107598599855141 
931	 0.107832074641982 
932	 0.108058110437824 
933	 0.108354701512252 
934	 0.108604821487473 
935	 0.108731337392748 
936	 0.108933985704494 
937	 0.109170225163569 
938	 0.109413188821748 
939	 0.109655068910271 
940	 0.109950695802876 
941	 0.110245217579549 
942	 0.110528466723502 
943	 0.110794099185701 
944	 0.110962518450769 
945	 0.111211719073365 
946	 0.111554915795754 
947	 0.111895301133806 
948	 0.112063396927879 
949	 0.112276663196957 
950	 0.112563029308034 
951	 0.112852015154272 
952	 0.113169389914002 
953	 0.113527404280341 
954	 0.113817859386424 
955	 0.113952037455244 
956	 0.114278909812192 
957	 0.114637057773785 
958	 0.114943120991639 
959	 0.115197267613833 
960	 0.115455536862765 
961	 0.115732639480421 
962	 0.116034742180272 
963	 0.116352463402529 
964	 0.116616435396019 
965	 0.116957525760291 
966	 0.117317310020131 
967	 0.117553296129678 
968	 0.117880563750204 
969	 0.118157956436581 
970	 0.118377064278084 
971	 0.118638261444383 
972	 0.118998270479742 
973	 0.119394865271964 
974	 0.119762166252532 
975	 0.120061156135597 
976	 0.120352886304217 
977	 0.120674489697671 
978	 0.121008908140319 
979	 0.121298609913254 
980	 0.121465554580343 
981	 0.12169895387649 
982	 0.122084197410979 
983	 0.122563529052254 
984	 0.122828131126069 
985	 0.123063128929007 
986	 0.123293466576351 
987	 0.123482940943391 
988	 0.123862498669985 
989	 0.124200473403342 
990	 0.124350821220859 
991	 0.124377336558481 
992	 0.124926702968981 
993	 0.125310573442867 
994	 0.125546046423125 
995	 0.125898146814114 
996	 0.126079917275256 
997	 0.126440579216085 
998	 0.126787973984046 
999	 0.126896544481981 
1000	 0.127223583100916 
1001	 0.126875672054028 
1002	 0.127097455532945 
1003	 0.127297677828669 
1004	 0.127540851931365 
1005	 0.127842114912822 
1006	 0.128101842564943 
1007	 0.128358942301086 
1008	 0.128609937128633 
1009	 0.128851730323544 
1010	 0.129027690035667 
1011	 0.129196238407004 
1012	 0.129421001169671 
1013	 0.129652281288611 
1014	 0.129900760350179 
1015	 0.130131872522766 
1016	 0.130339436681735 
1017	 0.13053797703377 
1018	 0.130708905411067 
1019	 0.130842285628097 
1020	 0.131034919838218 
1021	 0.131220970325503 
1022	 0.131379614027541 
1023	 0.131594716246847 
1024	 0.131757209300925 
1025	 0.13190850825173 
1026	 0.132114845028579 
1027	 0.132258802485303 
1028	 0.13241296903217 
1029	 0.13261229700477 
1030	 0.132797636166862 
1031	 0.132963572928013 
1032	 0.133139054335294 
1033	 0.133292229696799 
1034	 0.13338443237283 
1035	 0.133430982434906 
1036	 0.133537711614315 
1037	 0.133694189631182 
1038	 0.1338625165969 
1039	 0.134039646180171 
1040	 0.134155782882477 
1041	 0.134230828114735 
1042	 0.134337367349112 
1043	 0.134440102351157 
1044	 0.134547836193218 
1045	 0.134658912674699 
1046	 0.134815284778291 
1047	 0.134939582228012 
1048	 0.135055764743218 
1049	 0.135176449762433 
1050	 0.135260289227923 
1051	 0.135361022002046 
1052	 0.135499108420707 
1053	 0.135635750032351 
1054	 0.135719034149921 
1055	 0.135784029808945 
1056	 0.135871151993752 
1057	 0.135983553572942 
1058	 0.136139350649624 
1059	 0.136276416898609 
1060	 0.13643670363597 
1061	 0.136561321165196 
1062	 0.136664694830132 
1063	 0.136775481949751 
1064	 0.136880030224175 
1065	 0.136919882891797 
1066	 0.136975238578062 
1067	 0.137092777026812 
1068	 0.137218482146049 
1069	 0.137379273358309 
1070	 0.137517326648898 
1071	 0.137652704920353 
1072	 0.137758592283056 
1073	 0.13784463002189 
1074	 0.137945738923349 
1075	 0.138016004295691 
1076	 0.138152950122966 
1077	 0.138309387621782 
1078	 0.138422761686015 
1079	 0.138562669882377 
1080	 0.13867087549022 
1081	 0.138786941501107 
1082	 0.138891781889541 
1083	 0.138959814314684 
1084	 0.138998523356413 
1085	 0.13905990620746 
1086	 0.139081188763884 
1087	 0.139149264855366 
1088	 0.13925642850306 
1089	 0.139371348798499 
1090	 0.139429457973097 
1091	 0.139451261426754 
1092	 0.13949028664943 
1093	 0.139519002496939 
1094	 0.139584412662909 
1095	 0.139706941598797 
1096	 0.139810072515441 
1097	 0.139908270168896 
1098	 0.139991236958437 
1099	 0.140069059218089 
1100	 0.140115774975568 
1101	 0.140122714964089 
1102	 0.140166904624825 
1103	 0.140194856997397 
1104	 0.140258759071325 
1105	 0.14036954821473 
1106	 0.140474068353802 
1107	 0.140552754848793 
1108	 0.140635879878939 
1109	 0.140669516451028 
1110	 0.140687251840824 
1111	 0.140743999688265 
1112	 0.14080069261725 
1113	 0.14087579884284 
1114	 0.141001915449922 
1115	 0.141086363359489 
1116	 0.141148276258817 
1117	 0.141231300941028 
1118	 0.141320755555171 
1119	 0.141389812899618 
1120	 0.141473577558621 
1121	 0.141567511037272 
1122	 0.141636494826637 
1123	 0.141715968545032 
1124	 0.141767223041209 
1125	 0.141788361343704 
1126	 0.141851006656232 
1127	 0.141909377478773 
1128	 0.141969942855592 
1129	 0.142079347240573 
1130	 0.142145160270742 
1131	 0.142175153440719 
1132	 0.142222522084921 
1133	 0.142250248486031 
1134	 0.142299621441214 
1135	 0.142365263509135 
1136	 0.142432973279545 
1137	 0.142498593740084 
1138	 0.142572909261959 
1139	 0.142622330931402 
1140	 0.142648503808279 
1141	 0.142688877648719 
1142	 0.142725447818469 
1143	 0.142762466992594 
1144	 0.142813709521056 
1145	 0.142838274663145 
1146	 0.142834447465326 
1147	 0.142855043592351 
1148	 0.142867355475295 
1149	 0.14289340317849 
1150	 0.14294710192345 
1151	 0.142996878280062 
1152	 0.143004944258977 
1153	 0.143025588386749 
1154	 0.143052881965481 
1155	 0.143063475057752 
1156	 0.143099879703277 
1157	 0.143167496727518 
1158	 0.143211554482408 
1159	 0.143254653133531 
1160	 0.143296834683826 
1161	 0.143335827037082 
1162	 0.143368682142976 
1163	 0.143390897330463 
1164	 0.143423299021675 
1165	 0.143449239059678 
1166	 0.143486782195642 
1167	 0.143547296069777 
1168	 0.143603180293261 
1169	 0.143641920432859 
1170	 0.143673872666735 
1171	 0.143709967271384 
1172	 0.143734381233261 
1173	 0.143763003993416 
1174	 0.143793332919344 
1175	 0.143828604637343 
1176	 0.143861312679386 
1177	 0.14389752222465 
1178	 0.143953289855603 
1179	 0.143990947865753 
1180	 0.144003047232627 
1181	 0.144038236585391 
1182	 0.144073734706639 
1183	 0.14412000583625 
1184	 0.14417214594946 
1185	 0.144254453690769 
1186	 0.144296956323792 
1187	 0.144315951678544 
1188	 0.144358581656457 
1189	 0.144403524070846 
1190	 0.144434859349143 
1191	 0.144479808385294 
1192	 0.144507473175021 
1193	 0.144484986882055 
1194	 0.144513538000791 
1195	 0.144579857258721 
1196	 0.144624503258909 
1197	 0.144687537220509 
1198	 0.144737632726769 
1199	 0.144777591852013 
1200	 0.144797315342874 
1201	 0.144819729966789 
1202	 0.144839990660912 
1203	 0.144860423949962 
1204	 0.144864963370935 
1205	 0.144889055661149 
1206	 0.144925305536605 
1207	 0.144958641154965 
1208	 0.145006563175473 
1209	 0.145035964555833 
1210	 0.145051413381515 
1211	 0.145076720695839 
1212	 0.145093213868476 
1213	 0.145117766772637 
1214	 0.14517073003138 
1215	 0.145196780523832 
1216	 0.145211688224374 
1217	 0.14520979150129 
1218	 0.145227478882266 
1219	 0.145228015538824 
1220	 0.145258899753826 
1221	 0.145331661442954 
1222	 0.145361539333456 
1223	 0.145384261206929 
1224	 0.145400749552339 
1225	 0.145384063632574 
1226	 0.14539423684234 
1227	 0.145420098022664 
1228	 0.145438267772562 
1229	 0.145468543388438 
1230	 0.145486001481267 
1231	 0.145487726211015 
1232	 0.14549664117168 
1233	 0.14550569305573 
1234	 0.145508550155021 
1235	 0.145523721618793 
1236	 0.145548075424248 
1237	 0.145569103730679 
1238	 0.145591928670308 
1239	 0.145618645486914 
1240	 0.145652065311944 
1241	 0.145675540866623 
1242	 0.145702685611417 
1243	 0.145720597702463 
1244	 0.14572268676175 
1245	 0.145733747740485 
1246	 0.145745014998185 
1247	 0.145756814809979 
1248	 0.145767438130554 
1249	 0.145786873264176 
1250	 0.145806816428157 
1251	 0.14580913287169 
1252	 0.145827765165778 
1253	 0.145851560284018 
1254	 0.14587238044339 
1255	 0.145901466767318 
1256	 0.145923417961435 
1257	 0.145943641488566 
1258	 0.14595510165276 
1259	 0.145959965421285 
1260	 0.145963916340342 
1261	 0.145957575894475 
1262	 0.145957678233221 
1263	 0.145965029290938 
1264	 0.145963287193765 
1265	 0.145956745043009 
1266	 0.145950794808105 
1267	 0.145926386521456 
1268	 0.145928801775407 
1269	 0.145926537469801 
1270	 0.145930110920342 
1271	 0.145928331695336 
1272	 0.145927383441214 
1273	 0.145928834837583 
1274	 0.145922880574121 
1275	 0.145933196104339 
1276	 0.145954158663389 
1277	 0.145976217486451 
1278	 0.146014505776286 
1279	 0.146037421079282 
1280	 0.146043570174843 
1281	 0.146071984310538 
1282	 0.146103116069489 
1283	 0.146139439402635 
1284	 0.146202725257331 
1285	 0.14625502537692 
1286	 0.146265646136799 
1287	 0.146304522110017 
1288	 0.146342856725034 
1289	 0.146375653193394 
1290	 0.146410504678778 
1291	 0.146470906457406 
1292	 0.146490242652057 
1293	 0.146475840354253 
1294	 0.146488605103171 
1295	 0.146490776347817 
1296	 0.146508865574272 
1297	 0.146555679324787 
1298	 0.146582878002982 
1299	 0.146595563218699 
1300	 0.146619930563614 
1301	 0.146664059738832 
1302	 0.146677978478758 
1303	 0.146676085715304 
1304	 0.146684137401327 
1305	 0.146682056296564 
1306	 0.146644082830457 
1307	 0.146630639620562 
1308	 0.146641329334261 
1309	 0.146624960073522 
1310	 0.146590231596348 
1311	 0.14657753186501 
1312	 0.146568348539828 
1313	 0.146549843723469 
1314	 0.146550323582306 
1315	 0.146523995477847 
1316	 0.14646155209915 
1317	 0.14643027438014 
1318	 0.146399275537936 
1319	 0.146375253334209 
1320	 0.146375145060556 
1321	 0.146363720454381 
1322	 0.146346895431236 
1323	 0.146337571168507 
1324	 0.146320374700369 
1325	 0.146285625568765 
1326	 0.146252724740233 
1327	 0.146240503580082 
1328	 0.146214569148037 
1329	 0.146181755748824 
1330	 0.146140464476626 
1331	 0.146072325252656 
1332	 0.146031574728498 
1333	 0.146000822365253 
1334	 0.145968324803828 
1335	 0.145950464001427 
1336	 0.145921347715249 
1337	 0.145876212114694 
1338	 0.14585010881092 
1339	 0.145834445787625 
1340	 0.1458140700493 
1341	 0.145813185366273 
1342	 0.145787589713714 
1343	 0.145739424524621 
1344	 0.145699390103542 
1345	 0.145658353086462 
1346	 0.145642858622652 
1347	 0.145646882037751 
1348	 0.145636980816736 
1349	 0.145611218658844 
1350	 0.145576869655987 
1351	 0.145550896888103 
1352	 0.145516408303576 
1353	 0.145489345735615 
1354	 0.145474131390259 
1355	 0.145450355343105 
1356	 0.145411295383513 
1357	 0.145399489293481 
1358	 0.145409359695315 
1359	 0.145399638178533 
1360	 0.145398517507214 
1361	 0.145389324008122 
1362	 0.145361646745137 
1363	 0.145336363597745 
1364	 0.145318170038197 
1365	 0.145288573844873 
1366	 0.145236655595872 
1367	 0.145214712253603 
1368	 0.145187044381057 
1369	 0.14514929734878 
1370	 0.145109952366822 
1371	 0.145040613457538 
1372	 0.14495850559296 
1373	 0.144878464578567 
1374	 0.144793694610174 
1375	 0.144706086607247 
1376	 0.14461289869708 
1377	 0.144517915540232 
1378	 0.144405547071929 
1379	 0.14428418782251 
1380	 0.144157138125944 
1381	 0.144019914820602 
1382	 0.143870269338399 
1383	 0.143717136230828 
1384	 0.143546051329718 
1385	 0.143359164360403 
1386	 0.143165691293646 
1387	 0.142970745919673 
1388	 0.142751321127368 
1389	 0.142520180141844 
1390	 0.142268913561636 
1391	 0.141986501979286 
1392	 0.141670271957187 
1393	 0.141329048741076 
1394	 0.140969509462115 
1395	 0.140601168416321 
1396	 0.140229288712298 
1397	 0.139838729203979 
1398	 0.139433142786748 
1399	 0.139021708021638 
1400	 0.13858991821529 
1401	 0.138167592553274 
1402	 0.137743384663517 
1403	 0.137324168368891 
1404	 0.136905018920839 
1405	 0.136489622558 
1406	 0.1360567740098 
1407	 0.135668618323633 
1408	 0.135293154989407 
1409	 0.13494277126089 
1410	 0.134622923244956 
1411	 0.134325888906184 
1412	 0.134040752755071 
1413	 0.133789650314891 
1414	 0.133578172300533 
1415	 0.133396162973337 
1416	 0.133246221059708 
1417	 0.133117309767201 
1418	 0.132998150237412 
1419	 0.132888144074489 
1420	 0.132785217332211 
1421	 0.132684500224222 
1422	 0.132591541752369 
1423	 0.132497603438093 
1424	 0.132400039613387 
1425	 0.132291634118671 
1426	 0.132205387519431 
1427	 0.132121850745737 
1428	 0.132053792254802 
1429	 0.132009023294131 
1430	 0.131951207682292 
1431	 0.131896393397254 
1432	 0.13184421710939 
1433	 0.13178227381568 
1434	 0.131734977568986 
1435	 0.131696179119577 
1436	 0.131666080715223 
1437	 0.13164716908405 
1438	 0.131630533692194 
1439	 0.131628301445557 
1440	 0.131613598670596 
1441	 0.131597777141525 
1442	 0.131599991446751 
1443	 0.131587784179994 
1444	 0.131570856309897 
1445	 0.131563459018606 
1446	 0.13155484275264 
1447	 0.131550436115634 
1448	 0.131556196387113 
1449	 0.131563713283889 
1450	 0.131559761989331 
1451	 0.13156314863221 
1452	 0.131574850970661 
1453	 0.131579017500064 
1454	 0.1315777162849 
1455	 0.131584177614164 
1456	 0.131595394471017 
1457	 0.131601242441132 
1458	 0.131612076071207 
1459	 0.13161051924853 
1460	 0.13159000723139 
1461	 0.131585708873278 
1462	 0.131578443251398 
1463	 0.131587067814238 
1464	 0.131617423100507 
1465	 0.131639571199856 
1466	 0.131655393840372 
1467	 0.131685701550787 
1468	 0.131720580327406 
1469	 0.13176277826271 
1470	 0.131816797790881 
1471	 0.131881555680694 
1472	 0.131937686769827 
1473	 0.131994303860933 
1474	 0.132068129300156 
1475	 0.132153031359183 
1476	 0.13224183558927 
1477	 0.132330226190635 
1478	 0.132416802011826 
1479	 0.132493813115474 
1480	 0.13257621144816 
1481	 0.132670027024749 
1482	 0.132761850543039 
1483	 0.132851534257876 
1484	 0.132954159379717 
1485	 0.133068953993926 
1486	 0.133173577882939 
1487	 0.133285236364959 
1488	 0.133387967074316 
1489	 0.133484206018607 
1490	 0.133573095588021 
1491	 0.133654644855693 
1492	 0.133737280773594 
1493	 0.133809200173062 
1494	 0.133889550180206 
1495	 0.133982784818175 
1496	 0.134062309945021 
1497	 0.134133739932251 
1498	 0.134207411429335 
1499	 0.13427237186951 
1500	 0.134344033750737 
1501	 0.134425526428526 
1502	 0.134499812828204 
1503	 0.134575751649728 
1504	 0.134640053233346 
1505	 0.134697902188189 
1506	 0.134766520566536 
1507	 0.134844007856349 
1508	 0.134921421253453 
1509	 0.135004763362322 
1510	 0.135080145403281 
1511	 0.135137366050701 
1512	 0.135202050134657 
1513	 0.135276883189266 
1514	 0.135339307634321 
1515	 0.135395771210092 
1516	 0.13545468207446 
1517	 0.135513722692446 
1518	 0.135566114441118 
1519	 0.135619681481287 
1520	 0.135676051732503 
1521	 0.135730251912003 
1522	 0.135781247998062 
1523	 0.135832525149317 
1524	 0.135880689224756 
1525	 0.135943232255439 
1526	 0.136013518771583 
1527	 0.136067736698155 
1528	 0.136131070827891 
1529	 0.136184639633065 
1530	 0.136215327221999 
1531	 0.136261023549145 
1532	 0.13631855790629 
1533	 0.136366120604962 
1534	 0.136409265807198 
1535	 0.136449981995719 
1536	 0.13648476050306 
1537	 0.136522444160053 
1538	 0.136559862994764 
1539	 0.136600390058836 
1540	 0.136644560267927 
1541	 0.136686040147086 
1542	 0.136726939030488 
1543	 0.136765288377913 
1544	 0.136810570441372 
1545	 0.136840222382535 
1546	 0.136851288972499 
1547	 0.136878483124235 
1548	 0.136898206911957 
1549	 0.13691261481763 
1550	 0.136947406029869 
1551	 0.136976003675314 
1552	 0.137007480189053 
1553	 0.137044641633902 
1554	 0.137064101114012 
1555	 0.137084730469397 
1556	 0.137130788297505 
1557	 0.137167543136743 
1558	 0.137195395609468 
1559	 0.137239484588862 
1560	 0.137270506700224 
1561	 0.137279055643756 
1562	 0.137298158985418 
1563	 0.13733016361087 
1564	 0.137350516387315 
1565	 0.137359096626862 
1566	 0.137371682410771 
1567	 0.137379623487501 
1568	 0.137403625697006 
1569	 0.137440129021468 
1570	 0.137458047407786 
1571	 0.137480136597301 
1572	 0.13749604256421 
1573	 0.137494430441382 
1574	 0.137494303827859 
1575	 0.137492423286577 
1576	 0.137502355283674 
1577	 0.137507892609494 
1578	 0.137524071978333 
1579	 0.137566799106853 
1580	 0.137587528758825 
1581	 0.137589381340644 
1582	 0.137605096284616 
1583	 0.137628253920811 
1584	 0.137643295177525 
1585	 0.137665196353958 
1586	 0.137675395614953 
1587	 0.137670279151575 
1588	 0.13766578962759 
1589	 0.137647806054372 
1590	 0.137650435268592 
1591	 0.137667284446177 
1592	 0.137677201191926 
1593	 0.137690419958315 
1594	 0.137709216009788 
1595	 0.137735951484077 
1596	 0.137744182378024 
1597	 0.137755408316739 
1598	 0.137760256184744 
1599	 0.137734045309538 
1600	 0.13772412041282 
1601	 0.137721594259101 
1602	 0.13772361528375 
1603	 0.137741835359352 
1604	 0.1377454714009 
1605	 0.13774961461314 
1606	 0.137746179925565 
1607	 0.137720311615611 
1608	 0.137705817808298 
1609	 0.137708740381422 
1610	 0.137710371366093 
1611	 0.1377247786199 
1612	 0.137730757441521 
1613	 0.137722260066099 
1614	 0.137719583800393 
1615	 0.137722258120494 
1616	 0.137721761916422 
1617	 0.137715508608553 
1618	 0.137703238555834 
1619	 0.137686949190618 
1620	 0.137674826583774 
1621	 0.137659776345884 
1622	 0.137648597363939 
1623	 0.137633116076993 
1624	 0.137611087755255 
1625	 0.137594564627755 
1626	 0.137578398408313 
1627	 0.137572648851657 
1628	 0.137570498981108 
1629	 0.137569512598585 
1630	 0.137579447886217 
1631	 0.13757949358974 
1632	 0.137576014433114 
1633	 0.13757381954907 
1634	 0.137572997652663 
1635	 0.137563127179225 
1636	 0.137544659852667 
1637	 0.137535622677368 
1638	 0.137527998662187 
1639	 0.137515009981816 
1640	 0.137510034884609 
1641	 0.137489372708528 
1642	 0.137445426137318 
1643	 0.137428800783314 
1644	 0.137424561254826 
1645	 0.137407388756988 
1646	 0.137394070891644 
1647	 0.137384683979956 
1648	 0.137372827033316 
1649	 0.137350113750985 
1650	 0.137338393331162 
1651	 0.137305924134401 
1652	 0.137238191292882 
1653	 0.137201917721849 
1654	 0.137170964531051 
1655	 0.137151075344427 
1656	 0.137148473012231 
1657	 0.137139738009201 
1658	 0.137137781842766 
1659	 0.137131118342095 
1660	 0.137126965369536 
1661	 0.137112288509766 
1662	 0.137083098310944 
1663	 0.137074610195783 
1664	 0.137072437026283 
1665	 0.137063842636793 
1666	 0.137076839998412 
1667	 0.137058884760127 
1668	 0.137007423408074 
1669	 0.136982341337111 
1670	 0.136962558935473 
1671	 0.136934339004657 
1672	 0.136916322237078 
1673	 0.136886394070607 
1674	 0.136834213374587 
1675	 0.13680121590333 
1676	 0.136777017883998 
1677	 0.136752011323747 
1678	 0.136738468959965 
1679	 0.136709615444921 
1680	 0.136668649753568 
1681	 0.136640081400849 
1682	 0.136607448492732 
1683	 0.136583743815188 
1684	 0.136577399305623 
1685	 0.136557240227857 
1686	 0.136533677163844 
1687	 0.136505619481782 
1688	 0.136463967625371 
1689	 0.136441887656542 
1690	 0.136422285099083 
1691	 0.136411291944088 
1692	 0.136429608678807 
1693	 0.136413749334898 
1694	 0.136391052167751 
1695	 0.136353971687197 
1696	 0.136282330275804 
1697	 0.136237246323647 
1698	 0.136185992903855 
1699	 0.136159363162359 
1700	 0.136168181930308 
1701	 0.13614528061671 
1702	 0.136127190569159 
1703	 0.136091810879956 
1704	 0.136028964557149 
1705	 0.13597798713077 
1706	 0.135922419743127 
1707	 0.13587312842934 
1708	 0.135828708676056 
1709	 0.135778921114834 
1710	 0.135722864579386 
1711	 0.135687512772625 
1712	 0.135659367740191 
1713	 0.13562843182134 
1714	 0.135610144779417 
1715	 0.135591372620243 
1716	 0.135579823196971 
1717	 0.135539684579354 
1718	 0.135495895964055 
1719	 0.135447501806427 
1720	 0.13535995036742 
1721	 0.135308754014269 
1722	 0.135285065741327 
1723	 0.135242120097454 
1724	 0.135203942266531 
1725	 0.135151419971445 
1726	 0.135076657486559 
1727	 0.135031155820487 
1728	 0.134996021365765 
1729	 0.134948532423694 
1730	 0.134920678773592 
1731	 0.134863601351643 
1732	 0.134778961039225 
1733	 0.134711141336845 
1734	 0.134641628984438 
1735	 0.134569900968384 
1736	 0.134490782755493 
1737	 0.134430432158798 
1738	 0.134386749042295 
1739	 0.13432039865172 
1740	 0.134252936980668 
1741	 0.134193559412923 
1742	 0.134118772895386 
1743	 0.13404711277156 
1744	 0.13399142783196 
1745	 0.133926661567872 
1746	 0.133849599947389 
1747	 0.133798290622983 
1748	 0.133734080262646 
1749	 0.133681194439548 
1750	 0.133620548913166 
1751	 0.133540188492844 
1752	 0.13348321495617 
1753	 0.133436407876906 
1754	 0.133351599768658 
1755	 0.133275604720118 
1756	 0.133214580171893 
1757	 0.133127095811996 
1758	 0.133051077552789 
1759	 0.133000826321129 
1760	 0.132933646560131 
1761	 0.132843583834459 
1762	 0.132767802585702 
1763	 0.132705661871275 
1764	 0.132644673585419 
1765	 0.132591099557941 
1766	 0.132529667360579 
1767	 0.132460729697802 
1768	 0.132379522585088 
1769	 0.132304915643735 
1770	 0.132250745242696 
1771	 0.132197146316578 
1772	 0.13214580800555 
1773	 0.132109598916859 
1774	 0.132074581181631 
1775	 0.132020869975437 
1776	 0.131974691329358 
1777	 0.131915613733245 
1778	 0.131834270319346 
1779	 0.131769809056875 
1780	 0.131696827453907 
1781	 0.131641910008465 
1782	 0.131633259071636 
1783	 0.131599101905703 
1784	 0.13155281821723 
1785	 0.131472338602867 
1786	 0.13142396162116 
1787	 0.131393657137037 
1788	 0.131367973799294 
1789	 0.131362157848114 
1790	 0.131346538681471 
1791	 0.131340082970313 
1792	 0.131319979305211 
1793	 0.131288958460848 
1794	 0.131260326075975 
1795	 0.131216340592648 
1796	 0.131178400429567 
1797	 0.131142834191534 
1798	 0.131131363587858 
1799	 0.131145891858073 
1800	 0.131124414923555 
1801	 0.128457604625251 
1802	 0.128432260399046 
1803	 0.128425347725451 
1804	 0.128433342180988 
1805	 0.128436101827421 
1806	 0.128390001979431 
1807	 0.128346050816782 
1808	 0.12834735591398 
1809	 0.128394056349492 
1810	 0.128404169855322 
1811	 0.128422585875279 
1812	 0.128456940591785 
1813	 0.128449999189696 
1814	 0.128403672624277 
1815	 0.128404486015914 
1816	 0.128410430375708 
1817	 0.128401453177177 
1818	 0.128388426061752 
1819	 0.128386312459508 
1820	 0.128389182067389 
1821	 0.128373854444452 
1822	 0.128341005872739 
1823	 0.12833373579628 
1824	 0.12834022527976 
1825	 0.128314281269824 
1826	 0.128306679407333 
1827	 0.12831689155551 
1828	 0.128305594314048 
1829	 0.128274370162523 
1830	 0.128249624450999 
1831	 0.128230553983327 
1832	 0.128181977092471 
1833	 0.128149775121103 
1834	 0.128124504557967 
1835	 0.128084473778157 
1836	 0.128043102111013 
1837	 0.127983099963107 
1838	 0.127906495054333 
1839	 0.127856768194679 
1840	 0.127821210519105 
1841	 0.127795772553592 
1842	 0.12774217046386 
1843	 0.127687398376861 
1844	 0.127614844268859 
1845	 0.127528276355036 
1846	 0.127478336987989 
1847	 0.127431470489854 
1848	 0.127364680082831 
1849	 0.127297747165731 
1850	 0.127231251039783 
1851	 0.127162011609472 
1852	 0.127090829797762 
1853	 0.126997216491631 
1854	 0.126906642128851 
1855	 0.126826370725697 
1856	 0.126725696708002 
1857	 0.126620620070256 
1858	 0.126499960363887 
1859	 0.126371972277125 
1860	 0.126236774270885 
1861	 0.126093819623245 
1862	 0.125934870402164 
1863	 0.125769449686517 
1864	 0.125576453650945 
1865	 0.125352342160143 
1866	 0.125155245600236 
1867	 0.124984110390281 
1868	 0.124793675502904 
1869	 0.124550778222496 
1870	 0.124269847483032 
1871	 0.123967582424276 
1872	 0.12362050785649 
1873	 0.123243804096078 
1874	 0.12288791993893 
1875	 0.122499235904445 
1876	 0.122068797364574 
1877	 0.121615916412162 
1878	 0.121116904610444 
1879	 0.120606640438017 
1880	 0.120055218628357 
1881	 0.119462164870622 
1882	 0.11884768749011 
1883	 0.118208254116073 
1884	 0.117517535339964 
1885	 0.116803248010201 
1886	 0.116074627290078 
1887	 0.115291212357579 
1888	 0.114470952728926 
1889	 0.113639045342682 
1890	 0.112768852469732 
1891	 0.111878184367458 
1892	 0.110949137669858 
1893	 0.110023430128491 
1894	 0.109070917214225 
1895	 0.108123910790203 
1896	 0.107170988108949 
1897	 0.106224453788824 
1898	 0.105277165289909 
1899	 0.104326036597356 
1900	 0.103402292642114 
1901	 0.102514999747023 
1902	 0.10165137563362 
1903	 0.100822811088603 
1904	 0.100013022105696 
1905	 9.92198787179892E-02 
1906	 0.098463857005565 
1907	 9.77455799152714E-02 
1908	 9.70898458201521E-02 
1909	 9.64835537731044E-02 
1910	 9.58941504618096E-02 
1911	 9.53594046434388E-02 
1912	 0.0948637720567 
1913	 9.43864091225874E-02 
1914	 0.093941559885005 
1915	 9.35239566774043E-02 
1916	 9.31282525408748E-02 
1917	 9.27620649230572E-02 
1918	 9.24254699609287E-02 
1919	 9.21213747983713E-02 
1920	 9.18510321502139E-02 
1921	 9.15928508344349E-02 
1922	 9.13615500899687E-02 
1923	 9.11649392746942E-02 
1924	 9.09898491653623E-02 
1925	 9.08464075648094E-02 
1926	 9.07129701249045E-02 
1927	 9.05942777516175E-02 
1928	 9.05075293325345E-02 
1929	 9.04429427588649E-02 
1930	 9.03756592977352E-02 
1931	 9.03314932442425E-02 
1932	 0.090319129429268 
1933	 9.02880174108218E-02 
1934	 9.02804382086227E-02 
1935	 9.02875680739714E-02 
1936	 9.03027983074481E-02 
1937	 9.03266507236273E-02 
1938	 9.03733298189709E-02 
1939	 0.090422640566236 
1940	 9.04690183128598E-02 
1941	 9.05472708345968E-02 
1942	 0.090635956668028 
1943	 9.07272312175429E-02 
1944	 9.08190972581785E-02 
1945	 9.09143532114278E-02 
1946	 9.10180547254184E-02 
1947	 9.11272394056329E-02 
1948	 9.12368512057778E-02 
1949	 9.13483911127906E-02 
1950	 9.14704587101491E-02 
1951	 9.15929304125328E-02 
1952	 9.17263390947296E-02 
1953	 9.18705637080016E-02 
1954	 9.20203896964461E-02 
1955	 9.21777861110156E-02 
1956	 9.23452938672191E-02 
1957	 9.25103841174316E-02 
1958	 9.26888900251639E-02 
1959	 9.28553504894714E-02 
1960	 9.30120573263797E-02 
1961	 9.31756417129572E-02 
1962	 0.093321941263232 
1963	 0.093500525846202 
1964	 9.36961436944433E-02 
1965	 9.39021757782185E-02 
1966	 9.41342528953139E-02 
1967	 9.43663643464929E-02 
1968	 9.45619721194607E-02 
1969	 9.47266599277756E-02 
1970	 9.49166955512311E-02 
1971	 9.50848110407953E-02 
1972	 9.52782656487747E-02 
1973	 9.55061585961134E-02 
1974	 9.57234988559528E-02 
1975	 9.59392961849073E-02 
1976	 9.61577586110766E-02 
1977	 9.63736718188546E-02 
1978	 0.096573526395198 
1979	 9.67801998222495E-02 
1980	 9.69882730768951E-02 
1981	 9.72040475286516E-02 
1982	 9.74435672005451E-02 
1983	 9.76569859187667E-02 
1984	 0.097852511852818 
1985	 9.80621459405968E-02 
1986	 9.82586418639885E-02 
1987	 9.84734391393535E-02 
1988	 9.87067718186173E-02 
1989	 9.89475908276124E-02 
1990	 9.91720825991959E-02 
1991	 9.93813106722576E-02 
1992	 9.96032786201448E-02 
1993	 9.98220343516239E-02 
1994	 0.100037847772055 
1995	 0.100264780174183 
1996	 0.100478703065009 
1997	 0.100676142695107 
1998	 0.100881584339562 
1999	 0.101088872031711 
2000	 0.101295916369706 
2001	 0.101512859845406 
2002	 0.10170181419343 
2003	 0.10190992308382 
2004	 0.102121436380037 
2005	 0.102336651751975 
2006	 0.102571724327287 
2007	 0.102782258093232 
2008	 0.102980244686697 
2009	 0.103180949886245 
2010	 0.103364569947306 
2011	 0.103558815814401 
2012	 0.103758922942086 
2013	 0.103965182444426 
2014	 0.104191922421298 
2015	 0.104392367063306 
2016	 0.104581641989458 
2017	 0.104774075537243 
2018	 0.104963280301963 
2019	 0.105130080173424 
2020	 0.105321114859963 
2021	 0.105544630259006 
2022	 0.105728679589904 
2023	 0.10589107268289 
2024	 0.106066869000655 
2025	 0.106224819583906 
2026	 0.10639114942046 
2027	 0.106570945964251 
2028	 0.106762688624834 
2029	 0.106920298602364 
2030	 0.107054802482011 
2031	 0.107206732567408 
2032	 0.107332448937909 
2033	 0.107499964671473 
2034	 0.107700900161211 
2035	 0.107889982079108 
2036	 0.108101668967021 
2037	 0.108295541614408 
2038	 0.10848753615698 
2039	 0.108662040176687 
2040	 0.108828117244377 
2041	 0.108982806552297 
2042	 0.109116625400053 
2043	 0.109246396184901 
2044	 0.109376734346648 
2045	 0.109498593682914 
2046	 0.109625119200918 
2047	 0.109754275527897 
2048	 0.109878939706378 
2049	 0.109996016485982 
2050	 0.11012476362083 
2051	 0.110262744441249 
2052	 0.11038944623168 
2053	 0.110524781296445 
2054	 0.110646970566663 
2055	 0.110754631146127 
2056	 0.110861867189726 
2057	 0.110957504002547 
2058	 0.111037395344734 
2059	 0.111134592572285 
2060	 0.111227416793095 
2061	 0.111328593958318 
2062	 0.111443170166426 
2063	 0.111554416807269 
2064	 0.111666370003142 
2065	 0.111777054003153 
2066	 0.111892851245491 
2067	 0.112004352832909 
2068	 0.112111040563728 
2069	 0.112213575929347 
2070	 0.112331367048126 
2071	 0.112455847638928 
2072	 0.112578695413405 
2073	 0.112724379582069 
2074	 0.112830473443803 
2075	 0.112914150362803 
2076	 0.113004653504866 
2077	 0.113071647772498 
2078	 0.113154629905709 
2079	 0.113237427124836 
2080	 0.113336726579455 
2081	 0.113465677326593 
2082	 0.11356581220945 
2083	 0.113657648989792 
2084	 0.113756914424456 
2085	 0.113851070817728 
2086	 0.113915466676063 
2087	 0.114014223051409 
2088	 0.114153214407808 
2089	 0.114245175595798 
2090	 0.114318432158635 
2091	 0.11440100848286 
2092	 0.114454656892884 
2093	 0.114535486197823 
2094	 0.114655036171487 
2095	 0.114741512142332 
2096	 0.114807859790216 
2097	 0.114889300222039 
2098	 0.114963439823926 
2099	 0.115041950327622 
2100	 0.115112248163105 
2101	 0.115190820179474 
2102	 0.115266577959366 
2103	 0.11531465629157 
2104	 0.115404219258979 
2105	 0.115537071780307 
2106	 0.115631914663493 
2107	 0.115728241115329 
2108	 0.115817297232901 
2109	 0.115875587612167 
2110	 0.115954191046854 
2111	 0.116047482270627 
2112	 0.116133985759143 
2113	 0.116218155907025 
2114	 0.116305220832848 
2115	 0.116400598674501 
2116	 0.116502616387769 
2117	 0.116595483728441 
2118	 0.116692696028803 
2119	 0.116785734096554 
2120	 0.116875610432249 
2121	 0.116956602866261 
2122	 0.117030693970368 
2123	 0.117112237594164 
2124	 0.117191308389224 
2125	 0.117262008299441 
2126	 0.117338356257702 
2127	 0.117408237487431 
2128	 0.117463286161329 
2129	 0.117520653766865 
2130	 0.117571936046272 
2131	 0.117635239141004 
2132	 0.117697183511501 
2133	 0.117764618199642 
2134	 0.117809442987572 
2135	 0.117858394559074 
2136	 0.117884565218313 
2137	 0.117888898448653 
2138	 0.117883625600373 
2139	 0.117853332593509 
2140	 0.117840319565518 
2141	 0.117816255357414 
2142	 0.117799966890729 
2143	 0.117819317270784 
2144	 0.117801360819006 
2145	 0.117759170233481 
2146	 0.11771701979363 
2147	 0.117649525661236 
2148	 0.117581936902411 
2149	 0.117540609056422 
2150	 0.117521399063673 
2151	 0.117477608026753 
2152	 0.117452014625789 
2153	 0.117387917745571 
2154	 0.117288108412362 
2155	 0.117200125380183 
2156	 0.117097429487914 
2157	 0.117004869258187 
2158	 0.116914615607621 
2159	 0.116824101935507 
2160	 0.11673826716079 
2161	 0.116646987832654 
2162	 0.116559242564511 
2163	 0.11646084638784 
2164	 0.116337060576845 
2165	 0.116242059120654 
2166	 0.116142610347439 
2167	 0.116041918918991 
2168	 0.115940311521766 
2169	 0.115854394716142 
2170	 0.115745035004079 
2171	 0.115614165753723 
2172	 0.115500212206788 
2173	 0.115377179278096 
2174	 0.115271725588612 
2175	 0.115201147387738 
2176	 0.115091887554581 
2177	 0.114971341128684 
2178	 0.114847961235947 
2179	 0.114698423590891 
2180	 0.11455372651486 
2181	 0.114415901958049 
2182	 0.114271070398336 
2183	 0.114105072096087 
2184	 0.113950646413342 
2185	 0.113819721772671 
2186	 0.11371058430081 
2187	 0.113577005328104 
2188	 0.113457951422708 
2189	 0.113322296550858 
2190	 0.113144454502402 
2191	 0.113014216682731 
2192	 0.112896152236878 
2193	 0.112799119184972 
2194	 0.112750068223637 
2195	 0.112665110217431 
2196	 0.11256681486286 
2197	 0.112492985773184 
2198	 0.112409853613377 
2199	 0.112336838610731 
2200	 0.112298535505282 
2201	 0.112248988706855 
2202	 0.112172227688871 
2203	 0.112128452751784 
2204	 0.112095800575451 
2205	 0.112073882940988 
2206	 0.11206428596772 
2207	 0.11207789382268 
2208	 0.112088891754228 
2209	 0.112101001676245 
2210	 0.112135467585877 
2211	 0.112184164634798 
2212	 0.112235357245459 
2213	 0.112326342131109 
2214	 0.11237091519725 
2215	 0.112392078499314 
2216	 0.112422918940421 
2217	 0.112416369062173 
2218	 0.112442949543407 
2219	 0.112514686022022 
2220	 0.11255148386908 
2221	 0.112559754958343 
2222	 0.112610575975528 
2223	 0.112653437593946 
2224	 0.112643387289192 
2225	 0.112662834810862 
2226	 0.112696831606904 
2227	 0.112719421015938 
2228	 0.112738838477921 
2229	 0.112750158904391 
2230	 0.112756297383074 
2231	 0.112763375231453 
2232	 0.112753048892666 
2233	 0.112763660424039 
2234	 0.112801143065282 
2235	 0.112808240453858 
2236	 0.112818238505169 
2237	 0.11280526312329 
2238	 0.112755089199647 
2239	 0.112721113540281 
2240	 0.112678880878416 
2241	 0.112643557370615 
2242	 0.112608545821412 
2243	 0.112586999636996 
2244	 0.112580559607244 
2245	 0.112566575456889 
2246	 0.112567855236229 
2247	 0.112552521490499 
2248	 0.112520600826558 
2249	 0.112469923222443 
2250	 0.112428450630886 
2251	 0.112380237268266 
2252	 0.112319218921684 
2253	 0.112249253105495 
2254	 0.112189968060266 
2255	 0.112109745028769 
2256	 0.112062803541613 
2257	 0.112043460821204 
2258	 0.112016840004982 
2259	 0.112007870131757 
2260	 0.111982862609175 
2261	 0.111955338155656 
2262	 0.11192474191552 
2263	 0.111869761645551 
2264	 0.11183851559211 
2265	 0.111819033564689 
2266	 0.11180205112158 
2267	 0.111794034376247 
2268	 0.111797242523077 
2269	 0.111809354663236 
2270	 0.111811713339706 
2271	 0.111869669929584 
2272	 0.111946594183959 
2273	 0.111985025147856 
2274	 0.1120556232695 
2275	 0.112080184325284 
2276	 0.112053472069016 
2277	 0.112054588138472 
2278	 0.112058901658922 
2279	 0.112057652428005 
2280	 0.112047600286838 
2281	 0.112054344635178 
2282	 0.112063215201917 
2283	 0.112077927371509 
2284	 0.112117154189896 
2285	 0.1121341337354 
2286	 0.112144738421225 
2287	 0.112145359829118 
2288	 0.112130024611261 
2289	 0.112119388024006 
2290	 0.112090576051368 
2291	 0.112086492285384 
2292	 0.112113594801937 
2293	 0.112112064071717 
2294	 0.112088052345935 
2295	 0.112098565390475 
2296	 0.112142952239198 
2297	 0.112128450556761 
2298	 0.112102658948227 
2299	 0.112093806289202 
2300	 0.112031162891955 
2301	 0.111970251839175 
2302	 0.111960067445276 
2303	 0.111935890036907 
2304	 0.111875205589652 
2305	 0.111820062914278 
2306	 0.111763589897987 
2307	 0.111673929271046 
2308	 0.111647856778096 
2309	 0.111680308126754 
2310	 0.111644648258781 
2311	 0.111606159257161 
2312	 0.111574589849211 
2313	 0.11151024988753 
2314	 0.111443878978425 
2315	 0.11139116884336 
2316	 0.111332211483436 
2317	 0.111231440998148 
2318	 0.111171613329672 
2319	 0.111169564415851 
2320	 0.111124320028221 
2321	 0.111070606198197 
2322	 0.1109962241234 
2323	 0.110851432035178 
2324	 0.110788345985107 
2325	 0.110767228351868 
2326	 0.110746398198286 
2327	 0.110799906392274 
2328	 0.110784650489788 
2329	 0.11076332391102 
2330	 0.11070089466926 
2331	 0.110629518954048 
2332	 0.110588422263732 
2333	 0.110489892039793 
2334	 0.110428246244907 
2335	 0.110392470422128 
2336	 0.110322494943605 
2337	 0.110288505582986 
2338	 0.110252501148117 
2339	 0.110134997340066 
2340	 0.110078273902409 
2341	 0.110018957566251 
2342	 0.109920377517924 
2343	 0.109880163922335 
2344	 0.109763861607696 
2345	 0.10967030679912 
2346	 0.109579354647033 
2347	 0.109467246655915 
2348	 0.109347187240644 
2349	 0.109234198279081 
2350	 0.109082737261679 
2351	 0.108998938120843 
2352	 0.108968544605267 
2353	 0.108885095062322 
2354	 0.108831300628001 
2355	 0.108718042891395 
2356	 0.108498472826377 
2357	 0.108391397547876 
2358	 0.108337362903023 
2359	 0.108253673199468 
2360	 0.108217689587341 
2361	 0.108148479654528 
2362	 0.108042505073532 
2363	 0.107941621354401 
2364	 0.10783981924548 
2365	 0.107756014036785 
2366	 0.107672396754101 
2367	 0.107565575419712 
2368	 0.107484006237692 
2369	 0.107360811742507 
2370	 0.107178095359412 
2371	 0.107010187162436 
2372	 0.106925964707632 
2373	 0.106810333589923 
2374	 0.106713226777625 
2375	 0.106589668448564 
2376	 0.106364506837856 
2377	 0.106210540327883 
2378	 0.106102946012191 
2379	 0.105995349758742 
2380	 0.105874205386128 
2381	 0.105704585556148 
2382	 0.105535385857736 
2383	 0.105367430347769 
2384	 0.105332309007569 
2385	 0.105314707012404 
2386	 0.105087019259339 
2387	 0.104972310375598 
2388	 0.104827677747755 
2389	 0.104531859238317 
2390	 0.104403492858791 
2391	 0.104268888691267 
2392	 0.104117289738013 
2393	 0.103994375103763 
2394	 0.103881230665114 
2395	 0.103766870585889 
2396	 0.103555861469354 
2397	 0.103393663149096 
2398	 0.1031830385035 
2399	 0.102903517636971 
2400	 0.102705500140921 
2401	 0.102561736407401 
2402	 0.102511973333834 
2403	 0.102398846556668 
2404	 0.102231756588299 
2405	 0.10209237482104 
2406	 0.1018778671925 
2407	 0.101731780584216 
2408	 0.101628424470372 
2409	 0.101446127276684 
2410	 0.101245218026579 
2411	 0.101037677928719 
2412	 0.100858152274346 
2413	 0.100674615411418 
2414	 0.100509444726164 
2415	 0.100391997878447 
2416	 0.100239431202377 
2417	 0.100092386895249 
2418	 9.99085940024902E-02 
2419	 9.96756594095587E-02 
2420	 9.94571069611361E-02 
2421	 0.099177896820077 
2422	 9.89857765461577E-02 
2423	 9.88792560078125E-02 
2424	 9.87712965703853E-02 
2425	 9.86953979846308E-02 
2426	 9.85997543470813E-02 
2427	 9.85069770021795E-02 
2428	 0.098307004362048 
2429	 9.80871679250022E-02 
2430	 9.78799478525349E-02 
2431	 9.76359664054823E-02 
2432	 9.74110062943744E-02 
2433	 9.71518140115068E-02 
2434	 9.69079642356731E-02 
2435	 9.65826766931927E-02 
2436	 9.63896452200068E-02 
2437	 9.63505796624092E-02 
2438	 9.62403367381259E-02 
2439	 9.61877499134206E-02 
2440	 9.60791358496311E-02 
2441	 9.59011460070766E-02 
2442	 9.57741294598892E-02 
2443	 9.56663631137605E-02 
2444	 9.55434737267082E-02 
2445	 9.54307075462167E-02 
2446	 9.52459679424637E-02 
2447	 9.50020220306874E-02 
2448	 9.47867987526564E-02 
2449	 9.45651588868355E-02 
2450	 0.094365530020577 
2451	 9.41658165595684E-02 
2452	 9.40176282251194E-02 
2453	 9.38782682305717E-02 
2454	 0.093715702606067 
2455	 9.36855128591969E-02 
2456	 9.34099818460393E-02 
2457	 9.29254861297507E-02 
2458	 9.26099801773204E-02 
2459	 9.21614685094374E-02 
2460	 9.19818362747264E-02 
2461	 9.21113024539665E-02 
2462	 9.20660314985813E-02 
2463	 9.20838833940167E-02 
2464	 9.19526480536514E-02 
2465	 9.16391897969985E-02 
2466	 9.14263359659379E-02 
2467	 9.11771536023136E-02 
2468	 9.09899643876884E-02 
2469	 9.09128020987626E-02 
2470	 0.090722410955353 
2471	 9.06288592898181E-02 
2472	 9.04244243672214E-02 
2473	 9.01841388541235E-02 
2474	 9.00960050815079E-02 
2475	 8.98164220382572E-02 
2476	 0.089618856464916 
2477	 8.94381596504187E-02 
2478	 8.90625705544219E-02 
2479	 8.89758247410161E-02 
2480	 8.90354825732936E-02 
2481	 8.91113369472517E-02 
2482	 8.93269816212924E-02 
2483	 8.93725595000359E-02 
2484	 8.92455514297367E-02 
2485	 8.89581688060498E-02 
2486	 8.85596024145615E-02 
2487	 8.82678204624283E-02 
2488	 8.80007400449359E-02 
2489	 8.77886939024581E-02 
2490	 8.78480485121259E-02 
2491	 8.79245393040862E-02 
2492	 8.79519925174808E-02 
2493	 8.80060220130948E-02 
2494	 8.76511713494351E-02 
2495	 8.72828017259129E-02 
2496	 8.70286727142488E-02 
2497	 8.68361485585187E-02 
2498	 8.69172300660543E-02 
2499	 8.69561075083595E-02 
2500	 0.087126421221628 
