Wavelength	MM_3500000.asd
350	 3.58513816413272E-02 
351	 4.07155989427609E-02 
352	 3.00175585386839E-02 
353	 6.95084914769229E-03 
354	 2.82771781641677E-02 
355	 3.33751506893937E-02 
356	 2.86644746279612E-02 
357	 3.22509781248682E-02 
358	 0.037516049558861 
359	 3.72653824566383E-02 
360	 3.24673371253233E-02 
361	 2.93303240652668E-02 
362	 2.92445645225287E-02 
363	 2.91119830012441E-02 
364	 2.84825029096516E-02 
365	 3.22938737736631E-02 
366	 3.21924292680743E-02 
367	 2.79118758204294E-02 
368	 2.37843306947276E-02 
369	 3.22422489566819E-02 
370	 3.59116452071681E-02 
371	 3.27121509389114E-02 
372	 3.16389560778546E-02 
373	 3.42530786577164E-02 
374	 3.43796902589205E-02 
375	 3.03617855362455E-02 
376	 2.98651528347467E-02 
377	 3.06739589163588E-02 
378	 0.032277819502119 
379	 3.44648571771816E-02 
380	 3.74821925761374E-02 
381	 3.65114268765836E-02 
382	 3.32851521011607E-02 
383	 3.41754179603907E-02 
384	 3.69008279463608E-02 
385	 3.74590037442652E-02 
386	 3.51322451217622E-02 
387	 3.55285964511988E-02 
388	 3.90524172729869E-02 
389	 4.19480033725117E-02 
390	 4.07657117670261E-02 
391	 4.11177019691101E-02 
392	 3.97508889538116E-02 
393	 3.83832850739576E-02 
394	 4.24469989708834E-02 
395	 4.34073880702137E-02 
396	 4.32761543398368E-02 
397	 4.44917120212889E-02 
398	 4.67670354611442E-02 
399	 4.76481898055955E-02 
400	 0.047680541034194 
401	 4.83381989551935E-02 
402	 4.90681762209411E-02 
403	 0.049859401125521 
404	 5.05425370232371E-02 
405	 5.07938321559772E-02 
406	 5.10917759381502E-02 
407	 5.20350894574469E-02 
408	 5.31809552114816E-02 
409	 5.11290417065612E-02 
410	 5.07883398489318E-02 
411	 5.21513329498612E-02 
412	 5.29945516086035E-02 
413	 5.38071558195145E-02 
414	 5.35999923915815E-02 
415	 5.26943435986326E-02 
416	 5.31426826791834E-02 
417	 5.34248871478626E-02 
418	 5.37957900048065E-02 
419	 5.45558953009245E-02 
420	 5.47829884800628E-02 
421	 5.45261107333298E-02 
422	 5.42152327102695E-02 
423	 5.43849975636292E-02 
424	 5.39353053707465E-02 
425	 5.38656281264012E-02 
426	 5.43719679581516E-02 
427	 5.36986042206475E-02 
428	 5.33176237445665E-02 
429	 5.31729654895297E-02 
430	 5.28398906368641E-02 
431	 0.052628083632061 
432	 0.052413749850443 
433	 5.23097988982725E-02 
434	 5.26383763429047E-02 
435	 5.26044719086496E-02 
436	 0.052561131556838 
437	 5.27771210184473E-02 
438	 0.052659662735118 
439	 5.27056458507274E-02 
440	 5.30126489312836E-02 
441	 5.34078190852163E-02 
442	 5.32242419161154E-02 
443	 5.35911099321212E-02 
444	 5.46317129766043E-02 
445	 5.47193399911551E-02 
446	 5.50450294947335E-02 
447	 5.55339020280735E-02 
448	 5.58512602322254E-02 
449	 5.61869799227099E-02 
450	 5.60885664878686E-02 
451	 5.59286968594232E-02 
452	 5.66947217475014E-02 
453	 0.057345875516776 
454	 5.75746726138973E-02 
455	 5.74950120886632E-02 
456	 5.79102188387929E-02 
457	 5.80920412509912E-02 
458	 5.80982036225602E-02 
459	 5.83001380914803E-02 
460	 5.85920836374911E-02 
461	 5.85842428635414E-02 
462	 5.83707098417292E-02 
463	 0.058747752876594 
464	 5.89692952599286E-02 
465	 5.89413466864434E-02 
466	 5.88439549172476E-02 
467	 5.91829962628436E-02 
468	 5.94186567605638E-02 
469	 5.93708121783776E-02 
470	 5.92001886287933E-02 
471	 5.92770138858468E-02 
472	 0.059403868524408 
473	 5.94274421005486E-02 
474	 5.95402259157027E-02 
475	 0.059753503626026 
476	 5.98682870743189E-02 
477	 5.96752628077269E-02 
478	 5.95951317054764E-02 
479	 5.97706022727428E-02 
480	 6.00465221005272E-02 
481	 5.98953500535626E-02 
482	 0.060141420556551 
483	 6.05902203102609E-02 
484	 6.07865339993077E-02 
485	 6.04512362148432E-02 
486	 6.01405443162234E-02 
487	 6.00963073093457E-02 
488	 6.02577056128409E-02 
489	 6.04745322885131E-02 
490	 6.05381395742512E-02 
491	 6.04002069668429E-02 
492	 6.03795483362214E-02 
493	 6.04753985429251E-02 
494	 6.05448393188426E-02 
495	 6.04490330202861E-02 
496	 6.07331302431651E-02 
497	 6.08844474647164E-02 
498	 6.07680502948401E-02 
499	 6.09577160780494E-02 
500	 6.09570452727064E-02 
501	 6.08941347836397E-02 
502	 6.09740331826058E-02 
503	 6.08979274272396E-02 
504	 6.08871122840035E-02 
505	 6.09167859492256E-02 
506	 6.07477151811793E-02 
507	 6.08375682595633E-02 
508	 6.09528701009428E-02 
509	 6.09122958222779E-02 
510	 6.10586451787732E-02 
511	 6.10962338042626E-02 
512	 6.10576460683807E-02 
513	 6.11356214774368E-02 
514	 6.12841556402562E-02 
515	 6.13174017244177E-02 
516	 6.12172484319448E-02 
517	 6.12716233530825E-02 
518	 6.13202572616916E-02 
519	 6.13652727121012E-02 
520	 6.14345996543063E-02 
521	 0.061427621341436 
522	 6.14188857783412E-02 
523	 6.14378363650631E-02 
524	 6.14556172441636E-02 
525	 6.13324438542756E-02 
526	 6.13196173622935E-02 
527	 6.15544107754573E-02 
528	 6.15438467974927E-02 
529	 6.15221505694975E-02 
530	 6.15504713744732E-02 
531	 6.15750077574719E-02 
532	 6.16090620142481E-02 
533	 0.061713996680695 
534	 6.18779198661125E-02 
535	 6.19335019493626E-02 
536	 6.18682274359794E-02 
537	 6.18309965729631E-02 
538	 6.19861554358086E-02 
539	 6.21080123339685E-02 
540	 6.21404149987856E-02 
541	 6.21201140788789E-02 
542	 6.21831979640898E-02 
543	 6.22521296815255E-02 
544	 6.23393610622977E-02 
545	 6.24578767938755E-02 
546	 6.25429166633112E-02 
547	 6.25450640937826E-02 
548	 6.25444455956874E-02 
549	 6.27109506882624E-02 
550	 6.27570401779085E-02 
551	 6.28278891924903E-02 
552	 6.30348590609482E-02 
553	 6.32083302249706E-02 
554	 6.32630972536861E-02 
555	 6.33161980117162E-02 
556	 6.35593623829343E-02 
557	 6.37561728481215E-02 
558	 6.39416872601876E-02 
559	 6.41557709554366E-02 
560	 6.43960033098176E-02 
561	 6.45832514959375E-02 
562	 6.47656796372457E-02 
563	 6.50178424558978E-02 
564	 0.065291243606207 
565	 0.065536529831095 
566	 6.57490494271989E-02 
567	 6.59740521636051E-02 
568	 6.63522965750254E-02 
569	 6.67352341597705E-02 
570	 6.70055385493281E-02 
571	 6.73993895220297E-02 
572	 6.78261650596666E-02 
573	 6.82560593969981E-02 
574	 6.86983084944972E-02 
575	 6.90588072719807E-02 
576	 0.06948124375493 
577	 7.00162607231489E-02 
578	 7.04266131320307E-02 
579	 7.08564517190174E-02 
580	 7.12974055666052E-02 
581	 7.17039313647405E-02 
582	 7.22195416448469E-02 
583	 7.27509560526957E-02 
584	 7.32557711470769E-02 
585	 7.37930333844136E-02 
586	 7.44124215728408E-02 
587	 7.50268799047319E-02 
588	 0.075559042107207 
589	 7.61745618342364E-02 
590	 7.67893397926003E-02 
591	 7.73845037320274E-02 
592	 7.80084673218338E-02 
593	 7.86384139602078E-02 
594	 7.92686062495256E-02 
595	 7.98840266817688E-02 
596	 8.04371129131883E-02 
597	 8.09727879625666E-02 
598	 8.14925541936133E-02 
599	 8.19816126399079E-02 
600	 8.24774409619477E-02 
601	 8.29687089272632E-02 
602	 0.083444854939776 
603	 0.083910144459634 
604	 8.43759564275662E-02 
605	 8.48248722544749E-02 
606	 8.52392894732614E-02 
607	 8.56592724963512E-02 
608	 8.60762546094642E-02 
609	 8.64988039154288E-02 
610	 8.69555327972923E-02 
611	 8.72637516409656E-02 
612	 8.75491035993368E-02 
613	 8.79256136941502E-02 
614	 8.82015325119089E-02 
615	 8.84608179848708E-02 
616	 8.87177975566803E-02 
617	 8.89431859055393E-02 
618	 8.92361598908286E-02 
619	 8.94569773845713E-02 
620	 8.95589015282008E-02 
621	 8.97681404311255E-02 
622	 8.99850128819096E-02 
623	 9.01872495645652E-02 
624	 9.03811940381298E-02 
625	 9.05867547500833E-02 
626	 9.07651313268999E-02 
627	 9.09184380585677E-02 
628	 9.11084727207011E-02 
629	 9.12573246223701E-02 
630	 9.13723284544426E-02 
631	 9.14855560436709E-02 
632	 9.16200995840305E-02 
633	 9.17839219441006E-02 
634	 9.19501911447617E-02 
635	 9.20702783813408E-02 
636	 9.22115438037941E-02 
637	 9.23642858274036E-02 
638	 0.092509810590516 
639	 9.26417063677721E-02 
640	 9.27693852320327E-02 
641	 9.29116715630704E-02 
642	 9.30786932157793E-02 
643	 9.31861913659813E-02 
644	 9.32785210751432E-02 
645	 0.093398927879451 
646	 9.35718891719095E-02 
647	 9.37263554529539E-02 
648	 9.38234950285533E-02 
649	 9.38745592260475E-02 
650	 9.40368960618214E-02 
651	 9.42441290739239E-02 
652	 9.44341235248116E-02 
653	 9.45623094139935E-02 
654	 9.47223195744524E-02 
655	 0.094881645750098 
656	 9.50154290501764E-02 
657	 9.51732242402108E-02 
658	 9.53685949592251E-02 
659	 9.55764933719563E-02 
660	 0.095753108042444 
661	 9.58830749979682E-02 
662	 9.60425767232717E-02 
663	 0.096269242487727 
664	 9.65361969236065E-02 
665	 9.67281395762399E-02 
666	 9.68789077209047E-02 
667	 9.70552947774786E-02 
668	 9.72441466597646E-02 
669	 0.097461943453272 
670	 9.77035149482789E-02 
671	 9.79441563705513E-02 
672	 9.81625354657921E-02 
673	 9.83899174456479E-02 
674	 9.86445971922357E-02 
675	 0.098894944234541 
676	 9.91281691138041E-02 
677	 9.93519210503731E-02 
678	 0.099586023133334 
679	 9.98487507116848E-02 
680	 0.100117819227751 
681	 0.100382148725663 
682	 0.100650006320935 
683	 0.100957763929315 
684	 0.101243459543836 
685	 0.101467974905306 
686	 0.10177017173204 
687	 0.102071189210463 
688	 0.102359847237195 
689	 0.102669166541501 
690	 0.102934835836767 
691	 0.103200239287548 
692	 0.103498573436395 
693	 0.103816424782826 
694	 0.104095892995535 
695	 0.104384219155427 
696	 0.104740810806148 
697	 0.105063192607352 
698	 0.105338890255321 
699	 0.105615549193584 
700	 0.105990983570671 
701	 0.106336716772732 
702	 0.106640293897677 
703	 0.10692134438895 
704	 0.107213017841616 
705	 0.107495828631666 
706	 0.107777979088258 
707	 0.10807921221639 
708	 0.108393187856139 
709	 0.108731834191123 
710	 0.109066935127422 
711	 0.109310142720729 
712	 0.109609698914106 
713	 0.109906945893262 
714	 0.110131694467271 
715	 0.110398068415563 
716	 0.110696543946166 
717	 0.110989665516439 
718	 0.111229175925573 
719	 0.111476101834776 
720	 0.111749467134418 
721	 0.112034230304818 
722	 0.112264165585751 
723	 0.112478516687743 
724	 0.112678122369843 
725	 0.112859166525041 
726	 0.113049482460779 
727	 0.11327383786782 
728	 0.113501024468783 
729	 0.113653941941918 
730	 0.113793047098319 
731	 0.113954273676074 
732	 0.114132545466547 
733	 0.114234178752809 
734	 0.114349882349249 
735	 0.114474673812002 
736	 0.114567746564424 
737	 0.114623934081417 
738	 0.114713902266147 
739	 0.114831029738308 
740	 0.114882000267066 
741	 0.114929105716224 
742	 0.114948302240361 
743	 0.114933229401984 
744	 0.114977353596176 
745	 0.114983740500807 
746	 0.114963178210534 
747	 0.114966337934498 
748	 0.11492972000083 
749	 0.114882442179412 
750	 0.114833847451423 
751	 0.114760185400843 
752	 0.114670472297165 
753	 0.114582498217998 
754	 0.114505480380948 
755	 0.114419278228176 
756	 0.114319166762064 
757	 0.114219014571983 
758	 0.11413296687729 
759	 0.11400266535849 
760	 0.113848806964606 
761	 0.113689605570176 
762	 0.113529874305199 
763	 0.113389637951758 
764	 0.113244443813258 
765	 0.113072969451359 
766	 0.112893491226187 
767	 0.112720455657274 
768	 0.112541557667165 
769	 0.112338098523099 
770	 0.112155435840335 
771	 0.111978590961429 
772	 0.111788759283773 
773	 0.111572087137887 
774	 0.111421737402902 
775	 0.111256367073028 
776	 0.111009032401642 
777	 0.110755619625051 
778	 0.110535338223689 
779	 0.110349934119674 
780	 0.110173874680887 
781	 0.109956954572222 
782	 0.109776229469331 
783	 0.109610711142076 
784	 0.109336727045498 
785	 0.109123221836912 
786	 0.10893461787261 
787	 0.108720990173952 
788	 0.108494438437883 
789	 0.108290655188776 
790	 0.108076539432835 
791	 0.107819821530434 
792	 0.107643016889678 
793	 0.107440429046253 
794	 0.107211462326043 
795	 0.107044747147194 
796	 0.106812262392977 
797	 0.10658826668426 
798	 0.106415157513209 
799	 0.1062187211828 
800	 0.106033988440812 
801	 0.105844432223579 
802	 0.105633327173843 
803	 0.105441224690839 
804	 0.105246767819332 
805	 0.105065803394674 
806	 0.104923737511859 
807	 0.104714416230356 
808	 0.104517753090987 
809	 0.104357456484163 
810	 0.104159359249728 
811	 0.104017893895029 
812	 0.103871020021993 
813	 0.103676424535792 
814	 0.103545300157057 
815	 0.103385209989233 
816	 0.103206569674873 
817	 0.103059934672961 
818	 0.102966388904555 
819	 0.102843239561524 
820	 0.102671427551113 
821	 0.102495891826896 
822	 0.1023607787345 
823	 0.102238983439732 
824	 0.102111308140804 
825	 0.101992819905509 
826	 0.101859505989857 
827	 0.101730434537594 
828	 0.101623212188117 
829	 0.101515568852811 
830	 0.101366742400484 
831	 0.101229996804389 
832	 0.101172290066991 
833	 0.101035764392396 
834	 0.100929483347623 
835	 0.100876072335172 
836	 0.100802281518902 
837	 0.100728251256586 
838	 0.100679126972963 
839	 0.100630361179428 
840	 0.100470362504285 
841	 0.100385037924683 
842	 0.100369435852409 
843	 0.10035517687181 
844	 0.100256918538675 
845	 0.100212635491509 
846	 0.100166263954019 
847	 0.100019420657732 
848	 9.99872015264999E-02 
849	 9.99809203638357E-02 
850	 9.99299816498636E-02 
851	 0.099816592946262 
852	 9.98256704373269E-02 
853	 9.98340012732742E-02 
854	 9.97889009090867E-02 
855	 9.98033735219891E-02 
856	 9.97753831972384E-02 
857	 9.97650654650492E-02 
858	 9.97988880573264E-02 
859	 9.97131042360301E-02 
860	 9.96895108647481E-02 
861	 9.97054137167561E-02 
862	 9.96827721003625E-02 
863	 9.96485615807812E-02 
864	 9.96452246334781E-02 
865	 9.96555647888539E-02 
866	 9.96393394963145E-02 
867	 9.96794745878099E-02 
868	 9.97440775560511E-02 
869	 9.97909895101867E-02 
870	 0.099789357551513 
871	 9.98399616954705E-02 
872	 9.99087921612391E-02 
873	 0.0999585344276 
874	 9.99860573069419E-02 
875	 0.100006501243984 
876	 0.100021420786991 
877	 0.100029832481917 
878	 0.100022876066436 
879	 0.100126498035829 
880	 0.100244634344891 
881	 0.100268310166991 
882	 0.100398405996634 
883	 0.100455225303475 
884	 0.100443078632714 
885	 0.100472976358143 
886	 0.100579006692656 
887	 0.100691628951225 
888	 0.100780985510057 
889	 0.100861319291874 
890	 0.100937740223142 
891	 0.101010354438975 
892	 0.101092135832736 
893	 0.101209597165277 
894	 0.101337690381746 
895	 0.101432011686848 
896	 0.101504627088979 
897	 0.101670387171578 
898	 0.101829668176552 
899	 0.101929232608538 
900	 0.101980573882128 
901	 0.102124318988816 
902	 0.102279102713878 
903	 0.102416595574445 
904	 0.102540814159985 
905	 0.102708540432037 
906	 0.102865553221045 
907	 0.102982402498209 
908	 0.103069676050541 
909	 0.103248335029449 
910	 0.103448529902837 
911	 0.103636222523651 
912	 0.103812672585839 
913	 0.10399553253924 
914	 0.104164601586165 
915	 0.10429278627819 
916	 0.104371468030059 
917	 0.104574073452257 
918	 0.104821025359327 
919	 0.105038061222123 
920	 0.10520566209155 
921	 0.105378685335493 
922	 0.105570403844377 
923	 0.105778180995178 
924	 0.105988631037471 
925	 0.106186003208724 
926	 0.106395329845662 
927	 0.106627118097288 
928	 0.106848463712823 
929	 0.107076155437318 
930	 0.107309331329465 
931	 0.107533621879062 
932	 0.107707193331698 
933	 0.108053205515968 
934	 0.108358200183619 
935	 0.108452064166661 
936	 0.108670838137127 
937	 0.108902212617544 
938	 0.109155020041461 
939	 0.109456852221675 
940	 0.109793707088423 
941	 0.110000832678226 
942	 0.110196399850886 
943	 0.110520350014509 
944	 0.110709322761438 
945	 0.110951897623651 
946	 0.111246598870451 
947	 0.111510939952409 
948	 0.111743561299136 
949	 0.112038120494979 
950	 0.112348490228502 
951	 0.112600411787995 
952	 0.112982581821564 
953	 0.113231355248082 
954	 0.113424970857426 
955	 0.113780905187047 
956	 0.114083323825432 
957	 0.114376210300902 
958	 0.114675441565885 
959	 0.114973118389956 
960	 0.11528485934699 
961	 0.115480297329329 
962	 0.11566324383514 
963	 0.116027000656844 
964	 0.116324781736301 
965	 0.116613953915465 
966	 0.116938804039728 
967	 0.117304816582158 
968	 0.117640004337281 
969	 0.117898860663422 
970	 0.118114417448261 
971	 0.118372060209133 
972	 0.118721113630972 
973	 0.119183474204178 
974	 0.119570593836321 
975	 0.119694271080619 
976	 0.120173042022261 
977	 0.12048955659183 
978	 0.12063211353303 
979	 0.120929360373062 
980	 0.121303752534308 
981	 0.121624127169306 
982	 0.121868816649173 
983	 0.122108084912141 
984	 0.12244341303477 
985	 0.122778135884384 
986	 0.123070196611029 
987	 0.123340968464444 
988	 0.12370461306816 
989	 0.124010124472301 
990	 0.124194508732331 
991	 0.124312033598489 
992	 0.124625320824416 
993	 0.125038364746428 
994	 0.1253928805586 
995	 0.125583302772617 
996	 0.125768714263236 
997	 0.126106524951288 
998	 0.12645719662821 
999	 0.126667727882924 
1000	 0.126990860532409 
1001	 0.126623312921663 
1002	 0.126912821656281 
1003	 0.127149133202519 
1004	 0.127383010784356 
1005	 0.127668536168291 
1006	 0.127894728315462 
1007	 0.128050672514081 
1008	 0.128241096064583 
1009	 0.128475961596506 
1010	 0.128679919081094 
1011	 0.128942348055394 
1012	 0.129184290767478 
1013	 0.129392157423375 
1014	 0.129593495426246 
1015	 0.12976159807722 
1016	 0.129959530938681 
1017	 0.130153134468317 
1018	 0.130344390210364 
1019	 0.130541171954009 
1020	 0.130755212120169 
1021	 0.130971085449069 
1022	 0.131154558324139 
1023	 0.131320856927171 
1024	 0.131499309424255 
1025	 0.131614421823763 
1026	 0.131735858178625 
1027	 0.131902068758213 
1028	 0.132044712256734 
1029	 0.132166773749452 
1030	 0.132325579715047 
1031	 0.132486635819154 
1032	 0.132644653614579 
1033	 0.132807134545051 
1034	 0.132993960362804 
1035	 0.133142152314741 
1036	 0.133267352416078 
1037	 0.133355867808017 
1038	 0.133477307043358 
1039	 0.133628679029109 
1040	 0.133755183293208 
1041	 0.133895442959554 
1042	 0.134028713087136 
1043	 0.134180247921966 
1044	 0.134313686865264 
1045	 0.134458329288866 
1046	 0.134581871567869 
1047	 0.134670443919443 
1048	 0.134709321376811 
1049	 0.134786787198221 
1050	 0.134927882169731 
1051	 0.135093533005017 
1052	 0.1352528691434 
1053	 0.135363293583898 
1054	 0.135466597572839 
1055	 0.13555863891958 
1056	 0.135666643797529 
1057	 0.13578935299229 
1058	 0.135931599862232 
1059	 0.136058447879447 
1060	 0.136186360144764 
1061	 0.13633772890018 
1062	 0.13645073342364 
1063	 0.136565821326474 
1064	 0.136696002336975 
1065	 0.136768870168336 
1066	 0.136806273768794 
1067	 0.136889145646344 
1068	 0.137026235325894 
1069	 0.137203854242575 
1070	 0.137319677574764 
1071	 0.137443658457851 
1072	 0.137562344566332 
1073	 0.137594043803178 
1074	 0.137684879837417 
1075	 0.137829395197722 
1076	 0.137994646816614 
1077	 0.138101080214552 
1078	 0.138189205924283 
1079	 0.138227246918987 
1080	 0.138265902582415 
1081	 0.138305405586789 
1082	 0.13837648875921 
1083	 0.138461081843117 
1084	 0.138588257373848 
1085	 0.138667004286378 
1086	 0.138732390363232 
1087	 0.138806567235688 
1088	 0.138868284635719 
1089	 0.138920617539424 
1090	 0.139012992305333 
1091	 0.139073637904025 
1092	 0.139149273144043 
1093	 0.139295998589687 
1094	 0.1393959044709 
1095	 0.139482390837998 
1096	 0.139546933344601 
1097	 0.139561827610171 
1098	 0.139624178475733 
1099	 0.139712986211206 
1100	 0.139795056101975 
1101	 0.139893791435684 
1102	 0.139975652225119 
1103	 0.140034748472588 
1104	 0.140128721014085 
1105	 0.1402163111083 
1106	 0.140292852317641 
1107	 0.140378232902161 
1108	 0.140431857753656 
1109	 0.140463107161994 
1110	 0.140498098146155 
1111	 0.140560922528095 
1112	 0.140640567408884 
1113	 0.140704916181992 
1114	 0.140796839985571 
1115	 0.140870394391739 
1116	 0.140915270248912 
1117	 0.140967443229818 
1118	 0.141026689117137 
1119	 0.141067484576786 
1120	 0.14111587023552 
1121	 0.141205771034346 
1122	 0.141312362050094 
1123	 0.141418128918 
1124	 0.141487643632101 
1125	 0.141536852164836 
1126	 0.141600188832467 
1127	 0.141637536209807 
1128	 0.141690666895385 
1129	 0.141762132914973 
1130	 0.141828595816765 
1131	 0.141898737747947 
1132	 0.141961382326139 
1133	 0.142023610377205 
1134	 0.142085248404348 
1135	 0.142149577593503 
1136	 0.14218256238285 
1137	 0.142235115005923 
1138	 0.142293667493981 
1139	 0.142340737962782 
1140	 0.14238263256855 
1141	 0.142421967454902 
1142	 0.142453369140913 
1143	 0.142488775325745 
1144	 0.142522580537569 
1145	 0.142558641220867 
1146	 0.142600335978851 
1147	 0.142635257861551 
1148	 0.142663606410245 
1149	 0.142693718360122 
1150	 0.142721995191102 
1151	 0.142754920829188 
1152	 0.142770592507732 
1153	 0.142794541173273 
1154	 0.142821325916344 
1155	 0.142837093946205 
1156	 0.142870818581352 
1157	 0.142934537489513 
1158	 0.142963585849033 
1159	 0.142976668121406 
1160	 0.143001354581245 
1161	 0.143015503853569 
1162	 0.14303307576365 
1163	 0.143045292576231 
1164	 0.143083418567536 
1165	 0.143136635617551 
1166	 0.143183883534907 
1167	 0.14324349467776 
1168	 0.14330260796151 
1169	 0.14334258997586 
1170	 0.143355009923321 
1171	 0.143383207609052 
1172	 0.143414856806442 
1173	 0.143443310607193 
1174	 0.143464347038514 
1175	 0.143498989397962 
1176	 0.143539639423894 
1177	 0.143577859970912 
1178	 0.143624051897205 
1179	 0.143667072293224 
1180	 0.143707787440913 
1181	 0.143746748185985 
1182	 0.143777613026178 
1183	 0.143823679274468 
1184	 0.143869256909224 
1185	 0.14391929419975 
1186	 0.143958740725489 
1187	 0.143996712226051 
1188	 0.144040145120032 
1189	 0.144080818275049 
1190	 0.144117175940317 
1191	 0.144162870189927 
1192	 0.144198388917814 
1193	 0.144215238717719 
1194	 0.144242525397668 
1195	 0.144272693933312 
1196	 0.144305491722027 
1197	 0.144342098942617 
1198	 0.144377909990671 
1199	 0.144414756925632 
1200	 0.144456825710422 
1201	 0.144490130661909 
1202	 0.144522694502323 
1203	 0.144547187070166 
1204	 0.144558212104399 
1205	 0.144584937788891 
1206	 0.14461426847584 
1207	 0.144642421181684 
1208	 0.144678058420689 
1209	 0.144712406983201 
1210	 0.144741792121895 
1211	 0.144774734161886 
1212	 0.144823867777503 
1213	 0.144854753284906 
1214	 0.144872293229132 
1215	 0.144892896298139 
1216	 0.144909944860071 
1217	 0.144914359800566 
1218	 0.144932502897681 
1219	 0.144958854253092 
1220	 0.144978862602434 
1221	 0.144994502511654 
1222	 0.145021331639069 
1223	 0.145056930177816 
1224	 0.145082077359684 
1225	 0.145116637250052 
1226	 0.145136305640016 
1227	 0.145129439035611 
1228	 0.145143289989045 
1229	 0.145169286334147 
1230	 0.145185028803224 
1231	 0.145200265163831 
1232	 0.145221171945993 
1233	 0.145241756567147 
1234	 0.145253477265913 
1235	 0.145273876267822 
1236	 0.145308363757989 
1237	 0.145326839872621 
1238	 0.145331500720464 
1239	 0.145352540871515 
1240	 0.145382551439599 
1241	 0.145401974968489 
1242	 0.145425056258738 
1243	 0.145443059337938 
1244	 0.14544823519704 
1245	 0.145458257333018 
1246	 0.145471377439203 
1247	 0.145484909864793 
1248	 0.145494903393867 
1249	 0.145510543977595 
1250	 0.145518447161028 
1251	 0.145538918718309 
1252	 0.145556976171921 
1253	 0.145576017480164 
1254	 0.145592317219849 
1255	 0.145616077231063 
1256	 0.14562705435531 
1257	 0.145629586121597 
1258	 0.145631906210744 
1259	 0.145620624770409 
1260	 0.145624156682804 
1261	 0.145641617252044 
1262	 0.145644923221958 
1263	 0.145649017432877 
1264	 0.145651316358684 
1265	 0.145638545657486 
1266	 0.145631333052257 
1267	 0.145629912393812 
1268	 0.14562801120427 
1269	 0.145624563204341 
1270	 0.145611365537089 
1271	 0.145621019059717 
1272	 0.145646569438864 
1273	 0.145655266149959 
1274	 0.145675040535851 
1275	 0.14568158903959 
1276	 0.145660467324158 
1277	 0.145664815737158 
1278	 0.145672271664447 
1279	 0.145694057444832 
1280	 0.14573977608117 
1281	 0.145774480722726 
1282	 0.145820400537445 
1283	 0.145852748826243 
1284	 0.145866361590209 
1285	 0.145890806388501 
1286	 0.145924587345356 
1287	 0.145954301797908 
1288	 0.145991770454982 
1289	 0.146044942431256 
1290	 0.146084829568328 
1291	 0.146125435210308 
1292	 0.146153188029491 
1293	 0.146162144504356 
1294	 0.146191793460191 
1295	 0.146224298847595 
1296	 0.146255385142329 
1297	 0.146308023585304 
1298	 0.146340157268428 
1299	 0.146358174189946 
1300	 0.146370228879735 
1301	 0.146368552009943 
1302	 0.146374206386707 
1303	 0.146375529185706 
1304	 0.146380573660928 
1305	 0.14637941598424 
1306	 0.146379608178344 
1307	 0.146365763652423 
1308	 0.146334837369046 
1309	 0.146321665547023 
1310	 0.146317888202402 
1311	 0.146302437276103 
1312	 0.146282187193875 
1313	 0.146274971111437 
1314	 0.146271425810087 
1315	 0.146254265501335 
1316	 0.146246899279343 
1317	 0.146226888982342 
1318	 0.146178745618072 
1319	 0.146151290090762 
1320	 0.146139960090846 
1321	 0.146118332243488 
1322	 0.14609766889805 
1323	 0.146070885336835 
1324	 0.146049980421922 
1325	 0.146018025892996 
1326	 0.145979167674647 
1327	 0.145948233621938 
1328	 0.145926095352527 
1329	 0.145881896446148 
1330	 0.145845351587274 
1331	 0.145817136785089 
1332	 0.145783710659835 
1333	 0.145741442156381 
1334	 0.14570853317879 
1335	 0.145680546743134 
1336	 0.145650513589718 
1337	 0.14561812006602 
1338	 0.1455903535092 
1339	 0.145567458061704 
1340	 0.14554346311106 
1341	 0.145523764585921 
1342	 0.145501167606472 
1343	 0.14547474893094 
1344	 0.145450655868082 
1345	 0.14544061766992 
1346	 0.145408990053673 
1347	 0.145377419937187 
1348	 0.145360307193771 
1349	 0.145325970135785 
1350	 0.145306933377135 
1351	 0.145278166695983 
1352	 0.145244760251597 
1353	 0.145219343363421 
1354	 0.145190956743872 
1355	 0.145166224865801 
1356	 0.145149178920418 
1357	 0.145134931717967 
1358	 0.145122682882208 
1359	 0.145113821291899 
1360	 0.145114455259039 
1361	 0.145105086201135 
1362	 0.145091585973144 
1363	 0.145075517611924 
1364	 0.145064011213231 
1365	 0.145040738960715 
1366	 0.145013144864399 
1367	 0.144976948131747 
1368	 0.144930650421012 
1369	 0.144869794583183 
1370	 0.144795257144104 
1371	 0.144715818652408 
1372	 0.144624635046929 
1373	 0.144541604133481 
1374	 0.144463913659833 
1375	 0.144395024242427 
1376	 0.144314334354908 
1377	 0.144243982949838 
1378	 0.144142833763349 
1379	 0.144027713195656 
1380	 0.143901857544585 
1381	 0.143751465732946 
1382	 0.143606129639349 
1383	 0.143467773114583 
1384	 0.143296823643899 
1385	 0.143109553952407 
1386	 0.142918980114245 
1387	 0.142718822315404 
1388	 0.142494681359033 
1389	 0.142274091653416 
1390	 0.14200988156757 
1391	 0.141714408866825 
1392	 0.141403070505239 
1393	 0.141076752412325 
1394	 0.140738912954182 
1395	 0.140363628350507 
1396	 0.139972522958681 
1397	 0.139583869039964 
1398	 0.13918006524473 
1399	 0.138770773479543 
1400	 0.138360930896438 
1401	 0.137945772660116 
1402	 0.137508741743029 
1403	 0.13708959806381 
1404	 0.136668694891281 
1405	 0.136270392955838 
1406	 0.135885319466814 
1407	 0.135504698816858 
1408	 0.135131808359597 
1409	 0.134782053683873 
1410	 0.134421737128342 
1411	 0.13411082425897 
1412	 0.133829105197713 
1413	 0.133588204826168 
1414	 0.133378560630211 
1415	 0.133194367580061 
1416	 0.133041389046102 
1417	 0.132908113836792 
1418	 0.132804404524978 
1419	 0.132714427129411 
1420	 0.132620078127304 
1421	 0.132536145418896 
1422	 0.132445261346977 
1423	 0.132343580171123 
1424	 0.132247090011991 
1425	 0.132151958420392 
1426	 0.132062454053988 
1427	 0.131970082932733 
1428	 0.131892923875777 
1429	 0.131829133669779 
1430	 0.131760917989045 
1431	 0.131692788518592 
1432	 0.13163174629608 
1433	 0.131575570460043 
1434	 0.131527394700022 
1435	 0.131483653864908 
1436	 0.131447677224955 
1437	 0.131418796089794 
1438	 0.131392520221799 
1439	 0.131368980248536 
1440	 0.131359622336237 
1441	 0.131360607388853 
1442	 0.131351951465535 
1443	 0.131335956068943 
1444	 0.131332277161247 
1445	 0.13132278861379 
1446	 0.131306543051097 
1447	 0.131313561254017 
1448	 0.131317481109496 
1449	 0.131304523863672 
1450	 0.131306310769312 
1451	 0.131309538675527 
1452	 0.131312645971809 
1453	 0.131316140097506 
1454	 0.13132962168653 
1455	 0.131331458429406 
1456	 0.131325563824356 
1457	 0.131321295913923 
1458	 0.131315185696704 
1459	 0.131307913076615 
1460	 0.131295088171267 
1461	 0.131289740292721 
1462	 0.131282655549891 
1463	 0.131285247856517 
1464	 0.131293286259608 
1465	 0.131308524240772 
1466	 0.131322835726925 
1467	 0.131357742137207 
1468	 0.131417788490463 
1469	 0.131468585390303 
1470	 0.13152419995886 
1471	 0.131586040391367 
1472	 0.13164945432936 
1473	 0.131717298651633 
1474	 0.131802313902026 
1475	 0.131895515646934 
1476	 0.13196760697793 
1477	 0.132044153185627 
1478	 0.132132815789673 
1479	 0.132205866847515 
1480	 0.132293704165457 
1481	 0.132383736446369 
1482	 0.132478204904546 
1483	 0.132572983243828 
1484	 0.132673123495109 
1485	 0.132789304564534 
1486	 0.132886158329333 
1487	 0.132968905264148 
1488	 0.13306416770556 
1489	 0.133159133573637 
1490	 0.133247521371968 
1491	 0.133347497897889 
1492	 0.133433903041037 
1493	 0.133503662243749 
1494	 0.133579928409963 
1495	 0.133647716126572 
1496	 0.133723069059777 
1497	 0.133804239742579 
1498	 0.133886956120564 
1499	 0.133980566185403 
1500	 0.134065726052024 
1501	 0.134147617002433 
1502	 0.134221929733922 
1503	 0.134287905505097 
1504	 0.134357708300939 
1505	 0.13441422398043 
1506	 0.134485609391002 
1507	 0.134568130415655 
1508	 0.134640203900541 
1509	 0.134716079622344 
1510	 0.134782013002952 
1511	 0.13484115196502 
1512	 0.134901752382732 
1513	 0.134952622477602 
1514	 0.135005466796672 
1515	 0.135054282780369 
1516	 0.135100961135459 
1517	 0.135157913007814 
1518	 0.135225447915013 
1519	 0.135283571313633 
1520	 0.135338769652602 
1521	 0.135401808893218 
1522	 0.135468974527486 
1523	 0.135529499211325 
1524	 0.135594002463003 
1525	 0.135654866431036 
1526	 0.135704801987696 
1527	 0.135762129740791 
1528	 0.135832195072472 
1529	 0.135885886835603 
1530	 0.135933559853864 
1531	 0.13597469765068 
1532	 0.1360030105133 
1533	 0.13603454873288 
1534	 0.136056274243189 
1535	 0.136091494471657 
1536	 0.136131621645667 
1537	 0.136175673626427 
1538	 0.136239473840849 
1539	 0.136285417503292 
1540	 0.136317690612065 
1541	 0.136357021364344 
1542	 0.136393264860468 
1543	 0.136426202702475 
1544	 0.136459868116626 
1545	 0.136501389742441 
1546	 0.136547281850858 
1547	 0.136587207949988 
1548	 0.13661991080281 
1549	 0.136635024622218 
1550	 0.136641487043476 
1551	 0.136656582683285 
1552	 0.136697824733739 
1553	 0.136753414654768 
1554	 0.136796831176249 
1555	 0.136829960822222 
1556	 0.136860082014175 
1557	 0.136879580037261 
1558	 0.136898069788212 
1559	 0.136924942882677 
1560	 0.136952536048147 
1561	 0.1369800411624 
1562	 0.137006044199233 
1563	 0.137039179373401 
1564	 0.137062771983564 
1565	 0.137077517327617 
1566	 0.137094799979816 
1567	 0.137109170268221 
1568	 0.137127908108468 
1569	 0.137148517057545 
1570	 0.137171168847865 
1571	 0.137204323714714 
1572	 0.137215449098657 
1573	 0.13721086868579 
1574	 0.13721849970668 
1575	 0.137215765443385 
1576	 0.137223929711003 
1577	 0.137247400285583 
1578	 0.137265973026652 
1579	 0.137284590488145 
1580	 0.137303752747005 
1581	 0.137324695082248 
1582	 0.137344236785751 
1583	 0.137366470795699 
1584	 0.13737846815763 
1585	 0.137379805054547 
1586	 0.137394054649874 
1587	 0.137410867781327 
1588	 0.137420365014385 
1589	 0.137438670994383 
1590	 0.137451107663998 
1591	 0.137447406803194 
1592	 0.137452111977353 
1593	 0.137467010293225 
1594	 0.137472515922835 
1595	 0.137468979228465 
1596	 0.137473985886223 
1597	 0.137487516360802 
1598	 0.13748760219049 
1599	 0.137478577689158 
1600	 0.137478611366396 
1601	 0.137469667754597 
1602	 0.137469780795888 
1603	 0.137491258309658 
1604	 0.137500079407765 
1605	 0.137508437444452 
1606	 0.137507139511013 
1607	 0.137493082640982 
1608	 0.137480273493431 
1609	 0.137474121068453 
1610	 0.137458724128213 
1611	 0.137453644950382 
1612	 0.137462562980265 
1613	 0.137459057037294 
1614	 0.137451131896028 
1615	 0.137453846168806 
1616	 0.13744708358165 
1617	 0.137438439528801 
1618	 0.137433085093774 
1619	 0.137416912516657 
1620	 0.137393638833671 
1621	 0.137382714252367 
1622	 0.13737765742283 
1623	 0.137369569531296 
1624	 0.137369032232002 
1625	 0.137354407886408 
1626	 0.137329105907304 
1627	 0.137314632516674 
1628	 0.137295307096423 
1629	 0.137288944628741 
1630	 0.13729543041781 
1631	 0.137293289013768 
1632	 0.1372895020072 
1633	 0.13729579633788 
1634	 0.137308290032709 
1635	 0.137310191218294 
1636	 0.137322074763747 
1637	 0.137309970415084 
1638	 0.137267417950307 
1639	 0.137262513332019 
1640	 0.137275618691502 
1641	 0.137257121847364 
1642	 0.137243712543316 
1643	 0.137220769547488 
1644	 0.137159182522594 
1645	 0.137134530432394 
1646	 0.137134802136177 
1647	 0.137123438224275 
1648	 0.137123200014873 
1649	 0.137097966120599 
1650	 0.137062085573167 
1651	 0.137025814123327 
1652	 0.136962857336281 
1653	 0.136930721085061 
1654	 0.136911937540444 
1655	 0.136897452180797 
1656	 0.136911702482379 
1657	 0.136886551728002 
1658	 0.136828095186979 
1659	 0.136818335079262 
1660	 0.136818062053194 
1661	 0.136807157159568 
1662	 0.136830622050215 
1663	 0.136829459199714 
1664	 0.1367884017079 
1665	 0.136777174330233 
1666	 0.136799229791081 
1667	 0.136784379538649 
1668	 0.136749151463275 
1669	 0.136725721949343 
1670	 0.136690644526595 
1671	 0.136662495416649 
1672	 0.136640975590573 
1673	 0.136624862795156 
1674	 0.136611790413262 
1675	 0.136593376313512 
1676	 0.13658522231966 
1677	 0.136566416141607 
1678	 0.136534122879149 
1679	 0.136505687307796 
1680	 0.136481076631744 
1681	 0.136447935573543 
1682	 0.136409014406578 
1683	 0.136368207020636 
1684	 0.136313262296256 
1685	 0.13628014519875 
1686	 0.136259333511651 
1687	 0.136229585041836 
1688	 0.136203858514711 
1689	 0.136184251101761 
1690	 0.136162806537599 
1691	 0.136139487458219 
1692	 0.136128404726288 
1693	 0.136110107898629 
1694	 0.136085270172636 
1695	 0.136051086353176 
1696	 0.136009523413935 
1697	 0.135979458077143 
1698	 0.13594639322313 
1699	 0.135909395572026 
1700	 0.135888344491947 
1701	 0.135845955686065 
1702	 0.135773165295888 
1703	 0.135726146255604 
1704	 0.135682608189622 
1705	 0.13564948956175 
1706	 0.135634830048412 
1707	 0.135609467546539 
1708	 0.135586552868537 
1709	 0.135558643700538 
1710	 0.135531240566043 
1711	 0.135492463812872 
1712	 0.135435399758038 
1713	 0.135404558689229 
1714	 0.135383922880827 
1715	 0.135350708976644 
1716	 0.13533435779197 
1717	 0.135295327748321 
1718	 0.135216320134826 
1719	 0.135183422583437 
1720	 0.135181664817889 
1721	 0.135148659091937 
1722	 0.135132997752096 
1723	 0.135077986106757 
1724	 0.134967428172171 
1725	 0.134903730080599 
1726	 0.134853667934997 
1727	 0.134789410830357 
1728	 0.134736907542611 
1729	 0.1346821304486 
1730	 0.134603108442159 
1731	 0.134555420988081 
1732	 0.134543492339271 
1733	 0.134492558863695 
1734	 0.134436891749616 
1735	 0.13437202475076 
1736	 0.134281837402489 
1737	 0.134202874056801 
1738	 0.134123793385126 
1739	 0.134053679599995 
1740	 0.133988929480259 
1741	 0.133911518399899 
1742	 0.1338289631838 
1743	 0.133765272025503 
1744	 0.133706707678952 
1745	 0.133637788842277 
1746	 0.133580596802663 
1747	 0.133506324469752 
1748	 0.13342645896955 
1749	 0.133356371222523 
1750	 0.133294869296471 
1751	 0.133254301104191 
1752	 0.133201634272586 
1753	 0.133139394360585 
1754	 0.133094925194908 
1755	 0.133015222415328 
1756	 0.132908606145445 
1757	 0.132832615209823 
1758	 0.132774601850437 
1759	 0.132708699400898 
1760	 0.132664845203305 
1761	 0.132606061879712 
1762	 0.13251885864891 
1763	 0.132475541861893 
1764	 0.132407695314091 
1765	 0.132325513512893 
1766	 0.132264451921539 
1767	 0.132164131538334 
1768	 0.132109032656449 
1769	 0.132106800699542 
1770	 0.132077581943016 
1771	 0.13202004791261 
1772	 0.131949191395831 
1773	 0.131886571305551 
1774	 0.131827917026677 
1775	 0.131782860593436 
1776	 0.131734428388472 
1777	 0.131647614798077 
1778	 0.131564506605657 
1779	 0.131517531339831 
1780	 0.131483642588654 
1781	 0.131444727160312 
1782	 0.131389343899453 
1783	 0.13133314648239 
1784	 0.131289085547202 
1785	 0.131252337586237 
1786	 0.131224992602795 
1787	 0.131204935707299 
1788	 0.131178915846274 
1789	 0.13116734233092 
1790	 0.131135351144792 
1791	 0.131092674635245 
1792	 0.131061236655688 
1793	 0.131018226520726 
1794	 0.130981024622525 
1795	 0.130937828908991 
1796	 0.130912779766062 
1797	 0.130901564820166 
1798	 0.130899697428412 
1799	 0.13093403201924 
1800	 0.130928318368095 
1801	 0.128491055714347 
1802	 0.128458240516242 
1803	 0.128421517629724 
1804	 0.128392799757223 
1805	 0.128374162656716 
1806	 0.128379142266824 
1807	 0.128380046973803 
1808	 0.128381573779771 
1809	 0.128393911942991 
1810	 0.128393764662333 
1811	 0.128377619387034 
1812	 0.128388642411772 
1813	 0.128389748414492 
1814	 0.128348143801887 
1815	 0.12833269827745 
1816	 0.128325558548355 
1817	 0.128316998434247 
1818	 0.128321616235555 
1819	 0.128321894302126 
1820	 0.128319203402568 
1821	 0.128318158298756 
1822	 0.128311793013584 
1823	 0.128303722145375 
1824	 0.1283090080479 
1825	 0.128297477534083 
1826	 0.128270824335761 
1827	 0.128252606220798 
1828	 0.128226354779857 
1829	 0.128179032583145 
1830	 0.128144727951834 
1831	 0.12811594033701 
1832	 0.128092539205602 
1833	 0.128051151336806 
1834	 0.128009866212953 
1835	 0.127971331304382 
1836	 0.127911549948771 
1837	 0.127868877696368 
1838	 0.127802807483063 
1839	 0.127740753925641 
1840	 0.127669193343179 
1841	 0.127617557479539 
1842	 0.127543391462859 
1843	 0.127476250515031 
1844	 0.127413429017336 
1845	 0.12733689925726 
1846	 0.127265427028197 
1847	 0.12720867344087 
1848	 0.127137450051274 
1849	 0.127069823675089 
1850	 0.127000549056754 
1851	 0.126935909281347 
1852	 0.126846749201954 
1853	 0.126771412716416 
1854	 0.126700424357227 
1855	 0.126617018127904 
1856	 0.126531749495636 
1857	 0.126417363883829 
1858	 0.12629053499873 
1859	 0.126172873406043 
1860	 0.126036022550377 
1861	 0.125894584870569 
1862	 0.125740094405953 
1863	 0.125575674354778 
1864	 0.125403929931315 
1865	 0.125206199657514 
1866	 0.125008453933775 
1867	 0.124806454829991 
1868	 0.124557068936552 
1869	 0.124300026345902 
1870	 0.124032823629993 
1871	 0.123738720502679 
1872	 0.123422730771995 
1873	 0.123086657122956 
1874	 0.12272408119298 
1875	 0.122332585241846 
1876	 0.12190064706722 
1877	 0.12143662198146 
1878	 0.120944101531589 
1879	 0.120435327051336 
1880	 0.119898845397078 
1881	 0.11935004446191 
1882	 0.118757636892565 
1883	 0.118140862962601 
1884	 0.117452149001184 
1885	 0.116747195393898 
1886	 0.116004291600321 
1887	 0.115220112433474 
1888	 0.114438927475948 
1889	 0.113612998943841 
1890	 0.112744851049545 
1891	 0.111863348654367 
1892	 0.110937732202816 
1893	 0.110011579158121 
1894	 0.109067008833932 
1895	 0.108120434450742 
1896	 0.107159079980868 
1897	 0.106197477457979 
1898	 0.105229745543216 
1899	 0.104294466157298 
1900	 0.103401027358019 
1901	 0.102519312477078 
1902	 0.10166979750426 
1903	 0.100873814085922 
1904	 0.10007998475959 
1905	 0.099283537830506 
1906	 0.098541101964736 
1907	 9.78511039532787E-02 
1908	 9.71895175147894E-02 
1909	 9.65798275993858E-02 
1910	 9.59941215002471E-02 
1911	 9.54275322768381E-02 
1912	 9.48877705339596E-02 
1913	 9.43936819179988E-02 
1914	 9.39435164119402E-02 
1915	 0.093519115640155 
1916	 9.31364769553207E-02 
1917	 9.27708244276135E-02 
1918	 9.24366433753365E-02 
1919	 9.21143831658912E-02 
1920	 9.18277525229435E-02 
1921	 9.15901521511628E-02 
1922	 9.13653740906734E-02 
1923	 9.11722004787864E-02 
1924	 9.09890561784006E-02 
1925	 9.08280562081636E-02 
1926	 9.06717431865195E-02 
1927	 9.05205618546075E-02 
1928	 9.03937808680295E-02 
1929	 0.090290448731071 
1930	 9.02300198299789E-02 
1931	 9.01987131778963E-02 
1932	 0.090175816468776 
1933	 9.01598862638201E-02 
1934	 0.090147348114769 
1935	 9.01511485023767E-02 
1936	 9.01711574503745E-02 
1937	 9.01913727134217E-02 
1938	 9.02203020569648E-02 
1939	 9.02586899411701E-02 
1940	 9.02950301978491E-02 
1941	 9.03469891654518E-02 
1942	 9.04291273152045E-02 
1943	 0.090522921246906 
1944	 9.06151976918842E-02 
1945	 9.07199131013142E-02 
1946	 9.08320074353528E-02 
1947	 9.09450651597666E-02 
1948	 9.10680128990398E-02 
1949	 9.12279331072608E-02 
1950	 9.13504157109763E-02 
1951	 9.14497234123568E-02 
1952	 9.15560783091144E-02 
1953	 9.16812610055345E-02 
1954	 9.18061268715364E-02 
1955	 9.19580509363027E-02 
1956	 0.09212908802562 
1957	 9.22904838523669E-02 
1958	 9.24409762066644E-02 
1959	 9.26032047198028E-02 
1960	 9.27779524309612E-02 
1961	 9.29511197487403E-02 
1962	 9.31239700164764E-02 
1963	 9.33063810235322E-02 
1964	 9.34962120227869E-02 
1965	 9.36788922868448E-02 
1966	 9.38874345028057E-02 
1967	 9.41070811664984E-02 
1968	 9.43067785519575E-02 
1969	 9.45075111027397E-02 
1970	 9.47045313374882E-02 
1971	 9.48754770260551E-02 
1972	 9.50712512107346E-02 
1973	 9.52846332035421E-02 
1974	 9.54967660056705E-02 
1975	 9.57204494593761E-02 
1976	 9.59352812573331E-02 
1977	 9.61466461649639E-02 
1978	 9.63592767755305E-02 
1979	 9.65607843855754E-02 
1980	 9.67755750130513E-02 
1981	 9.69991030379495E-02 
1982	 9.72429788561833E-02 
1983	 9.74599430727591E-02 
1984	 9.76745609693691E-02 
1985	 9.78888335096453E-02 
1986	 9.80685467191496E-02 
1987	 9.82832121259702E-02 
1988	 9.85231497169117E-02 
1989	 9.87657868364827E-02 
1990	 9.89978092365917E-02 
1991	 9.92368290814756E-02 
1992	 9.94505403113611E-02 
1993	 9.96295867199607E-02 
1994	 9.98397354643296E-02 
1995	 0.100055588973902 
1996	 0.100265840828683 
1997	 0.100482940113376 
1998	 0.100705324173907 
1999	 0.100920786812917 
2000	 0.101141271909123 
2001	 0.101379499054877 
2002	 0.101612750110927 
2003	 0.101821942250597 
2004	 0.102038762800729 
2005	 0.102246144663453 
2006	 0.102443901378337 
2007	 0.10264205837354 
2008	 0.102841589027163 
2009	 0.103029364526238 
2010	 0.10319728783153 
2011	 0.103385710161175 
2012	 0.103571685520465 
2013	 0.103766107356403 
2014	 0.103972028516406 
2015	 0.104194989868308 
2016	 0.104402993505362 
2017	 0.104611376906021 
2018	 0.104804631116199 
2019	 0.104976617914403 
2020	 0.105175122022079 
2021	 0.105380017746449 
2022	 0.10557398657374 
2023	 0.105794679749008 
2024	 0.10598429217056 
2025	 0.106123465829761 
2026	 0.106300784711528 
2027	 0.106510948134177 
2028	 0.10668040847821 
2029	 0.106851476132284 
2030	 0.107036416342087 
2031	 0.107199396387862 
2032	 0.107333249572595 
2033	 0.10747988776469 
2034	 0.107624046189987 
2035	 0.107776164118663 
2036	 0.10792950749046 
2037	 0.108078207259742 
2038	 0.108226047420063 
2039	 0.108383807183983 
2040	 0.108546256260257 
2041	 0.108700198391831 
2042	 0.108865896413698 
2043	 0.10904048621195 
2044	 0.109181633729131 
2045	 0.109294998612324 
2046	 0.109424335814795 
2047	 0.109541453804069 
2048	 0.109664939496099 
2049	 0.109801396623449 
2050	 0.109923675150567 
2051	 0.110029555988913 
2052	 0.110147336211637 
2053	 0.110262417337796 
2054	 0.110384895625 
2055	 0.110514385664769 
2056	 0.110658214359129 
2057	 0.110779232531024 
2058	 0.110897148465798 
2059	 0.111008213749568 
2060	 0.111093911339063 
2061	 0.111205532191107 
2062	 0.111337495513049 
2063	 0.111446977808665 
2064	 0.11155663834985 
2065	 0.111661720176306 
2066	 0.111735606154947 
2067	 0.111835556665873 
2068	 0.111939599727723 
2069	 0.112070814861133 
2070	 0.112193954355553 
2071	 0.112337964924004 
2072	 0.112447221113627 
2073	 0.112541168832788 
2074	 0.112641596957925 
2075	 0.112724825218166 
2076	 0.112820419653729 
2077	 0.112926531978154 
2078	 0.113027378322858 
2079	 0.113121233313647 
2080	 0.11322293335048 
2081	 0.113342746485338 
2082	 0.113443520270816 
2083	 0.11353374643108 
2084	 0.113623843268315 
2085	 0.113719377229478 
2086	 0.113805819274107 
2087	 0.11389513957744 
2088	 0.113998185321298 
2089	 0.114087335381499 
2090	 0.114158907740355 
2091	 0.114243727187207 
2092	 0.114336340103763 
2093	 0.114421073217042 
2094	 0.114501828832356 
2095	 0.114587727940504 
2096	 0.114676419458632 
2097	 0.114760893577576 
2098	 0.114839079752021 
2099	 0.114930664912652 
2100	 0.115017827618261 
2101	 0.115110242735986 
2102	 0.11517411834512 
2103	 0.115209830287293 
2104	 0.115292450727232 
2105	 0.115374101907783 
2106	 0.115465992260009 
2107	 0.115617351194865 
2108	 0.11572018620904 
2109	 0.115774607695769 
2110	 0.115862009576899 
2111	 0.115963366392771 
2112	 0.116052782268802 
2113	 0.116135777859535 
2114	 0.116245161713634 
2115	 0.116336280302029 
2116	 0.116410467896815 
2117	 0.116499216446156 
2118	 0.116596634643792 
2119	 0.11669149704204 
2120	 0.116795758298413 
2121	 0.116879064753766 
2122	 0.116958036198958 
2123	 0.117028712676751 
2124	 0.117075949898566 
2125	 0.117133555636536 
2126	 0.117191232105284 
2127	 0.117251360034235 
2128	 0.11731700070179 
2129	 0.117375259431542 
2130	 0.117442653582509 
2131	 0.117489850838787 
2132	 0.11753384630558 
2133	 0.117570027672732 
2134	 0.117598719549842 
2135	 0.117608517836583 
2136	 0.11763934948502 
2137	 0.11768634590941 
2138	 0.117702052669184 
2139	 0.117717164990987 
2140	 0.117719132987523 
2141	 0.117689761906714 
2142	 0.117666829215693 
2143	 0.117660829136865 
2144	 0.117626094769616 
2145	 0.117548075407724 
2146	 0.117497001236805 
2147	 0.117457270598786 
2148	 0.117398096112999 
2149	 0.117343541684453 
2150	 0.117306430117437 
2151	 0.117253509318354 
2152	 0.11718183593971 
2153	 0.117117164954687 
2154	 0.117058140912097 
2155	 0.116993408618319 
2156	 0.116923535440028 
2157	 0.116848727007894 
2158	 0.116778949034389 
2159	 0.116696779650851 
2160	 0.116596152593047 
2161	 0.11650209667971 
2162	 0.116419122758142 
2163	 0.116313581388238 
2164	 0.116185323802493 
2165	 0.116068495927482 
2166	 0.115958355867701 
2167	 0.115830201789599 
2168	 0.115734205557724 
2169	 0.115682594878508 
2170	 0.115580577819245 
2171	 0.115467628335512 
2172	 0.115349246709204 
2173	 0.115187005255153 
2174	 0.115070771054955 
2175	 0.114994942547919 
2176	 0.114881578627309 
2177	 0.114768384042858 
2178	 0.114650471792119 
2179	 0.114504442870316 
2180	 0.114365914319739 
2181	 0.114251040370277 
2182	 0.114111149326204 
2183	 0.113958476053002 
2184	 0.113783637771838 
2185	 0.113616460065932 
2186	 0.113421940051137 
2187	 0.113272713221587 
2188	 0.113129557768058 
2189	 0.11302030503839 
2190	 0.112965844622601 
2191	 0.112868978615339 
2192	 0.112774649311601 
2193	 0.112678888533092 
2194	 0.112553263007227 
2195	 0.112456182068343 
2196	 0.112391988459855 
2197	 0.112308579329597 
2198	 0.112196702222912 
2199	 0.112128249188375 
2200	 0.112082994221798 
2201	 0.112030881978466 
2202	 0.111989323562094 
2203	 0.111981953804899 
2204	 0.111970086535444 
2205	 0.111956554583221 
2206	 0.111939306492306 
2207	 0.111934845229207 
2208	 0.111932982315335 
2209	 0.111908766487322 
2210	 0.111920139470434 
2211	 0.111957131002527 
2212	 0.112004478411708 
2213	 0.112076087132166 
2214	 0.112134141294326 
2215	 0.112212538185817 
2216	 0.112270333220859 
2217	 0.112307780546746 
2218	 0.11234842581071 
2219	 0.112390728095123 
2220	 0.112423603409708 
2221	 0.112439310730089 
2222	 0.112472207874303 
2223	 0.112489721948657 
2224	 0.112515768384496 
2225	 0.112544488845376 
2226	 0.112581380009484 
2227	 0.112608774091559 
2228	 0.112635537131313 
2229	 0.112657343364739 
2230	 0.112675311674225 
2231	 0.112695509851011 
2232	 0.112719578325354 
2233	 0.112727778377796 
2234	 0.112733874551545 
2235	 0.112726088651818 
2236	 0.112696309146209 
2237	 0.112674743212471 
2238	 0.112649601322906 
2239	 0.112624525059834 
2240	 0.112609764497877 
2241	 0.11257560848087 
2242	 0.112505383087036 
2243	 0.112469886834782 
2244	 0.112445233083462 
2245	 0.112422696778252 
2246	 0.112398865055029 
2247	 0.112400914576067 
2248	 0.112366634684184 
2249	 0.11229500577999 
2250	 0.112260318420747 
2251	 0.112233691465165 
2252	 0.112199404076297 
2253	 0.112176350314537 
2254	 0.112138953477204 
2255	 0.112091423424912 
2256	 0.112048802715278 
2257	 0.111999618174364 
2258	 0.111962045385892 
2259	 0.111916306625373 
2260	 0.111892663785906 
2261	 0.111911688068152 
2262	 0.111885460938 
2263	 0.11183871544727 
2264	 0.111814533557503 
2265	 0.111754727636599 
2266	 0.111733883448259 
2267	 0.111755915004829 
2268	 0.111770048156569 
2269	 0.111803535819319 
2270	 0.111827235981748 
2271	 0.111836306641494 
2272	 0.111881710823444 
2273	 0.111872840223628 
2274	 0.11186866459 
2275	 0.111865010060409 
2276	 0.111839337200602 
2277	 0.111845952222942 
2278	 0.111870066381584 
2279	 0.111895259856358 
2280	 0.111936411053364 
2281	 0.111969658066348 
2282	 0.112025720263597 
2283	 0.112038020200545 
2284	 0.112021264312363 
2285	 0.11201821122115 
2286	 0.111979201618233 
2287	 0.111976538874287 
2288	 0.11201726430386 
2289	 0.112020635468887 
2290	 0.112019812043082 
2291	 0.112004873955068 
2292	 0.111952569879566 
2293	 0.11193467659208 
2294	 0.111928294309599 
2295	 0.11192399940828 
2296	 0.111963058125354 
2297	 0.111940480296322 
2298	 0.111899418935874 
2299	 0.111901752224765 
2300	 0.111862889129477 
2301	 0.111853966682712 
2302	 0.111885419839852 
2303	 0.111827010178801 
2304	 0.111714677620181 
2305	 0.111637559682214 
2306	 0.111566062576019 
2307	 0.111461378931655 
2308	 0.111399332801397 
2309	 0.111397296807698 
2310	 0.111343351566912 
2311	 0.111258783855909 
2312	 0.111211987716546 
2313	 0.111168219568074 
2314	 0.111137285055071 
2315	 0.111140495404858 
2316	 0.111102250334967 
2317	 0.111054825354452 
2318	 0.111006624100547 
2319	 0.11093136611471 
2320	 0.110873400520833 
2321	 0.110841943597938 
2322	 0.110782010677292 
2323	 0.110696897506374 
2324	 0.110635278098799 
2325	 0.11054977662626 
2326	 0.110491446424118 
2327	 0.110461724788504 
2328	 0.110442579298948 
2329	 0.110399348477227 
2330	 0.110358208464311 
2331	 0.110336632768263 
2332	 0.110304000772523 
2333	 0.110289487565348 
2334	 0.110339630005629 
2335	 0.110294821834121 
2336	 0.110176405519301 
2337	 0.1101045704677 
2338	 0.109968367549658 
2339	 0.109852027722394 
2340	 0.10984257771833 
2341	 0.109800127200171 
2342	 0.109705014478351 
2343	 0.109643409684908 
2344	 0.109565019111678 
2345	 0.109471992691401 
2346	 0.109365140877319 
2347	 0.109289498124384 
2348	 0.109205992124179 
2349	 0.109124338994895 
2350	 0.109055414597914 
2351	 0.108987918439339 
2352	 0.108934645117588 
2353	 0.10883489868276 
2354	 0.108709164149585 
2355	 0.108621598650668 
2356	 0.108524534306866 
2357	 0.108427418236285 
2358	 0.10836704179685 
2359	 0.108283905478159 
2360	 0.108163587237111 
2361	 0.108060422014659 
2362	 0.107988854770876 
2363	 0.107883978081 
2364	 0.107732427027598 
2365	 0.107610104849049 
2366	 0.107488773890804 
2367	 0.107383041982694 
2368	 0.107321198473877 
2369	 0.107228012329466 
2370	 0.107151626275011 
2371	 0.10701090948298 
2372	 0.106772526266172 
2373	 0.106594688355117 
2374	 0.106452740897365 
2375	 0.106302435710613 
2376	 0.106220249690669 
2377	 0.106122915831803 
2378	 0.105913301098342 
2379	 0.105783566157952 
2380	 0.105774388307225 
2381	 0.105723358000396 
2382	 0.105669770240635 
2383	 0.105523306635918 
2384	 0.105319015053646 
2385	 0.105097541628624 
2386	 0.104857763965651 
2387	 0.104763589760812 
2388	 0.104629222530735 
2389	 0.104495092204195 
2390	 0.104425123115298 
2391	 0.104201186548201 
2392	 0.10401665618281 
2393	 0.103840497283027 
2394	 0.103602529415859 
2395	 0.103447993539571 
2396	 0.103303469380677 
2397	 0.103159882689019 
2398	 0.102983214328805 
2399	 0.102816137158588 
2400	 0.102671412167309 
2401	 0.102515820120708 
2402	 0.10248897913075 
2403	 0.102482434150459 
2404	 0.102367711607238 
2405	 0.102269271858838 
2406	 0.10202732634362 
2407	 0.101690667828563 
2408	 0.101452100117119 
2409	 0.101154466648175 
2410	 0.100992386607952 
2411	 0.10097584191036 
2412	 0.100843765164771 
2413	 0.100735035347918 
2414	 0.100619882319617 
2415	 0.100340070989812 
2416	 0.100100065950761 
2417	 9.98830728122417E-02 
2418	 9.96874596964361E-02 
2419	 9.94487268583267E-02 
2420	 9.92718373739762E-02 
2421	 9.91379880704503E-02 
2422	 9.89860121311131E-02 
2423	 9.88588265132305E-02 
2424	 9.87128119441094E-02 
2425	 9.85652189703006E-02 
2426	 9.84538496222619E-02 
2427	 9.84083660738111E-02 
2428	 9.82372322728174E-02 
2429	 9.80212785200686E-02 
2430	 9.78244052999695E-02 
2431	 9.74889542540698E-02 
2432	 9.72495395311586E-02 
2433	 9.70932268523524E-02 
2434	 9.69099539940991E-02 
2435	 9.67530453230305E-02 
2436	 9.66049752254647E-02 
2437	 9.64682062056364E-02 
2438	 0.096323723687428 
2439	 9.61782098536356E-02 
2440	 9.59827374337621E-02 
2441	 9.57534199773052E-02 
2442	 9.56556170053005E-02 
2443	 9.56024722861098E-02 
2444	 9.54792055016026E-02 
2445	 9.54488155658963E-02 
2446	 9.52510985931025E-02 
2447	 9.48415593783985E-02 
2448	 9.46061414436821E-02 
2449	 0.094398619632086 
2450	 9.41556332675978E-02 
2451	 9.40006830876463E-02 
2452	 9.39066895754512E-02 
2453	 9.37943430975533E-02 
2454	 9.36492195987193E-02 
2455	 9.35870692782315E-02 
2456	 9.33702618289502E-02 
2457	 9.29735812150079E-02 
2458	 9.28099285096601E-02 
2459	 9.27166940883517E-02 
2460	 9.25829905920656E-02 
2461	 9.25652222223728E-02 
2462	 9.24687036843134E-02 
2463	 9.23229378549248E-02 
2464	 9.21169706282715E-02 
2465	 9.18368797091762E-02 
2466	 9.15765888333447E-02 
2467	 9.12563262332613E-02 
2468	 9.10524776839311E-02 
2469	 9.09183071609402E-02 
2470	 9.08559746632495E-02 
2471	 9.08306801770168E-02 
2472	 0.090762265717745 
2473	 9.06258663573316E-02 
2474	 9.05432104426118E-02 
2475	 9.03634763412349E-02 
2476	 9.01565560252701E-02 
2477	 9.00352117060808E-02 
2478	 8.96428225112414E-02 
2479	 8.93166741734102E-02 
2480	 8.93155795609843E-02 
2481	 8.91865019923582E-02 
2482	 8.91979410931644E-02 
2483	 8.91345638669185E-02 
2484	 8.86786119629338E-02 
2485	 0.08836055960464 
2486	 8.81759296807039E-02 
2487	 8.80641690263382E-02 
2488	 8.78172275855866E-02 
2489	 8.74874245418348E-02 
2490	 8.75513042546481E-02 
2491	 8.77608450184472E-02 
2492	 8.79317238519132E-02 
2493	 8.81272960286166E-02 
2494	 8.81310242055124E-02 
2495	 8.78914394975821E-02 
2496	 8.77827320877608E-02 
2497	 8.77715656771214E-02 
2498	 8.74353037816343E-02 
2499	 8.69567529831178E-02 
2500	 8.66799648888411E-02 
