Wavelength	MM_3300000.asd
350	 3.88674685293828E-02 
351	 0.035518435787722 
352	 3.31895416260583E-02 
353	 3.27323793445161E-02 
354	 2.84170385101902E-02 
355	 2.73704829887277E-02 
356	 2.83807823303032E-02 
357	 0.029567903939325 
358	 3.61262032390511E-02 
359	 3.73964068546452E-02 
360	 3.37876706920508E-02 
361	 3.26155048080488E-02 
362	 3.01908883758469E-02 
363	 3.06864791355594E-02 
364	 3.43637390700424E-02 
365	 3.44383007027232E-02 
366	 3.15039322223137E-02 
367	 2.79757675230424E-02 
368	 0.026723361406214 
369	 3.02132380421869E-02 
370	 3.12316425581813E-02 
371	 3.08293458674098E-02 
372	 3.48156577411926E-02 
373	 3.37955446469925E-02 
374	 3.15785396702535E-02 
375	 0.031433029118833 
376	 3.29298007214913E-02 
377	 3.14042887933791E-02 
378	 3.09550217265181E-02 
379	 3.54794809577703E-02 
380	 3.66745256774804E-02 
381	 3.57104141062175E-02 
382	 3.53058886761159E-02 
383	 3.83473953592871E-02 
384	 3.71188604186456E-02 
385	 3.62605377862528E-02 
386	 3.77794359015216E-02 
387	 3.48956364965419E-02 
388	 0.036444696916259 
389	 3.93945526370324E-02 
390	 3.86941836703944E-02 
391	 3.91502337921156E-02 
392	 3.87292368911458E-02 
393	 3.89994724937828E-02 
394	 4.40364237464463E-02 
395	 4.38973534408664E-02 
396	 4.39535098232552E-02 
397	 4.72048881517529E-02 
398	 4.58382473722904E-02 
399	 4.54796224004296E-02 
400	 4.68576236182289E-02 
401	 4.86417603008954E-02 
402	 4.89693021549544E-02 
403	 4.86720542632223E-02 
404	 4.84620858590505E-02 
405	 0.048716583726462 
406	 5.05108027764666E-02 
407	 5.23661343753395E-02 
408	 5.28873956818644E-02 
409	 5.19507523805072E-02 
410	 0.051338217376326 
411	 5.16973585447601E-02 
412	 5.28934808232025E-02 
413	 5.40075632179164E-02 
414	 5.43696527775444E-02 
415	 5.41241272226133E-02 
416	 5.43318045735417E-02 
417	 5.48572882861013E-02 
418	 5.55223402663646E-02 
419	 5.61007633634368E-02 
420	 0.05633571246463 
421	 5.63849655499308E-02 
422	 5.64814814399431E-02 
423	 5.68383222291417E-02 
424	 5.70628984680052E-02 
425	 5.67437340425457E-02 
426	 5.62472779595224E-02 
427	 5.74352206781376E-02 
428	 5.78523972852277E-02 
429	 5.77408575730154E-02 
430	 5.79309514283302E-02 
431	 0.057399454616615 
432	 5.71968240232939E-02 
433	 5.74908007606307E-02 
434	 5.75542658407313E-02 
435	 5.81295413745457E-02 
436	 5.86850225707826E-02 
437	 5.87052663468196E-02 
438	 5.81831803396327E-02 
439	 5.85661922883949E-02 
440	 5.95458311475149E-02 
441	 5.99701820390621E-02 
442	 0.059839864167665 
443	 5.98510138411108E-02 
444	 6.03056679170808E-02 
445	 6.08486915311521E-02 
446	 6.09077794567474E-02 
447	 6.09919471157017E-02 
448	 6.16295756483909E-02 
449	 0.061976686431963 
450	 6.22679765168488E-02 
451	 6.25308967266417E-02 
452	 6.26060122522722E-02 
453	 6.26812348655279E-02 
454	 6.26627428668012E-02 
455	 6.26077377907696E-02 
456	 6.30943680139941E-02 
457	 6.35701754475324E-02 
458	 6.37059052937406E-02 
459	 6.34399963569554E-02 
460	 6.38101488493597E-02 
461	 0.064150027474268 
462	 6.41819517762685E-02 
463	 6.43903233217602E-02 
464	 6.45105554652949E-02 
465	 6.45163528466015E-02 
466	 6.44944731767091E-02 
467	 6.47126815052458E-02 
468	 6.49608471946164E-02 
469	 0.065120479690734 
470	 6.51751890917918E-02 
471	 0.065358327222958 
472	 6.54012455564992E-02 
473	 6.52260596208256E-02 
474	 6.54109020718225E-02 
475	 6.55638530961833E-02 
476	 6.55800910741231E-02 
477	 0.065527416266301 
478	 0.065758016326431 
479	 6.60774262744408E-02 
480	 0.066239313590236 
481	 6.59816314538608E-02 
482	 6.62513623381923E-02 
483	 0.06663227989651 
484	 6.65705748084021E-02 
485	 6.66247773416134E-02 
486	 6.66627446921031E-02 
487	 6.67113699258943E-02 
488	 6.69235691033888E-02 
489	 6.71037345460657E-02 
490	 6.72166525508802E-02 
491	 6.72397932585183E-02 
492	 6.70825957054255E-02 
493	 6.69282329095437E-02 
494	 0.066949771265226 
495	 6.72525291246473E-02 
496	 6.75374654524518E-02 
497	 6.77145675889169E-02 
498	 6.77710035630161E-02 
499	 6.77574719776251E-02 
500	 6.78932288241127E-02 
501	 6.80222949798889E-02 
502	 6.79886234507154E-02 
503	 6.81902139405371E-02 
504	 6.83053066912861E-02 
505	 6.82606270623771E-02 
506	 0.068232585276495 
507	 6.83131878087889E-02 
508	 6.85091257741632E-02 
509	 6.87221289555048E-02 
510	 6.86123600976029E-02 
511	 6.86550113343629E-02 
512	 6.88326859722559E-02 
513	 6.88764496374922E-02 
514	 6.88429297597051E-02 
515	 6.88267689123799E-02 
516	 6.88900192681181E-02 
517	 6.90474939155247E-02 
518	 6.90740370316761E-02 
519	 6.90463277281671E-02 
520	 6.91142272200841E-02 
521	 0.06921853859772 
522	 6.93314441273503E-02 
523	 6.94010098679281E-02 
524	 6.93541607881182E-02 
525	 6.94290893961679E-02 
526	 6.95502429449951E-02 
527	 6.96144086959726E-02 
528	 6.96709960500378E-02 
529	 0.06973564767802 
530	 6.98196725479747E-02 
531	 6.99249717998639E-02 
532	 6.99777500841599E-02 
533	 7.00859634886381E-02 
534	 0.070262572826239 
535	 7.02677355401911E-02 
536	 7.02299754132421E-02 
537	 7.02542944696024E-02 
538	 7.03985149789488E-02 
539	 7.04422444336223E-02 
540	 7.05064023161149E-02 
541	 7.06295211414352E-02 
542	 7.07051733169478E-02 
543	 7.07815874125784E-02 
544	 7.08696839957156E-02 
545	 7.09740733254881E-02 
546	 7.11191131877622E-02 
547	 0.071214877512097 
548	 7.12965168112137E-02 
549	 7.14919257323907E-02 
550	 7.15282234439314E-02 
551	 7.15736927931497E-02 
552	 7.17703950495859E-02 
553	 7.19987667372624E-02 
554	 7.21134824138839E-02 
555	 7.21813591744732E-02 
556	 7.23693191991766E-02 
557	 7.25970921721398E-02 
558	 7.27519311606349E-02 
559	 7.28426508427413E-02 
560	 0.073106559271096 
561	 7.32277486132978E-02 
562	 0.073309507142557 
563	 7.35502001967706E-02 
564	 7.38123034730299E-02 
565	 7.40723235528246E-02 
566	 7.43477918573823E-02 
567	 7.46931855333634E-02 
568	 7.49848866385169E-02 
569	 7.52418365928074E-02 
570	 7.54996276954962E-02 
571	 7.57145414069667E-02 
572	 7.59774645443733E-02 
573	 7.62717891918179E-02 
574	 7.65107205112615E-02 
575	 7.67606774751766E-02 
576	 7.71207320896481E-02 
577	 7.75906430615453E-02 
578	 0.077939980354997 
579	 7.83439084167135E-02 
580	 7.87587847160503E-02 
581	 7.90695756731384E-02 
582	 7.93462583194045E-02 
583	 7.96165823426843E-02 
584	 7.98756588385552E-02 
585	 8.00732273920383E-02 
586	 8.04248589022869E-02 
587	 0.08085167703303 
588	 8.12170613606643E-02 
589	 8.15664688753021E-02 
590	 8.18905112946995E-02 
591	 0.082183403751974 
592	 8.24458759738657E-02 
593	 8.26824467300064E-02 
594	 8.29164582829692E-02 
595	 8.31785871682133E-02 
596	 8.35030037100126E-02 
597	 8.39411560787518E-02 
598	 0.084443608057822 
599	 8.49103374873943E-02 
600	 8.53561569608705E-02 
601	 8.56975358474387E-02 
602	 8.59246812831838E-02 
603	 8.61729694753763E-02 
604	 8.64226901374954E-02 
605	 8.66605378512694E-02 
606	 8.68822669733846E-02 
607	 8.71446423893258E-02 
608	 8.74231182832468E-02 
609	 8.76753194659854E-02 
610	 8.78479336050367E-02 
611	 8.80379182100708E-02 
612	 0.08826186643715 
613	 8.84992153750478E-02 
614	 8.86849726648646E-02 
615	 8.88527322592223E-02 
616	 8.90152802066248E-02 
617	 8.91705848929709E-02 
618	 8.93412448296315E-02 
619	 0.089482989328601 
620	 8.95842784662626E-02 
621	 8.97262186648313E-02 
622	 8.98492940968955E-02 
623	 8.99716742759381E-02 
624	 9.01252711662862E-02 
625	 9.02209759300667E-02 
626	 9.03011270069377E-02 
627	 9.03902365491299E-02 
628	 9.04739681872926E-02 
629	 0.090603115553423 
630	 0.090741384267519 
631	 9.08437066237269E-02 
632	 9.09310412201858E-02 
633	 9.10155804693623E-02 
634	 0.091106425505465 
635	 9.12091094892194E-02 
636	 9.13210310324614E-02 
637	 9.14167286180679E-02 
638	 9.14816033036545E-02 
639	 9.15316425569689E-02 
640	 9.16022674496718E-02 
641	 9.16984552095059E-02 
642	 9.18071731911694E-02 
643	 9.19187484449158E-02 
644	 0.092011382251849 
645	 9.20852649214943E-02 
646	 9.21729148869921E-02 
647	 9.22440923774818E-02 
648	 9.23197124598299E-02 
649	 9.24275951787159E-02 
650	 9.25702647450133E-02 
651	 9.26475469455203E-02 
652	 9.26830549773727E-02 
653	 9.28040255147261E-02 
654	 9.29635729176773E-02 
655	 9.30484710770912E-02 
656	 9.30440421515934E-02 
657	 9.32215257894508E-02 
658	 9.33231525834301E-02 
659	 9.33869029283529E-02 
660	 9.35566910594321E-02 
661	 9.36327845292003E-02 
662	 9.37174777397925E-02 
663	 9.38522358459281E-02 
664	 9.39490466283398E-02 
665	 9.40616919677792E-02 
666	 9.41710881761121E-02 
667	 9.42570109844862E-02 
668	 9.43762488190328E-02 
669	 0.094514465654494 
670	 9.46540501110169E-02 
671	 9.47766002736578E-02 
672	 9.48725113103955E-02 
673	 9.49883608461032E-02 
674	 9.51401028505538E-02 
675	 9.52469001407234E-02 
676	 9.53687769990415E-02 
677	 9.55085411486958E-02 
678	 9.56453163643397E-02 
679	 9.57764564143034E-02 
680	 9.58983125401709E-02 
681	 9.60192865461365E-02 
682	 9.61624331727485E-02 
683	 9.63387001010843E-02 
684	 9.65086542331995E-02 
685	 9.66438737642195E-02 
686	 9.68061941858833E-02 
687	 9.69626866344036E-02 
688	 9.71117794922433E-02 
689	 9.72704532064361E-02 
690	 9.73879721885966E-02 
691	 9.74979992554072E-02 
692	 9.76335799775568E-02 
693	 9.78080225711453E-02 
694	 0.097937251886443 
695	 9.80558625270657E-02 
696	 9.82272936057961E-02 
697	 9.84117542750932E-02 
698	 9.85402230330476E-02 
699	 9.86512086891862E-02 
700	 9.88881724164368E-02 
701	 9.90484598581126E-02 
702	 9.91740916329362E-02 
703	 9.93239251407114E-02 
704	 9.94436587170375E-02 
705	 9.96043195078241E-02 
706	 9.97615143873523E-02 
707	 9.98359507215355E-02 
708	 9.99991359294209E-02 
709	 0.100165187170901 
710	 0.100292927071149 
711	 0.100445669707135 
712	 0.100607082824403 
713	 0.100749772780704 
714	 0.100861655427652 
715	 0.100998948831375 
716	 0.101153681650733 
717	 0.101301281255613 
718	 0.101409975508794 
719	 0.101505128842652 
720	 0.101615346287197 
721	 0.101735279152301 
722	 0.101789691670526 
723	 0.101883010553099 
724	 0.102011652757312 
725	 0.102135867091867 
726	 0.102247220502004 
727	 0.102327676611281 
728	 0.102403637792444 
729	 0.102534464289009 
730	 0.102608035353685 
731	 0.10265512668207 
732	 0.102717935406445 
733	 0.102801937561606 
734	 0.102884967494638 
735	 0.102929699606929 
736	 0.102917270591142 
737	 0.102967876364515 
738	 0.103035524888622 
739	 0.10308632614934 
740	 0.103115431037965 
741	 0.103166564943066 
742	 0.103205344078475 
743	 0.103206195090365 
744	 0.103212530204217 
745	 0.103220131691563 
746	 0.103239785838922 
747	 0.103274563994805 
748	 0.103233369688289 
749	 0.10319354473506 
750	 0.10318672231926 
751	 0.103170867053919 
752	 0.103138407249053 
753	 0.103124769455886 
754	 0.10313970764585 
755	 0.103082775318143 
756	 0.103051903749364 
757	 0.103039405306636 
758	 0.102991687325713 
759	 0.102961233434536 
760	 0.102880558931633 
761	 0.102774825299305 
762	 0.102792231306548 
763	 0.102752337429818 
764	 0.102690453934448 
765	 0.102653709334972 
766	 0.102560436361192 
767	 0.102509850520207 
768	 0.102474765756135 
769	 0.102380431242352 
770	 0.102315611867436 
771	 0.102251471358356 
772	 0.102171529483787 
773	 0.102086952263664 
774	 0.102016572665484 
775	 0.101947295465143 
776	 0.10186706651547 
777	 0.101788134339331 
778	 0.101712319343636 
779	 0.101640156306053 
780	 0.101569674356463 
781	 0.101493933525401 
782	 0.101398770933373 
783	 0.101292504866887 
784	 0.101206291307258 
785	 0.101133520464951 
786	 0.101049333365575 
787	 0.100955825031822 
788	 0.100935877615585 
789	 0.100864836634016 
790	 0.100757438933926 
791	 0.100671149952553 
792	 0.100576015768741 
793	 0.100492386272451 
794	 0.100428395463184 
795	 0.100375382525236 
796	 0.100270430098215 
797	 0.100168391230866 
798	 0.100103906857477 
799	 0.100040187778568 
800	 9.99684964347937E-02 
801	 0.099886927672344 
802	 9.97973587221539E-02 
803	 9.96961607442814E-02 
804	 9.96280918246762E-02 
805	 9.95744573776073E-02 
806	 9.94862789425618E-02 
807	 9.94332806426202E-02 
808	 9.93840581487748E-02 
809	 9.93145130463554E-02 
810	 9.92256026661897E-02 
811	 9.91600767922995E-02 
812	 9.90847464615544E-02 
813	 9.89852988519722E-02 
814	 9.89527370694285E-02 
815	 9.88724430265476E-02 
816	 9.87871445069147E-02 
817	 9.87755144138123E-02 
818	 9.87325350247234E-02 
819	 9.86626834086336E-02 
820	 9.85847698167258E-02 
821	 9.85227709361388E-02 
822	 9.84632304702317E-02 
823	 9.84099535157284E-02 
824	 9.83654404386297E-02 
825	 9.83268226824443E-02 
826	 9.82833036255185E-02 
827	 0.098218205069002 
828	 9.81395974519703E-02 
829	 9.81418568061283E-02 
830	 9.80819414689468E-02 
831	 9.79984023417152E-02 
832	 9.79961581014928E-02 
833	 9.79872225127055E-02 
834	 9.79370471059625E-02 
835	 9.78686067381556E-02 
836	 9.78510274881325E-02 
837	 9.78675922200964E-02 
838	 9.78665112255232E-02 
839	 9.78219789564204E-02 
840	 9.77627129902812E-02 
841	 9.76961327244786E-02 
842	 9.76603005706338E-02 
843	 9.76655686812964E-02 
844	 9.76153109172564E-02 
845	 9.75832515319693E-02 
846	 9.75674381886222E-02 
847	 9.75389100945683E-02 
848	 9.75372888890062E-02 
849	 9.75122515371654E-02 
850	 9.74687665287262E-02 
851	 9.74594861006124E-02 
852	 9.74735231402718E-02 
853	 9.74547646148519E-02 
854	 9.74032204084211E-02 
855	 9.74063542568577E-02 
856	 9.74501362448756E-02 
857	 9.74787196987954E-02 
858	 9.74585560216844E-02 
859	 9.74358158202153E-02 
860	 9.74459194411985E-02 
861	 9.74855203306766E-02 
862	 9.75184275122757E-02 
863	 9.74497146973084E-02 
864	 0.09740680162322 
865	 9.74252364617624E-02 
866	 9.74681902012145E-02 
867	 9.74810840925891E-02 
868	 9.74636144950204E-02 
869	 9.74557415384244E-02 
870	 9.75198781862392E-02 
871	 9.75565057925602E-02 
872	 9.75555111510259E-02 
873	 9.75514692335124E-02 
874	 9.76208567605884E-02 
875	 9.76549016015226E-02 
876	 9.76399700374802E-02 
877	 9.76120789573796E-02 
878	 9.76682636940009E-02 
879	 9.77194707101422E-02 
880	 9.77454087529128E-02 
881	 9.77594986408658E-02 
882	 9.78003728258676E-02 
883	 9.78564027622068E-02 
884	 9.78994657023631E-02 
885	 9.79109737150745E-02 
886	 9.79793486016786E-02 
887	 9.80569977209471E-02 
888	 0.098097023886688 
889	 9.80808333130756E-02 
890	 0.098149405716917 
891	 9.82331695525275E-02 
892	 9.82722927371831E-02 
893	 9.82625633311747E-02 
894	 9.82880564619974E-02 
895	 9.83733644515559E-02 
896	 9.84949113065941E-02 
897	 9.85738897789257E-02 
898	 9.85818026016889E-02 
899	 9.86106534795619E-02 
900	 9.87136389419353E-02 
901	 0.09875062145263 
902	 9.88027302430488E-02 
903	 9.88842650091503E-02 
904	 0.098979546702154 
905	 9.90489735670429E-02 
906	 9.91459094085377E-02 
907	 9.92395605738063E-02 
908	 0.099286026025543 
909	 9.93971812001705E-02 
910	 9.94817019969624E-02 
911	 9.95464119520191E-02 
912	 9.96537932765503E-02 
913	 9.97271099938684E-02 
914	 9.97837630676455E-02 
915	 0.099856632932788 
916	 9.99709011765769E-02 
917	 0.100024520355319 
918	 0.100074816161359 
919	 0.100159898396904 
920	 0.100267697937089 
921	 0.100369349634894 
922	 0.100483483376068 
923	 0.100625980099298 
924	 0.100793180200986 
925	 0.100887088903879 
926	 0.100952224179008 
927	 0.101034369314822 
928	 0.101118367602696 
929	 0.101215804724109 
930	 0.101317773151642 
931	 0.101427307348016 
932	 0.101589422869129 
933	 0.101700633349962 
934	 0.101766195706627 
935	 0.101834173022089 
936	 0.101970262893054 
937	 0.10208004122561 
938	 0.102187696799449 
939	 0.102334339723559 
940	 0.102472176050461 
941	 0.102608789511259 
942	 0.102762547865077 
943	 0.102930177366678 
944	 0.103008099027447 
945	 0.103101394011205 
946	 0.103196487830978 
947	 0.103252514209252 
948	 0.103374160819808 
949	 0.103501235520095 
950	 0.103592594193749 
951	 0.103665130592419 
952	 0.103944513415079 
953	 0.104097552441642 
954	 0.10412545471996 
955	 0.10421135257615 
956	 0.104282254376877 
957	 0.104465640699535 
958	 0.104667067325234 
959	 0.104713307542264 
960	 0.104830065858255 
961	 0.104914541401236 
962	 0.10503397596891 
963	 0.105305609158558 
964	 0.105407898740665 
965	 0.105572314988921 
966	 0.105791091174932 
967	 0.105915749892515 
968	 0.106151693409007 
969	 0.106309149757537 
970	 0.106316659144159 
971	 0.106258587771327 
972	 0.106452630483578 
973	 0.10667008290656 
974	 0.106841123124675 
975	 0.107038078663919 
976	 0.107311475411933 
977	 0.107428112303164 
978	 0.107453829757816 
979	 0.107608767857744 
980	 0.107714092591071 
981	 0.107854286161233 
982	 0.108024842450993 
983	 0.10816360889758 
984	 0.108268657428552 
985	 0.108361952891519 
986	 0.108479473064036 
987	 0.108651844472008 
988	 0.108861540617571 
989	 0.109086758114775 
990	 0.109286127633057 
991	 0.109430840416959 
992	 0.109586855462485 
993	 0.109620544703738 
994	 0.109702496345779 
995	 0.110006451755488 
996	 0.110148552144618 
997	 0.110271995211682 
998	 0.11044891516771 
999	 0.11066928145657 
1000	 0.110746526672914 
1001	 0.10911546810051 
1002	 0.109232254233103 
1003	 0.10933712600404 
1004	 0.109449823382217 
1005	 0.109554384821071 
1006	 0.109690050279946 
1007	 0.10984418474694 
1008	 0.109989212819321 
1009	 0.110146217556352 
1010	 0.110299498412242 
1011	 0.110380583197032 
1012	 0.110453215096727 
1013	 0.110516147962657 
1014	 0.110533138058757 
1015	 0.11056632904116 
1016	 0.110634228534594 
1017	 0.110741107397931 
1018	 0.110884292866376 
1019	 0.111044055130716 
1020	 0.11117668228833 
1021	 0.111282345525392 
1022	 0.111333179192194 
1023	 0.111344217864647 
1024	 0.111403549197375 
1025	 0.111446464477125 
1026	 0.111470881561781 
1027	 0.111565843654784 
1028	 0.111635488649799 
1029	 0.111737785974997 
1030	 0.111892888962105 
1031	 0.111994855415232 
1032	 0.112070101678876 
1033	 0.112157593029033 
1034	 0.11221584667192 
1035	 0.112210844026113 
1036	 0.112239623047511 
1037	 0.112295287299016 
1038	 0.112363135360949 
1039	 0.112475419833494 
1040	 0.112591900560958 
1041	 0.112689883159288 
1042	 0.112795064309697 
1043	 0.112865784383849 
1044	 0.112920620525757 
1045	 0.112949206642327 
1046	 0.113002251039687 
1047	 0.113054422453461 
1048	 0.113139354250784 
1049	 0.113301680463248 
1050	 0.113433029703214 
1051	 0.113514502690629 
1052	 0.113598135674812 
1053	 0.113632024625422 
1054	 0.113658758982987 
1055	 0.113703121497805 
1056	 0.113744516333988 
1057	 0.113833099401387 
1058	 0.113981312076091 
1059	 0.114074604487265 
1060	 0.114174750143202 
1061	 0.114295363712014 
1062	 0.114321850682326 
1063	 0.114303612511958 
1064	 0.114344362135093 
1065	 0.114415052285294 
1066	 0.11445323460526 
1067	 0.114494274820693 
1068	 0.114536601021521 
1069	 0.114567818738424 
1070	 0.114623951629121 
1071	 0.11473296400904 
1072	 0.114790719398812 
1073	 0.114829025914234 
1074	 0.114858525940286 
1075	 0.11484651662327 
1076	 0.11487757214334 
1077	 0.114919529811938 
1078	 0.114968091953892 
1079	 0.115037556639219 
1080	 0.115102074314685 
1081	 0.115110060730727 
1082	 0.115118561034968 
1083	 0.115142468292937 
1084	 0.115143753117046 
1085	 0.115155096112215 
1086	 0.115212572917386 
1087	 0.115223215474634 
1088	 0.115200943038043 
1089	 0.115170800617411 
1090	 0.115184908239488 
1091	 0.115204531663635 
1092	 0.115244449823334 
1093	 0.115319236217235 
1094	 0.115377307975415 
1095	 0.115431510114603 
1096	 0.115452165321525 
1097	 0.115463343819235 
1098	 0.11546582508069 
1099	 0.115421190554843 
1100	 0.115415799484359 
1101	 0.115421430449105 
1102	 0.115436703461485 
1103	 0.115471876828534 
1104	 0.115509934704786 
1105	 0.115508452386954 
1106	 0.115525192331808 
1107	 0.115519957500123 
1108	 0.115521146361457 
1109	 0.115570975332603 
1110	 0.11561960474113 
1111	 0.115657387303497 
1112	 0.115703394210542 
1113	 0.115725719503841 
1114	 0.115731375170155 
1115	 0.115745769931748 
1116	 0.115744192201932 
1117	 0.115760262843452 
1118	 0.115786330026096 
1119	 0.11580721714007 
1120	 0.115849065999629 
1121	 0.115896681524728 
1122	 0.115935045831387 
1123	 0.115964210891087 
1124	 0.116001471957799 
1125	 0.116033422847599 
1126	 0.116063579433682 
1127	 0.116110379993034 
1128	 0.116128276541668 
1129	 0.116119834670927 
1130	 0.116127815931163 
1131	 0.116138883160592 
1132	 0.116139931500414 
1133	 0.116145604927874 
1134	 0.116135045754595 
1135	 0.116102918769851 
1136	 0.116068112805676 
1137	 0.116069484307031 
1138	 0.116084598951866 
1139	 0.11607848978422 
1140	 0.116094072395638 
1141	 0.116078020990299 
1142	 0.116032557283635 
1143	 0.115986074604552 
1144	 0.11592260729354 
1145	 0.115878885782698 
1146	 0.115829415744791 
1147	 0.115787193800424 
1148	 0.115764832889217 
1149	 0.115734060938674 
1150	 0.115695340198596 
1151	 0.115660306016333 
1152	 0.115625884768825 
1153	 0.115610541962209 
1154	 0.115596238872065 
1155	 0.115584948680432 
1156	 0.115584692506425 
1157	 0.115592382180575 
1158	 0.115603951905287 
1159	 0.115637802618068 
1160	 0.115648670284786 
1161	 0.115649978698676 
1162	 0.115656704534891 
1163	 0.11564920183032 
1164	 0.115649896987342 
1165	 0.115656084922505 
1166	 0.115673845652498 
1167	 0.115673022862304 
1168	 0.115675595143425 
1169	 0.115691328582585 
1170	 0.115712721799385 
1171	 0.115731011815849 
1172	 0.115768182454546 
1173	 0.115782543591837 
1174	 0.115783885022737 
1175	 0.115784023246539 
1176	 0.115758807660853 
1177	 0.115765688415557 
1178	 0.115794997846531 
1179	 0.115807498447818 
1180	 0.115830637569093 
1181	 0.115850229581179 
1182	 0.115857789922683 
1183	 0.11585889851213 
1184	 0.115868474226793 
1185	 0.115883492151789 
1186	 0.115904221574855 
1187	 0.115928412020893 
1188	 0.115948220774379 
1189	 0.115984173856616 
1190	 0.115997988990645 
1191	 0.115993957081892 
1192	 0.115993864093755 
1193	 0.115974296445725 
1194	 0.115979122619062 
1195	 0.115988025755266 
1196	 0.116010822118501 
1197	 0.116072793155798 
1198	 0.11610624761167 
1199	 0.116131958058585 
1200	 0.116154906876434 
1201	 0.116173534585659 
1202	 0.116168934189219 
1203	 0.116189220155022 
1204	 0.11623045680166 
1205	 0.116247279316958 
1206	 0.116254553002194 
1207	 0.116271045077458 
1208	 0.116271211183955 
1209	 0.116291691951298 
1210	 0.116342913497651 
1211	 0.116370487252315 
1212	 0.11639289441879 
1213	 0.116413705705092 
1214	 0.116412169393373 
1215	 0.116427609410556 
1216	 0.116450284415481 
1217	 0.116485600253118 
1218	 0.116507622605883 
1219	 0.116530417580965 
1220	 0.116557093313026 
1221	 0.116581183726075 
1222	 0.116601862315984 
1223	 0.116632395628828 
1224	 0.116650303950815 
1225	 0.116646552788494 
1226	 0.116661530056564 
1227	 0.116689513677388 
1228	 0.116705563731446 
1229	 0.116714745353003 
1230	 0.116734998461003 
1231	 0.116754907031128 
1232	 0.116775049428941 
1233	 0.116799581525239 
1234	 0.116843834837923 
1235	 0.116861292586722 
1236	 0.116861792316121 
1237	 0.116875333754145 
1238	 0.116879702570682 
1239	 0.116899416368219 
1240	 0.116942946781528 
1241	 0.116959127879567 
1242	 0.116962785778557 
1243	 0.116975068268167 
1244	 0.116971776807946 
1245	 0.116982246076163 
1246	 0.117011433142127 
1247	 0.117033502958403 
1248	 0.117057022762275 
1249	 0.117073655841639 
1250	 0.117098447627448 
1251	 0.117126072558076 
1252	 0.117141400309254 
1253	 0.117149823849752 
1254	 0.117168287135767 
1255	 0.117184956021118 
1256	 0.117196186920444 
1257	 0.117222851843393 
1258	 0.117224990223441 
1259	 0.117189542410557 
1260	 0.117191118832198 
1261	 0.117211575219133 
1262	 0.117213881794362 
1263	 0.117231782575263 
1264	 0.117233030529716 
1265	 0.117193603095937 
1266	 0.117183049949215 
1267	 0.117182417110874 
1268	 0.117192811820218 
1269	 0.117203215472301 
1270	 0.117230326884342 
1271	 0.11724308765495 
1272	 0.117252466326756 
1273	 0.117258123535709 
1274	 0.117249657581075 
1275	 0.117266918157553 
1276	 0.117286866827275 
1277	 0.117319300441137 
1278	 0.117392648936756 
1279	 0.117424779623897 
1280	 0.117430536744293 
1281	 0.117456209622747 
1282	 0.117474051573734 
1283	 0.117497673328281 
1284	 0.117540874750398 
1285	 0.117580197560988 
1286	 0.117602255247211 
1287	 0.117592213588896 
1288	 0.11760582872709 
1289	 0.117613905372596 
1290	 0.117637198521138 
1291	 0.117682302128388 
1292	 0.117703894700381 
1293	 0.117725678018814 
1294	 0.117731787349991 
1295	 0.117725672299832 
1296	 0.117709042580057 
1297	 0.117683759389241 
1298	 0.117647476619858 
1299	 0.117585243012991 
1300	 0.117537830978991 
1301	 0.117483504994892 
1302	 0.117440416946398 
1303	 0.117411553334676 
1304	 0.117383933116473 
1305	 0.117337904582116 
1306	 0.117280344715627 
1307	 0.117233358350041 
1308	 0.117183654515761 
1309	 0.11711187221366 
1310	 0.117039106225364 
1311	 0.116958592778802 
1312	 0.116843586978886 
1313	 0.116756238511668 
1314	 0.116691551143458 
1315	 0.116609603256338 
1316	 0.116514701550336 
1317	 0.116434407048294 
1318	 0.11636391478925 
1319	 0.11628038406117 
1320	 0.116203455041657 
1321	 0.116120044316362 
1322	 0.116024935704949 
1323	 0.115923601216663 
1324	 0.115835865961946 
1325	 0.115743551867754 
1326	 0.115654191038674 
1327	 0.115574261333979 
1328	 0.115496190141287 
1329	 0.115411158939098 
1330	 0.115321389660838 
1331	 0.115222680682577 
1332	 0.115134629227257 
1333	 0.115054723624323 
1334	 0.11495524732684 
1335	 0.114842209785169 
1336	 0.114748251816845 
1337	 0.11464360813325 
1338	 0.114555397508771 
1339	 0.114505748796233 
1340	 0.114426293292927 
1341	 0.114330150957662 
1342	 0.114239187763124 
1343	 0.114139771704425 
1344	 0.114039605547031 
1345	 0.113962588140877 
1346	 0.113885962315859 
1347	 0.113798646446064 
1348	 0.113709839300159 
1349	 0.113598750333048 
1350	 0.113481810347479 
1351	 0.113373572363624 
1352	 0.113266133245693 
1353	 0.113160626787369 
1354	 0.113066489088966 
1355	 0.112953958757016 
1356	 0.112826688271448 
1357	 0.112714544891606 
1358	 0.112592556413395 
1359	 0.112483334365205 
1360	 0.112398034158669 
1361	 0.11229864735023 
1362	 0.112188664264961 
1363	 0.112092800525582 
1364	 0.11200323893048 
1365	 0.111911087334313 
1366	 0.111830231411582 
1367	 0.111742215275344 
1368	 0.111649888003512 
1369	 0.111535834991178 
1370	 0.111394715214286 
1371	 0.111242103676907 
1372	 0.111061153889843 
1373	 0.110856497506938 
1374	 0.110619849224824 
1375	 0.110363917951268 
1376	 0.110061863898515 
1377	 0.109727091411037 
1378	 0.109348203408161 
1379	 0.108915194279005 
1380	 0.108482038926627 
1381	 0.108022436781201 
1382	 0.107532142429811 
1383	 0.107032094139037 
1384	 0.106497231822545 
1385	 0.105935418674669 
1386	 0.105334273474007 
1387	 0.10470621836393 
1388	 0.104046313801555 
1389	 0.103355442893565 
1390	 0.102617801061102 
1391	 0.10184131570059 
1392	 0.101036121448221 
1393	 0.100173875114307 
1394	 9.92894327623595E-02 
1395	 9.84076108220171E-02 
1396	 9.75229997439639E-02 
1397	 9.66482379122577E-02 
1398	 9.57762103527304E-02 
1399	 9.49130416496232E-02 
1400	 9.40429869741982E-02 
1401	 9.32076105872421E-02 
1402	 9.23766816627893E-02 
1403	 9.15922149898635E-02 
1404	 0.090833404558266 
1405	 9.01186910132703E-02 
1406	 8.94464929166572E-02 
1407	 8.87945221716553E-02 
1408	 8.81670656747572E-02 
1409	 0.087581155155613 
1410	 8.70212751218885E-02 
1411	 8.65041720419684E-02 
1412	 8.60217827849576E-02 
1413	 0.085594097447 
1414	 8.52048924992619E-02 
1415	 8.48390946489702E-02 
1416	 8.45131724820346E-02 
1417	 8.42171671135765E-02 
1418	 8.39391176318798E-02 
1419	 0.083681031333551 
1420	 8.34549046860658E-02 
1421	 8.32448489993192E-02 
1422	 8.30487169551131E-02 
1423	 8.28679362638546E-02 
1424	 8.26792342078345E-02 
1425	 8.24893361762361E-02 
1426	 8.23164606128332E-02 
1427	 0.082138920667944 
1428	 8.19877195060634E-02 
1429	 8.18592285190834E-02 
1430	 8.17341654680463E-02 
1431	 8.16210788791012E-02 
1432	 8.15193814917501E-02 
1433	 0.081433462252283 
1434	 8.13452618391683E-02 
1435	 8.12554338618598E-02 
1436	 8.11889524958378E-02 
1437	 8.11340212821808E-02 
1438	 8.10856227072712E-02 
1439	 8.10592652264121E-02 
1440	 8.10325635856771E-02 
1441	 8.09979681197001E-02 
1442	 8.09642370634943E-02 
1443	 8.09325443034727E-02 
1444	 8.09064459553379E-02 
1445	 8.09004009072863E-02 
1446	 8.09016454499811E-02 
1447	 8.09011010568472E-02 
1448	 8.09045052642757E-02 
1449	 8.09025128326558E-02 
1450	 8.08955939060225E-02 
1451	 8.08992378245141E-02 
1452	 8.09101940116424E-02 
1453	 8.09262275365441E-02 
1454	 8.09481577419289E-02 
1455	 8.09729770109415E-02 
1456	 8.10041691577767E-02 
1457	 8.10351125909377E-02 
1458	 0.081058801468997 
1459	 8.11055206889381E-02 
1460	 8.11603079907357E-02 
1461	 8.12295750328522E-02 
1462	 8.13234939127946E-02 
1463	 8.14102837875771E-02 
1464	 8.15002660828913E-02 
1465	 8.15996826987295E-02 
1466	 8.16932829591258E-02 
1467	 8.18095962882047E-02 
1468	 8.19322474344638E-02 
1469	 8.20799938258644E-02 
1470	 0.082256625632152 
1471	 8.24451737838215E-02 
1472	 8.26203010158549E-02 
1473	 8.28095355233472E-02 
1474	 8.29830168862485E-02 
1475	 8.31556323015086E-02 
1476	 8.33500454155232E-02 
1477	 8.35438935997338E-02 
1478	 8.37485686079592E-02 
1479	 8.39608761710476E-02 
1480	 0.084173742415956 
1481	 8.43978517318168E-02 
1482	 8.46199818945023E-02 
1483	 0.084845467988306 
1484	 8.50649688337694E-02 
1485	 8.52868155766438E-02 
1486	 0.08550131479336 
1487	 8.57042370167761E-02 
1488	 8.59183533623835E-02 
1489	 8.61317165222692E-02 
1490	 8.63552338788966E-02 
1491	 8.65944540823204E-02 
1492	 8.68191108241661E-02 
1493	 8.70449021297821E-02 
1494	 8.72633512404197E-02 
1495	 8.74608056404386E-02 
1496	 8.76783413014096E-02 
1497	 8.79091025470288E-02 
1498	 8.81340237864594E-02 
1499	 8.83785028526343E-02 
1500	 8.85990715230581E-02 
1501	 8.87910492967365E-02 
1502	 8.89984132505399E-02 
1503	 8.92048372550727E-02 
1504	 8.94031078132476E-02 
1505	 8.96277997173551E-02 
1506	 8.98619502073685E-02 
1507	 0.090072952056838 
1508	 9.02772297701033E-02 
1509	 9.04744270434552E-02 
1510	 9.06635415626877E-02 
1511	 9.08691161079761E-02 
1512	 9.10809912114275E-02 
1513	 0.091272594544675 
1514	 9.14659079354554E-02 
1515	 9.16661931624156E-02 
1516	 9.18549643470734E-02 
1517	 9.20443782402698E-02 
1518	 9.22464735410738E-02 
1519	 9.24267966487391E-02 
1520	 9.25839851562903E-02 
1521	 9.27617575768806E-02 
1522	 9.29419863406158E-02 
1523	 9.31204506344907E-02 
1524	 9.33102380925996E-02 
1525	 9.34832954328857E-02 
1526	 9.36467875865479E-02 
1527	 9.38107211160982E-02 
1528	 9.39665469917924E-02 
1529	 9.41244881336261E-02 
1530	 9.42803792185883E-02 
1531	 0.094437777526272 
1532	 9.45948040750593E-02 
1533	 9.47558241585299E-02 
1534	 9.49261770793447E-02 
1535	 9.50797988489221E-02 
1536	 9.52239772574474E-02 
1537	 9.53698731107999E-02 
1538	 9.55034239481424E-02 
1539	 9.56483367795862E-02 
1540	 9.58096670053145E-02 
1541	 9.59551113482841E-02 
1542	 9.60933626049335E-02 
1543	 9.62303693534302E-02 
1544	 9.63587602484301E-02 
1545	 9.64858347208689E-02 
1546	 9.66104201086981E-02 
1547	 9.67388954749757E-02 
1548	 9.68613939859444E-02 
1549	 9.69822945189417E-02 
1550	 9.71102643553012E-02 
1551	 9.72363716439649E-02 
1552	 9.73470775357573E-02 
1553	 9.74695652291518E-02 
1554	 9.75974067339404E-02 
1555	 9.77064447953637E-02 
1556	 9.78193596497317E-02 
1557	 9.79351687040176E-02 
1558	 9.80393162728692E-02 
1559	 9.81474473331832E-02 
1560	 9.82555022664288E-02 
1561	 9.83693909297992E-02 
1562	 9.84694708756808E-02 
1563	 9.85620073198516E-02 
1564	 9.86591131755658E-02 
1565	 0.098753592017811 
1566	 9.88447306507244E-02 
1567	 9.89347688286336E-02 
1568	 9.90271815724751E-02 
1569	 9.91174781193407E-02 
1570	 0.099203794364904 
1571	 0.099294972447217 
1572	 9.93781042093669E-02 
1573	 0.099452426017256 
1574	 9.95226126402859E-02 
1575	 9.95877576123506E-02 
1576	 9.96566016746485E-02 
1577	 9.97162846300282E-02 
1578	 9.97878223440642E-02 
1579	 0.099874480201126 
1580	 9.99473243572414E-02 
1581	 0.100015047049453 
1582	 0.100085806597811 
1583	 0.100153808923171 
1584	 0.100218835186862 
1585	 0.100286233221547 
1586	 0.100349225177438 
1587	 0.100406949747731 
1588	 0.100461701047836 
1589	 0.100516276748687 
1590	 0.100567250647487 
1591	 0.100615039181632 
1592	 0.10065687152649 
1593	 0.100685901842447 
1594	 0.100727692150389 
1595	 0.100767522343763 
1596	 0.100813389726678 
1597	 0.100880259836814 
1598	 0.100928905974238 
1599	 0.100974981712771 
1600	 0.101012922164429 
1601	 0.101028297683537 
1602	 0.101059550062474 
1603	 0.101104556753261 
1604	 0.101128468355937 
1605	 0.101138590278059 
1606	 0.101165525362246 
1607	 0.101185472481407 
1608	 0.101209105151553 
1609	 0.101253339875707 
1610	 0.10129449674274 
1611	 0.101341502359248 
1612	 0.101371887964618 
1613	 0.10140554430292 
1614	 0.101440714122478 
1615	 0.101445493480389 
1616	 0.101476393012349 
1617	 0.101525268223672 
1618	 0.101545685114198 
1619	 0.101566098567641 
1620	 0.101587816044922 
1621	 0.101614255237763 
1622	 0.101637492613795 
1623	 0.101654704909378 
1624	 0.101674611644164 
1625	 0.101698015705943 
1626	 0.101710608526493 
1627	 0.101731421452214 
1628	 0.10177126574541 
1629	 0.101790411433537 
1630	 0.101791908408183 
1631	 0.101810214508295 
1632	 0.101835926844308 
1633	 0.101848680878436 
1634	 0.101858218449489 
1635	 0.101874377913594 
1636	 0.101889283466171 
1637	 0.101893624178243 
1638	 0.101905891098135 
1639	 0.101900599728613 
1640	 0.101866881085052 
1641	 0.101858584661547 
1642	 0.101857151032277 
1643	 0.101856908525965 
1644	 0.10186664830851 
1645	 0.1018688094673 
1646	 0.101862660314417 
1647	 0.10187214176138 
1648	 0.101895464185792 
1649	 0.101899149271097 
1650	 0.101905208886721 
1651	 0.101903617672707 
1652	 0.101874731537507 
1653	 0.101876131209678 
1654	 0.101902918849207 
1655	 0.101901462375086 
1656	 0.10190508719904 
1657	 0.101886533781851 
1658	 0.101828814069777 
1659	 0.101807756879956 
1660	 0.10179096306606 
1661	 0.101784642692904 
1662	 0.101806640280405 
1663	 0.101805291725447 
1664	 0.101803238941075 
1665	 0.101786985272027 
1666	 0.101748500638651 
1667	 0.101729699392364 
1668	 0.101711344113823 
1669	 0.101694226062597 
1670	 0.101692194971438 
1671	 0.101675804468288 
1672	 0.101641885918929 
1673	 0.1016276008283 
1674	 0.101629140585347 
1675	 0.101609115466311 
1676	 0.101587167178217 
1677	 0.101563467007591 
1678	 0.101523060134062 
1679	 0.101488810808135 
1680	 0.101464783882577 
1681	 0.101430800637989 
1682	 0.101378239889704 
1683	 0.101348375313279 
1684	 0.101329738416554 
1685	 0.101308066960233 
1686	 0.101302522940445 
1687	 0.101278279476291 
1688	 0.101238793644037 
1689	 0.10121051876544 
1690	 0.101184182789312 
1691	 0.101151326075476 
1692	 0.101125594310921 
1693	 0.101084807339276 
1694	 0.101018079819108 
1695	 0.100979563467759 
1696	 0.100950320604492 
1697	 0.100919536756304 
1698	 0.100913249567061 
1699	 0.100877549481359 
1700	 0.100813824805166 
1701	 0.100775205619389 
1702	 0.10074139031232 
1703	 0.100700267655199 
1704	 0.100669432236459 
1705	 0.100631649289269 
1706	 0.100577073025059 
1707	 0.100537183715541 
1708	 0.100521015303319 
1709	 0.100468874887456 
1710	 0.100399983300722 
1711	 0.100333948438795 
1712	 0.100239625843037 
1713	 0.100177495623672 
1714	 0.100134659678585 
1715	 0.100084017642657 
1716	 0.100054481372199 
1717	 9.99902690315123E-02 
1718	 9.98917178539287E-02 
1719	 9.98338571247342E-02 
1720	 9.97806351385203E-02 
1721	 9.97224391220324E-02 
1722	 9.97047397666366E-02 
1723	 9.96339793527015E-02 
1724	 9.95163270538875E-02 
1725	 9.94310593021595E-02 
1726	 9.93441536407833E-02 
1727	 0.099252536978725 
1728	 9.91706673893966E-02 
1729	 9.90801428503013E-02 
1730	 9.89671910217118E-02 
1731	 9.88820655931777E-02 
1732	 9.88087856470633E-02 
1733	 9.87406674408413E-02 
1734	 9.87002876107892E-02 
1735	 9.86258776700296E-02 
1736	 9.85353661177072E-02 
1737	 9.84621001713077E-02 
1738	 9.83833766822681E-02 
1739	 9.82863004973429E-02 
1740	 9.81986132307961E-02 
1741	 9.80956789897307E-02 
1742	 9.79573677250118E-02 
1743	 9.78525033813571E-02 
1744	 9.77678224423588E-02 
1745	 9.76673692858096E-02 
1746	 9.75664822529949E-02 
1747	 9.74534661805497E-02 
1748	 9.73491336863006E-02 
1749	 9.72569401564997E-02 
1750	 9.71431260441821E-02 
1751	 9.70231557283859E-02 
1752	 9.69041932752479E-02 
1753	 9.67680736947826E-02 
1754	 9.66430549345003E-02 
1755	 9.65322166835201E-02 
1756	 9.64341568155524E-02 
1757	 9.63418483657652E-02 
1758	 9.62402248347854E-02 
1759	 0.096155128998103 
1760	 9.60561659894619E-02 
1761	 9.59461919893648E-02 
1762	 9.58670692674631E-02 
1763	 9.57604829205109E-02 
1764	 9.56359718807531E-02 
1765	 9.55465128889046E-02 
1766	 9.54356316667537E-02 
1767	 9.53125963791897E-02 
1768	 9.52147752069936E-02 
1769	 9.51233715503668E-02 
1770	 9.50330711615012E-02 
1771	 9.49367416647337E-02 
1772	 9.48589173145732E-02 
1773	 9.47736963749119E-02 
1774	 0.094663077923123 
1775	 9.45844284989096E-02 
1776	 9.45159299154554E-02 
1777	 9.44282866936135E-02 
1778	 9.43442010898886E-02 
1779	 9.42633439270706E-02 
1780	 9.41840140817825E-02 
1781	 0.094112059554125 
1782	 9.40486560533439E-02 
1783	 9.40180769898868E-02 
1784	 9.39743117429562E-02 
1785	 9.39407533808819E-02 
1786	 9.38942200841936E-02 
1787	 0.093809818022379 
1788	 9.37613153966272E-02 
1789	 9.37431803831398E-02 
1790	 9.37129937268199E-02 
1791	 9.36981390974363E-02 
1792	 0.093684814655594 
1793	 9.36507929783477E-02 
1794	 9.36186344234585E-02 
1795	 9.36075172958268E-02 
1796	 9.35833794695739E-02 
1797	 9.35546989373403E-02 
1798	 9.35148328211345E-02 
1799	 9.34495708221008E-02 
1800	 9.34208904558761E-02 
1801	 9.13507014488261E-02 
1802	 9.14295728893638E-02 
1803	 9.15165738343451E-02 
1804	 9.16266795093682E-02 
1805	 9.16976739997576E-02 
1806	 9.17447869343652E-02 
1807	 9.18282012133508E-02 
1808	 9.18857935538743E-02 
1809	 9.19375083629031E-02 
1810	 9.19618954775762E-02 
1811	 9.19747644238853E-02 
1812	 9.19757957931112E-02 
1813	 9.19362470195855E-02 
1814	 9.19023432745814E-02 
1815	 9.19036398433479E-02 
1816	 9.18848007520981E-02 
1817	 9.18650488759571E-02 
1818	 9.18447408273514E-02 
1819	 9.18329137313586E-02 
1820	 9.18194421949094E-02 
1821	 9.18084357321141E-02 
1822	 9.17959655794443E-02 
1823	 9.17845891797007E-02 
1824	 0.091757322163882 
1825	 0.091706377763019 
1826	 0.091666896047312 
1827	 0.091637234005661 
1828	 9.15906362777737E-02 
1829	 9.15526629385533E-02 
1830	 9.14824598042165E-02 
1831	 0.091386513248701 
1832	 0.091285300387364 
1833	 9.11755252445778E-02 
1834	 9.10670874822156E-02 
1835	 9.09967946390145E-02 
1836	 9.09261542104047E-02 
1837	 9.08586077098814E-02 
1838	 9.08076654010281E-02 
1839	 9.07435690576522E-02 
1840	 9.06787205924753E-02 
1841	 0.090592517286318 
1842	 9.05042882152767E-02 
1843	 9.03998722861585E-02 
1844	 9.02658060381465E-02 
1845	 9.01475337618576E-02 
1846	 9.00152601005585E-02 
1847	 8.98713729299381E-02 
1848	 8.97495566711586E-02 
1849	 8.96038979654197E-02 
1850	 8.94310445054642E-02 
1851	 8.92424671857961E-02 
1852	 8.90449039198048E-02 
1853	 8.88090364662135E-02 
1854	 8.85476330777596E-02 
1855	 8.83080044451412E-02 
1856	 8.80589773689208E-02 
1857	 8.77737307528306E-02 
1858	 8.74724519592001E-02 
1859	 8.71407271013057E-02 
1860	 8.67654784870335E-02 
1861	 8.63480522080719E-02 
1862	 8.58932388239353E-02 
1863	 8.54063470765935E-02 
1864	 8.48896374610278E-02 
1865	 8.43260768692253E-02 
1866	 8.37119164421476E-02 
1867	 8.30807689870644E-02 
1868	 8.24016836823891E-02 
1869	 8.16957258928459E-02 
1870	 8.09999700430258E-02 
1871	 8.02437357327265E-02 
1872	 7.94500140025564E-02 
1873	 7.86189364842569E-02 
1874	 7.77778222116499E-02 
1875	 7.68820465216822E-02 
1876	 7.59637314523477E-02 
1877	 7.50451968725678E-02 
1878	 7.40517801021427E-02 
1879	 7.29993252076692E-02 
1880	 7.19338542414669E-02 
1881	 7.08289108203709E-02 
1882	 6.96995953161351E-02 
1883	 6.85399375689948E-02 
1884	 6.73552316606954E-02 
1885	 6.61516828287586E-02 
1886	 6.49031776980647E-02 
1887	 0.063643746288119 
1888	 0.062412564779638 
1889	 6.11645874377074E-02 
1890	 5.99334426589112E-02 
1891	 5.87406651176208E-02 
1892	 0.057536982841812 
1893	 5.64116399937378E-02 
1894	 5.53314921464018E-02 
1895	 5.43092219468409E-02 
1896	 5.33211791338617E-02 
1897	 5.23966802039411E-02 
1898	 5.15018483571357E-02 
1899	 5.06599079767972E-02 
1900	 4.98926535845061E-02 
1901	 4.91567561017707E-02 
1902	 4.84809757614647E-02 
1903	 4.78748674659375E-02 
1904	 4.73032934424441E-02 
1905	 4.67714785887501E-02 
1906	 4.63023399336106E-02 
1907	 4.58898649109789E-02 
1908	 4.54962229438889E-02 
1909	 4.51387639173478E-02 
1910	 4.48275246766833E-02 
1911	 4.45358391349802E-02 
1912	 0.044252804175888 
1913	 4.39974124564023E-02 
1914	 4.37649271279848E-02 
1915	 0.043560098938768 
1916	 4.33760338746318E-02 
1917	 4.32277775027944E-02 
1918	 4.31059150633372E-02 
1919	 4.29725804823711E-02 
1920	 4.28342859852431E-02 
1921	 4.26967249039573E-02 
1922	 4.25576031003737E-02 
1923	 0.042468500476005 
1924	 4.24091776330264E-02 
1925	 4.24039362057393E-02 
1926	 4.23766214944436E-02 
1927	 4.23702400178448E-02 
1928	 4.23668410948899E-02 
1929	 0.042340375649146 
1930	 4.23507158520783E-02 
1931	 4.23778551341313E-02 
1932	 4.23907712349481E-02 
1933	 0.042421545221477 
1934	 4.24431671698724E-02 
1935	 4.24823606222448E-02 
1936	 4.25338551512685E-02 
1937	 4.25929995829867E-02 
1938	 4.26666251409961E-02 
1939	 4.27403756931717E-02 
1940	 4.28179445778898E-02 
1941	 0.042898176677419 
1942	 4.29872637735783E-02 
1943	 4.30870583389758E-02 
1944	 4.31972846273238E-02 
1945	 4.33079367646376E-02 
1946	 4.34276573276323E-02 
1947	 4.35589578298776E-02 
1948	 4.36840950564419E-02 
1949	 4.38109913591019E-02 
1950	 4.39435000540447E-02 
1951	 4.40790007358982E-02 
1952	 4.42073969090858E-02 
1953	 4.43459585058078E-02 
1954	 4.45000666678796E-02 
1955	 4.46446202711188E-02 
1956	 4.48023662988293E-02 
1957	 0.044968085455186 
1958	 4.51445533708217E-02 
1959	 4.53153704347579E-02 
1960	 4.54867137464206E-02 
1961	 4.56719808183382E-02 
1962	 4.58764623987497E-02 
1963	 4.60624987740646E-02 
1964	 4.62579445504432E-02 
1965	 4.64342225236019E-02 
1966	 4.65936105533592E-02 
1967	 4.67609078627482E-02 
1968	 4.69465971165165E-02 
1969	 4.71460179739894E-02 
1970	 4.73530386050222E-02 
1971	 4.75851448106647E-02 
1972	 4.77940195634796E-02 
1973	 4.79967463092492E-02 
1974	 4.82061892602657E-02 
1975	 4.84095170957866E-02 
1976	 4.86124092507668E-02 
1977	 4.88299808295835E-02 
1978	 4.90475913990487E-02 
1979	 4.92698887988273E-02 
1980	 0.049492205620055 
1981	 4.97089015536851E-02 
1982	 4.99170013899605E-02 
1983	 5.01452867539398E-02 
1984	 5.03872250105848E-02 
1985	 5.06105410342774E-02 
1986	 5.08428321589744E-02 
1987	 5.10677963542563E-02 
1988	 0.051279334488753 
1989	 5.14789054830276E-02 
1990	 5.16795384626366E-02 
1991	 5.19027683378497E-02 
1992	 5.21184508909965E-02 
1993	 5.23206384988363E-02 
1994	 5.25435503063807E-02 
1995	 5.27826906480171E-02 
1996	 5.30156586406948E-02 
1997	 5.32706147422552E-02 
1998	 5.34981157572198E-02 
1999	 5.37010005338096E-02 
2000	 5.39217251337798E-02 
2001	 5.41364925580619E-02 
2002	 5.43517430391574E-02 
2003	 5.45820770889012E-02 
2004	 5.48122843819554E-02 
2005	 5.50324736539483E-02 
2006	 5.52387396829717E-02 
2007	 5.54512064071945E-02 
2008	 5.56640521737134E-02 
2009	 5.58786984525003E-02 
2010	 5.60981495310914E-02 
2011	 5.63055769930521E-02 
2012	 5.64976601123126E-02 
2013	 5.67070479646286E-02 
2014	 5.69121366062343E-02 
2015	 5.71355293217084E-02 
2016	 5.73533690665909E-02 
2017	 5.75618361080443E-02 
2018	 5.77814169310423E-02 
2019	 0.057989619067025 
2020	 5.82087047790234E-02 
2021	 5.84545563213334E-02 
2022	 0.05867733575281 
2023	 5.88893596219142E-02 
2024	 5.90999652130889E-02 
2025	 5.92975905501587E-02 
2026	 5.95044250066535E-02 
2027	 5.97171130663402E-02 
2028	 5.99203917631718E-02 
2029	 6.01236967826237E-02 
2030	 6.03320511460505E-02 
2031	 6.05273710527983E-02 
2032	 6.07089048053944E-02 
2033	 6.09022334281038E-02 
2034	 6.11009808229673E-02 
2035	 6.12911278476415E-02 
2036	 6.14732754411302E-02 
2037	 6.16651236962283E-02 
2038	 6.18597057986377E-02 
2039	 6.20479150173117E-02 
2040	 6.22275554822397E-02 
2041	 6.24375873168696E-02 
2042	 6.26265006398405E-02 
2043	 0.062804829335586 
2044	 0.062991219772583 
2045	 6.31847847478455E-02 
2046	 6.33695276528241E-02 
2047	 6.35475315130851E-02 
2048	 6.37320628169365E-02 
2049	 6.39183294847257E-02 
2050	 6.41011792197898E-02 
2051	 6.42934432616668E-02 
2052	 0.06447002959025 
2053	 6.46357559281609E-02 
2054	 6.48014734330538E-02 
2055	 6.49512649923397E-02 
2056	 6.51085102879081E-02 
2057	 6.52755486706253E-02 
2058	 6.54487502528555E-02 
2059	 6.56233737588904E-02 
2060	 6.58104784814571E-02 
2061	 6.59854516882493E-02 
2062	 6.61563353346036E-02 
2063	 6.63262880331159E-02 
2064	 6.64921956360083E-02 
2065	 6.66599392094497E-02 
2066	 6.68381280301898E-02 
2067	 0.066997009604158 
2068	 6.71316346180517E-02 
2069	 6.72806903248221E-02 
2070	 6.74521813766979E-02 
2071	 6.76325001656551E-02 
2072	 6.77976811345744E-02 
2073	 6.79908370047727E-02 
2074	 6.81510022825709E-02 
2075	 6.82616559991272E-02 
2076	 6.84162465671515E-02 
2077	 6.85980533616161E-02 
2078	 6.87573470932738E-02 
2079	 6.89211854528492E-02 
2080	 6.90776396369444E-02 
2081	 6.92080989408613E-02 
2082	 6.93583538749434E-02 
2083	 6.95199610301004E-02 
2084	 6.96868998615352E-02 
2085	 6.98402025458543E-02 
2086	 7.00015067548803E-02 
2087	 7.01371245505047E-02 
2088	 7.02396554710246E-02 
2089	 7.03766025000609E-02 
2090	 7.05209830253756E-02 
2091	 7.06584203466216E-02 
2092	 7.08121593889609E-02 
2093	 7.09559988593844E-02 
2094	 0.07107974796619 
2095	 7.12164690894708E-02 
2096	 7.13681260708443E-02 
2097	 7.15090935373237E-02 
2098	 7.16359006959245E-02 
2099	 7.17860116580388E-02 
2100	 7.19191722556116E-02 
2101	 7.20433106190132E-02 
2102	 7.21753462160727E-02 
2103	 7.23091707271248E-02 
2104	 0.072438506207849 
2105	 7.25708049549245E-02 
2106	 7.26979228762376E-02 
2107	 7.28041787350994E-02 
2108	 7.29402670919977E-02 
2109	 7.30974318616771E-02 
2110	 7.32415596595729E-02 
2111	 7.34002422088104E-02 
2112	 7.35510075964453E-02 
2113	 7.36965118315918E-02 
2114	 7.38249902633853E-02 
2115	 7.39633312099534E-02 
2116	 7.41167412512972E-02 
2117	 7.42358946526492E-02 
2118	 7.43364904249178E-02 
2119	 7.44424850897901E-02 
2120	 7.45241024123651E-02 
2121	 7.46268184921876E-02 
2122	 7.47389922116145E-02 
2123	 0.074852046139763 
2124	 7.49815097302101E-02 
2125	 7.50910728860446E-02 
2126	 7.51969887180052E-02 
2127	 7.52967814209305E-02 
2128	 7.53691779946292E-02 
2129	 7.54601737001461E-02 
2130	 7.55619659888191E-02 
2131	 7.56639461106932E-02 
2132	 7.57580538629639E-02 
2133	 7.58663041644836E-02 
2134	 7.59419411164147E-02 
2135	 7.59948402481978E-02 
2136	 7.60514778563069E-02 
2137	 7.60945086777102E-02 
2138	 7.61374514026912E-02 
2139	 7.61741532432489E-02 
2140	 0.076215015164776 
2141	 7.62509334638467E-02 
2142	 7.62899281150376E-02 
2143	 7.63378557835989E-02 
2144	 7.63780848799794E-02 
2145	 7.64260588846941E-02 
2146	 7.64525882384839E-02 
2147	 7.64538658324664E-02 
2148	 7.64686243818783E-02 
2149	 7.64772676341124E-02 
2150	 7.64719081623025E-02 
2151	 7.64745177347507E-02 
2152	 7.64873040792673E-02 
2153	 7.64884024255009E-02 
2154	 7.64853651658232E-02 
2155	 7.64738669562217E-02 
2156	 7.64502059153297E-02 
2157	 7.64372056658714E-02 
2158	 7.64285808713248E-02 
2159	 7.64065389378847E-02 
2160	 7.63964091568161E-02 
2161	 7.63637690392371E-02 
2162	 7.62849884353669E-02 
2163	 7.62377281954287E-02 
2164	 7.61995381908639E-02 
2165	 7.61589920314807E-02 
2166	 7.61306064197486E-02 
2167	 7.61404789279279E-02 
2168	 7.60933034429179E-02 
2169	 7.60184620392342E-02 
2170	 7.59563852468311E-02 
2171	 7.58678022903919E-02 
2172	 7.57991986550567E-02 
2173	 0.07575393469962 
2174	 7.56896985347162E-02 
2175	 7.56092757611927E-02 
2176	 7.55429356156616E-02 
2177	 7.54787011109481E-02 
2178	 7.54164271514736E-02 
2179	 7.53759795473222E-02 
2180	 7.53104547654154E-02 
2181	 7.52172397080323E-02 
2182	 7.51423653325693E-02 
2183	 0.075061910352295 
2184	 7.49894658860504E-02 
2185	 7.49182639150371E-02 
2186	 7.48730802774038E-02 
2187	 7.47898618715439E-02 
2188	 7.46687198409484E-02 
2189	 7.46003631538663E-02 
2190	 0.074548877281944 
2191	 7.44828207235773E-02 
2192	 7.44567320030638E-02 
2193	 7.43819828837266E-02 
2194	 7.42485482792124E-02 
2195	 7.41587330242839E-02 
2196	 7.40544695613928E-02 
2197	 7.39928648217418E-02 
2198	 0.073980071613343 
2199	 7.39518698172134E-02 
2200	 7.39410338943877E-02 
2201	 7.39294826518796E-02 
2202	 7.39277068080009E-02 
2203	 7.39070110170772E-02 
2204	 0.073875493857616 
2205	 7.38297507003847E-02 
2206	 0.073817579169707 
2207	 7.37931435157385E-02 
2208	 7.37978294461297E-02 
2209	 7.38490714042731E-02 
2210	 7.38782842012841E-02 
2211	 7.39029356929453E-02 
2212	 7.39275097572356E-02 
2213	 7.39660783893363E-02 
2214	 7.39857169352751E-02 
2215	 7.39909042845843E-02 
2216	 7.39993609654484E-02 
2217	 7.39917222956142E-02 
2218	 7.39974751535434E-02 
2219	 0.074011500137924 
2220	 7.40252947007412E-02 
2221	 7.40579646832183E-02 
2222	 7.40731394663007E-02 
2223	 7.40561058165979E-02 
2224	 7.40382926578105E-02 
2225	 7.40382434564092E-02 
2226	 7.40225670692118E-02 
2227	 7.40419270011876E-02 
2228	 7.41037649671276E-02 
2229	 7.41279335901499E-02 
2230	 7.41504820633468E-02 
2231	 7.41599028740186E-02 
2232	 7.41583081358426E-02 
2233	 7.41455654473416E-02 
2234	 7.41196442680847E-02 
2235	 0.074094047648484 
2236	 7.40552759807484E-02 
2237	 7.40195058394748E-02 
2238	 7.39802188246042E-02 
2239	 7.39478800284949E-02 
2240	 7.39085154874018E-02 
2241	 7.38810236295979E-02 
2242	 7.38747109970814E-02 
2243	 0.07385274648572 
2244	 7.38311622902773E-02 
2245	 7.38063256690918E-02 
2246	 0.073743689297237 
2247	 7.37165408478259E-02 
2248	 7.36875540492673E-02 
2249	 7.36686437697004E-02 
2250	 7.36247721342827E-02 
2251	 7.35804548736118E-02 
2252	 7.35274175548241E-02 
2253	 7.34436723105765E-02 
2254	 7.33897816361887E-02 
2255	 7.33491393268629E-02 
2256	 7.33120776599055E-02 
2257	 7.32911386164952E-02 
2258	 7.32557664297862E-02 
2259	 7.32249857312188E-02 
2260	 7.31819276069779E-02 
2261	 7.31161153723661E-02 
2262	 7.30627656826603E-02 
2263	 0.073013236544157 
2264	 7.29663594541255E-02 
2265	 7.29178608443613E-02 
2266	 7.28797860360661E-02 
2267	 7.28601961865686E-02 
2268	 0.072822229040086 
2269	 7.27680378351344E-02 
2270	 7.27439112847902E-02 
2271	 7.27142315423124E-02 
2272	 7.26332408431358E-02 
2273	 7.25813607468087E-02 
2274	 7.25474671557036E-02 
2275	 7.25049445036488E-02 
2276	 7.24680693445487E-02 
2277	 7.24221934171052E-02 
2278	 7.23753905659643E-02 
2279	 7.23082695925615E-02 
2280	 7.22045853652645E-02 
2281	 7.21539326571861E-02 
2282	 7.21368516406913E-02 
2283	 7.20906823958046E-02 
2284	 7.20692660895818E-02 
2285	 0.072018594257821 
2286	 7.19129574346313E-02 
2287	 7.18354024966269E-02 
2288	 7.17687159578853E-02 
2289	 7.17120693352638E-02 
2290	 7.16752062433848E-02 
2291	 0.071613059922038 
2292	 7.15325290584974E-02 
2293	 7.14726281418145E-02 
2294	 7.14163332596797E-02 
2295	 7.13513032204825E-02 
2296	 7.13044516134113E-02 
2297	 7.12628134584829E-02 
2298	 7.11279177106236E-02 
2299	 7.10020650284613E-02 
2300	 7.09077936346915E-02 
2301	 7.07681250900541E-02 
2302	 7.06779458903865E-02 
2303	 7.06037890578198E-02 
2304	 0.070507298171292 
2305	 7.04480224734473E-02 
2306	 0.070381401264207 
2307	 7.03333761714231E-02 
2308	 7.02668992981699E-02 
2309	 7.02041653501176E-02 
2310	 7.01098983644705E-02 
2311	 6.99975115563905E-02 
2312	 6.98917378763259E-02 
2313	 6.97590134424361E-02 
2314	 6.96399980181126E-02 
2315	 6.95234864619603E-02 
2316	 6.94223919159312E-02 
2317	 0.069336749618198 
2318	 6.92413126647989E-02 
2319	 6.91477570687551E-02 
2320	 6.90666211373892E-02 
2321	 6.89833699498186E-02 
2322	 0.068890770322374 
2323	 6.88364893405422E-02 
2324	 6.87362944375349E-02 
2325	 6.85551588648322E-02 
2326	 6.84562077974195E-02 
2327	 6.83955753987346E-02 
2328	 6.83176985970123E-02 
2329	 6.82601826499107E-02 
2330	 0.068144935965894 
2331	 0.068016958282569 
2332	 6.79207390765363E-02 
2333	 6.78239240213483E-02 
2334	 0.067780494436722 
2335	 6.77120258972203E-02 
2336	 6.75946549648416E-02 
2337	 6.74653852245067E-02 
2338	 6.73312268857786E-02 
2339	 6.72102044610064E-02 
2340	 6.70875786100059E-02 
2341	 6.70199511345917E-02 
2342	 0.066970335430673 
2343	 6.69033699247703E-02 
2344	 6.68185332253024E-02 
2345	 6.67046410117509E-02 
2346	 6.65640319873503E-02 
2347	 6.64165324806855E-02 
2348	 6.62192171833264E-02 
2349	 0.066081654283081 
2350	 6.59649873078723E-02 
2351	 6.58333421030564E-02 
2352	 6.57271625436133E-02 
2353	 6.56059808628489E-02 
2354	 6.54428855412356E-02 
2355	 6.53368676017228E-02 
2356	 6.53022865395259E-02 
2357	 6.51865167921093E-02 
2358	 6.50399978899777E-02 
2359	 6.49216761943268E-02 
2360	 6.47759206813845E-02 
2361	 0.064646150134454 
2362	 6.45386836657413E-02 
2363	 0.064415746836089 
2364	 6.42927489081596E-02 
2365	 6.41373759659071E-02 
2366	 0.063968937561647 
2367	 6.38342493568813E-02 
2368	 6.36635135013898E-02 
2369	 6.35085296165849E-02 
2370	 6.33801843907604E-02 
2371	 6.32907825844891E-02 
2372	 6.31270001517691E-02 
2373	 6.30134576184119E-02 
2374	 6.29161082816458E-02 
2375	 6.27610057358321E-02 
2376	 6.26348280745287E-02 
2377	 6.24605892322775E-02 
2378	 6.22210813024254E-02 
2379	 6.20891745885287E-02 
2380	 6.19373622561795E-02 
2381	 6.18216238966105E-02 
2382	 6.18261082372249E-02 
2383	 6.17110323957098E-02 
2384	 6.15767845282476E-02 
2385	 6.14586151897298E-02 
2386	 6.12718511788478E-02 
2387	 6.10833242803371E-02 
2388	 6.09099375185087E-02 
2389	 6.07261038364678E-02 
2390	 6.05270150046919E-02 
2391	 6.03813756815879E-02 
2392	 6.02564502581473E-02 
2393	 6.01274094008086E-02 
2394	 5.99772775697342E-02 
2395	 5.97257556959088E-02 
2396	 5.95328578845251E-02 
2397	 5.93821171535049E-02 
2398	 5.92087844140139E-02 
2399	 0.059182250723842 
2400	 5.91486927298285E-02 
2401	 5.90189580378513E-02 
2402	 5.88924477276224E-02 
2403	 5.87367622677999E-02 
2404	 5.85413021145257E-02 
2405	 5.83349822124916E-02 
2406	 5.82120551147791E-02 
2407	 5.81411723026068E-02 
2408	 5.80187459246359E-02 
2409	 5.79035238088269E-02 
2410	 5.77827139930966E-02 
2411	 5.74981130744208E-02 
2412	 5.71139005546061E-02 
2413	 5.68032711600318E-02 
2414	 5.64562786858651E-02 
2415	 5.61815567294757E-02 
2416	 5.60139930357968E-02 
2417	 5.60156012040974E-02 
2418	 5.59095391070097E-02 
2419	 5.58748556008433E-02 
2420	 0.055705583506903 
2421	 5.53992207049568E-02 
2422	 5.52555865635239E-02 
2423	 5.51237220780192E-02 
2424	 5.50022186047403E-02 
2425	 5.49884353262479E-02 
2426	 5.48554085593881E-02 
2427	 0.054704706905239 
2428	 5.44254882029764E-02 
2429	 0.054037140647398 
2430	 5.37885806652573E-02 
2431	 5.33988131837494E-02 
2432	 5.32204928999415E-02 
2433	 5.33281059325077E-02 
2434	 5.31857644898805E-02 
2435	 5.29977760398283E-02 
2436	 5.28041807482296E-02 
2437	 5.24346395850005E-02 
2438	 5.22796880227091E-02 
2439	 5.22521109693562E-02 
2440	 5.21654551148068E-02 
2441	 5.21643162654541E-02 
2442	 5.21306366173842E-02 
2443	 5.20930567522052E-02 
2444	 5.20389869443788E-02 
2445	 5.20231875546292E-02 
2446	 5.18756340341103E-02 
2447	 5.16258642294049E-02 
2448	 5.13894977752889E-02 
2449	 5.10190441587667E-02 
2450	 5.07784602429942E-02 
2451	 5.05764291867602E-02 
2452	 5.03982968516954E-02 
2453	 5.03657551150055E-02 
2454	 5.02798164222915E-02 
2455	 5.01324205721137E-02 
2456	 5.00028452281002E-02 
2457	 0.049894096131445 
2458	 4.97549961261234E-02 
2459	 4.96723786867292E-02 
2460	 0.049550730246058 
2461	 4.93116964438022E-02 
2462	 0.049102438543898 
2463	 4.88386713665382E-02 
2464	 4.86916377821427E-02 
2465	 4.87088527838123E-02 
2466	 4.85649684857506E-02 
2467	 4.84183136454469E-02 
2468	 4.83164346520582E-02 
2469	 4.80493702669485E-02 
2470	 4.80697341110163E-02 
2471	 4.79949407483802E-02 
2472	 4.78055304587271E-02 
2473	 4.77722776939071E-02 
2474	 4.76292812060338E-02 
2475	 4.75233266307618E-02 
2476	 4.73984194835129E-02 
2477	 4.70940717683831E-02 
2478	 4.70159271067451E-02 
2479	 4.67878812606087E-02 
2480	 4.66619927865277E-02 
2481	 4.68433100659612E-02 
2482	 4.66095580020605E-02 
2483	 4.64688963493851E-02 
2484	 4.64237537464938E-02 
2485	 0.046136354058242 
2486	 4.60011540777925E-02 
2487	 4.58497232984843E-02 
2488	 4.55903283388625E-02 
2489	 4.53309855605493E-02 
2490	 0.045059169808157 
2491	 4.48468790646666E-02 
2492	 4.47776970345244E-02 
2493	 4.47485372631225E-02 
2494	 0.044748888923397 
2495	 4.48513110747107E-02 
2496	 4.48566493345285E-02 
2497	 4.48752156634459E-02 
2498	 4.49005109310062E-02 
2499	 4.47113291359297E-02 
2500	 4.45179952279142E-02 
