Wavelength	MM_3300006.asd
350	 3.86607377613032E-02 
351	 4.09837056598956E-02 
352	 0.03798955900293 
353	 3.34420947180844E-02 
354	 3.68550890018376E-02 
355	 3.95314722881273E-02 
356	 3.94648559867058E-02 
357	 3.74692728546818E-02 
358	 3.77158727159631E-02 
359	 3.60007385605699E-02 
360	 3.43619276267357E-02 
361	 3.76631989348081E-02 
362	 3.33070772626586E-02 
363	 3.11347394251197E-02 
364	 0.035403411195389 
365	 3.77159490965837E-02 
366	 3.92217721477301E-02 
367	 3.81325225602694E-02 
368	 3.41486181745171E-02 
369	 3.46860638182904E-02 
370	 3.38594573351609E-02 
371	 3.26942304436983E-02 
372	 3.63104278984839E-02 
373	 3.68885579295249E-02 
374	 3.59365351417898E-02 
375	 3.60383650651053E-02 
376	 3.99108591677765E-02 
377	 0.036799182397915 
378	 3.39666375798123E-02 
379	 3.96999740078377E-02 
380	 0.043018463824175 
381	 4.09529313010047E-02 
382	 3.72515384737798E-02 
383	 3.96237827955168E-02 
384	 4.02042069668955E-02 
385	 4.08033115064067E-02 
386	 4.24843978564637E-02 
387	 4.21330918551808E-02 
388	 4.29792097167967E-02 
389	 4.31746921802862E-02 
390	 4.09692079850586E-02 
391	 4.28628967777992E-02 
392	 4.50359267466844E-02 
393	 4.62336009646473E-02 
394	 4.77444509316217E-02 
395	 4.89264360194503E-02 
396	 4.91629543772979E-02 
397	 4.87481723244927E-02 
398	 5.00383650915139E-02 
399	 4.98586625278033E-02 
400	 5.01702670794638E-02 
401	 5.34663422799148E-02 
402	 5.44806483579824E-02 
403	 5.38466686404094E-02 
404	 5.31339327514236E-02 
405	 5.42859698226376E-02 
406	 0.055416175290186 
407	 5.66556366469874E-02 
408	 5.76571112173788E-02 
409	 5.53103446645452E-02 
410	 5.54984922377386E-02 
411	 5.73359188278364E-02 
412	 0.057261714917209 
413	 5.77677220530167E-02 
414	 0.058242069929855 
415	 5.84490431806316E-02 
416	 5.89562446122877E-02 
417	 5.95717413103772E-02 
418	 5.99999977580779E-02 
419	 6.01467788572169E-02 
420	 0.060749831680547 
421	 6.06232550081839E-02 
422	 6.02196050428644E-02 
423	 6.08812978702763E-02 
424	 6.13568582922755E-02 
425	 6.13549891048441E-02 
426	 6.10831084317964E-02 
427	 6.13547213497209E-02 
428	 0.061991041452983 
429	 6.24714493958519E-02 
430	 6.23912317498851E-02 
431	 0.062579446705701 
432	 6.24745816490994E-02 
433	 6.22291661893238E-02 
434	 6.26872880622767E-02 
435	 0.063164601934915 
436	 6.34866988565689E-02 
437	 6.36217156478313E-02 
438	 6.35614967872803E-02 
439	 6.38568801997101E-02 
440	 6.43316497039475E-02 
441	 0.064511183071898 
442	 6.47651902193701E-02 
443	 6.52677182425035E-02 
444	 6.58425129905248E-02 
445	 6.58105321742272E-02 
446	 6.61203458709722E-02 
447	 6.63907643209382E-02 
448	 6.62000379699066E-02 
449	 6.66140715395192E-02 
450	 6.73746693390751E-02 
451	 0.06796372368668 
452	 6.77804706902282E-02 
453	 6.81224259307366E-02 
454	 0.068244790145659 
455	 0.067812842755258 
456	 6.84432297157532E-02 
457	 6.87517080853596E-02 
458	 6.86847728610598E-02 
459	 6.87658902502525E-02 
460	 6.89330050735427E-02 
461	 6.92218547848207E-02 
462	 6.95862427926285E-02 
463	 6.98712551759281E-02 
464	 0.069926898423441 
465	 6.99946120371502E-02 
466	 7.02550213876977E-02 
467	 7.01462028888846E-02 
468	 7.01968106235139E-02 
469	 7.03792016329482E-02 
470	 7.02501295832384E-02 
471	 0.070556228649628 
472	 7.08507773389155E-02 
473	 7.08227014605634E-02 
474	 7.09593562712913E-02 
475	 7.09878599301971E-02 
476	 7.10003479294749E-02 
477	 7.11852038916726E-02 
478	 7.12239732878445E-02 
479	 7.13764823223849E-02 
480	 7.16500476659685E-02 
481	 7.16385884587752E-02 
482	 7.16755193499768E-02 
483	 7.17463971536011E-02 
484	 0.071807527327097 
485	 7.21160205786536E-02 
486	 7.23316062819999E-02 
487	 7.23306119276026E-02 
488	 0.072208193800604 
489	 7.23681951208554E-02 
490	 0.072506791012878 
491	 7.24428651298034E-02 
492	 7.26511172563137E-02 
493	 7.25667876077086E-02 
494	 7.24728162947204E-02 
495	 7.29125023200247E-02 
496	 7.31642804808544E-02 
497	 7.31274674574065E-02 
498	 7.30074984192316E-02 
499	 7.33698181404013E-02 
500	 7.35573943539674E-02 
501	 7.35000529681234E-02 
502	 0.073351440145518 
503	 7.33797918740268E-02 
504	 7.35457798156278E-02 
505	 7.37294727000669E-02 
506	 7.37629292943871E-02 
507	 7.37648333293148E-02 
508	 7.38464011883444E-02 
509	 0.074016553580979 
510	 7.40232393404975E-02 
511	 0.073990379473605 
512	 7.40297574579386E-02 
513	 7.42051381575026E-02 
514	 0.074186909153468 
515	 7.42172623422452E-02 
516	 7.44059358183048E-02 
517	 7.45358775931542E-02 
518	 7.46437708514349E-02 
519	 7.46247949441297E-02 
520	 7.44469747688576E-02 
521	 7.46412459759563E-02 
522	 7.48348012398352E-02 
523	 7.48765159374746E-02 
524	 7.49013109264359E-02 
525	 7.49915056213503E-02 
526	 7.49896375049026E-02 
527	 7.48524798596088E-02 
528	 7.50942757675339E-02 
529	 7.52281543915704E-02 
530	 7.52314464501381E-02 
531	 7.53697719851035E-02 
532	 0.075410306518932 
533	 7.54454490682629E-02 
534	 7.55413064558457E-02 
535	 7.56145037196765E-02 
536	 7.57233109374752E-02 
537	 7.58187147987484E-02 
538	 7.58412713153272E-02 
539	 7.59605616517564E-02 
540	 7.60323941788669E-02 
541	 7.60313579845348E-02 
542	 7.61189935364223E-02 
543	 7.62263312652499E-02 
544	 7.63286218091153E-02 
545	 7.64239500106145E-02 
546	 7.65656172145888E-02 
547	 7.66844902650987E-02 
548	 0.07678100137081 
549	 7.69125389070603E-02 
550	 7.69893876363814E-02 
551	 7.70876222983471E-02 
552	 7.72630462624796E-02 
553	 7.74481872429541E-02 
554	 7.76102330182803E-02 
555	 7.77557587172935E-02 
556	 0.077914429627201 
557	 7.80973519039847E-02 
558	 0.078261361252415 
559	 7.83921647128151E-02 
560	 7.85353275339713E-02 
561	 7.86708812351709E-02 
562	 7.88127545942693E-02 
563	 7.89986335410173E-02 
564	 7.93405171846459E-02 
565	 7.96278539838377E-02 
566	 7.98406999900759E-02 
567	 8.01882004242769E-02 
568	 8.05409470517291E-02 
569	 8.08296993207619E-02 
570	 8.10416001648629E-02 
571	 8.12978988764399E-02 
572	 8.15600115545935E-02 
573	 8.18391932056641E-02 
574	 8.21672405602627E-02 
575	 8.23568883302968E-02 
576	 8.26100916633615E-02 
577	 8.30431943321607E-02 
578	 0.083461885639828 
579	 8.38872882087538E-02 
580	 8.42535097151649E-02 
581	 8.44990649593267E-02 
582	 8.48181801009979E-02 
583	 8.51157415877052E-02 
584	 8.53476326241062E-02 
585	 8.55766336274554E-02 
586	 8.58965593134172E-02 
587	 8.62565517068757E-02 
588	 8.65873097110205E-02 
589	 8.69713880232617E-02 
590	 8.73048647091248E-02 
591	 8.75685959775479E-02 
592	 8.78264183593515E-02 
593	 8.80554798465514E-02 
594	 8.82966131198094E-02 
595	 8.85848741854297E-02 
596	 8.89029953142881E-02 
597	 8.93434619478324E-02 
598	 8.98347633706574E-02 
599	 9.02357857810867E-02 
600	 9.06707637705396E-02 
601	 9.10562305911682E-02 
602	 9.13397393321026E-02 
603	 9.15574829474346E-02 
604	 9.18344684796517E-02 
605	 0.092105068913315 
606	 9.22817629652162E-02 
607	 9.25867063944746E-02 
608	 0.092838040420765 
609	 9.30017145722513E-02 
610	 9.32361688920973E-02 
611	 9.34513962451074E-02 
612	 9.36797432824476E-02 
613	 9.39404112044911E-02 
614	 9.41199277314082E-02 
615	 9.42773537820603E-02 
616	 9.44319469509106E-02 
617	 9.45775769380153E-02 
618	 0.094785678972579 
619	 9.49215214247306E-02 
620	 9.49440925789293E-02 
621	 9.50759945428106E-02 
622	 9.52287587870404E-02 
623	 0.095362186358032 
624	 9.54624846955106E-02 
625	 9.55972609422854E-02 
626	 9.57329333373661E-02 
627	 9.58433740286589E-02 
628	 9.59222799379472E-02 
629	 9.60279827170674E-02 
630	 9.61544199029539E-02 
631	 9.62746349955135E-02 
632	 0.096360244781558 
633	 0.09644054724302 
634	 9.65353874430381E-02 
635	 9.66514917323044E-02 
636	 9.67329151409347E-02 
637	 9.68076601094389E-02 
638	 9.68976580225196E-02 
639	 9.69693061112463E-02 
640	 0.097068232139445 
641	 9.71765574471826E-02 
642	 0.09726089736704 
643	 9.74215296555414E-02 
644	 0.097551604631527 
645	 9.76001929025473E-02 
646	 9.76215523513937E-02 
647	 9.77042748488733E-02 
648	 9.78081036980691E-02 
649	 9.78825350407836E-02 
650	 9.80286372648138E-02 
651	 9.81377273282493E-02 
652	 9.81949748065984E-02 
653	 9.82723601484389E-02 
654	 9.83917353508273E-02 
655	 9.84926292277571E-02 
656	 9.85512461343816E-02 
657	 9.86798567947708E-02 
658	 9.87816824070557E-02 
659	 9.88757421183176E-02 
660	 9.90180124954139E-02 
661	 9.90969964333057E-02 
662	 9.92051221441528E-02 
663	 9.93503567643706E-02 
664	 9.93896555882248E-02 
665	 9.94688764883045E-02 
666	 9.95836538266265E-02 
667	 9.96932811464547E-02 
668	 0.099797445177269 
669	 9.99181431221935E-02 
670	 0.100049552646713 
671	 0.100164244598818 
672	 0.100287707931587 
673	 0.100434435608726 
674	 0.100597550862316 
675	 0.100730376540595 
676	 0.100807169460326 
677	 0.100892269271893 
678	 0.101065426869664 
679	 0.101193871773892 
680	 0.101360150343608 
681	 0.101556450740743 
682	 0.101635943809394 
683	 0.101722492483314 
684	 0.10184276060868 
685	 0.101992489006698 
686	 0.102158092829395 
687	 0.102303850205588 
688	 0.102433306887411 
689	 0.10257547936967 
690	 0.102694424309777 
691	 0.102834324739911 
692	 0.103012427964452 
693	 0.10317324640513 
694	 0.103317520616721 
695	 0.103443914164629 
696	 0.103558703934116 
697	 0.10369226743619 
698	 0.103856365644822 
699	 0.104030847940218 
700	 0.104166749007877 
701	 0.104307992551104 
702	 0.104447671670513 
703	 0.104577121660838 
704	 0.104712083990152 
705	 0.104852110465682 
706	 0.104989337284792 
707	 0.105118435596242 
708	 0.105298632284998 
709	 0.105434683807979 
710	 0.105524152109928 
711	 0.105722723155027 
712	 0.105854976422523 
713	 0.105939539520622 
714	 0.106041578589018 
715	 0.106181814968563 
716	 0.106300802659693 
717	 0.106414215814615 
718	 0.106580046328079 
719	 0.10664863489793 
720	 0.106729192253638 
721	 0.106878435735513 
722	 0.106980352504617 
723	 0.107074243609165 
724	 0.10717779945605 
725	 0.107292412474808 
726	 0.107363233841739 
727	 0.107452188364187 
728	 0.107551382185685 
729	 0.107590285591747 
730	 0.107675567823734 
731	 0.107782764846943 
732	 0.107867383790035 
733	 0.107889762995232 
734	 0.107952007028204 
735	 0.108026519079188 
736	 0.108048950716659 
737	 0.108095183645936 
738	 0.108150609797757 
739	 0.108195761029764 
740	 0.108214761272262 
741	 0.108251418203645 
742	 0.108281389224364 
743	 0.108283539404193 
744	 0.108286749523792 
745	 0.108270273270377 
746	 0.108288088680868 
747	 0.108389295713986 
748	 0.108336793122846 
749	 0.108271868120384 
750	 0.108269692124661 
751	 0.108282588275045 
752	 0.108269431818715 
753	 0.10823585668567 
754	 0.108202953126966 
755	 0.108198619763393 
756	 0.108178971242296 
757	 0.108141458846742 
758	 0.108103644908906 
759	 0.108058006282206 
760	 0.107983578332538 
761	 0.107902029021849 
762	 0.10788646471111 
763	 0.10783545641986 
764	 0.10777413697327 
765	 0.107733261657553 
766	 0.107666408588619 
767	 0.107603725789232 
768	 0.107550561301806 
769	 0.107498848863451 
770	 0.107446483519306 
771	 0.10737650290526 
772	 0.107293323088276 
773	 0.107226957784991 
774	 0.107159820213693 
775	 0.107099301637599 
776	 0.107041552324365 
777	 0.106932867756695 
778	 0.106856857579843 
779	 0.10680806378929 
780	 0.106741728442692 
781	 0.106656920738423 
782	 0.106579368058209 
783	 0.106502509602708 
784	 0.106387619517992 
785	 0.106318796604659 
786	 0.106245479190961 
787	 0.106141422631594 
788	 0.10610627923758 
789	 0.106057982845098 
790	 0.105976445133061 
791	 0.10587246766028 
792	 0.105778190418833 
793	 0.105727514569512 
794	 0.105694801815505 
795	 0.105608981011693 
796	 0.105499318974849 
797	 0.105411781492631 
798	 0.105360012168712 
799	 0.10529552966778 
800	 0.105217238756732 
801	 0.105122551375385 
802	 0.105022916680091 
803	 0.104976888201746 
804	 0.104921231926287 
805	 0.10485369471033 
806	 0.104808602492998 
807	 0.104767404883244 
808	 0.104680357368278 
809	 0.104563758225467 
810	 0.104518553603314 
811	 0.104453816345722 
812	 0.104367047331936 
813	 0.104287696374845 
814	 0.104280962671319 
815	 0.104233237632897 
816	 0.104156554073654 
817	 0.10410875127044 
818	 0.104079305959512 
819	 0.104031193073883 
820	 0.103953848065396 
821	 0.103864206846859 
822	 0.103791349340787 
823	 0.103728335363242 
824	 0.103678758578632 
825	 0.103674845187218 
826	 0.103627899249195 
827	 0.103534826268713 
828	 0.103442758700914 
829	 0.103476471733235 
830	 0.103459284227528 
831	 0.103397234698944 
832	 0.103377502416071 
833	 0.103368247343372 
834	 0.103328242200397 
835	 0.103251113865326 
836	 0.103171986421368 
837	 0.103208811656275 
838	 0.103230156889545 
839	 0.103158511261606 
840	 0.1030791609122 
841	 0.103039746185743 
842	 0.10302160877312 
843	 0.103001697652864 
844	 0.103022651026166 
845	 0.103011052146566 
846	 0.102965091303644 
847	 0.102922273099654 
848	 0.10291986159257 
849	 0.10290704093418 
850	 0.102874517380123 
851	 0.102852628682301 
852	 0.102839389621724 
853	 0.102820205106768 
854	 0.102792304983939 
855	 0.102772913231048 
856	 0.102809656407614 
857	 0.102844577185962 
858	 0.102827723296771 
859	 0.102791246444219 
860	 0.102795298407573 
861	 0.102811216887591 
862	 0.102799167601608 
863	 0.102834410755464 
864	 0.102849585339002 
865	 0.102849631987211 
866	 0.102875403241921 
867	 0.102865934403689 
868	 0.102823026086215 
869	 0.102800908022535 
870	 0.102883541917524 
871	 0.102927133078787 
872	 0.102925716028297 
873	 0.1029129701729 
874	 0.102943343805831 
875	 0.102974386255508 
876	 0.102985346641228 
877	 0.102987440673221 
878	 0.103063895925172 
879	 0.103111868892497 
880	 0.103125337995316 
881	 0.10314062410209 
882	 0.103207756860748 
883	 0.103266711945307 
884	 0.103279110430082 
885	 0.103249343140016 
886	 0.103329751762482 
887	 0.103405030491478 
888	 0.10344055622492 
889	 0.103485381659409 
890	 0.103514455884957 
891	 0.103536087204898 
892	 0.103571977335698 
893	 0.103649669516786 
894	 0.103695300296138 
895	 0.103735358691888 
896	 0.103793056718069 
897	 0.103849133089761 
898	 0.103871831727307 
899	 0.10393006759677 
900	 0.10405335353212 
901	 0.104099246046789 
902	 0.104114563413842 
903	 0.10416547666016 
904	 0.104283845441985 
905	 0.104350186379065 
906	 0.104378159836491 
907	 0.104409996729053 
908	 0.104498818851554 
909	 0.104685536533091 
910	 0.104779184086039 
911	 0.104814283611733 
912	 0.104949146398824 
913	 0.105024381479892 
914	 0.105097291118422 
915	 0.105176784772285 
916	 0.105226204863019 
917	 0.105357645325278 
918	 0.105449744186357 
919	 0.105474400274488 
920	 0.105538964325381 
921	 0.105596860127192 
922	 0.105708136003065 
923	 0.105875228274951 
924	 0.105998225696661 
925	 0.106044892611404 
926	 0.10612396143487 
927	 0.106275234149924 
928	 0.106357188185116 
929	 0.106436450223807 
930	 0.106536809439277 
931	 0.106659718239996 
932	 0.106778556955536 
933	 0.106928244419839 
934	 0.107036709105765 
935	 0.107071066818324 
936	 0.107199816355117 
937	 0.107277584200207 
938	 0.10736704878889 
939	 0.107534962288686 
940	 0.10761243654722 
941	 0.107754522256986 
942	 0.107929720232212 
943	 0.108044895300743 
944	 0.10808588350222 
945	 0.10812745296433 
946	 0.1082103224936 
947	 0.1083448915051 
948	 0.10851620275221 
949	 0.108628088037145 
950	 0.108686808474131 
951	 0.108765693196555 
952	 0.10895909689849 
953	 0.109072117424403 
954	 0.109131959517146 
955	 0.109270153951312 
956	 0.109396379730293 
957	 0.109487003774487 
958	 0.109563772611436 
959	 0.109678658446605 
960	 0.109896716211564 
961	 0.110022776328284 
962	 0.11010527745459 
963	 0.110298877592027 
964	 0.1103041723368 
965	 0.110474008371806 
966	 0.110711177653983 
967	 0.110710971180614 
968	 0.111037937074755 
969	 0.111231272810666 
970	 0.111220525835736 
971	 0.111266837730914 
972	 0.11155784475977 
973	 0.111726148264138 
974	 0.111780484416049 
975	 0.111975070625094 
976	 0.112197234279361 
977	 0.112462644079947 
978	 0.112603825931238 
979	 0.112458299947072 
980	 0.112534685996612 
981	 0.112676252724381 
982	 0.112826542911472 
983	 0.113013208819203 
984	 0.113222379051298 
985	 0.113415016977575 
986	 0.113508358268165 
987	 0.113470230103956 
988	 0.113564643484168 
989	 0.113875828844894 
990	 0.114222056316321 
991	 0.114374627928734 
992	 0.114542021994811 
993	 0.11465592727341 
994	 0.114761975378297 
995	 0.114920632773396 
996	 0.115032054002031 
997	 0.1151277824315 
998	 0.115234198483402 
999	 0.115403453322596 
1000	 0.115796784145735 
1001	 0.113763817108813 
1002	 0.113854465014603 
1003	 0.113923686434302 
1004	 0.114043047163649 
1005	 0.114164829052987 
1006	 0.114263129503282 
1007	 0.114386461150409 
1008	 0.114532444695133 
1009	 0.114602990824144 
1010	 0.1146578931071 
1011	 0.114767862024225 
1012	 0.114874897152769 
1013	 0.114945350423251 
1014	 0.11506560828816 
1015	 0.115217762578003 
1016	 0.115322231970069 
1017	 0.115425698195375 
1018	 0.115547667648261 
1019	 0.115634703468109 
1020	 0.11568129711071 
1021	 0.115758958493308 
1022	 0.11582527453205 
1023	 0.115847854528628 
1024	 0.115889732441489 
1025	 0.115997884630821 
1026	 0.116111922833846 
1027	 0.116222243501979 
1028	 0.116310156650868 
1029	 0.116344402557925 
1030	 0.116392993327576 
1031	 0.116415475583433 
1032	 0.116417211190764 
1033	 0.116427892503335 
1034	 0.116520017637543 
1035	 0.116598309573874 
1036	 0.116705685244653 
1037	 0.11683219849005 
1038	 0.116900136717804 
1039	 0.116985316282339 
1040	 0.117042185691599 
1041	 0.117089830260793 
1042	 0.117226032881165 
1043	 0.117318020667851 
1044	 0.117390539929695 
1045	 0.1174665140463 
1046	 0.117602144830687 
1047	 0.117645779949797 
1048	 0.117664936796377 
1049	 0.117755732210022 
1050	 0.117826393961194 
1051	 0.117872551112122 
1052	 0.117980067577396 
1053	 0.118076465384935 
1054	 0.118135849966942 
1055	 0.118263246893244 
1056	 0.118344680265259 
1057	 0.118404048724654 
1058	 0.118458685119512 
1059	 0.118525167853767 
1060	 0.118561893263311 
1061	 0.118590678049652 
1062	 0.118687582940273 
1063	 0.11877460726537 
1064	 0.118854256482251 
1065	 0.11891984125069 
1066	 0.118997153774799 
1067	 0.119059429192832 
1068	 0.119065303610264 
1069	 0.119124673788188 
1070	 0.119180764823399 
1071	 0.119210971985717 
1072	 0.119241246808142 
1073	 0.119325354338694 
1074	 0.119361216073473 
1075	 0.119354021932488 
1076	 0.119346524150102 
1077	 0.119401228174058 
1078	 0.119410141014546 
1079	 0.119393953348133 
1080	 0.119451818110383 
1081	 0.119483183884403 
1082	 0.119483774931496 
1083	 0.119488974533305 
1084	 0.119500394639926 
1085	 0.119512011526144 
1086	 0.119509964837004 
1087	 0.119502854678847 
1088	 0.119488493855316 
1089	 0.119507285530389 
1090	 0.119529518555706 
1091	 0.119572729216606 
1092	 0.119638573586412 
1093	 0.119663764552773 
1094	 0.119668475589143 
1095	 0.119706162590213 
1096	 0.119728996049064 
1097	 0.119743744931083 
1098	 0.119743878578512 
1099	 0.11970267540076 
1100	 0.119697539176583 
1101	 0.119687578549271 
1102	 0.119707884840562 
1103	 0.119766662313794 
1104	 0.119811950445924 
1105	 0.119837913042605 
1106	 0.119873431109916 
1107	 0.119881757281395 
1108	 0.119898887916067 
1109	 0.119928344492496 
1110	 0.119958044788497 
1111	 0.11997949598812 
1112	 0.119998164260257 
1113	 0.120007095593251 
1114	 0.119996850691036 
1115	 0.120011809230389 
1116	 0.120026751186382 
1117	 0.120058737738547 
1118	 0.120117330538156 
1119	 0.120168388069134 
1120	 0.120193474532241 
1121	 0.120219129348225 
1122	 0.120245515656462 
1123	 0.120271036480846 
1124	 0.120294143247611 
1125	 0.120328160361838 
1126	 0.120349042268284 
1127	 0.120353007068731 
1128	 0.120364672385762 
1129	 0.120380078719581 
1130	 0.120396756005214 
1131	 0.120426312162931 
1132	 0.120432130361354 
1133	 0.120419437357779 
1134	 0.120419489458324 
1135	 0.120410652645927 
1136	 0.120399431436769 
1137	 0.120417919965657 
1138	 0.120430969089779 
1139	 0.120413513236189 
1140	 0.120380096398383 
1141	 0.120338422262905 
1142	 0.120260117808179 
1143	 0.12021881013741 
1144	 0.120191840802266 
1145	 0.120157438857949 
1146	 0.120134219124667 
1147	 0.120101435364769 
1148	 0.12005799315275 
1149	 0.120022202763388 
1150	 0.119987899315569 
1151	 0.119957272309148 
1152	 0.119923880979983 
1153	 0.11989041200879 
1154	 0.11988116893886 
1155	 0.119889283708363 
1156	 0.119888391165312 
1157	 0.119906575564265 
1158	 0.119906732306377 
1159	 0.119891954209298 
1160	 0.119881908106295 
1161	 0.119868281577271 
1162	 0.119861866672181 
1163	 0.119842364612567 
1164	 0.119849262760403 
1165	 0.119883321361345 
1166	 0.119909713241573 
1167	 0.119927849995794 
1168	 0.119937733822347 
1169	 0.119948970923954 
1170	 0.119939949711597 
1171	 0.119949146494031 
1172	 0.119969540183183 
1173	 0.119993009709259 
1174	 0.120028165713935 
1175	 0.120041678024739 
1176	 0.120048179494618 
1177	 0.12006136242261 
1178	 0.120063162293549 
1179	 0.120067266132539 
1180	 0.120086831721058 
1181	 0.120095510877303 
1182	 0.120093734384622 
1183	 0.120085994818942 
1184	 0.120085059977259 
1185	 0.12008244366624 
1186	 0.120089536950401 
1187	 0.120101451129551 
1188	 0.120114384475714 
1189	 0.12013400771774 
1190	 0.120151459349947 
1191	 0.120169242813361 
1192	 0.120187131862015 
1193	 0.120212011150446 
1194	 0.120227414787752 
1195	 0.120233376159753 
1196	 0.120245040002324 
1197	 0.12025452533397 
1198	 0.120265179652751 
1199	 0.120277456085874 
1200	 0.120289217561298 
1201	 0.120316036470362 
1202	 0.12035201451041 
1203	 0.120377675755281 
1204	 0.120417977952809 
1205	 0.120438446878578 
1206	 0.120425631426109 
1207	 0.120450379510328 
1208	 0.120505269220866 
1209	 0.120526901598947 
1210	 0.120540241833925 
1211	 0.12056593587272 
1212	 0.120577300795056 
1213	 0.120590317979119 
1214	 0.120625934283206 
1215	 0.120651179929593 
1216	 0.120668965516351 
1217	 0.120660783636245 
1218	 0.120685895864268 
1219	 0.120730283559177 
1220	 0.12075631368294 
1221	 0.12078671106184 
1222	 0.120812673766673 
1223	 0.120832802678217 
1224	 0.120844565320601 
1225	 0.120847346971152 
1226	 0.120861981840193 
1227	 0.120875365045821 
1228	 0.120884031295706 
1229	 0.120896758088289 
1230	 0.120914575646959 
1231	 0.120918652620199 
1232	 0.120935751360866 
1233	 0.120962486697554 
1234	 0.121010266074259 
1235	 0.121041216792243 
1236	 0.121079518772038 
1237	 0.121095464449622 
1238	 0.121091917279425 
1239	 0.121104044891306 
1240	 0.121112160797722 
1241	 0.121117796772848 
1242	 0.121129437106405 
1243	 0.121141171339709 
1244	 0.121142174945705 
1245	 0.121149893095485 
1246	 0.121162054123055 
1247	 0.121182006920437 
1248	 0.121191635301464 
1249	 0.121232395509574 
1250	 0.12128972592887 
1251	 0.121318923768448 
1252	 0.121338881882968 
1253	 0.121348935892742 
1254	 0.12135464938548 
1255	 0.121335984458982 
1256	 0.121338681423116 
1257	 0.121350931602772 
1258	 0.121357683223123 
1259	 0.121368128829603 
1260	 0.121376890748251 
1261	 0.121380846459775 
1262	 0.12138678324184 
1263	 0.121406707569524 
1264	 0.121406261199249 
1265	 0.121382451796342 
1266	 0.121376245143253 
1267	 0.121364073817315 
1268	 0.12135780137549 
1269	 0.121361663627908 
1270	 0.121383481239702 
1271	 0.121400450058939 
1272	 0.12142243649215 
1273	 0.121434508261027 
1274	 0.121444986151929 
1275	 0.121464491898789 
1276	 0.121474365432462 
1277	 0.121497599568105 
1278	 0.121549441028098 
1279	 0.121572434181159 
1280	 0.121571429055128 
1281	 0.121596207128532 
1282	 0.121615994386099 
1283	 0.121649323641204 
1284	 0.121715343430821 
1285	 0.121770647242477 
1286	 0.121792670918701 
1287	 0.121816895329811 
1288	 0.121841998871976 
1289	 0.121856100329555 
1290	 0.121864581984915 
1291	 0.121879076747706 
1292	 0.121879573001266 
1293	 0.121861631459938 
1294	 0.121846297209628 
1295	 0.121827378555808 
1296	 0.121813766210752 
1297	 0.12180664506306 
1298	 0.121776809776218 
1299	 0.121746162340417 
1300	 0.121702651201922 
1301	 0.121633120363143 
1302	 0.121565934798073 
1303	 0.12149524593242 
1304	 0.121421979912167 
1305	 0.121348275121992 
1306	 0.121261826307121 
1307	 0.121197863335834 
1308	 0.121142823843011 
1309	 0.121069093347061 
1310	 0.120996923629221 
1311	 0.120912351347129 
1312	 0.120811135040861 
1313	 0.120710904339049 
1314	 0.120605569645233 
1315	 0.120504266150988 
1316	 0.120391917123287 
1317	 0.120293783097065 
1318	 0.120207924286508 
1319	 0.120118171853553 
1320	 0.120039557487338 
1321	 0.119947850576339 
1322	 0.119846959597879 
1323	 0.119750883391025 
1324	 0.119644961303161 
1325	 0.119541047544324 
1326	 0.119452911564513 
1327	 0.119347346847829 
1328	 0.119242815555834 
1329	 0.119158608199327 
1330	 0.1190650135748 
1331	 0.118972489839112 
1332	 0.118876293240356 
1333	 0.11878234500149 
1334	 0.118676184722106 
1335	 0.118549527802823 
1336	 0.118452136095971 
1337	 0.118356548723933 
1338	 0.118273650179613 
1339	 0.118232062979651 
1340	 0.118155378829991 
1341	 0.118060481200379 
1342	 0.117971707536744 
1343	 0.117872470909329 
1344	 0.117770658670056 
1345	 0.117685040996363 
1346	 0.11760641456103 
1347	 0.117523109599031 
1348	 0.117431025970759 
1349	 0.117319529267089 
1350	 0.117199506124325 
1351	 0.117084538388419 
1352	 0.116960016711837 
1353	 0.116842046904926 
1354	 0.116731071428733 
1355	 0.116615138591023 
1356	 0.116494136749569 
1357	 0.116378320941096 
1358	 0.116256673209973 
1359	 0.116149239805783 
1360	 0.116051965061248 
1361	 0.115953064112849 
1362	 0.115869077452502 
1363	 0.115773400645496 
1364	 0.115668885634081 
1365	 0.115570355132369 
1366	 0.115475551807267 
1367	 0.115371705293357 
1368	 0.115279833628126 
1369	 0.115159066538687 
1370	 0.115010478280473 
1371	 0.114859649512378 
1372	 0.114678390074914 
1373	 0.11446721468795 
1374	 0.114215211075465 
1375	 0.113936411088884 
1376	 0.113605235372523 
1377	 0.113227120697116 
1378	 0.112814733864732 
1379	 0.112352034451413 
1380	 0.111876223919768 
1381	 0.111360359964859 
1382	 0.110838470719378 
1383	 0.110310110596103 
1384	 0.109743544642659 
1385	 0.109183157843205 
1386	 0.108551426733502 
1387	 0.107864403222032 
1388	 0.107154993303545 
1389	 0.106412362227255 
1390	 0.10560942160706 
1391	 0.10478086342819 
1392	 0.103911569267047 
1393	 0.102997078321031 
1394	 0.102075887524908 
1395	 0.10114596508289 
1396	 0.100216573010271 
1397	 9.92896439506382E-02 
1398	 9.83464741267167E-02 
1399	 0.097436197942593 
1400	 9.65325570372522E-02 
1401	 9.56563424629174E-02 
1402	 9.47945056415829E-02 
1403	 9.39663498804791E-02 
1404	 9.31525810520922E-02 
1405	 9.23881856756254E-02 
1406	 0.091659391139069 
1407	 9.09643773975644E-02 
1408	 9.02992172373896E-02 
1409	 8.96809204788867E-02 
1410	 8.90946032108138E-02 
1411	 8.85582674740105E-02 
1412	 8.80695064216258E-02 
1413	 8.76244718787556E-02 
1414	 8.72249643147945E-02 
1415	 8.68571009273233E-02 
1416	 8.65113278165396E-02 
1417	 8.61905937627827E-02 
1418	 0.085875465072636 
1419	 8.55948296144903E-02 
1420	 8.53640658136495E-02 
1421	 8.51522303388535E-02 
1422	 8.49652828166938E-02 
1423	 8.47693966752504E-02 
1424	 8.45801874098616E-02 
1425	 8.43871493492962E-02 
1426	 8.42146176130202E-02 
1427	 8.40476114234895E-02 
1428	 8.39071898608686E-02 
1429	 8.37869587908218E-02 
1430	 8.36676806587359E-02 
1431	 8.35680176200255E-02 
1432	 8.34678856605672E-02 
1433	 8.33606271151385E-02 
1434	 8.32750074463032E-02 
1435	 8.32058464176164E-02 
1436	 0.083146236288801 
1437	 8.31050950833332E-02 
1438	 0.083064649100058 
1439	 8.30353102217668E-02 
1440	 8.30003886760866E-02 
1441	 8.29649847980567E-02 
1442	 8.29356528045922E-02 
1443	 8.29099694821305E-02 
1444	 8.28899871184411E-02 
1445	 8.28917788942954E-02 
1446	 8.29093208870139E-02 
1447	 8.29219879107119E-02 
1448	 8.29238576249085E-02 
1449	 8.29252357427896E-02 
1450	 8.29284390798987E-02 
1451	 8.29418415156925E-02 
1452	 8.29657770466097E-02 
1453	 8.29934806286003E-02 
1454	 8.30263710480587E-02 
1455	 8.30606631522568E-02 
1456	 8.31029371144692E-02 
1457	 8.31413572950316E-02 
1458	 8.31728922197288E-02 
1459	 0.083222484919117 
1460	 8.32728136436269E-02 
1461	 8.33423448278549E-02 
1462	 8.34239553573146E-02 
1463	 8.35213430723227E-02 
1464	 8.36423417114019E-02 
1465	 8.37590347896044E-02 
1466	 8.38836872066027E-02 
1467	 8.40226945728358E-02 
1468	 8.41561626867306E-02 
1469	 8.43105836543892E-02 
1470	 8.44868911254017E-02 
1471	 8.46773143933888E-02 
1472	 8.48656568596159E-02 
1473	 8.50669572852347E-02 
1474	 8.52533285860155E-02 
1475	 8.54402734289176E-02 
1476	 8.56454663278518E-02 
1477	 8.58514254060961E-02 
1478	 8.60684962889809E-02 
1479	 0.086291895218965 
1480	 8.65118471634303E-02 
1481	 8.67360538682434E-02 
1482	 8.69631844766613E-02 
1483	 8.72011805350608E-02 
1484	 8.74313669519379E-02 
1485	 8.76562860933177E-02 
1486	 8.78873894512939E-02 
1487	 8.81148889882479E-02 
1488	 8.83555090837328E-02 
1489	 8.86133806555474E-02 
1490	 8.88541225052719E-02 
1491	 8.90986781304461E-02 
1492	 8.93374372230317E-02 
1493	 8.95555781731692E-02 
1494	 8.97891490337423E-02 
1495	 9.00300732836898E-02 
1496	 9.02683901298982E-02 
1497	 9.05179156828215E-02 
1498	 9.07532850486171E-02 
1499	 9.09864517692538E-02 
1500	 9.12122708611889E-02 
1501	 0.091414149063796 
1502	 9.16367373485147E-02 
1503	 9.18690002868563E-02 
1504	 9.20969458322068E-02 
1505	 9.23290591930216E-02 
1506	 9.25471743817368E-02 
1507	 9.27553243752307E-02 
1508	 9.29705212037641E-02 
1509	 9.31826931680676E-02 
1510	 9.33912610493354E-02 
1511	 9.36151740063717E-02 
1512	 9.38255940637538E-02 
1513	 9.40234462769186E-02 
1514	 9.42440632667789E-02 
1515	 9.44502863706878E-02 
1516	 9.46439899278401E-02 
1517	 9.48415781779221E-02 
1518	 9.50439096639055E-02 
1519	 9.52378929809658E-02 
1520	 9.54254398135204E-02 
1521	 0.095610670272503 
1522	 9.57896739582612E-02 
1523	 9.59823622214082E-02 
1524	 0.096176180092837 
1525	 9.63675803696779E-02 
1526	 9.65733488545143E-02 
1527	 9.67608083181797E-02 
1528	 9.69389923390273E-02 
1529	 9.71119903915467E-02 
1530	 9.72768611559934E-02 
1531	 9.74390212489716E-02 
1532	 0.097591011524184 
1533	 9.77435905178262E-02 
1534	 9.78907366075719E-02 
1535	 9.80468258507204E-02 
1536	 9.82031568286473E-02 
1537	 9.83639758887501E-02 
1538	 9.85355882520774E-02 
1539	 9.86998828461223E-02 
1540	 9.88655334714932E-02 
1541	 9.90231486152089E-02 
1542	 9.91811858578836E-02 
1543	 9.93267501057288E-02 
1544	 9.94601444935181E-02 
1545	 9.95924840939043E-02 
1546	 9.97152332106298E-02 
1547	 9.98334484451697E-02 
1548	 0.099968649832294 
1549	 0.100100911358946 
1550	 0.10022131128195 
1551	 0.100350490372071 
1552	 0.100475481980106 
1553	 0.10059071410155 
1554	 0.100725705596716 
1555	 0.100867446061768 
1556	 0.100988537302147 
1557	 0.101108850548214 
1558	 0.101222510066104 
1559	 0.10131854113405 
1560	 0.101430707358424 
1561	 0.101550758682777 
1562	 0.101654172023281 
1563	 0.101758967354745 
1564	 0.101857205923054 
1565	 0.101935727839967 
1566	 0.102035230430848 
1567	 0.102146185332778 
1568	 0.102246715408161 
1569	 0.102354733864031 
1570	 0.102445090769021 
1571	 0.10252612092827 
1572	 0.10259971467637 
1573	 0.102655805705942 
1574	 0.102723217936441 
1575	 0.102777682175562 
1576	 0.10286109057788 
1577	 0.10297993339835 
1578	 0.103060191587622 
1579	 0.103135378042848 
1580	 0.103209928417475 
1581	 0.103258174998053 
1582	 0.103319631187772 
1583	 0.103388960828401 
1584	 0.103464781490338 
1585	 0.103543962350211 
1586	 0.103617655082357 
1587	 0.103707323651514 
1588	 0.103781235087456 
1589	 0.103844641657247 
1590	 0.103898377650718 
1591	 0.103941275973321 
1592	 0.10398375302295 
1593	 0.10400602162566 
1594	 0.104043584847369 
1595	 0.10409032818125 
1596	 0.104136432499293 
1597	 0.104195090816693 
1598	 0.104240016645078 
1599	 0.104275033410344 
1600	 0.104317025006667 
1601	 0.104350342518233 
1602	 0.104393726586768 
1603	 0.104460736918636 
1604	 0.104501738471155 
1605	 0.104518476918357 
1606	 0.104557895531654 
1607	 0.10459838942442 
1608	 0.104634471656233 
1609	 0.104698259383231 
1610	 0.10474646555784 
1611	 0.104777262581069 
1612	 0.10480952215434 
1613	 0.104836528531937 
1614	 0.104861564458948 
1615	 0.104873549774323 
1616	 0.104889068276784 
1617	 0.104911473625422 
1618	 0.104926378210795 
1619	 0.104951279100522 
1620	 0.104986211626408 
1621	 0.105005997018087 
1622	 0.105017194313402 
1623	 0.105043119241971 
1624	 0.105066937080956 
1625	 0.105093415409443 
1626	 0.105134554009965 
1627	 0.10516218121826 
1628	 0.105183183381977 
1629	 0.105202252487695 
1630	 0.10521836691587 
1631	 0.105232523042907 
1632	 0.10524238844449 
1633	 0.105250154750963 
1634	 0.105254997955152 
1635	 0.105264537480587 
1636	 0.105268469072818 
1637	 0.105282242368721 
1638	 0.105307801666917 
1639	 0.105322317587242 
1640	 0.105340200693506 
1641	 0.105345359165097 
1642	 0.105341868881617 
1643	 0.105335112417111 
1644	 0.105312396189893 
1645	 0.105309895984995 
1646	 0.1053112957483 
1647	 0.105315827115841 
1648	 0.105333907504397 
1649	 0.105346635200098 
1650	 0.105357719896505 
1651	 0.105368561308274 
1652	 0.105387601451827 
1653	 0.105389557002035 
1654	 0.105383959698978 
1655	 0.105371667303894 
1656	 0.105343925612179 
1657	 0.105325408948414 
1658	 0.105305800662583 
1659	 0.105285587920215 
1660	 0.105262584013509 
1661	 0.105250722973915 
1662	 0.105244293751229 
1663	 0.105234100428178 
1664	 0.105231200556258 
1665	 0.105225608858421 
1666	 0.10522000974263 
1667	 0.105202764629736 
1668	 0.105178910907903 
1669	 0.105163217251811 
1670	 0.105141920129154 
1671	 0.105119331553846 
1672	 0.105108659441623 
1673	 0.105085031763742 
1674	 0.10503591556279 
1675	 0.105016164345251 
1676	 0.105018999203692 
1677	 0.104999607090606 
1678	 0.104983860075074 
1679	 0.104961294641589 
1680	 0.104919593442918 
1681	 0.104886191541121 
1682	 0.104856491774255 
1683	 0.104829498742917 
1684	 0.104799764027709 
1685	 0.104774465520735 
1686	 0.104759701601968 
1687	 0.104737880167153 
1688	 0.104718345290888 
1689	 0.104684257604691 
1690	 0.104640197918575 
1691	 0.104599449763461 
1692	 0.104550510569396 
1693	 0.104502592121864 
1694	 0.104452760833757 
1695	 0.104411229612973 
1696	 0.104369084667608 
1697	 0.104329182651668 
1698	 0.104304569013129 
1699	 0.104266154554786 
1700	 0.104214388409946 
1701	 0.104175213145769 
1702	 0.104137962707363 
1703	 0.104099930425687 
1704	 0.104074570534672 
1705	 0.104029835765272 
1706	 0.103971195637577 
1707	 0.103921672836366 
1708	 0.103868676431307 
1709	 0.103810871430697 
1710	 0.103757411660937 
1711	 0.103697711000654 
1712	 0.103619095911502 
1713	 0.103565021666403 
1714	 0.103528703532628 
1715	 0.103478120966095 
1716	 0.103435553507049 
1717	 0.103378518427561 
1718	 0.103305279148356 
1719	 0.103235506504336 
1720	 0.103162252864119 
1721	 0.103092714537675 
1722	 0.103021955621021 
1723	 0.102948411805739 
1724	 0.102889446528856 
1725	 0.102799190281861 
1726	 0.102684069885637 
1727	 0.102588954569277 
1728	 0.102477329557687 
1729	 0.102380036401006 
1730	 0.102302471114169 
1731	 0.102222865310176 
1732	 0.102144009459485 
1733	 0.102062991749398 
1734	 0.101992744252221 
1735	 0.101904727140092 
1736	 0.101801926438029 
1737	 0.101709115860778 
1738	 0.10162066284026 
1739	 0.101517780056044 
1740	 0.101408012279286 
1741	 0.101304644835737 
1742	 0.101192321646509 
1743	 0.10107940181076 
1744	 0.100971432506767 
1745	 0.100866821227124 
1746	 0.100752452360462 
1747	 0.100670089362545 
1748	 0.100585235559885 
1749	 0.100460296155517 
1750	 0.100358776880144 
1751	 0.100255300408271 
1752	 0.100116479036938 
1753	 0.100008260746344 
1754	 9.99019791545513E-02 
1755	 9.97666544277926E-02 
1756	 9.96447224986346E-02 
1757	 9.95382659260801E-02 
1758	 9.94360189194701E-02 
1759	 9.93427502237257E-02 
1760	 9.92460091851606E-02 
1761	 9.91270571869665E-02 
1762	 9.89955238456811E-02 
1763	 9.88834954315593E-02 
1764	 0.09878244360825 
1765	 9.86634342258048E-02 
1766	 0.098556616679712 
1767	 9.84525265967752E-02 
1768	 9.83405512481753E-02 
1769	 9.82591498485507E-02 
1770	 9.81723174482433E-02 
1771	 9.80645474372101E-02 
1772	 9.79682083871246E-02 
1773	 9.78891986353207E-02 
1774	 9.77977904290459E-02 
1775	 9.77160879069632E-02 
1776	 9.76439672792886E-02 
1777	 9.75469380268177E-02 
1778	 9.74790635205523E-02 
1779	 9.74243204325002E-02 
1780	 9.73598235234159E-02 
1781	 9.72990922481908E-02 
1782	 9.72366917103929E-02 
1783	 9.71630616852714E-02 
1784	 9.71027142805714E-02 
1785	 9.70549300668576E-02 
1786	 9.70050594840373E-02 
1787	 9.69640640114458E-02 
1788	 9.69266623080258E-02 
1789	 9.69041164567461E-02 
1790	 9.68588659355387E-02 
1791	 9.67860572826507E-02 
1792	 9.67342177520527E-02 
1793	 9.66709765061177E-02 
1794	 9.66400823446146E-02 
1795	 9.66571277892378E-02 
1796	 9.66378871297865E-02 
1797	 9.66053469320129E-02 
1798	 9.65746948156572E-02 
1799	 9.65372941810049E-02 
1800	 9.65054791404918E-02 
1801	 9.43836352809328E-02 
1802	 9.45000516447143E-02 
1803	 9.46059167556032E-02 
1804	 0.094671065286131 
1805	 9.47572687763927E-02 
1806	 9.47925825453638E-02 
1807	 0.094846212988068 
1808	 9.48954842691224E-02 
1809	 9.49563319990327E-02 
1810	 9.49826411858817E-02 
1811	 9.50073526226221E-02 
1812	 9.49967911984379E-02 
1813	 9.49758471963152E-02 
1814	 9.49594413656733E-02 
1815	 9.49439177619496E-02 
1816	 9.49231064218585E-02 
1817	 9.49008435793588E-02 
1818	 9.48648472041123E-02 
1819	 9.48473272116526E-02 
1820	 9.48452775183771E-02 
1821	 9.48263543742157E-02 
1822	 0.094794928289049 
1823	 9.47754186420838E-02 
1824	 9.47603546882834E-02 
1825	 9.47267670059251E-02 
1826	 9.46775146019671E-02 
1827	 9.46119893041458E-02 
1828	 9.45626021828003E-02 
1829	 9.45121855871994E-02 
1830	 9.44491396854136E-02 
1831	 9.43923688501825E-02 
1832	 9.43437680870453E-02 
1833	 9.42462435769681E-02 
1834	 9.41348360227363E-02 
1835	 9.40591811643153E-02 
1836	 9.39569861088542E-02 
1837	 9.38724644846846E-02 
1838	 9.38020527612951E-02 
1839	 9.37118056879694E-02 
1840	 9.36106575045046E-02 
1841	 9.35151830241646E-02 
1842	 9.34136747260315E-02 
1843	 9.33175461663623E-02 
1844	 9.32109147167698E-02 
1845	 9.31045145344496E-02 
1846	 9.29985691007779E-02 
1847	 9.28473992022876E-02 
1848	 0.092683965924678 
1849	 9.25330919921606E-02 
1850	 9.23579574610418E-02 
1851	 9.21696789401376E-02 
1852	 9.19504646745205E-02 
1853	 0.091718920670512 
1854	 9.14591015061217E-02 
1855	 9.11601185713469E-02 
1856	 9.08578484999275E-02 
1857	 0.09055076079905 
1858	 9.02233265027147E-02 
1859	 8.98703814548604E-02 
1860	 0.089463237333911 
1861	 8.90220322763577E-02 
1862	 8.85331427106182E-02 
1863	 8.79968242963468E-02 
1864	 8.74129734706129E-02 
1865	 8.68093024322263E-02 
1866	 8.61605693970297E-02 
1867	 8.54884412403693E-02 
1868	 8.47979236035645E-02 
1869	 8.40458769798808E-02 
1870	 8.32722630359609E-02 
1871	 8.24758345576095E-02 
1872	 8.16524000176456E-02 
1873	 8.07818854293655E-02 
1874	 7.99026376042712E-02 
1875	 7.90000368288923E-02 
1876	 7.80338024516312E-02 
1877	 7.70268090688324E-02 
1878	 7.60021368218982E-02 
1879	 7.49261783238752E-02 
1880	 7.38045031076901E-02 
1881	 7.26210021348299E-02 
1882	 7.14434392196164E-02 
1883	 0.070236516007748 
1884	 6.89690246498161E-02 
1885	 6.77281249502603E-02 
1886	 6.64760670752009E-02 
1887	 6.51490088333072E-02 
1888	 6.38483504511126E-02 
1889	 6.25479771119757E-02 
1890	 6.12441996286359E-02 
1891	 6.00129855712377E-02 
1892	 5.88230688792391E-02 
1893	 5.76740367554079E-02 
1894	 5.65689709472894E-02 
1895	 5.55158062771629E-02 
1896	 5.44931805230309E-02 
1897	 5.35206982469789E-02 
1898	 5.25826207979488E-02 
1899	 5.17148641624562E-02 
1900	 5.09104712603333E-02 
1901	 5.01654178968567E-02 
1902	 4.94822874157118E-02 
1903	 4.88904451018985E-02 
1904	 4.83211830831619E-02 
1905	 4.77949772934472E-02 
1906	 4.73235649960445E-02 
1907	 4.69023776722898E-02 
1908	 4.65064674736908E-02 
1909	 4.61517098760889E-02 
1910	 4.58169435924408E-02 
1911	 4.54969529578297E-02 
1912	 4.52252681048292E-02 
1913	 4.49780696980019E-02 
1914	 0.044773455063332 
1915	 4.45681365221545E-02 
1916	 4.43873735383685E-02 
1917	 4.42132720840587E-02 
1918	 4.40511958891021E-02 
1919	 4.39097667084131E-02 
1920	 4.38211599211756E-02 
1921	 4.37516519288666E-02 
1922	 4.36721007053393E-02 
1923	 4.36129870505192E-02 
1924	 4.35619367126206E-02 
1925	 4.35051099111568E-02 
1926	 4.34729322775597E-02 
1927	 4.34688867875463E-02 
1928	 4.34657325657155E-02 
1929	 4.34524977235727E-02 
1930	 0.043453937318765 
1931	 4.34575340250961E-02 
1932	 0.043465894320894 
1933	 4.35009384165684E-02 
1934	 4.35559949887067E-02 
1935	 4.36098746451442E-02 
1936	 4.36707567869202E-02 
1937	 4.37415793841333E-02 
1938	 4.38186089928606E-02 
1939	 4.39012841622434E-02 
1940	 4.39838290857705E-02 
1941	 4.40999421048448E-02 
1942	 4.42144988932606E-02 
1943	 4.43279437525311E-02 
1944	 4.44572518273616E-02 
1945	 4.45738839251727E-02 
1946	 4.46972997213445E-02 
1947	 4.48144629468412E-02 
1948	 4.49486330560068E-02 
1949	 4.51042881952327E-02 
1950	 4.52430723950743E-02 
1951	 4.53746003073188E-02 
1952	 4.55156840153384E-02 
1953	 4.56695353153363E-02 
1954	 4.58324726014759E-02 
1955	 4.60073672720801E-02 
1956	 4.61905458901308E-02 
1957	 4.63686457096628E-02 
1958	 4.65333684047376E-02 
1959	 4.67124035933181E-02 
1960	 4.68996338509382E-02 
1961	 4.70915321063671E-02 
1962	 4.72960646718582E-02 
1963	 4.74903453985628E-02 
1964	 4.76822917823767E-02 
1965	 4.78839522381272E-02 
1966	 4.80722335654099E-02 
1967	 4.82634558098234E-02 
1968	 4.84536599667017E-02 
1969	 4.86384287316075E-02 
1970	 4.88350697765785E-02 
1971	 4.90360081499403E-02 
1972	 4.92367971852599E-02 
1973	 4.94378487764349E-02 
1974	 4.96568350791947E-02 
1975	 0.049890701834675 
1976	 5.01135384061466E-02 
1977	 5.03497486233546E-02 
1978	 5.05895379273663E-02 
1979	 5.07990643999613E-02 
1980	 5.10078833535227E-02 
1981	 0.051231926077767 
1982	 5.14549950377744E-02 
1983	 5.16902129843528E-02 
1984	 5.19536234973895E-02 
1985	 5.21932702126841E-02 
1986	 5.24320086315393E-02 
1987	 5.26615864137992E-02 
1988	 5.28721054826183E-02 
1989	 5.30897781429996E-02 
1990	 5.33187816442528E-02 
1991	 5.35339181204908E-02 
1992	 5.37546606712706E-02 
1993	 5.39766973406383E-02 
1994	 0.054203397029455 
1995	 5.44302536523974E-02 
1996	 5.46640939963497E-02 
1997	 5.49054412922729E-02 
1998	 5.51449112178831E-02 
1999	 0.055389409222708 
2000	 5.56289301482323E-02 
2001	 5.58648369047127E-02 
2002	 5.61091756029258E-02 
2003	 5.63515837075305E-02 
2004	 5.65772371103123E-02 
2005	 5.68098568159031E-02 
2006	 5.70435240165374E-02 
2007	 5.72731172921528E-02 
2008	 5.75019227298799E-02 
2009	 5.77295896036125E-02 
2010	 5.79501196176745E-02 
2011	 5.81764543324222E-02 
2012	 5.84062090035014E-02 
2013	 5.86327073472981E-02 
2014	 5.88596324135008E-02 
2015	 5.90886325645255E-02 
2016	 5.93190391480978E-02 
2017	 5.95265758765901E-02 
2018	 5.97423531087857E-02 
2019	 0.05994733670804 
2020	 6.01706189434396E-02 
2021	 6.04084461454623E-02 
2022	 6.06339288178638E-02 
2023	 6.08697533400171E-02 
2024	 6.10901113286091E-02 
2025	 6.12874264523832E-02 
2026	 6.14966353603934E-02 
2027	 6.17051348944528E-02 
2028	 0.061921532156501 
2029	 0.062125596017991 
2030	 6.23279325546752E-02 
2031	 0.062529327958049 
2032	 6.27123636170408E-02 
2033	 6.29199707696155E-02 
2034	 6.31497252324863E-02 
2035	 6.33610993445461E-02 
2036	 6.35771271097978E-02 
2037	 6.37892442892214E-02 
2038	 6.39945125652454E-02 
2039	 6.41909505700161E-02 
2040	 6.43923461366714E-02 
2041	 6.45731010232658E-02 
2042	 6.47446648793111E-02 
2043	 0.064924161238978 
2044	 6.51121417539767E-02 
2045	 6.53177052159802E-02 
2046	 6.54995198131031E-02 
2047	 6.56745800146973E-02 
2048	 6.58535157267478E-02 
2049	 6.60101925206395E-02 
2050	 6.61925002075105E-02 
2051	 6.63966143354141E-02 
2052	 6.65919465175579E-02 
2053	 6.68041229844082E-02 
2054	 6.69985084626027E-02 
2055	 6.71783731318431E-02 
2056	 6.73583888340828E-02 
2057	 6.75419233984424E-02 
2058	 6.77246372706914E-02 
2059	 6.78958698180605E-02 
2060	 6.80690097475081E-02 
2061	 6.82325404365906E-02 
2062	 6.83653521824878E-02 
2063	 6.85282520454679E-02 
2064	 6.87089271850996E-02 
2065	 6.88811192740969E-02 
2066	 6.90718999867391E-02 
2067	 6.92447610244573E-02 
2068	 6.94035177690212E-02 
2069	 6.95601390822476E-02 
2070	 6.97132278535133E-02 
2071	 6.98518184874379E-02 
2072	 7.00116938289649E-02 
2073	 7.01755943131235E-02 
2074	 7.03440354857024E-02 
2075	 7.05354248405919E-02 
2076	 7.07009138811141E-02 
2077	 7.08561045638143E-02 
2078	 7.10110268779863E-02 
2079	 7.11390164669573E-02 
2080	 7.12972230743521E-02 
2081	 7.14801053978089E-02 
2082	 7.16484629170829E-02 
2083	 7.18263553067228E-02 
2084	 7.20070917707242E-02 
2085	 7.21570654839631E-02 
2086	 7.22774082441444E-02 
2087	 7.24154078781463E-02 
2088	 7.25383522586879E-02 
2089	 7.26804264823703E-02 
2090	 0.072840843545367 
2091	 7.29885693363047E-02 
2092	 7.31336048066723E-02 
2093	 7.32841907553068E-02 
2094	 7.34394451860105E-02 
2095	 7.35843035558743E-02 
2096	 7.37359025543289E-02 
2097	 7.38739685961922E-02 
2098	 0.073994830276144 
2099	 7.41126294852078E-02 
2100	 7.42340443486197E-02 
2101	 7.43431402327449E-02 
2102	 7.44823376447044E-02 
2103	 7.46387245677704E-02 
2104	 7.47847623074705E-02 
2105	 7.49499364441903E-02 
2106	 7.50977320316236E-02 
2107	 7.52277355745131E-02 
2108	 7.53675766892133E-02 
2109	 7.55172780054501E-02 
2110	 0.075653152788005 
2111	 7.57753332019523E-02 
2112	 7.59074391838712E-02 
2113	 0.076037391811838 
2114	 7.61657696632745E-02 
2115	 0.0763023224315 
2116	 7.64530630234564E-02 
2117	 7.65899728669726E-02 
2118	 7.67263275551778E-02 
2119	 7.68533501079595E-02 
2120	 7.69699773123838E-02 
2121	 7.70932848905934E-02 
2122	 7.72216826640336E-02 
2123	 7.73328644983056E-02 
2124	 7.74337972942959E-02 
2125	 7.75408080046684E-02 
2126	 7.76329654086349E-02 
2127	 7.77339485937471E-02 
2128	 7.78483368182885E-02 
2129	 7.79581248746412E-02 
2130	 7.80665589089345E-02 
2131	 7.81792569738299E-02 
2132	 7.82685732894057E-02 
2133	 0.078354995987588 
2134	 7.84211978827579E-02 
2135	 7.84509532558977E-02 
2136	 7.85102826973542E-02 
2137	 7.85769075854647E-02 
2138	 7.86332496869932E-02 
2139	 7.86993770642041E-02 
2140	 7.87519652030389E-02 
2141	 7.87849763055039E-02 
2142	 7.88262684373759E-02 
2143	 7.88844683735472E-02 
2144	 7.89154266423287E-02 
2145	 7.89198842693769E-02 
2146	 7.89377607468362E-02 
2147	 7.89536503975802E-02 
2148	 7.89491962046987E-02 
2149	 7.89683773707295E-02 
2150	 7.90165110493039E-02 
2151	 7.90286337535536E-02 
2152	 7.90346966268314E-02 
2153	 7.90260623309015E-02 
2154	 7.89913935020211E-02 
2155	 7.89676800364541E-02 
2156	 7.89402219336058E-02 
2157	 7.89120514969387E-02 
2158	 0.078881108942531 
2159	 7.88534869826211E-02 
2160	 7.88300691249981E-02 
2161	 7.87977204049561E-02 
2162	 7.87585497688983E-02 
2163	 7.87265028670637E-02 
2164	 7.86962435976799E-02 
2165	 7.86575481027564E-02 
2166	 7.86204998228518E-02 
2167	 7.85938278946997E-02 
2168	 7.85471794579891E-02 
2169	 7.84879371315321E-02 
2170	 0.07842822303796 
2171	 7.83629406065314E-02 
2172	 7.82930326489704E-02 
2173	 0.078214900038019 
2174	 0.078137453352108 
2175	 7.80521020346282E-02 
2176	 7.79733029717587E-02 
2177	 7.78881218484464E-02 
2178	 7.78199230379272E-02 
2179	 7.77718744616109E-02 
2180	 7.77086947513116E-02 
2181	 7.76494330179814E-02 
2182	 7.75886020983545E-02 
2183	 7.75285702758725E-02 
2184	 7.74447441688724E-02 
2185	 7.73700917763575E-02 
2186	 7.73018330936728E-02 
2187	 7.72215187818227E-02 
2188	 7.71196381142125E-02 
2189	 7.70515418608853E-02 
2190	 7.69984739081397E-02 
2191	 7.69352353184513E-02 
2192	 7.68910596880999E-02 
2193	 7.68299278971793E-02 
2194	 7.67375221618768E-02 
2195	 7.66780877189934E-02 
2196	 7.66346330335543E-02 
2197	 7.65905452377587E-02 
2198	 7.65583047201561E-02 
2199	 7.65320466075303E-02 
2200	 7.65073495993585E-02 
2201	 0.076485884911982 
2202	 7.64715160043211E-02 
2203	 7.64739701114684E-02 
2204	 7.64561564036733E-02 
2205	 7.64303639691893E-02 
2206	 7.64146680981168E-02 
2207	 7.63874623221729E-02 
2208	 7.63849286616913E-02 
2209	 7.64087736072919E-02 
2210	 7.64082697265029E-02 
2211	 7.64031066024964E-02 
2212	 0.076408743142912 
2213	 7.64021492047693E-02 
2214	 7.64100893329983E-02 
2215	 0.076450777368743 
2216	 7.64635074323169E-02 
2217	 0.076451739662858 
2218	 7.64626468172095E-02 
2219	 7.64824295399108E-02 
2220	 7.64898728722775E-02 
2221	 7.64952944556957E-02 
2222	 7.65173759124838E-02 
2223	 7.65283303038919E-02 
2224	 7.65267198174371E-02 
2225	 7.65253533005865E-02 
2226	 7.65342108594556E-02 
2227	 7.65228149115195E-02 
2228	 7.64856587865122E-02 
2229	 7.64756196608074E-02 
2230	 7.64683605358578E-02 
2231	 7.64648012252969E-02 
2232	 7.64872070574703E-02 
2233	 7.64787527368384E-02 
2234	 0.076451263083816 
2235	 7.64356942798707E-02 
2236	 7.64100050182974E-02 
2237	 7.63853273248592E-02 
2238	 7.63861584381276E-02 
2239	 7.63514322056268E-02 
2240	 7.62734001592305E-02 
2241	 7.62277864764729E-02 
2242	 7.61721015868797E-02 
2243	 0.076136330011506 
2244	 7.61435632592304E-02 
2245	 7.61350492424141E-02 
2246	 0.076115216455679 
2247	 7.60580059684866E-02 
2248	 0.075998073726986 
2249	 7.59077319861527E-02 
2250	 7.58480324834345E-02 
2251	 0.075789897471698 
2252	 7.57334536165208E-02 
2253	 7.56789625488976E-02 
2254	 7.56383918477488E-02 
2255	 7.56099214815943E-02 
2256	 7.55719564670395E-02 
2257	 7.55549443880807E-02 
2258	 7.55117189816011E-02 
2259	 7.54244447826217E-02 
2260	 7.53797888520346E-02 
2261	 7.53557784885863E-02 
2262	 7.53224491154998E-02 
2263	 7.53179936621374E-02 
2264	 7.52872447746927E-02 
2265	 7.52246673820339E-02 
2266	 7.51782062013832E-02 
2267	 7.51399502414458E-02 
2268	 7.50922285430174E-02 
2269	 0.075062005515849 
2270	 7.49936499166655E-02 
2271	 7.49170197591911E-02 
2272	 7.48257649288179E-02 
2273	 7.47487458440171E-02 
2274	 7.46900096260477E-02 
2275	 7.46260692298415E-02 
2276	 7.45725837866799E-02 
2277	 7.45224012484397E-02 
2278	 7.44676101741679E-02 
2279	 7.44245098120991E-02 
2280	 7.44041534506041E-02 
2281	 7.43578850383614E-02 
2282	 7.43212232029126E-02 
2283	 7.42429831053646E-02 
2284	 7.41095242496674E-02 
2285	 7.40341261253152E-02 
2286	 7.39474715136254E-02 
2287	 7.38907326268322E-02 
2288	 7.39039171409523E-02 
2289	 7.38704606211366E-02 
2290	 7.38285154431477E-02 
2291	 7.37670681407632E-02 
2292	 7.36823336347814E-02 
2293	 7.35983213404746E-02 
2294	 7.34959981383336E-02 
2295	 7.34029236546619E-02 
2296	 7.33064608721384E-02 
2297	 7.32237968810107E-02 
2298	 7.31208849316334E-02 
2299	 7.30285740024799E-02 
2300	 7.29505563975053E-02 
2301	 0.07284196734127 
2302	 7.27472237262838E-02 
2303	 0.07268661251979 
2304	 7.26151751018502E-02 
2305	 7.25033387547701E-02 
2306	 7.23958300510162E-02 
2307	 7.22646939859588E-02 
2308	 7.21570273728203E-02 
2309	 7.20419941056503E-02 
2310	 7.19610148730618E-02 
2311	 7.19196711342039E-02 
2312	 7.18553089949016E-02 
2313	 7.18091933753253E-02 
2314	 7.17209756320066E-02 
2315	 7.15969980841107E-02 
2316	 7.14922747078397E-02 
2317	 7.13642574086166E-02 
2318	 7.12739860107746E-02 
2319	 7.12173391424006E-02 
2320	 7.11381968055587E-02 
2321	 7.10798679216136E-02 
2322	 7.09824100227392E-02 
2323	 7.08534505967698E-02 
2324	 7.07376886498107E-02 
2325	 7.05640932913297E-02 
2326	 7.04641490081592E-02 
2327	 7.04438291417349E-02 
2328	 7.03640656525896E-02 
2329	 7.02596638802532E-02 
2330	 7.02168759662903E-02 
2331	 7.01050290866994E-02 
2332	 6.99913271203857E-02 
2333	 6.98913509462813E-02 
2334	 6.97531219034527E-02 
2335	 6.96074760460701E-02 
2336	 6.94697806176559E-02 
2337	 6.93885716137775E-02 
2338	 6.92762044516022E-02 
2339	 6.91572550149607E-02 
2340	 6.90831939682789E-02 
2341	 6.89386721354158E-02 
2342	 6.88165464765613E-02 
2343	 6.86963611075419E-02 
2344	 6.85076665327511E-02 
2345	 6.83769063718078E-02 
2346	 6.82721523708218E-02 
2347	 6.81633178852431E-02 
2348	 6.80919995935002E-02 
2349	 6.79740327755718E-02 
2350	 0.067835021005941 
2351	 6.76984880125342E-02 
2352	 6.75267510755747E-02 
2353	 6.73902221764627E-02 
2354	 6.72642497975276E-02 
2355	 6.71609923065931E-02 
2356	 6.71051420981329E-02 
2357	 6.69878900477564E-02 
2358	 6.68622421133955E-02 
2359	 6.67128279394341E-02 
2360	 6.64988389009474E-02 
2361	 6.63319194342807E-02 
2362	 0.066190433607812 
2363	 6.60397054789719E-02 
2364	 6.59037722113127E-02 
2365	 6.57526034590378E-02 
2366	 6.55720527254541E-02 
2367	 0.065415510941889 
2368	 6.52598300676237E-02 
2369	 6.51112489804388E-02 
2370	 6.49658062030375E-02 
2371	 6.48563772189897E-02 
2372	 6.47938327042357E-02 
2373	 6.46960550226982E-02 
2374	 6.45830483207971E-02 
2375	 6.44844963323425E-02 
2376	 6.43225462132519E-02 
2377	 6.41604414431297E-02 
2378	 6.39774174129054E-02 
2379	 6.38358244651248E-02 
2380	 0.063653188601385 
2381	 6.34544713665547E-02 
2382	 6.33918995769065E-02 
2383	 6.32071347185792E-02 
2384	 6.30275675590586E-02 
2385	 6.29350543212241E-02 
2386	 6.28004650885645E-02 
2387	 6.26846716470945E-02 
2388	 6.25462878007677E-02 
2389	 6.23971819793934E-02 
2390	 6.22192858170202E-02 
2391	 6.20805843595694E-02 
2392	 0.061979100596394 
2393	 6.18114537823095E-02 
2394	 6.16268856196985E-02 
2395	 6.14334993182415E-02 
2396	 6.12533385940308E-02 
2397	 6.10970223060917E-02 
2398	 6.09431347958315E-02 
2399	 6.08018463373116E-02 
2400	 6.05795823020447E-02 
2401	 6.04058605565689E-02 
2402	 6.03280085898756E-02 
2403	 6.01770299791357E-02 
2404	 0.060084420207724 
2405	 5.99599028999896E-02 
2406	 0.059711789326256 
2407	 5.94947436796884E-02 
2408	 5.92183117469646E-02 
2409	 5.89145575180191E-02 
2410	 5.87322367216571E-02 
2411	 5.85900634210024E-02 
2412	 5.84251392159105E-02 
2413	 5.82889436698674E-02 
2414	 0.058183230878047 
2415	 5.80270756977986E-02 
2416	 5.78693410362874E-02 
2417	 5.77632356289153E-02 
2418	 5.76383259646276E-02 
2419	 5.74486286264673E-02 
2420	 5.72589720675522E-02 
2421	 5.71035043859729E-02 
2422	 5.69115536622824E-02 
2423	 5.66634964411128E-02 
2424	 5.65146119120325E-02 
2425	 5.64028183208013E-02 
2426	 5.62435113772787E-02 
2427	 5.61136816905052E-02 
2428	 5.59413343879938E-02 
2429	 5.57292979523477E-02 
2430	 5.55448694907459E-02 
2431	 5.53793307537121E-02 
2432	 5.51489836784203E-02 
2433	 5.48479209905178E-02 
2434	 5.46615073599971E-02 
2435	 5.44879995051848E-02 
2436	 5.43396232001155E-02 
2437	 5.42889672922479E-02 
2438	 5.42098218587449E-02 
2439	 5.41192451798517E-02 
2440	 5.39903167160943E-02 
2441	 5.39233275900099E-02 
2442	 5.37134084103598E-02 
2443	 5.33359423398214E-02 
2444	 5.31370868829131E-02 
2445	 5.29235689910716E-02 
2446	 5.27447855212689E-02 
2447	 0.052707727577218 
2448	 5.25358283489994E-02 
2449	 5.22739932067681E-02 
2450	 5.20931686469278E-02 
2451	 5.19127127738616E-02 
2452	 5.17676956716587E-02 
2453	 5.17481211365572E-02 
2454	 0.051564649902722 
2455	 5.13002834506067E-02 
2456	 5.10896826747951E-02 
2457	 5.07224614749272E-02 
2458	 5.05397445802871E-02 
2459	 5.05407481723099E-02 
2460	 5.03901457793603E-02 
2461	 5.02469396168641E-02 
2462	 5.00981143658386E-02 
2463	 4.98853298766421E-02 
2464	 4.96712630571638E-02 
2465	 4.94145083608047E-02 
2466	 4.92498992355878E-02 
2467	 4.91403302542214E-02 
2468	 4.89743851510216E-02 
2469	 4.89195970060358E-02 
2470	 4.88297832127703E-02 
2471	 4.85237661634711E-02 
2472	 4.83474872865167E-02 
2473	 4.82507269409416E-02 
2474	 4.82040196720606E-02 
2475	 4.82448154330762E-02 
2476	 4.82835454121687E-02 
2477	 4.83224992964574E-02 
2478	 4.81992665996951E-02 
2479	 4.78552522244665E-02 
2480	 4.74716790843992E-02 
2481	 4.70315278299687E-02 
2482	 4.67168953526782E-02 
2483	 4.65228032424021E-02 
2484	 0.046334445282513 
2485	 4.62877769188837E-02 
2486	 4.61545818689718E-02 
2487	 4.60443407678151E-02 
2488	 4.61682778195416E-02 
2489	 4.61957427619579E-02 
2490	 4.61189994480386E-02 
2491	 4.61739703926985E-02 
2492	 4.60248825411705E-02 
2493	 4.55742231678401E-02 
2494	 4.53518797710658E-02 
2495	 4.53351213525974E-02 
2496	 4.51704386199763E-02 
2497	 4.50541501814623E-02 
2498	 4.50147611910875E-02 
2499	 4.48105273232429E-02 
2500	 4.47157096316951E-02 
