Wavelength	MM_3300002.asd
350	 4.19181740952628E-02 
351	 4.15345162113772E-02 
352	 3.51554736415434E-02 
353	 2.49125649028804E-02 
354	 3.59755117042957E-02 
355	 4.04996663979114E-02 
356	 3.55928987036049E-02 
357	 2.90643431189551E-02 
358	 4.31604607648495E-02 
359	 4.52617074954296E-02 
360	 3.75278778031751E-02 
361	 4.27722389236002E-02 
362	 0.039369392291027 
363	 3.43908834285629E-02 
364	 3.36347176074731E-02 
365	 3.57274860464991E-02 
366	 3.26853751159352E-02 
367	 3.04051799645001E-02 
368	 3.51665303725117E-02 
369	 3.99279116659131E-02 
370	 3.69161558196839E-02 
371	 3.15144973568954E-02 
372	 3.64360749541515E-02 
373	 3.84148927399218E-02 
374	 3.83602414496568E-02 
375	 3.76660972626603E-02 
376	 3.50013210854684E-02 
377	 3.36010741437097E-02 
378	 0.034976847801129 
379	 3.85223115447293E-02 
380	 3.80304424754621E-02 
381	 3.81362508298795E-02 
382	 3.99486782059342E-02 
383	 4.15838695162734E-02 
384	 4.29744474434225E-02 
385	 4.18504028468462E-02 
386	 3.88392547181344E-02 
387	 4.03779432680567E-02 
388	 4.39230685548055E-02 
389	 4.59934252498712E-02 
390	 4.41792480032024E-02 
391	 4.23776919353214E-02 
392	 4.33798404325809E-02 
393	 4.62139565408642E-02 
394	 4.70574139302549E-02 
395	 4.72645901657567E-02 
396	 4.76907884480711E-02 
397	 0.048669263689883 
398	 0.049625217643971 
399	 0.050241497984225 
400	 5.09137074862005E-02 
401	 5.19412568119456E-02 
402	 5.13311806881128E-02 
403	 5.17896844742387E-02 
404	 0.053118118818451 
405	 5.21636925078456E-02 
406	 5.46628230362844E-02 
407	 5.67066078010554E-02 
408	 5.53783561538431E-02 
409	 5.48213734407463E-02 
410	 5.51685275158419E-02 
411	 5.61208154924058E-02 
412	 5.71179455003843E-02 
413	 5.81340479887262E-02 
414	 5.85366617838005E-02 
415	 5.83899649714577E-02 
416	 5.86649194926095E-02 
417	 5.83405823242555E-02 
418	 5.84150607493004E-02 
419	 5.96365012374511E-02 
420	 6.05177722259976E-02 
421	 6.01439312255042E-02 
422	 5.96257501586829E-02 
423	 6.09646887830038E-02 
424	 6.07977268897012E-02 
425	 6.07279940439856E-02 
426	 6.14146474126791E-02 
427	 6.05876958165213E-02 
428	 6.00772330274429E-02 
429	 6.03795118334123E-02 
430	 6.12572250807407E-02 
431	 6.11663576244559E-02 
432	 6.13540069540067E-02 
433	 6.19920028031995E-02 
434	 6.21275284915587E-02 
435	 6.20843035975711E-02 
436	 6.21990726076839E-02 
437	 6.25759557803706E-02 
438	 6.26739351591105E-02 
439	 6.30637725946018E-02 
440	 6.34639442354468E-02 
441	 6.33257143160942E-02 
442	 0.063622950531378 
443	 6.40591144590702E-02 
444	 0.064340797491622 
445	 6.43611902916045E-02 
446	 0.064649627815371 
447	 6.49573468822815E-02 
448	 6.49617893441792E-02 
449	 6.49889039369532E-02 
450	 6.55643813202545E-02 
451	 6.63476276575621E-02 
452	 6.63529254169292E-02 
453	 6.66640887249793E-02 
454	 6.69092847578258E-02 
455	 6.68492604323411E-02 
456	 6.72136691999077E-02 
457	 6.74421287173889E-02 
458	 6.76324227594925E-02 
459	 6.80572527361792E-02 
460	 6.79462196302093E-02 
461	 6.78520022481656E-02 
462	 6.80172381277066E-02 
463	 6.80841401150646E-02 
464	 6.83448469436458E-02 
465	 6.85830668446119E-02 
466	 6.86002824730216E-02 
467	 6.88365895703122E-02 
468	 6.90647540900786E-02 
469	 6.91116306040208E-02 
470	 6.89053137408531E-02 
471	 6.90667260094238E-02 
472	 0.06911260017957 
473	 6.88642352762615E-02 
474	 6.93493714251396E-02 
475	 6.96958203413955E-02 
476	 6.97946729005528E-02 
477	 6.98726476410898E-02 
478	 6.99964127891609E-02 
479	 7.00585185252905E-02 
480	 7.00631324135498E-02 
481	 7.01868983596566E-02 
482	 7.04642781158592E-02 
483	 7.06852136129715E-02 
484	 7.06837839577176E-02 
485	 7.07734008739709E-02 
486	 7.07788220742204E-02 
487	 7.06845722371673E-02 
488	 7.06236441399628E-02 
489	 7.07738259588179E-02 
490	 7.09261165531138E-02 
491	 0.070972404493619 
492	 7.12650833705676E-02 
493	 7.12804301958141E-02 
494	 7.11692936219968E-02 
495	 7.13532272594664E-02 
496	 7.16791168897796E-02 
497	 7.17900223500234E-02 
498	 7.16785134550065E-02 
499	 7.18754489431093E-02 
500	 7.20113251904458E-02 
501	 7.20079155832672E-02 
502	 7.19257843254648E-02 
503	 7.20329850118925E-02 
504	 7.22021166023119E-02 
505	 0.072296089079388 
506	 0.072205772967526 
507	 7.23333332278785E-02 
508	 7.25715289850458E-02 
509	 7.27290929420733E-02 
510	 0.072660567792777 
511	 7.26588879587422E-02 
512	 7.26966249390401E-02 
513	 7.26083490523139E-02 
514	 0.072650827027809 
515	 7.28418703694677E-02 
516	 7.30937503232465E-02 
517	 7.32002043024309E-02 
518	 7.31912417187684E-02 
519	 7.31230631321186E-02 
520	 7.30948747320986E-02 
521	 7.33449972676372E-02 
522	 7.35109122884627E-02 
523	 7.34654971711438E-02 
524	 7.33643813831117E-02 
525	 7.34693173420435E-02 
526	 7.36274244393146E-02 
527	 7.36704490892677E-02 
528	 7.37167199803544E-02 
529	 7.37097164549639E-02 
530	 7.37387630085178E-02 
531	 7.39538151669224E-02 
532	 7.40226638407821E-02 
533	 7.40819470824274E-02 
534	 7.42203190473398E-02 
535	 7.42890659586987E-02 
536	 7.42849453520593E-02 
537	 7.42999695421545E-02 
538	 7.44274966172993E-02 
539	 0.074462802393704 
540	 7.44880512840696E-02 
541	 7.45865301465951E-02 
542	 7.48172233248256E-02 
543	 7.48952358645237E-02 
544	 0.074920781420973 
545	 7.50474467142521E-02 
546	 7.51750006328731E-02 
547	 7.52802784704275E-02 
548	 0.075400365766264 
549	 7.56106809180711E-02 
550	 7.57217534235218E-02 
551	 7.58018205237108E-02 
552	 7.59230853739742E-02 
553	 7.60334095126316E-02 
554	 7.61780383347397E-02 
555	 7.63401874108956E-02 
556	 0.076477329224149 
557	 7.66381966779047E-02 
558	 7.67802414613837E-02 
559	 7.69054260940712E-02 
560	 7.71162671484893E-02 
561	 7.72709436497001E-02 
562	 7.74157226749361E-02 
563	 7.76474189034675E-02 
564	 7.79602597232357E-02 
565	 7.82330099127222E-02 
566	 7.84599379635633E-02 
567	 7.87690519711111E-02 
568	 0.079090615772771 
569	 0.079363003184582 
570	 7.95690509793993E-02 
571	 0.079829632634009 
572	 8.00987041951878E-02 
573	 8.03793748361796E-02 
574	 8.06987162973706E-02 
575	 8.09076755501702E-02 
576	 8.12261996065618E-02 
577	 8.17299400399517E-02 
578	 8.20464900373353E-02 
579	 8.24351625200308E-02 
580	 8.28392823974872E-02 
581	 8.31106473605196E-02 
582	 8.34477368011042E-02 
583	 8.37287459334016E-02 
584	 8.39258212850619E-02 
585	 8.41802288151013E-02 
586	 8.45278334540577E-02 
587	 8.49025936872315E-02 
588	 8.52339538750613E-02 
589	 8.56065942350023E-02 
590	 8.59402329331405E-02 
591	 0.086218305482566 
592	 0.086488106874186 
593	 8.67498577963284E-02 
594	 8.69724820043592E-02 
595	 8.71860939153383E-02 
596	 8.76099660287716E-02 
597	 8.80447593391306E-02 
598	 8.84673015158304E-02 
599	 8.89420739719893E-02 
600	 8.93981878136506E-02 
601	 8.97834196176686E-02 
602	 9.00746793250055E-02 
603	 9.02901607474694E-02 
604	 9.04970088475957E-02 
605	 9.07301487035507E-02 
606	 9.09992517753025E-02 
607	 9.12695631532643E-02 
608	 9.15067376039086E-02 
609	 9.17115435037029E-02 
610	 9.19244728970612E-02 
611	 9.21594903373429E-02 
612	 9.24101359176446E-02 
613	 9.26516264996241E-02 
614	 9.28268667610582E-02 
615	 0.092969485905276 
616	 9.31223884576947E-02 
617	 9.33231908212348E-02 
618	 9.34824639716339E-02 
619	 9.36028990985397E-02 
620	 9.37092941365155E-02 
621	 9.38413308737453E-02 
622	 9.39746998193484E-02 
623	 9.40952105921371E-02 
624	 9.41991745094235E-02 
625	 9.43321637939996E-02 
626	 9.44395319500924E-02 
627	 9.45107903602883E-02 
628	 9.46023212494335E-02 
629	 9.47260807114686E-02 
630	 9.48443411877878E-02 
631	 0.094929177164655 
632	 9.50536005032814E-02 
633	 9.51691092756613E-02 
634	 9.52620602851716E-02 
635	 9.53502598589387E-02 
636	 0.095441764629318 
637	 9.55255320009295E-02 
638	 9.55958658755065E-02 
639	 9.56656232628022E-02 
640	 0.095764618901594 
641	 0.095892395088911 
642	 9.60282764554791E-02 
643	 9.61406600892056E-02 
644	 9.62149206312825E-02 
645	 9.62727199001746E-02 
646	 9.63851627072273E-02 
647	 0.096448603564001 
648	 9.65040160186448E-02 
649	 9.66105430497958E-02 
650	 9.67143138418865E-02 
651	 9.68270655489522E-02 
652	 9.69256156934588E-02 
653	 9.69651756277927E-02 
654	 9.70892020260167E-02 
655	 9.72206553634404E-02 
656	 9.72976085764032E-02 
657	 9.73983973057296E-02 
658	 9.75155780688811E-02 
659	 0.09762967787435 
660	 9.77202147629773E-02 
661	 9.78264574289461E-02 
662	 9.79311813886636E-02 
663	 9.80245646904269E-02 
664	 9.81141284688043E-02 
665	 9.82437119934445E-02 
666	 9.83582658086303E-02 
667	 9.84130692063004E-02 
668	 0.098526097062999 
669	 9.86728344806798E-02 
670	 9.88163714313108E-02 
671	 9.89157296635336E-02 
672	 9.89823077559374E-02 
673	 9.91062890709588E-02 
674	 9.93134740913334E-02 
675	 9.94564040867113E-02 
676	 9.95359963103557E-02 
677	 9.96174933379375E-02 
678	 9.97775714576828E-02 
679	 9.99173486782524E-02 
680	 0.100054725229363 
681	 0.100210014923306 
682	 0.100394571968952 
683	 0.100488688512129 
684	 0.100573946212867 
685	 0.100739484373312 
686	 0.100898314215645 
687	 0.101044750661901 
688	 0.101195263552557 
689	 0.101374243759529 
690	 0.101503649248037 
691	 0.101605128053978 
692	 0.101718664661647 
693	 0.101896034199614 
694	 0.102036136016894 
695	 0.102148727728725 
696	 0.102287714728143 
697	 0.102504986219392 
698	 0.102673701900586 
699	 0.102790144110095 
700	 0.102985870953664 
701	 0.103174009450197 
702	 0.103303615914364 
703	 0.103375281339404 
704	 0.103506738250513 
705	 0.103649403647879 
706	 0.103783413851165 
707	 0.10390879554387 
708	 0.104068168729309 
709	 0.104243553279777 
710	 0.104410422314359 
711	 0.104546740992301 
712	 0.104636497471337 
713	 0.104739749222698 
714	 0.104903802436949 
715	 0.105043580829565 
716	 0.105182321608793 
717	 0.105311489336931 
718	 0.105401618519463 
719	 0.105469723525751 
720	 0.105570888683079 
721	 0.105707734611127 
722	 0.105766860150674 
723	 0.105905366584627 
724	 0.106067216796904 
725	 0.106153786862975 
726	 0.106252364703414 
727	 0.106338053576721 
728	 0.106403206207803 
729	 0.106461922393608 
730	 0.106548786158232 
731	 0.106635217798009 
732	 0.106697797186431 
733	 0.106751149222759 
734	 0.106830942915496 
735	 0.106896431093101 
736	 0.10689934120938 
737	 0.106959072858123 
738	 0.107018134763383 
739	 0.107056617150284 
740	 0.10710868633936 
741	 0.107139535980927 
742	 0.107161686242017 
743	 0.107185585487754 
744	 0.107187863632521 
745	 0.107177083413415 
746	 0.107176648979159 
747	 0.107203821975334 
748	 0.107182234353218 
749	 0.107153157691753 
750	 0.107145051038179 
751	 0.107156703945381 
752	 0.107131619034215 
753	 0.107113190654517 
754	 0.107130144901373 
755	 0.107098008753154 
756	 0.107043139922958 
757	 0.106991522968123 
758	 0.106963378130374 
759	 0.106935662257581 
760	 0.10686632179162 
761	 0.106783883984267 
762	 0.106801876397413 
763	 0.106750460266192 
764	 0.106658474541416 
765	 0.106583679397852 
766	 0.106518687531872 
767	 0.106466812527639 
768	 0.10640961001986 
769	 0.106330193794157 
770	 0.106311728371873 
771	 0.106244360115058 
772	 0.106125098740749 
773	 0.106093441451398 
774	 0.106008109095945 
775	 0.105929456376597 
776	 0.105903283797739 
777	 0.105810874086886 
778	 0.105718021146927 
779	 0.105654417422638 
780	 0.105617453497414 
781	 0.105512786560163 
782	 0.10542076404136 
783	 0.105357911452108 
784	 0.105261680112461 
785	 0.105181193914131 
786	 0.105078061450865 
787	 0.104952110062253 
788	 0.10493887825668 
789	 0.104907003460746 
790	 0.104826247629184 
791	 0.104716790958482 
792	 0.104637285338989 
793	 0.104572974546191 
794	 0.104507846661253 
795	 0.104428043374789 
796	 0.104304727572315 
797	 0.104210403145107 
798	 0.104168136402466 
799	 0.104081606948285 
800	 0.104032471817312 
801	 0.103969743075025 
802	 0.103842840200733 
803	 0.103752668432177 
804	 0.103722940284578 
805	 0.103703724192173 
806	 0.103612834780707 
807	 0.103518656256809 
808	 0.103439915398643 
809	 0.103379059915505 
810	 0.103323888078928 
811	 0.103282393868905 
812	 0.103206957097601 
813	 0.103090413264152 
814	 0.103067329037312 
815	 0.103025860199298 
816	 0.102957675301712 
817	 0.10289565739694 
818	 0.102843196871717 
819	 0.102796846488343 
820	 0.102741582964512 
821	 0.102658380587554 
822	 0.102589217838263 
823	 0.102528937174025 
824	 0.102473258977866 
825	 0.102432012556177 
826	 0.102389806819594 
827	 0.10233047904229 
828	 0.102261492410338 
829	 0.10226886693206 
830	 0.102223379416067 
831	 0.102151216750681 
832	 0.102138479617012 
833	 0.102119948632336 
834	 0.102085687188117 
835	 0.102030670197106 
836	 0.101958791015427 
837	 0.101969228352428 
838	 0.101973503281812 
839	 0.101921259351675 
840	 0.101881462427594 
841	 0.101817276428842 
842	 0.101791825879169 
843	 0.101833884664361 
844	 0.101782756802876 
845	 0.101752213636614 
846	 0.101739401187703 
847	 0.101701539740043 
848	 0.101705896350338 
849	 0.101692173751871 
850	 0.101655981840418 
851	 0.101642527105939 
852	 0.101617275162242 
853	 0.101599150975948 
854	 0.101587042552209 
855	 0.101542536562403 
856	 0.101551411653882 
857	 0.101587326904055 
858	 0.101612936040432 
859	 0.101640910786148 
860	 0.101623095975625 
861	 0.101597049296237 
862	 0.101611304952601 
863	 0.101613786142965 
864	 0.101618716160929 
865	 0.101630911418301 
866	 0.101644088030639 
867	 0.101623740984538 
868	 0.101611243024058 
869	 0.101620497096004 
870	 0.10163062480505 
871	 0.101646828681804 
872	 0.101676574796577 
873	 0.101711935505984 
874	 0.101720860902975 
875	 0.101743391489061 
876	 0.101749037331072 
877	 0.101735593009783 
878	 0.101827870065799 
879	 0.101856541557688 
880	 0.101857221294258 
881	 0.101905633082407 
882	 0.101910131676095 
883	 0.101973334512973 
884	 0.102055182243252 
885	 0.102060833504338 
886	 0.102101163900047 
887	 0.102147517024799 
888	 0.102183383407915 
889	 0.102215621204457 
890	 0.102289374227551 
891	 0.102365583194306 
892	 0.102412314287909 
893	 0.102425243614974 
894	 0.102450176983752 
895	 0.102522972026062 
896	 0.10262481666838 
897	 0.102649760164688 
898	 0.102697998494089 
899	 0.102764811269424 
900	 0.102832827586082 
901	 0.102933582842914 
902	 0.10296409899123 
903	 0.103009424315735 
904	 0.103146120610963 
905	 0.103161742471957 
906	 0.103188195925502 
907	 0.10325720821969 
908	 0.103346506924211 
909	 0.10344851060784 
910	 0.103527229462869 
911	 0.103616102407297 
912	 0.103774660420369 
913	 0.103917378188688 
914	 0.103984770200691 
915	 0.103997781044784 
916	 0.104046939586319 
917	 0.104196680755751 
918	 0.104294674441978 
919	 0.104304529862112 
920	 0.104354269978234 
921	 0.104463219982897 
922	 0.104602852028674 
923	 0.104728424772229 
924	 0.104796290458862 
925	 0.104896089796411 
926	 0.105010208999815 
927	 0.105094460647031 
928	 0.105102875839139 
929	 0.105230116455528 
930	 0.105384689986417 
931	 0.105472565147239 
932	 0.105570864840005 
933	 0.105765873678288 
934	 0.105924736862173 
935	 0.105951683361927 
936	 0.106050391881811 
937	 0.106158274553452 
938	 0.106272440302054 
939	 0.106396622776798 
940	 0.106498276533253 
941	 0.106632642480219 
942	 0.106789493047835 
943	 0.106927815321973 
944	 0.107000468514949 
945	 0.107104763458091 
946	 0.107251966503015 
947	 0.10739511777561 
948	 0.107443936455378 
949	 0.107518138907583 
950	 0.107639393952955 
951	 0.107767248214255 
952	 0.107865287246026 
953	 0.107969010976817 
954	 0.108059941964506 
955	 0.10811430941338 
956	 0.108252192508849 
957	 0.108431140222861 
958	 0.108565173631971 
959	 0.108595567877775 
960	 0.108705009416191 
961	 0.108882510910637 
962	 0.109102316510373 
963	 0.109315726850977 
964	 0.109367753091597 
965	 0.109472435706236 
966	 0.109669597098111 
967	 0.109856377974215 
968	 0.109980393275686 
969	 0.110082668853623 
970	 0.110180371205551 
971	 0.110280115764841 
972	 0.110456771437886 
973	 0.110722967976159 
974	 0.110907381712779 
975	 0.110846780602311 
976	 0.111101980486482 
977	 0.111313728441729 
978	 0.111400923032751 
979	 0.11150506847754 
980	 0.111640368329458 
981	 0.111786765375435 
982	 0.111908536236068 
983	 0.112002224824806 
984	 0.112268615751241 
985	 0.112402019502421 
986	 0.112464196917049 
987	 0.112675723129625 
988	 0.112815757253311 
989	 0.113091249763036 
990	 0.11334031432106 
991	 0.113327660513054 
992	 0.113398809511087 
993	 0.113634739704137 
994	 0.113875339000055 
995	 0.113938262416565 
996	 0.114021164755979 
997	 0.114102810783366 
998	 0.114256879736973 
999	 0.114540315628339 
1000	 0.114871167083867 
1001	 0.112796860040323 
1002	 0.112870077181068 
1003	 0.113004039482878 
1004	 0.113111456005352 
1005	 0.113217582636468 
1006	 0.113337611102768 
1007	 0.113459688459666 
1008	 0.113571217505748 
1009	 0.113737256255191 
1010	 0.113815462007936 
1011	 0.113889403306407 
1012	 0.113975012773993 
1013	 0.113989643441999 
1014	 0.11408942470902 
1015	 0.114250964524337 
1016	 0.114353915385071 
1017	 0.114446187670146 
1018	 0.114526994736763 
1019	 0.114615969742531 
1020	 0.114717221238261 
1021	 0.114825651679893 
1022	 0.114928700682921 
1023	 0.115014122551853 
1024	 0.115067076596363 
1025	 0.115120241737874 
1026	 0.115183955714596 
1027	 0.115214882093999 
1028	 0.115245664340284 
1029	 0.115330542655856 
1030	 0.115400711000444 
1031	 0.115470199305073 
1032	 0.115565471652569 
1033	 0.115693982099294 
1034	 0.115735056770016 
1035	 0.115763754948271 
1036	 0.11590667019084 
1037	 0.116005108798303 
1038	 0.116040941029226 
1039	 0.116148163893168 
1040	 0.116219143823462 
1041	 0.116211782686058 
1042	 0.116276333314383 
1043	 0.116416491026909 
1044	 0.116514059488955 
1045	 0.116598661969709 
1046	 0.116688553412896 
1047	 0.116790131205194 
1048	 0.116833318933222 
1049	 0.116863145037635 
1050	 0.116943878005112 
1051	 0.117031379511107 
1052	 0.117105502661545 
1053	 0.117190694230915 
1054	 0.117288985111101 
1055	 0.117348591128164 
1056	 0.117355598584094 
1057	 0.117421066839413 
1058	 0.117520354147534 
1059	 0.117590824293614 
1060	 0.117661200232668 
1061	 0.117787232556642 
1062	 0.117851187048916 
1063	 0.117859126556779 
1064	 0.117926505263462 
1065	 0.118001412770353 
1066	 0.11805691270542 
1067	 0.118125534901356 
1068	 0.118213936811173 
1069	 0.118228475902006 
1070	 0.118260735095211 
1071	 0.118304021829719 
1072	 0.118340652513792 
1073	 0.118347566984443 
1074	 0.118395780072964 
1075	 0.118474593934805 
1076	 0.118523921549593 
1077	 0.11856645959952 
1078	 0.118582805818672 
1079	 0.118572840808708 
1080	 0.118571833123525 
1081	 0.118599895441549 
1082	 0.11862745337364 
1083	 0.118645814314943 
1084	 0.118662390205446 
1085	 0.1186780161077 
1086	 0.118699706469502 
1087	 0.11871119798093 
1088	 0.118707760131606 
1089	 0.118729742900025 
1090	 0.118786055172675 
1091	 0.118768706309726 
1092	 0.118787270397847 
1093	 0.118836225626802 
1094	 0.118863208775614 
1095	 0.118895486596894 
1096	 0.118889768769423 
1097	 0.118864437787492 
1098	 0.118854662194676 
1099	 0.118794024725147 
1100	 0.118803475317389 
1101	 0.118885622136264 
1102	 0.11891273150651 
1103	 0.118941985201018 
1104	 0.118953532360362 
1105	 0.118932143198985 
1106	 0.118928811466895 
1107	 0.118955033732444 
1108	 0.11899632370484 
1109	 0.119023169968558 
1110	 0.119042812279231 
1111	 0.119068453243813 
1112	 0.119079801482638 
1113	 0.119099593172132 
1114	 0.119130725095843 
1115	 0.119170505082764 
1116	 0.119210374867798 
1117	 0.119243326609845 
1118	 0.119289471290219 
1119	 0.119328913583169 
1120	 0.119328134463224 
1121	 0.1193466527765 
1122	 0.119380367551315 
1123	 0.119412676145472 
1124	 0.119444964530542 
1125	 0.119501497577795 
1126	 0.119518288022304 
1127	 0.119499978043903 
1128	 0.119514363294084 
1129	 0.119535178069373 
1130	 0.119545220784211 
1131	 0.119575607573552 
1132	 0.119582874739166 
1133	 0.119558235629405 
1134	 0.119547362186653 
1135	 0.119544178675134 
1136	 0.11952232830704 
1137	 0.119523196989146 
1138	 0.119530880889655 
1139	 0.11952623780582 
1140	 0.119537144026973 
1141	 0.119514784862079 
1142	 0.119462958484326 
1143	 0.119423368154414 
1144	 0.1193692512234 
1145	 0.119331366268212 
1146	 0.119317113102652 
1147	 0.119273524406218 
1148	 0.119203470476481 
1149	 0.119157348706173 
1150	 0.119087633263257 
1151	 0.119061546078449 
1152	 0.119066221130647 
1153	 0.119063148498583 
1154	 0.119067472311098 
1155	 0.11908542564169 
1156	 0.119087498782781 
1157	 0.119086483474795 
1158	 0.11909072261238 
1159	 0.119091996354158 
1160	 0.119088651888652 
1161	 0.119081182562767 
1162	 0.119085142318754 
1163	 0.119095029480271 
1164	 0.119097730590593 
1165	 0.119103339221168 
1166	 0.11911525752555 
1167	 0.119107467841349 
1168	 0.119091998579849 
1169	 0.119102044244885 
1170	 0.119124432197466 
1171	 0.119145208860351 
1172	 0.119188558851198 
1173	 0.119205200798452 
1174	 0.119203281951393 
1175	 0.119218079515154 
1176	 0.11923316436117 
1177	 0.119244393104953 
1178	 0.119258067876594 
1179	 0.119277310385456 
1180	 0.119297590825971 
1181	 0.119311885727559 
1182	 0.11933901999933 
1183	 0.119355649665709 
1184	 0.119356785607883 
1185	 0.119327718917377 
1186	 0.11933784403652 
1187	 0.119361049640976 
1188	 0.119371858626271 
1189	 0.119398158866805 
1190	 0.119413207394666 
1191	 0.119406251242037 
1192	 0.119413198786994 
1193	 0.119435324744167 
1194	 0.119446323036362 
1195	 0.119440755359348 
1196	 0.119454629792618 
1197	 0.119479204294458 
1198	 0.119500486171411 
1199	 0.119525618423687 
1200	 0.119569006686711 
1201	 0.119585347289976 
1202	 0.11958116649941 
1203	 0.11959997661816 
1204	 0.119618784973583 
1205	 0.11964031853226 
1206	 0.119674194320906 
1207	 0.119704661514299 
1208	 0.119733313396426 
1209	 0.119759881896985 
1210	 0.1197945535563 
1211	 0.11981957762444 
1212	 0.119834500320331 
1213	 0.119850157386972 
1214	 0.11985882543189 
1215	 0.11987350734959 
1216	 0.119889964661211 
1217	 0.119907430891234 
1218	 0.119923876625685 
1219	 0.1199422690458 
1220	 0.1199630313157 
1221	 0.119983668080785 
1222	 0.120003932175565 
1223	 0.120033065412755 
1224	 0.120050091754656 
1225	 0.120046217038892 
1226	 0.120068493384704 
1227	 0.120109182258473 
1228	 0.120132604053997 
1229	 0.120165141140426 
1230	 0.120190123413009 
1231	 0.120187351303572 
1232	 0.12020124799813 
1233	 0.120222125955633 
1234	 0.120257456965727 
1235	 0.120278064327044 
1236	 0.120301279839876 
1237	 0.120316432619896 
1238	 0.120318133233237 
1239	 0.120331236921794 
1240	 0.120349195255116 
1241	 0.120362531799864 
1242	 0.120368402650581 
1243	 0.120390852217414 
1244	 0.120424775801654 
1245	 0.120449057870554 
1246	 0.12048589368629 
1247	 0.120512456080546 
1248	 0.120529144411643 
1249	 0.12053925510607 
1250	 0.120543024803297 
1251	 0.12054197639147 
1252	 0.120548687763228 
1253	 0.120548284932278 
1254	 0.120555389634366 
1255	 0.120576031103457 
1256	 0.120586040718633 
1257	 0.120587267754316 
1258	 0.120597141566199 
1259	 0.120617093465864 
1260	 0.120622217644123 
1261	 0.120623612761548 
1262	 0.120622655623078 
1263	 0.120602766304356 
1264	 0.120598827047272 
1265	 0.120605335523582 
1266	 0.120607625683764 
1267	 0.120612743323435 
1268	 0.120622182402189 
1269	 0.120626477241812 
1270	 0.120625937614554 
1271	 0.120633577885067 
1272	 0.120640712153387 
1273	 0.120653170364242 
1274	 0.120666478401305 
1275	 0.120691430276889 
1276	 0.120732564958881 
1277	 0.120762044607091 
1278	 0.120791207121142 
1279	 0.120825722557791 
1280	 0.120854625185743 
1281	 0.120886278347625 
1282	 0.120934029802172 
1283	 0.120969048573302 
1284	 0.120987612995993 
1285	 0.121020288377747 
1286	 0.121063301050151 
1287	 0.121087960033159 
1288	 0.121102149528015 
1289	 0.121111201321954 
1290	 0.121120564803045 
1291	 0.121113397277802 
1292	 0.121115166608441 
1293	 0.121130079721341 
1294	 0.121125218990729 
1295	 0.121110121297148 
1296	 0.121087842730044 
1297	 0.121054175114558 
1298	 0.121025482637092 
1299	 0.120999781805046 
1300	 0.120958755001764 
1301	 0.120906367023399 
1302	 0.12085589377889 
1303	 0.120793134092832 
1304	 0.120732844786896 
1305	 0.120678507208418 
1306	 0.120626667503245 
1307	 0.120559302619058 
1308	 0.120467515871088 
1309	 0.120388445220833 
1310	 0.120305401294403 
1311	 0.120219320229033 
1312	 0.12013903755554 
1313	 0.120047114994711 
1314	 0.119935813251974 
1315	 0.119844359488181 
1316	 0.119763698912875 
1317	 0.119672881957492 
1318	 0.119580647899214 
1319	 0.11949471688999 
1320	 0.119406337038249 
1321	 0.119317828777489 
1322	 0.119239871535876 
1323	 0.119160374134997 
1324	 0.119057647052602 
1325	 0.118955647970014 
1326	 0.11885261344513 
1327	 0.1187479115782 
1328	 0.118631559288271 
1329	 0.118531038123136 
1330	 0.118436752306829 
1331	 0.118347514793629 
1332	 0.118250245095757 
1333	 0.118165339595375 
1334	 0.118065060137628 
1335	 0.11793708122014 
1336	 0.117845306218007 
1337	 0.11777305262554 
1338	 0.117690207615968 
1339	 0.117622342263431 
1340	 0.117544795865495 
1341	 0.117454996916312 
1342	 0.117369820206342 
1343	 0.117289316260815 
1344	 0.117205451302348 
1345	 0.117114580948175 
1346	 0.117022780140469 
1347	 0.116925245889828 
1348	 0.116813724506616 
1349	 0.116707403470348 
1350	 0.116594702258158 
1351	 0.116481060835479 
1352	 0.116367074496965 
1353	 0.116254732507971 
1354	 0.116138292951071 
1355	 0.116021954191656 
1356	 0.115904892982634 
1357	 0.115790015598379 
1358	 0.115671339441695 
1359	 0.115561454097415 
1360	 0.115459007524827 
1361	 0.115356164142791 
1362	 0.115254134737685 
1363	 0.115155880245005 
1364	 0.115059284697519 
1365	 0.114970684257219 
1366	 0.114902752884957 
1367	 0.114814013943494 
1368	 0.114716588838168 
1369	 0.114587903728433 
1370	 0.114432340353621 
1371	 0.114280068614497 
1372	 0.114101630894658 
1373	 0.113906046142273 
1374	 0.113670388553481 
1375	 0.113404208458876 
1376	 0.113091888276049 
1377	 0.112753964833844 
1378	 0.112357220952831 
1379	 0.111894634631858 
1380	 0.111432797490561 
1381	 0.110929563289703 
1382	 0.110412358099228 
1383	 0.109889119643462 
1384	 0.109328912533433 
1385	 0.108756038511984 
1386	 0.108140786076972 
1387	 0.107503811617612 
1388	 0.106821695101779 
1389	 0.106111351816279 
1390	 0.105326495788466 
1391	 0.104502526909221 
1392	 0.103644219226593 
1393	 0.10275532140645 
1394	 0.101854348879401 
1395	 0.100944251997013 
1396	 0.100041692387863 
1397	 9.91456223303194E-02 
1398	 0.098249395186209 
1399	 0.097357991780946 
1400	 9.64570189240578E-02 
1401	 9.55953906910201E-02 
1402	 9.47407531952462E-02 
1403	 9.39236608115248E-02 
1404	 9.31340078935367E-02 
1405	 9.23866676693071E-02 
1406	 9.16611900731751E-02 
1407	 9.09709966317897E-02 
1408	 9.03152658155515E-02 
1409	 8.97094712960403E-02 
1410	 8.91350607573034E-02 
1411	 8.86121121294742E-02 
1412	 8.81400512807816E-02 
1413	 8.77116137640026E-02 
1414	 8.73303889461541E-02 
1415	 8.69646664611376E-02 
1416	 8.66294479576722E-02 
1417	 8.63298772753432E-02 
1418	 8.60240682950494E-02 
1419	 8.57404988601585E-02 
1420	 8.55040455426118E-02 
1421	 8.52752740967142E-02 
1422	 8.50627240796382E-02 
1423	 8.48672602057553E-02 
1424	 8.46738730485216E-02 
1425	 8.44762272404343E-02 
1426	 8.43054711839418E-02 
1427	 8.41525353700869E-02 
1428	 8.40089955034155E-02 
1429	 8.38769531229508E-02 
1430	 8.37594399989007E-02 
1431	 8.36577922343858E-02 
1432	 8.35640370055756E-02 
1433	 8.34858695141049E-02 
1434	 0.083411776333111 
1435	 8.33440278966088E-02 
1436	 8.32817711760916E-02 
1437	 8.32322530192464E-02 
1438	 8.31836989311302E-02 
1439	 8.31351519266496E-02 
1440	 8.30960845306644E-02 
1441	 8.30654131848352E-02 
1442	 8.30331978697862E-02 
1443	 8.30085158629489E-02 
1444	 0.082997078758512 
1445	 8.29996052498548E-02 
1446	 8.29965571856505E-02 
1447	 0.082986713156063 
1448	 8.29841918458209E-02 
1449	 8.29813108993036E-02 
1450	 0.0829852834758 
1451	 8.29965333258451E-02 
1452	 8.30238532796123E-02 
1453	 8.30412116748245E-02 
1454	 8.30539306608217E-02 
1455	 8.30760295643664E-02 
1456	 8.31006916909137E-02 
1457	 8.31333999064504E-02 
1458	 8.31663057247687E-02 
1459	 8.32193394985627E-02 
1460	 8.32785574949586E-02 
1461	 8.33562500700392E-02 
1462	 8.34637287803689E-02 
1463	 8.35611782193473E-02 
1464	 0.083663717162473 
1465	 8.37741718839635E-02 
1466	 8.38766801962333E-02 
1467	 8.40010482397685E-02 
1468	 8.41351008701873E-02 
1469	 8.42875729455372E-02 
1470	 8.44625804450728E-02 
1471	 8.46456289106788E-02 
1472	 8.48327975247546E-02 
1473	 8.50296823006139E-02 
1474	 8.51991175031497E-02 
1475	 8.53813569900301E-02 
1476	 8.55810968632651E-02 
1477	 0.085772754129629 
1478	 8.59924326314459E-02 
1479	 0.086211305419525 
1480	 8.64217156605782E-02 
1481	 8.66560179276645E-02 
1482	 8.68888648307096E-02 
1483	 8.71378157418558E-02 
1484	 8.73631521416479E-02 
1485	 8.75766956962009E-02 
1486	 0.08780122596796 
1487	 8.80135747081108E-02 
1488	 8.82399831529108E-02 
1489	 8.84875037662838E-02 
1490	 8.87258695701618E-02 
1491	 8.89645833579088E-02 
1492	 8.91941229316043E-02 
1493	 8.94179066260801E-02 
1494	 0.089645699675528 
1495	 8.98672244836752E-02 
1496	 9.00923274551387E-02 
1497	 9.03257404752836E-02 
1498	 9.05546955847654E-02 
1499	 0.090777159806028 
1500	 9.10044399893145E-02 
1501	 9.12385443585729E-02 
1502	 9.14634650720462E-02 
1503	 9.16854368465878E-02 
1504	 9.19049446043893E-02 
1505	 9.21186154803771E-02 
1506	 9.23377805994586E-02 
1507	 9.25549140491687E-02 
1508	 9.27639761913115E-02 
1509	 9.29571699530423E-02 
1510	 9.31491482494356E-02 
1511	 9.33538099567999E-02 
1512	 9.35599168206277E-02 
1513	 9.37790121988475E-02 
1514	 0.0939980439952 
1515	 9.41919981567896E-02 
1516	 9.43923807481578E-02 
1517	 9.45915875775147E-02 
1518	 0.094789095153741 
1519	 9.49784250002931E-02 
1520	 9.51662176493968E-02 
1521	 9.53470767862526E-02 
1522	 9.55129573630619E-02 
1523	 9.56951122707301E-02 
1524	 9.58880702702012E-02 
1525	 9.60708223904403E-02 
1526	 9.62522756353756E-02 
1527	 9.64318517615649E-02 
1528	 9.66068938371694E-02 
1529	 9.67750696410136E-02 
1530	 9.69438627702032E-02 
1531	 9.71121348853588E-02 
1532	 9.72733179590142E-02 
1533	 9.74320233003885E-02 
1534	 9.75872312746234E-02 
1535	 9.77463503178389E-02 
1536	 9.79067114226018E-02 
1537	 9.80592714384498E-02 
1538	 9.82137834648653E-02 
1539	 0.098361580891481 
1540	 9.84932847518153E-02 
1541	 9.86344863178384E-02 
1542	 9.87814449071402E-02 
1543	 9.89284569161166E-02 
1544	 9.90843199227017E-02 
1545	 9.92234107375438E-02 
1546	 9.93518218242182E-02 
1547	 9.94822469462844E-02 
1548	 9.96055859230527E-02 
1549	 9.97317393258143E-02 
1550	 9.98635701406132E-02 
1551	 9.99873540738848E-02 
1552	 0.100105480482314 
1553	 0.10022732694507 
1554	 0.100353023854559 
1555	 0.100472249956602 
1556	 0.100586471941068 
1557	 0.100702269416444 
1558	 0.10082739576313 
1559	 0.100951947510756 
1560	 0.101059723838588 
1561	 0.101164185574604 
1562	 0.10126739496123 
1563	 0.101352042378436 
1564	 0.101449702572651 
1565	 0.101560513055457 
1566	 0.101654261274744 
1567	 0.101736823860959 
1568	 0.101825775248994 
1569	 0.101915776612596 
1570	 0.102001601174407 
1571	 0.102084810293069 
1572	 0.102173064677267 
1573	 0.102262187614395 
1574	 0.102340403476659 
1575	 0.102421205527187 
1576	 0.102495538766567 
1577	 0.102552270763449 
1578	 0.102622494836432 
1579	 0.102697141059855 
1580	 0.102773015559457 
1581	 0.102859611756702 
1582	 0.102929502582587 
1583	 0.102990547368251 
1584	 0.1030595798616 
1585	 0.103122904982411 
1586	 0.103187424164211 
1587	 0.103261086390288 
1588	 0.103325505821158 
1589	 0.103383817755633 
1590	 0.103436360132118 
1591	 0.10348025791931 
1592	 0.103534327838545 
1593	 0.103588354826302 
1594	 0.103638335933622 
1595	 0.103703927480461 
1596	 0.103751481357792 
1597	 0.103778307893975 
1598	 0.103810425041422 
1599	 0.103827143599949 
1600	 0.103860113642134 
1601	 0.103909620012008 
1602	 0.103951346921599 
1603	 0.104009371971805 
1604	 0.104047891417049 
1605	 0.10405409098712 
1606	 0.104082383356849 
1607	 0.104119052962733 
1608	 0.104147286790106 
1609	 0.104192882268582 
1610	 0.104240789426778 
1611	 0.104281942845537 
1612	 0.104320797782258 
1613	 0.104343944811653 
1614	 0.104373954239548 
1615	 0.104397537285087 
1616	 0.104419682087844 
1617	 0.104452278815443 
1618	 0.104473352706453 
1619	 0.104490893276056 
1620	 0.104503728315084 
1621	 0.104530538552366 
1622	 0.104568589446007 
1623	 0.104593956276175 
1624	 0.104619762294612 
1625	 0.104648150108044 
1626	 0.104668026259605 
1627	 0.104695290157855 
1628	 0.104739253878965 
1629	 0.104756713710104 
1630	 0.104759573094697 
1631	 0.104771305476856 
1632	 0.104769897541229 
1633	 0.104785686327358 
1634	 0.104818948839802 
1635	 0.104833277380418 
1636	 0.104845070296358 
1637	 0.104854011953597 
1638	 0.104849808315462 
1639	 0.104858539536761 
1640	 0.104877476493942 
1641	 0.10488319338716 
1642	 0.104884679348606 
1643	 0.10488902047555 
1644	 0.104890596460544 
1645	 0.104885804492948 
1646	 0.104880356731593 
1647	 0.104876884430119 
1648	 0.104865217842728 
1649	 0.104858944524347 
1650	 0.104861771721103 
1651	 0.104856455998774 
1652	 0.104840080847866 
1653	 0.104838384847538 
1654	 0.104844569998236 
1655	 0.104846836128795 
1656	 0.104855988347019 
1657	 0.104858372031824 
1658	 0.104861076661726 
1659	 0.104850349707625 
1660	 0.104833364510516 
1661	 0.104812537886213 
1662	 0.104769177146698 
1663	 0.104751434293976 
1664	 0.104749703812214 
1665	 0.104734739176921 
1666	 0.104727709077456 
1667	 0.104710343246496 
1668	 0.104675318903411 
1669	 0.104653889978522 
1670	 0.104640052123977 
1671	 0.104620244867524 
1672	 0.104603260597314 
1673	 0.104579980947105 
1674	 0.104543975877228 
1675	 0.104524650769254 
1676	 0.10451735187301 
1677	 0.104495419000591 
1678	 0.104478634158191 
1679	 0.104451863671835 
1680	 0.104404392014405 
1681	 0.104371507019305 
1682	 0.104347552461363 
1683	 0.10431524334684 
1684	 0.104275015668331 
1685	 0.104248983457131 
1686	 0.104233567406109 
1687	 0.10420308443131 
1688	 0.104172512056729 
1689	 0.104146661329905 
1690	 0.10411170936049 
1691	 0.104076145256411 
1692	 0.104053328528818 
1693	 0.104018243871193 
1694	 0.103965410940222 
1695	 0.103924032663596 
1696	 0.103888764959313 
1697	 0.103847907125271 
1698	 0.103807658900989 
1699	 0.103763579543119 
1700	 0.103707663322601 
1701	 0.103670826103372 
1702	 0.10364530133438 
1703	 0.103608677853791 
1704	 0.103582461438848 
1705	 0.103544749109187 
1706	 0.103494241679314 
1707	 0.103442841873977 
1708	 0.10338822917698 
1709	 0.103335180492258 
1710	 0.103278269575567 
1711	 0.103218322047869 
1712	 0.103160486053214 
1713	 0.103099876746211 
1714	 0.103022889125797 
1715	 0.10297078302877 
1716	 0.102935781141126 
1717	 0.102888458149985 
1718	 0.102857964153349 
1719	 0.102796858441672 
1720	 0.102714546894193 
1721	 0.102636718618578 
1722	 0.102540292340327 
1723	 0.102462439291123 
1724	 0.102396599065313 
1725	 0.10231737675386 
1726	 0.102245627723393 
1727	 0.102154246253216 
1728	 0.102035315403767 
1729	 0.101942122185243 
1730	 0.101853413470727 
1731	 0.101763263085772 
1732	 0.10168749703337 
1733	 0.101605927804306 
1734	 0.101513586238627 
1735	 0.101426238372944 
1736	 0.101354971488867 
1737	 0.101255000154742 
1738	 0.101129102524645 
1739	 0.101040934786779 
1740	 0.100960927241308 
1741	 0.100860913453323 
1742	 0.100777158116299 
1743	 0.100674520639486 
1744	 0.100536306328179 
1745	 0.100435212597355 
1746	 0.10035613611982 
1747	 0.100277054509692 
1748	 0.100185146138236 
1749	 0.100085947473006 
1750	 9.99881575513192E-02 
1751	 9.98706059299022E-02 
1752	 9.97347852910877E-02 
1753	 9.96006181563074E-02 
1754	 9.94678584889371E-02 
1755	 9.93605984147001E-02 
1756	 9.92740881452366E-02 
1757	 9.91773286735478E-02 
1758	 9.90634126295237E-02 
1759	 9.89197657257151E-02 
1760	 9.87716039047091E-02 
1761	 9.86753554776359E-02 
1762	 9.85877874413062E-02 
1763	 9.84858447429969E-02 
1764	 9.84022321499892E-02 
1765	 0.09830538461051 
1766	 9.81907568054443E-02 
1767	 9.80961500709881E-02 
1768	 9.80110782051733E-02 
1769	 9.79047441413133E-02 
1770	 9.77931447372208E-02 
1771	 9.76819884406503E-02 
1772	 9.75835898039143E-02 
1773	 9.74985210342335E-02 
1774	 9.74069532327368E-02 
1775	 9.73199718511292E-02 
1776	 9.72280958557413E-02 
1777	 9.71315946551391E-02 
1778	 9.70476949072843E-02 
1779	 0.096993144335331 
1780	 9.69345140714282E-02 
1781	 9.68656219583529E-02 
1782	 9.68267267818746E-02 
1783	 9.67747713343034E-02 
1784	 9.67233153984359E-02 
1785	 9.66767684369617E-02 
1786	 9.66209236086036E-02 
1787	 9.65552628312534E-02 
1788	 9.65128909632546E-02 
1789	 9.64906610421969E-02 
1790	 9.64499214841972E-02 
1791	 9.64023962733153E-02 
1792	 9.63668436966527E-02 
1793	 9.63166630131847E-02 
1794	 9.62773833376912E-02 
1795	 9.62637518078813E-02 
1796	 9.62462582381561E-02 
1797	 9.62272323283066E-02 
1798	 9.62003100716467E-02 
1799	 9.61834060769475E-02 
1800	 0.096155246363037 
1801	 9.40576341305614E-02 
1802	 9.41242841357302E-02 
1803	 9.41970249114058E-02 
1804	 9.43130493282956E-02 
1805	 0.094414747251252 
1806	 9.44798354376733E-02 
1807	 9.45425333660004E-02 
1808	 9.45867527074894E-02 
1809	 9.45863481343334E-02 
1810	 9.46073858842123E-02 
1811	 9.46461280726342E-02 
1812	 9.46545138904628E-02 
1813	 9.46459068229638E-02 
1814	 9.46256840230731E-02 
1815	 9.45866335719642E-02 
1816	 9.45689759292377E-02 
1817	 9.45429265068978E-02 
1818	 9.45003156019503E-02 
1819	 9.44776517396985E-02 
1820	 9.44628588960402E-02 
1821	 9.44508994227941E-02 
1822	 9.44440698399079E-02 
1823	 9.44699985128657E-02 
1824	 9.44631348566716E-02 
1825	 9.44332113503461E-02 
1826	 9.44045741701512E-02 
1827	 9.43345425213684E-02 
1828	 9.42657288637783E-02 
1829	 9.41819843134657E-02 
1830	 9.41056990818894E-02 
1831	 9.40207533687113E-02 
1832	 9.39394578758208E-02 
1833	 9.38574420108745E-02 
1834	 9.37842315599609E-02 
1835	 9.37034561032279E-02 
1836	 9.36372681363876E-02 
1837	 9.35766694606437E-02 
1838	 0.093484807217912 
1839	 9.33965722876923E-02 
1840	 9.33011901207601E-02 
1841	 9.32021914257623E-02 
1842	 9.30985778921374E-02 
1843	 9.30095797261931E-02 
1844	 9.29257763365157E-02 
1845	 9.28184080023887E-02 
1846	 9.26753060376563E-02 
1847	 9.25312862030493E-02 
1848	 9.23672361276612E-02 
1849	 9.21741767127739E-02 
1850	 9.19868181676982E-02 
1851	 0.091812408651133 
1852	 9.16085477512626E-02 
1853	 9.13657011231804E-02 
1854	 9.11366084695236E-02 
1855	 9.08797294934241E-02 
1856	 0.090580286322168 
1857	 0.090289110006408 
1858	 8.99708432208107E-02 
1859	 0.089602908281524 
1860	 8.92092339505365E-02 
1861	 0.088799559414775 
1862	 8.83460696173324E-02 
1863	 8.78368943168038E-02 
1864	 8.72883551020487E-02 
1865	 8.67091468029118E-02 
1866	 8.60714299462128E-02 
1867	 8.53990242471447E-02 
1868	 8.47084207743925E-02 
1869	 8.39627880354682E-02 
1870	 8.31953290966232E-02 
1871	 8.23980666973686E-02 
1872	 8.15735550749737E-02 
1873	 8.07098219885653E-02 
1874	 0.079839401056406 
1875	 7.89477212820327E-02 
1876	 7.80094064157882E-02 
1877	 7.70595745120956E-02 
1878	 7.60700112031941E-02 
1879	 7.49922346413024E-02 
1880	 7.38865102405878E-02 
1881	 7.27133968654978E-02 
1882	 7.15471489562543E-02 
1883	 7.03425381172375E-02 
1884	 6.91282458242037E-02 
1885	 6.79162691429086E-02 
1886	 6.66688687262062E-02 
1887	 6.53885414780597E-02 
1888	 6.41246582422993E-02 
1889	 6.28497244384705E-02 
1890	 0.061598159341496 
1891	 6.03948109121441E-02 
1892	 5.92004770210511E-02 
1893	 5.80630627703058E-02 
1894	 0.056972113124872 
1895	 5.59275189064785E-02 
1896	 5.49175951220849E-02 
1897	 5.39717693374581E-02 
1898	 5.30626872185411E-02 
1899	 5.22284077592165E-02 
1900	 0.051438541437299 
1901	 5.06982244341154E-02 
1902	 5.00315676119766E-02 
1903	 4.94478119458513E-02 
1904	 4.88907281446856E-02 
1905	 4.83924886425613E-02 
1906	 0.047947393158372 
1907	 4.75184450220503E-02 
1908	 4.71209664590775E-02 
1909	 4.67558926996651E-02 
1910	 4.64076413428652E-02 
1911	 0.046115831231326 
1912	 4.58654348301099E-02 
1913	 4.56297623406864E-02 
1914	 4.54484437882516E-02 
1915	 4.52531574082645E-02 
1916	 4.50652587268202E-02 
1917	 4.48788679859096E-02 
1918	 4.47173959807866E-02 
1919	 0.044569041438692 
1920	 4.44492178302833E-02 
1921	 4.43643352883206E-02 
1922	 4.42865209572018E-02 
1923	 4.42137224489753E-02 
1924	 0.044156058156447 
1925	 4.41180812306301E-02 
1926	 4.40791966388358E-02 
1927	 4.40384748995547E-02 
1928	 4.40244691140564E-02 
1929	 4.40255118071896E-02 
1930	 4.40284602321597E-02 
1931	 4.40696263057741E-02 
1932	 4.41198356255034E-02 
1933	 4.41668276918316E-02 
1934	 4.42093517369671E-02 
1935	 4.42530401533723E-02 
1936	 4.42807698542659E-02 
1937	 4.43374132287184E-02 
1938	 4.44060737331978E-02 
1939	 4.44830295386617E-02 
1940	 4.45808701481826E-02 
1941	 4.46705320000688E-02 
1942	 4.47662870099609E-02 
1943	 4.48643356798707E-02 
1944	 4.49737097942506E-02 
1945	 4.50900162120555E-02 
1946	 4.52077425235305E-02 
1947	 4.53324417567707E-02 
1948	 4.54609266237155E-02 
1949	 4.55884727884235E-02 
1950	 4.57245864746634E-02 
1951	 4.58701756515097E-02 
1952	 4.60175553177111E-02 
1953	 4.61546140293983E-02 
1954	 4.63160704957595E-02 
1955	 4.64737011885737E-02 
1956	 4.66301123969006E-02 
1957	 4.68046517355422E-02 
1958	 4.69914329893754E-02 
1959	 4.71771167312517E-02 
1960	 0.047386184415569 
1961	 4.75784849983887E-02 
1962	 4.77721732902154E-02 
1963	 4.79595463106865E-02 
1964	 4.81395062999938E-02 
1965	 4.83011771877625E-02 
1966	 4.84835275037969E-02 
1967	 4.86671748496463E-02 
1968	 4.88595727751281E-02 
1969	 4.90660277480274E-02 
1970	 4.92674995483603E-02 
1971	 4.94670867200563E-02 
1972	 4.96768685387806E-02 
1973	 0.049900841035895 
1974	 5.01142779589116E-02 
1975	 5.03296763387254E-02 
1976	 5.05400596847394E-02 
1977	 5.07512399344036E-02 
1978	 5.09558440452551E-02 
1979	 5.11682560524406E-02 
1980	 5.13933834992601E-02 
1981	 5.16185521947358E-02 
1982	 0.051846507347343 
1983	 5.20778635343203E-02 
1984	 5.23224054662705E-02 
1985	 5.25525633705181E-02 
1986	 5.27710762912219E-02 
1987	 5.30000613572173E-02 
1988	 5.32294339809089E-02 
1989	 5.34612438135216E-02 
1990	 5.36889356867397E-02 
1991	 5.39215591626136E-02 
1992	 5.41408686851844E-02 
1993	 5.43312325035417E-02 
1994	 5.45571783116894E-02 
1995	 5.48131627340457E-02 
1996	 5.50354501993981E-02 
1997	 5.52554574974674E-02 
1998	 5.54769578462001E-02 
1999	 5.56607873267373E-02 
2000	 0.05587153704226 
2001	 5.60974612262023E-02 
2002	 5.63455548862259E-02 
2003	 5.65798234773455E-02 
2004	 5.68324544403424E-02 
2005	 5.70652980292046E-02 
2006	 0.057287999062726 
2007	 5.75214596779985E-02 
2008	 5.77544344957633E-02 
2009	 5.79786930865912E-02 
2010	 5.82108147964865E-02 
2011	 5.84342503225561E-02 
2012	 5.86345588724913E-02 
2013	 5.88509537670235E-02 
2014	 5.90850031626999E-02 
2015	 0.059301737174086 
2016	 5.95049163567876E-02 
2017	 5.97292750118418E-02 
2018	 5.99427362997157E-02 
2019	 6.01433650429706E-02 
2020	 6.03555390873155E-02 
2021	 6.05807052075347E-02 
2022	 6.07911110356705E-02 
2023	 0.060999756312756 
2024	 6.12025970533354E-02 
2025	 6.13844507878949E-02 
2026	 6.15863370771695E-02 
2027	 6.17961672081326E-02 
2028	 6.20076163660161E-02 
2029	 6.22180559193767E-02 
2030	 0.062442195598519 
2031	 6.26497874363602E-02 
2032	 6.28415977648468E-02 
2033	 6.30493207277974E-02 
2034	 6.32675045052984E-02 
2035	 6.34710472291609E-02 
2036	 6.36740509169163E-02 
2037	 6.38727520177481E-02 
2038	 6.40575889003037E-02 
2039	 6.42459012251892E-02 
2040	 6.44248809656733E-02 
2041	 6.46285668638125E-02 
2042	 6.48261046252383E-02 
2043	 6.50111296105792E-02 
2044	 6.52017365509402E-02 
2045	 0.065399545459632 
2046	 6.55854652239667E-02 
2047	 6.57645705785519E-02 
2048	 6.59439391137421E-02 
2049	 6.61126580637272E-02 
2050	 6.62919608344368E-02 
2051	 6.64683526954963E-02 
2052	 6.66566749802334E-02 
2053	 6.68689675454346E-02 
2054	 6.70621516581349E-02 
2055	 6.72560225708447E-02 
2056	 6.74469668251852E-02 
2057	 0.067615642283609 
2058	 6.77574293165139E-02 
2059	 6.79165843221356E-02 
2060	 6.80636688384566E-02 
2061	 6.82280160929136E-02 
2062	 6.84080076182216E-02 
2063	 6.85785257613598E-02 
2064	 6.87554613464543E-02 
2065	 6.89214930541819E-02 
2066	 6.90856101953968E-02 
2067	 6.92412644707924E-02 
2068	 6.93785893246885E-02 
2069	 6.95253244486706E-02 
2070	 6.96818892585808E-02 
2071	 6.98359957779364E-02 
2072	 7.00000236402146E-02 
2073	 7.01870817299623E-02 
2074	 7.03507678065768E-02 
2075	 7.05074856131014E-02 
2076	 7.06609397509764E-02 
2077	 7.07990714980584E-02 
2078	 7.09526788864324E-02 
2079	 7.11155335917057E-02 
2080	 7.12702927138133E-02 
2081	 0.071417606381225 
2082	 7.15793905774158E-02 
2083	 7.17486500934226E-02 
2084	 7.19131781232291E-02 
2085	 7.20741755297378E-02 
2086	 7.22568079298911E-02 
2087	 7.24010652184967E-02 
2088	 0.072507154613351 
2089	 7.26464760503645E-02 
2090	 7.27810776583766E-02 
2091	 7.29272149896236E-02 
2092	 7.31061736722227E-02 
2093	 7.32547754636836E-02 
2094	 7.33807643427689E-02 
2095	 0.073524741723574 
2096	 7.36679023912607E-02 
2097	 7.38083951957633E-02 
2098	 7.39556026181636E-02 
2099	 7.41077223868475E-02 
2100	 7.42558436300719E-02 
2101	 7.43981142393359E-02 
2102	 7.45384029314111E-02 
2103	 7.46822990226748E-02 
2104	 7.48223269101578E-02 
2105	 7.49494472751364E-02 
2106	 0.075087679047657 
2107	 7.52419060258008E-02 
2108	 0.075376965670161 
2109	 7.55089594037092E-02 
2110	 7.56321884967931E-02 
2111	 7.57261645270951E-02 
2112	 7.58453142752979E-02 
2113	 7.59733861122902E-02 
2114	 7.60996940987868E-02 
2115	 7.62385734460816E-02 
2116	 0.076407219996088 
2117	 7.65317721672713E-02 
2118	 7.66420905866752E-02 
2119	 7.67533858879226E-02 
2120	 0.076840951104002 
2121	 0.076941405609918 
2122	 7.70449692755796E-02 
2123	 7.71534815516334E-02 
2124	 7.72655007745101E-02 
2125	 7.73731203177472E-02 
2126	 7.74965908279179E-02 
2127	 7.75996853511834E-02 
2128	 7.76768908844473E-02 
2129	 7.77690994344406E-02 
2130	 0.077873468923409 
2131	 7.79554749414755E-02 
2132	 0.078034504923424 
2133	 7.81137628374289E-02 
2134	 0.078190064221207 
2135	 7.82410194390766E-02 
2136	 7.83228240711941E-02 
2137	 7.84515890577288E-02 
2138	 7.85138167429447E-02 
2139	 7.85517489067918E-02 
2140	 7.85901407792732E-02 
2141	 7.85647799993151E-02 
2142	 7.85934609779986E-02 
2143	 7.86673350688504E-02 
2144	 7.87181805608423E-02 
2145	 0.078797694127451 
2146	 7.88384775032997E-02 
2147	 7.88445591692217E-02 
2148	 7.88431244021507E-02 
2149	 7.88563388107331E-02 
2150	 7.88594901506396E-02 
2151	 7.88650090131501E-02 
2152	 7.88912843294845E-02 
2153	 7.88912072348162E-02 
2154	 7.88620817658345E-02 
2155	 0.078852526454506 
2156	 7.88545081446658E-02 
2157	 7.88380675406826E-02 
2158	 0.078814025751867 
2159	 7.87934739887951E-02 
2160	 7.87691802516855E-02 
2161	 7.87335081137339E-02 
2162	 7.86962428509878E-02 
2163	 7.86570088911257E-02 
2164	 7.86118428004775E-02 
2165	 7.85486055342397E-02 
2166	 7.84926423687935E-02 
2167	 0.078441312509606 
2168	 7.83875664799151E-02 
2169	 7.83295693564928E-02 
2170	 7.82656523531727E-02 
2171	 7.81988376481125E-02 
2172	 7.81363862680034E-02 
2173	 7.80613823528852E-02 
2174	 7.80036130731517E-02 
2175	 7.79757392763275E-02 
2176	 7.79148101105515E-02 
2177	 7.78447304914806E-02 
2178	 7.77688926043769E-02 
2179	 7.76489986064508E-02 
2180	 7.75714406524498E-02 
2181	 7.75308763525073E-02 
2182	 7.74667962188959E-02 
2183	 7.74106748327796E-02 
2184	 7.73562555760655E-02 
2185	 7.72858498272784E-02 
2186	 7.71840436598945E-02 
2187	 7.71089987982915E-02 
2188	 7.70461563780546E-02 
2189	 7.69729911167515E-02 
2190	 7.68979525107925E-02 
2191	 7.68277257905077E-02 
2192	 7.67526344439913E-02 
2193	 7.66868142043385E-02 
2194	 7.66193198210989E-02 
2195	 7.65711604345199E-02 
2196	 7.65510852898544E-02 
2197	 7.65072923712799E-02 
2198	 7.64598246656334E-02 
2199	 7.64212110861705E-02 
2200	 7.63618552524424E-02 
2201	 7.63221732626014E-02 
2202	 7.63085215736438E-02 
2203	 7.62884969861743E-02 
2204	 7.62833386899841E-02 
2205	 7.62876397411333E-02 
2206	 7.62883874550735E-02 
2207	 7.63091619838469E-02 
2208	 7.63021777270296E-02 
2209	 7.62648433418411E-02 
2210	 7.62671809860279E-02 
2211	 7.62607283883832E-02 
2212	 7.62900909079986E-02 
2213	 7.63951765823459E-02 
2214	 7.64258808046297E-02 
2215	 7.64346415657258E-02 
2216	 7.64471166807149E-02 
2217	 7.64065621540859E-02 
2218	 7.63998886862246E-02 
2219	 7.64446849506958E-02 
2220	 7.64441924354969E-02 
2221	 7.64200973241027E-02 
2222	 7.63961962080853E-02 
2223	 7.63701875058229E-02 
2224	 7.63323895337465E-02 
2225	 7.63417478692114E-02 
2226	 7.64043943858225E-02 
2227	 7.64078685592404E-02 
2228	 7.64143265397197E-02 
2229	 0.076395832776716 
2230	 7.63164916873994E-02 
2231	 7.63022462913322E-02 
2232	 7.63232953729631E-02 
2233	 7.63165318989558E-02 
2234	 7.63302260659444E-02 
2235	 7.63195775471862E-02 
2236	 7.62714675908194E-02 
2237	 7.62457996898147E-02 
2238	 7.62204438280687E-02 
2239	 7.62057269634527E-02 
2240	 0.076218228340451 
2241	 7.61990898048762E-02 
2242	 7.61632842916361E-02 
2243	 7.61404242454433E-02 
2244	 7.61209051447654E-02 
2245	 7.60707564892907E-02 
2246	 7.60261905033866E-02 
2247	 7.59923540811389E-02 
2248	 7.59475171265786E-02 
2249	 7.58750796728821E-02 
2250	 7.58328719742897E-02 
2251	 7.58146338554721E-02 
2252	 7.57716474125982E-02 
2253	 7.57280675371177E-02 
2254	 7.56764936970431E-02 
2255	 7.56041104166661E-02 
2256	 7.55524350197529E-02 
2257	 7.55075699836846E-02 
2258	 7.54563959632146E-02 
2259	 7.54088106174044E-02 
2260	 7.53670706974358E-02 
2261	 7.53300926339469E-02 
2262	 7.52808093109799E-02 
2263	 7.52151276477042E-02 
2264	 7.51821866094887E-02 
2265	 7.51704155218401E-02 
2266	 7.51366564806237E-02 
2267	 7.51398022690185E-02 
2268	 7.51004324872966E-02 
2269	 0.075009003900507 
2270	 7.49134872817002E-02 
2271	 7.48402431680033E-02 
2272	 7.47787166792854E-02 
2273	 7.47546653566136E-02 
2274	 7.47464885463479E-02 
2275	 7.47169576486879E-02 
2276	 7.46997569121051E-02 
2277	 7.46433720897128E-02 
2278	 7.45427683718459E-02 
2279	 7.44901187752278E-02 
2280	 7.44526471100266E-02 
2281	 7.43920878741016E-02 
2282	 7.43465354252678E-02 
2283	 7.42851922586695E-02 
2284	 7.41800401678587E-02 
2285	 7.41063654821779E-02 
2286	 7.40619401141221E-02 
2287	 0.074002000441454 
2288	 7.39352049235371E-02 
2289	 7.38781378982185E-02 
2290	 0.073834059789641 
2291	 0.073765330691368 
2292	 7.36873241957814E-02 
2293	 7.36047642156549E-02 
2294	 7.34906070334976E-02 
2295	 7.34007222313045E-02 
2296	 7.33234333112535E-02 
2297	 0.073252285810799 
2298	 7.31906152586689E-02 
2299	 7.31284986685397E-02 
2300	 7.30570873227616E-02 
2301	 7.30078312280274E-02 
2302	 7.29128325353594E-02 
2303	 7.28229167771047E-02 
2304	 7.27539448553697E-02 
2305	 7.26516557781399E-02 
2306	 7.25766323544737E-02 
2307	 7.25349225593615E-02 
2308	 7.24617279550406E-02 
2309	 7.23877237626345E-02 
2310	 7.22892444695628E-02 
2311	 7.21552857223481E-02 
2312	 7.20494213538923E-02 
2313	 7.19453761023066E-02 
2314	 7.18360346433987E-02 
2315	 7.17373382143437E-02 
2316	 7.16414286740826E-02 
2317	 7.15333130567723E-02 
2318	 7.14227275449231E-02 
2319	 7.13186878879726E-02 
2320	 7.12214183849655E-02 
2321	 7.11106789978488E-02 
2322	 7.10250798248587E-02 
2323	 7.09777749618582E-02 
2324	 7.09009514913544E-02 
2325	 7.08387826600445E-02 
2326	 7.07362973806674E-02 
2327	 7.05807940297342E-02 
2328	 7.04528073949411E-02 
2329	 7.03382175396768E-02 
2330	 7.02303152989245E-02 
2331	 7.01988557878687E-02 
2332	 7.01299212295024E-02 
2333	 7.00265982333898E-02 
2334	 6.99389812165795E-02 
2335	 6.97684944625916E-02 
2336	 6.96122591275541E-02 
2337	 6.95038279722212E-02 
2338	 6.93401088541081E-02 
2339	 6.92061191435465E-02 
2340	 6.91232171795102E-02 
2341	 6.90369609094063E-02 
2342	 6.89239071817649E-02 
2343	 6.87909983422824E-02 
2344	 6.86715464943136E-02 
2345	 6.85462175648091E-02 
2346	 6.83915633389577E-02 
2347	 6.82751705887732E-02 
2348	 6.81932905456925E-02 
2349	 6.80683215601176E-02 
2350	 6.79395122213577E-02 
2351	 6.78204506091873E-02 
2352	 6.76763836639552E-02 
2353	 6.75601394764365E-02 
2354	 6.74629284191814E-02 
2355	 6.73483591719102E-02 
2356	 6.72503258845866E-02 
2357	 6.71289989269139E-02 
2358	 6.69920797610786E-02 
2359	 6.68676249560322E-02 
2360	 6.67145027797302E-02 
2361	 6.65793395093104E-02 
2362	 6.64857890830195E-02 
2363	 6.63483837855443E-02 
2364	 6.61718939073173E-02 
2365	 6.60372004511695E-02 
2366	 6.59186004803814E-02 
2367	 0.065771254647949 
2368	 6.56295771984833E-02 
2369	 6.55162426876282E-02 
2370	 6.54094539519421E-02 
2371	 6.52397019575912E-02 
2372	 6.51760430520986E-02 
2373	 6.50833268044408E-02 
2374	 6.48852165344408E-02 
2375	 6.47373223254528E-02 
2376	 6.45668247109202E-02 
2377	 6.43223331257196E-02 
2378	 6.40902987404831E-02 
2379	 6.39276530220425E-02 
2380	 0.063740905130165 
2381	 6.35541033602687E-02 
2382	 6.34961851996739E-02 
2383	 6.33937911683041E-02 
2384	 6.32729750695591E-02 
2385	 6.32098574618661E-02 
2386	 6.30791906758377E-02 
2387	 6.29418835574253E-02 
2388	 6.28065504613892E-02 
2389	 6.25832200139195E-02 
2390	 6.23400684676131E-02 
2391	 6.21132624252795E-02 
2392	 6.19733721771304E-02 
2393	 6.19213503761523E-02 
2394	 6.18828627526657E-02 
2395	 6.18504590012617E-02 
2396	 6.17391893247663E-02 
2397	 6.15635095112298E-02 
2398	 6.13751125420532E-02 
2399	 6.11752085870475E-02 
2400	 6.08954193616996E-02 
2401	 6.06130503566832E-02 
2402	 6.04327123750722E-02 
2403	 6.02732888340456E-02 
2404	 0.060176824399101 
2405	 6.01370162238422E-02 
2406	 6.00338036831329E-02 
2407	 5.98654787309355E-02 
2408	 5.95979911953569E-02 
2409	 5.93047022996917E-02 
2410	 5.90908720233767E-02 
2411	 5.88766655943999E-02 
2412	 5.87370621008766E-02 
2413	 5.86618800546984E-02 
2414	 5.85246544579163E-02 
2415	 5.84136453497296E-02 
2416	 0.058280407898021 
2417	 5.81424296828519E-02 
2418	 5.79810567063557E-02 
2419	 5.77618332883116E-02 
2420	 5.75603256540884E-02 
2421	 5.73960318988295E-02 
2422	 5.72422661875891E-02 
2423	 5.71139519340461E-02 
2424	 0.056954614219711 
2425	 5.67770231199934E-02 
2426	 0.056582764038845 
2427	 5.63102390767131E-02 
2428	 5.61303217001231E-02 
2429	 5.60112105780538E-02 
2430	 5.58226621582538E-02 
2431	 0.055704238769932 
2432	 5.54790311181816E-02 
2433	 5.51161286684922E-02 
2434	 5.49027067545014E-02 
2435	 5.46843058050116E-02 
2436	 5.45326615043489E-02 
2437	 5.45348054293047E-02 
2438	 5.43878500167251E-02 
2439	 5.41314027077126E-02 
2440	 0.053971272355178 
2441	 5.38320475683489E-02 
2442	 5.36904475057766E-02 
2443	 0.053673649344312 
2444	 0.053521377916388 
2445	 5.31974360070219E-02 
2446	 5.30263444172552E-02 
2447	 5.28746115681433E-02 
2448	 5.27235555461237E-02 
2449	 5.26929629258659E-02 
2450	 5.25553283731503E-02 
2451	 5.23527739235147E-02 
2452	 0.052206818513528 
2453	 5.20496211281412E-02 
2454	 0.051885546014852 
2455	 5.16604367427461E-02 
2456	 5.15342438884368E-02 
2457	 5.15386360793835E-02 
2458	 5.13876360923502E-02 
2459	 5.12703098010701E-02 
2460	 5.10831345947858E-02 
2461	 5.06202832597295E-02 
2462	 5.04193233157217E-02 
2463	 5.04214496200714E-02 
2464	 5.03260901018974E-02 
2465	 5.02759989032001E-02 
2466	 5.01418854383087E-02 
2467	 4.98971275388185E-02 
2468	 4.97356996673394E-02 
2469	 4.96092091800007E-02 
2470	 4.95802810484375E-02 
2471	 4.95029155444328E-02 
2472	 4.92817908138813E-02 
2473	 4.90680339896359E-02 
2474	 4.89592979874886E-02 
2475	 4.88174659615979E-02 
2476	 4.86261704871018E-02 
2477	 0.048504849396244 
2478	 4.82860215170465E-02 
2479	 4.81447283125288E-02 
2480	 4.81801449637952E-02 
2481	 4.81408138027236E-02 
2482	 4.81486436486599E-02 
2483	 4.80701605285532E-02 
2484	 4.78283814209281E-02 
2485	 4.76958718527647E-02 
2486	 4.76385409372539E-02 
2487	 4.74676669156072E-02 
2488	 4.73851959943564E-02 
2489	 4.74305896185018E-02 
2490	 4.71952934307745E-02 
2491	 4.70202078939991E-02 
2492	 4.70218826966373E-02 
2493	 4.67705187262029E-02 
2494	 4.66337451177029E-02 
2495	 4.66381426152926E-02 
2496	 4.63988872976085E-02 
2497	 0.046347486120809 
2498	 4.65844410907831E-02 
2499	 0.046567718038978 
2500	 4.64179503146012E-02 
