Wavelength	MM_3500007.asd
350	 3.80155151909821E-02 
351	 3.96386396969353E-02 
352	 0.032122451748549 
353	 0.017191825021394 
354	 3.41836664056877E-02 
355	 3.88307816426069E-02 
356	 3.27959921913923E-02 
357	 2.93069402294458E-02 
358	 3.75216292271471E-02 
359	 3.65693453191929E-02 
360	 2.99808521605535E-02 
361	 3.49099600822318E-02 
362	 2.97133453965615E-02 
363	 2.76083348852505E-02 
364	 3.32062231238961E-02 
365	 3.13997395076553E-02 
366	 2.93962694374771E-02 
367	 2.99125029226619E-02 
368	 3.31424138676617E-02 
369	 3.48052343705813E-02 
370	 0.035538095190048 
371	 3.46064377234164E-02 
372	 3.11510323547015E-02 
373	 3.48099734308644E-02 
374	 3.81586568194065E-02 
375	 3.67200439180037E-02 
376	 3.45903979445896E-02 
377	 3.43395019575472E-02 
378	 0.036092827490876 
379	 3.82272215902078E-02 
380	 3.64957398282203E-02 
381	 3.36329057672377E-02 
382	 3.32156356841309E-02 
383	 3.81988775053039E-02 
384	 3.93807703830831E-02 
385	 3.69253189695012E-02 
386	 3.41941036190853E-02 
387	 3.79965591273634E-02 
388	 3.91443952645085E-02 
389	 3.91654524849319E-02 
390	 0.041409535641465 
391	 4.04338307071549E-02 
392	 3.91985093835835E-02 
393	 0.040017112375007 
394	 0.043850933235807 
395	 4.49082146427437E-02 
396	 4.50645688730918E-02 
397	 4.59215640591235E-02 
398	 4.54175738812664E-02 
399	 4.57111463275909E-02 
400	 4.73432415930479E-02 
401	 4.96618175243865E-02 
402	 4.93643190284164E-02 
403	 4.92630782783882E-02 
404	 4.98907564157793E-02 
405	 4.92247816559846E-02 
406	 5.04381084346154E-02 
407	 5.22367291583169E-02 
408	 5.28627672086292E-02 
409	 5.14438618403649E-02 
410	 0.050841998467083 
411	 5.19780618099125E-02 
412	 5.42900977144592E-02 
413	 5.44824904974285E-02 
414	 5.43262208031229E-02 
415	 5.46757205954048E-02 
416	 5.46018487819706E-02 
417	 5.45265265846224E-02 
418	 5.46482944736764E-02 
419	 0.055051243045116 
420	 5.58172154805949E-02 
421	 5.53909374644718E-02 
422	 5.44538645545696E-02 
423	 5.48795509868913E-02 
424	 5.47339331715303E-02 
425	 5.45103632961746E-02 
426	 5.45056230034056E-02 
427	 5.40513721057368E-02 
428	 5.38807409345413E-02 
429	 5.39625229666037E-02 
430	 5.39830693510559E-02 
431	 0.053583967543437 
432	 0.05308378773579 
433	 5.28831037839804E-02 
434	 5.33711762624284E-02 
435	 5.35163571571296E-02 
436	 0.053413145414169 
437	 5.33382255750606E-02 
438	 5.33688057780514E-02 
439	 5.36796156298958E-02 
440	 5.41016113710898E-02 
441	 5.43311863282683E-02 
442	 5.44828231090519E-02 
443	 5.49597529920644E-02 
444	 5.56708593576024E-02 
445	 5.57457634122222E-02 
446	 5.61281052947126E-02 
447	 0.056475758385787 
448	 5.63807435370854E-02 
449	 0.056786526464044 
450	 5.70747618620861E-02 
451	 5.72771671778971E-02 
452	 5.79423993507319E-02 
453	 5.78983531836047E-02 
454	 5.79747895261901E-02 
455	 5.86950281138296E-02 
456	 5.90287891947056E-02 
457	 0.058943785925666 
458	 5.87936360778448E-02 
459	 5.90193543508315E-02 
460	 5.90080042001025E-02 
461	 0.059050222648373 
462	 5.92335224641822E-02 
463	 5.92483575748253E-02 
464	 5.94041445401715E-02 
465	 5.96980526801312E-02 
466	 6.00245944604711E-02 
467	 6.02752445485798E-02 
468	 6.04013861511733E-02 
469	 6.04222864482664E-02 
470	 6.04117201506634E-02 
471	 6.04089417399792E-02 
472	 6.03160099260642E-02 
473	 6.01590283258702E-02 
474	 6.03213427636525E-02 
475	 6.05322504425589E-02 
476	 0.06062940473118 
477	 6.05605502420882E-02 
478	 6.07070993128499E-02 
479	 6.08790408262319E-02 
480	 6.09314540627996E-02 
481	 6.08500027854196E-02 
482	 6.08332375991116E-02 
483	 6.09307257716606E-02 
484	 6.10898877496505E-02 
485	 6.10780142171856E-02 
486	 6.09692667650695E-02 
487	 6.08497539620572E-02 
488	 6.08098504166605E-02 
489	 6.09829167276787E-02 
490	 6.11508044337417E-02 
491	 6.11963241175093E-02 
492	 6.14359783137896E-02 
493	 6.14131991452427E-02 
494	 6.12488570674274E-02 
495	 6.13085669914625E-02 
496	 0.061547808239994 
497	 6.16820147382538E-02 
498	 6.16253032366118E-02 
499	 6.16149790534039E-02 
500	 6.15185093509724E-02 
501	 0.061448881418113 
502	 6.15363639089325E-02 
503	 6.17044935393048E-02 
504	 0.061740026279812 
505	 0.061681978213443 
506	 6.17861195363292E-02 
507	 6.18335018031571E-02 
508	 6.18279542250977E-02 
509	 6.18348716521764E-02 
510	 6.20012871676764E-02 
511	 0.061919700302339 
512	 6.17178359851258E-02 
513	 6.17740597950609E-02 
514	 6.18976710180686E-02 
515	 0.061915057943155 
516	 6.18689022690079E-02 
517	 6.21871959990964E-02 
518	 6.22943508333765E-02 
519	 6.22048869338086E-02 
520	 6.21368658774856E-02 
521	 6.22472300352378E-02 
522	 6.23369075790463E-02 
523	 6.22883948518152E-02 
524	 0.062097811677179 
525	 6.21403078865962E-02 
526	 6.22131452633828E-02 
527	 6.21369513101965E-02 
528	 6.22587341555548E-02 
529	 0.062336380713566 
530	 6.23588256034566E-02 
531	 6.24611201858742E-02 
532	 6.25944549248085E-02 
533	 0.062608032961236 
534	 6.24924954858276E-02 
535	 6.25599211302222E-02 
536	 6.26117195278727E-02 
537	 6.26615103316611E-02 
538	 6.27746115039622E-02 
539	 6.28140492693438E-02 
540	 6.27986004165855E-02 
541	 6.28012368023774E-02 
542	 6.29504708206312E-02 
543	 0.063017313930816 
544	 6.30761865593665E-02 
545	 0.063227638798622 
546	 6.33290762252038E-02 
547	 6.33832571388456E-02 
548	 6.34069805034713E-02 
549	 6.34259457749999E-02 
550	 6.34395626745406E-02 
551	 6.35412960743872E-02 
552	 6.37555475039887E-02 
553	 6.38998783641199E-02 
554	 6.40027261685139E-02 
555	 6.41189612121292E-02 
556	 6.43058953484601E-02 
557	 6.44648592420929E-02 
558	 6.46114879767244E-02 
559	 6.47975002075312E-02 
560	 6.51316505792939E-02 
561	 6.53003461797113E-02 
562	 6.54265332768655E-02 
563	 6.57223560061872E-02 
564	 6.59693490844189E-02 
565	 0.066212873446053 
566	 6.64551545300968E-02 
567	 0.066636472114092 
568	 6.69498115103895E-02 
569	 6.73548215903163E-02 
570	 6.77577582839484E-02 
571	 6.80950187453381E-02 
572	 6.84636613617867E-02 
573	 6.88702120119745E-02 
574	 6.92568046963705E-02 
575	 6.96277634003704E-02 
576	 7.00522247935338E-02 
577	 7.05444877093512E-02 
578	 7.09801099333962E-02 
579	 7.13948067235729E-02 
580	 7.18180122387532E-02 
581	 7.22725297535897E-02 
582	 7.27147856595922E-02 
583	 0.07318834062071 
584	 7.37071411034336E-02 
585	 7.42347877547424E-02 
586	 7.48191101748348E-02 
587	 7.54162723455379E-02 
588	 7.59793086187779E-02 
589	 7.65795015058632E-02 
590	 7.71695270184767E-02 
591	 7.77416885359125E-02 
592	 7.83299737504834E-02 
593	 7.89498505418897E-02 
594	 7.95829941369899E-02 
595	 8.02082752221771E-02 
596	 8.08323735514315E-02 
597	 8.13563866064598E-02 
598	 8.18076594881353E-02 
599	 8.22845799027477E-02 
600	 8.28058482444936E-02 
601	 8.33130895794006E-02 
602	 8.37690710280985E-02 
603	 8.41893681165114E-02 
604	 8.46455775601567E-02 
605	 8.51215487354575E-02 
606	 8.55723732308401E-02 
607	 8.60021341398036E-02 
608	 8.64039690694296E-02 
609	 8.67897979815114E-02 
610	 0.087191776093309 
611	 8.76126572250264E-02 
612	 8.79868493098745E-02 
613	 8.82731482183722E-02 
614	 0.0885690103288 
615	 8.88560144798678E-02 
616	 8.91145556986097E-02 
617	 8.93317839210155E-02 
618	 8.96220332138754E-02 
619	 8.98519160232348E-02 
620	 8.99775882917507E-02 
621	 9.02282529560055E-02 
622	 9.04848454878961E-02 
623	 0.09069051034442 
624	 9.08308364394421E-02 
625	 9.10284294596398E-02 
626	 9.12097615115375E-02 
627	 9.13525958505874E-02 
628	 9.15231883217431E-02 
629	 9.16684772965402E-02 
630	 9.18143677300391E-02 
631	 9.19885420089304E-02 
632	 9.21420811037288E-02 
633	 9.22767216073846E-02 
634	 9.24122449979679E-02 
635	 0.092577340214699 
636	 9.27021081672315E-02 
637	 9.28133041840766E-02 
638	 9.29425101979834E-02 
639	 9.30932952747438E-02 
640	 9.32281326371309E-02 
641	 9.33788023755175E-02 
642	 9.35850377532224E-02 
643	 9.36849341905831E-02 
644	 9.37766645624585E-02 
645	 9.39095476049103E-02 
646	 9.40250552914678E-02 
647	 9.41596055718178E-02 
648	 9.43124566683799E-02 
649	 9.44687926451518E-02 
650	 9.45995557351723E-02 
651	 9.47548096890572E-02 
652	 0.094927940162709 
653	 9.50638418238487E-02 
654	 9.51765838778214E-02 
655	 9.53286356167469E-02 
656	 9.55377924423215E-02 
657	 9.56833937315179E-02 
658	 9.58846331498177E-02 
659	 9.61001407294375E-02 
660	 9.62350103545828E-02 
661	 9.64136785495708E-02 
662	 9.66068012157415E-02 
663	 9.68013580703567E-02 
664	 9.70310842229554E-02 
665	 9.72243284236156E-02 
666	 9.73811029589081E-02 
667	 9.75392629709499E-02 
668	 0.097794907463177 
669	 9.80214457055766E-02 
670	 9.82129633944327E-02 
671	 9.84623040173041E-02 
672	 9.86942337215916E-02 
673	 9.89127129845206E-02 
674	 9.91382464948741E-02 
675	 9.94066260396485E-02 
676	 0.099617795916808 
677	 9.98182026170504E-02 
678	 0.100097557267214 
679	 0.100347437063776 
680	 0.100598243297386 
681	 0.10087485627244 
682	 0.101180092220993 
683	 0.101455886845444 
684	 0.101702912942562 
685	 0.101947705784349 
686	 0.102242220879885 
687	 0.102550896192927 
688	 0.102852213808053 
689	 0.103133387053398 
690	 0.103343535613615 
691	 0.103596421119456 
692	 0.103948304102928 
693	 0.104306894764659 
694	 0.104582503071887 
695	 0.104838638603529 
696	 0.10516949501132 
697	 0.105471680356582 
698	 0.105752569695252 
699	 0.1060357074346 
700	 0.106353456551331 
701	 0.106699667282734 
702	 0.10702791336362 
703	 0.107311858180984 
704	 0.10760298380254 
705	 0.107902135673062 
706	 0.108199971482254 
707	 0.108485285492219 
708	 0.108792832680132 
709	 0.109125272955975 
710	 0.109449621321924 
711	 0.109686952718834 
712	 0.109977222496989 
713	 0.110270930936982 
714	 0.11050709304578 
715	 0.110795208478325 
716	 0.111088867544541 
717	 0.111358404473743 
718	 0.111592113859613 
719	 0.111804534436707 
720	 0.112050515197647 
721	 0.112333895829694 
722	 0.112552420764445 
723	 0.11275983637021 
724	 0.112974221085662 
725	 0.113193953010578 
726	 0.113374386865719 
727	 0.113560104907623 
728	 0.113751932481199 
729	 0.113909258674009 
730	 0.114092673570468 
731	 0.114262414023574 
732	 0.114388524864218 
733	 0.1145052969137 
734	 0.114627353250365 
735	 0.114736645168638 
736	 0.114811947065973 
737	 0.11491204053722 
738	 0.114985537983842 
739	 0.115041165439938 
740	 0.115156790307022 
741	 0.115212820806749 
742	 0.115226688074665 
743	 0.115235824740244 
744	 0.115246133742286 
745	 0.115244307151818 
746	 0.115235366394215 
747	 0.115226927008664 
748	 0.115180805176407 
749	 0.115115965215649 
750	 0.115054976129742 
751	 0.1150169913225 
752	 0.114972365406691 
753	 0.114899979076876 
754	 0.114795269572844 
755	 0.114687993778059 
756	 0.11460702551204 
757	 0.114528161173539 
758	 0.114406790299684 
759	 0.114281053262692 
760	 0.114129050779541 
761	 0.113956620708805 
762	 0.113809347189307 
763	 0.113679170410707 
764	 0.1135324238457 
765	 0.11335444311332 
766	 0.113206691084892 
767	 0.113035922887244 
768	 0.112854470690791 
769	 0.11269716299303 
770	 0.112506534409467 
771	 0.11230662689455 
772	 0.112106151254298 
773	 0.111888527653885 
774	 0.111731980219337 
775	 0.111565470677852 
776	 0.111332550377783 
777	 0.1111085225903 
778	 0.110885792711449 
779	 0.110686415703854 
780	 0.110526344273949 
781	 0.110310971376269 
782	 0.110118165037636 
783	 0.109936174790621 
784	 0.109655420136562 
785	 0.109447964757379 
786	 0.109258954257652 
787	 0.109027818472413 
788	 0.108781204651032 
789	 0.108606105382836 
790	 0.108445830301181 
791	 0.108216981762348 
792	 0.108022635750892 
793	 0.107830881349905 
794	 0.107626785419653 
795	 0.107416350886332 
796	 0.107201306691557 
797	 0.106991891685999 
798	 0.106793552402127 
799	 0.106601015354405 
800	 0.106410865054035 
801	 0.106228249778345 
802	 0.106055529209928 
803	 0.105877870074277 
804	 0.105677878590318 
805	 0.105473480306957 
806	 0.105298584375788 
807	 0.105117529925612 
808	 0.104920924256564 
809	 0.104717749192397 
810	 0.104536000223457 
811	 0.104418419746818 
812	 0.104278790636322 
813	 0.104072852694084 
814	 0.103952702995424 
815	 0.103809747121648 
816	 0.103645094275397 
817	 0.103500932376667 
818	 0.103382415418835 
819	 0.103241874873162 
820	 0.103073145854423 
821	 0.102908955678962 
822	 0.102754308177659 
823	 0.102626752748802 
824	 0.102525460714562 
825	 0.102419858817164 
826	 0.102311193054976 
827	 0.102185636354391 
828	 0.102044172404432 
829	 0.101944807344326 
830	 0.101817020418936 
831	 0.101692092322366 
832	 0.101628544063143 
833	 0.101524760930094 
834	 0.101398865164671 
835	 0.101281747661861 
836	 0.101205564708002 
837	 0.10117351566657 
838	 0.101118609379958 
839	 0.101018121822812 
840	 0.100942830683677 
841	 0.100862643484358 
842	 0.100783941436834 
843	 0.100718769802232 
844	 0.100670318143974 
845	 0.100611089980921 
846	 0.100556225493323 
847	 0.100531934294231 
848	 0.100507160320251 
849	 0.100442356401995 
850	 0.100343102040623 
851	 0.100260509681713 
852	 0.100295835688022 
853	 0.100316182392763 
854	 0.100260166920015 
855	 0.100220220270738 
856	 0.100212970875966 
857	 0.100218277386868 
858	 0.100211917073063 
859	 0.100190253697971 
860	 0.100150669281258 
861	 0.100128462953206 
862	 0.10014864057117 
863	 0.100133034297195 
864	 0.100126220475167 
865	 0.10014945022438 
866	 0.100194289831332 
867	 0.100173008924887 
868	 0.100187825229713 
869	 0.10024254827615 
870	 0.100234987560446 
871	 0.100277505616833 
872	 0.100343544793443 
873	 0.100391586804778 
874	 0.100395902155006 
875	 0.100406838599136 
876	 0.100436110041029 
877	 0.10047875008525 
878	 0.100511422738659 
879	 0.100597640610836 
880	 0.100676077209133 
881	 0.100686427811181 
882	 0.100760800942941 
883	 0.100861022110203 
884	 0.100939397723773 
885	 0.10095850306669 
886	 0.100951045220575 
887	 0.101015653515656 
888	 0.101152841209913 
889	 0.10127754923402 
890	 0.101394400013051 
891	 0.101453741608072 
892	 0.10149563114863 
893	 0.101661799876709 
894	 0.101797111413419 
895	 0.101889593581427 
896	 0.101965938683929 
897	 0.102066950967145 
898	 0.102223184636855 
899	 0.102337834751372 
900	 0.102377196168674 
901	 0.102567498458599 
902	 0.102715623941911 
903	 0.102817142705432 
904	 0.102926110783199 
905	 0.103051477284526 
906	 0.10318586414944 
907	 0.103315984352612 
908	 0.103441545721981 
909	 0.103636394277008 
910	 0.103835233443943 
911	 0.104009076982919 
912	 0.104161168030826 
913	 0.104285697338661 
914	 0.104468940019962 
915	 0.104673787936134 
916	 0.104772859718322 
917	 0.104912434750871 
918	 0.105105071283745 
919	 0.105315715327095 
920	 0.105484398053018 
921	 0.105702493118122 
922	 0.105916363143884 
923	 0.106103812285658 
924	 0.106321968680326 
925	 0.10650284590951 
926	 0.106711277911205 
927	 0.106958135960793 
928	 0.107108272919966 
929	 0.107328960283701 
930	 0.107578526912327 
931	 0.107798673277734 
932	 0.108017398257222 
933	 0.10834990904822 
934	 0.108656100504358 
935	 0.10882386998924 
936	 0.10905212876555 
937	 0.109229949468826 
938	 0.109396557254586 
939	 0.109627527639519 
940	 0.109952898102972 
941	 0.110233260579783 
942	 0.110505891265876 
943	 0.11082638415875 
944	 0.111017424730975 
945	 0.111178732387483 
946	 0.111440326553178 
947	 0.111845108319176 
948	 0.112047066833467 
949	 0.112252043717022 
950	 0.112499019137377 
951	 0.112757846849744 
952	 0.113175429403625 
953	 0.113487277341257 
954	 0.113679176921335 
955	 0.113896241444559 
956	 0.114200789343335 
957	 0.114547721043575 
958	 0.11487818374599 
959	 0.115152027858035 
960	 0.115448459104307 
961	 0.115674185107402 
962	 0.115877085809093 
963	 0.116172658818604 
964	 0.116464533815411 
965	 0.116763950633553 
966	 0.117066788317999 
967	 0.11736651882647 
968	 0.11772848382482 
969	 0.118054227606999 
970	 0.118267157595797 
971	 0.118383232806918 
972	 0.118759728546333 
973	 0.119212152649703 
974	 0.119552488603584 
975	 0.119713694869246 
976	 0.120101977031547 
977	 0.12049741932936 
978	 0.120799641836359 
979	 0.121036617116351 
980	 0.121268538241538 
981	 0.12159231124781 
982	 0.121982986570601 
983	 0.122327572063914 
984	 0.122500756965193 
985	 0.122720057028692 
986	 0.123004922426252 
987	 0.123254234196273 
988	 0.12345843880167 
989	 0.123742933524311 
990	 0.124097177119229 
991	 0.124442528613562 
992	 0.124791586345204 
993	 0.12502536652583 
994	 0.125249377423221 
995	 0.125588525372526 
996	 0.125795391024721 
997	 0.126119634886122 
998	 0.126524113241812 
999	 0.126861997322201 
1000	 0.127071421105299 
1001	 0.126541326698939 
1002	 0.126809123249677 
1003	 0.127105901567733 
1004	 0.127373639807499 
1005	 0.127633666520194 
1006	 0.127850350464837 
1007	 0.128029209273991 
1008	 0.128220113180785 
1009	 0.128413344052347 
1010	 0.128612586843252 
1011	 0.128812181386204 
1012	 0.12905974306601 
1013	 0.129310340877394 
1014	 0.129497000560495 
1015	 0.129697545691941 
1016	 0.129908387770131 
1017	 0.13011155757317 
1018	 0.130298421862866 
1019	 0.130498958514091 
1020	 0.130688816470247 
1021	 0.130923320687448 
1022	 0.131140690118702 
1023	 0.131302427126575 
1024	 0.131506163386304 
1025	 0.131621678115112 
1026	 0.131679067620828 
1027	 0.131852117419178 
1028	 0.132051478970384 
1029	 0.132208612732281 
1030	 0.132402609791066 
1031	 0.132570998801982 
1032	 0.132734480409785 
1033	 0.132797098126157 
1034	 0.132869321450719 
1035	 0.13297209895195 
1036	 0.133027161836547 
1037	 0.133145701360026 
1038	 0.133344157506223 
1039	 0.133505922264233 
1040	 0.133671408371002 
1041	 0.133828383539998 
1042	 0.133931610025266 
1043	 0.134020395485727 
1044	 0.134118749492671 
1045	 0.134197691587682 
1046	 0.134310830476845 
1047	 0.1344346640016 
1048	 0.134530631804877 
1049	 0.134677855746104 
1050	 0.13481647052162 
1051	 0.13495524518082 
1052	 0.135121198065786 
1053	 0.135234276807862 
1054	 0.13534090212566 
1055	 0.135412346786628 
1056	 0.135514982705921 
1057	 0.135644827469081 
1058	 0.13580285157275 
1059	 0.135924931706477 
1060	 0.136060535443602 
1061	 0.136200289785863 
1062	 0.136288117062251 
1063	 0.136404858092099 
1064	 0.136504713818412 
1065	 0.136610399782945 
1066	 0.136745387859043 
1067	 0.136874657489806 
1068	 0.137018794187084 
1069	 0.137153848397512 
1070	 0.137272835742866 
1071	 0.137357242655021 
1072	 0.137452892399546 
1073	 0.137535382792161 
1074	 0.13764057171416 
1075	 0.13774193237133 
1076	 0.137893917582242 
1077	 0.137996502639301 
1078	 0.13807644976368 
1079	 0.13815809400301 
1080	 0.138201648210604 
1081	 0.138309246739141 
1082	 0.138473046541276 
1083	 0.138556009348394 
1084	 0.138606644006125 
1085	 0.138648971154098 
1086	 0.138621473167976 
1087	 0.138657284520517 
1088	 0.13870054306849 
1089	 0.138793664998504 
1090	 0.138916665352515 
1091	 0.1390155356241 
1092	 0.139083532855452 
1093	 0.13918050492929 
1094	 0.139302271111078 
1095	 0.139390832256809 
1096	 0.139499082843866 
1097	 0.13958482959791 
1098	 0.13964309163633 
1099	 0.139641379948786 
1100	 0.13969820599875 
1101	 0.139759565027984 
1102	 0.13982909047515 
1103	 0.139945284009472 
1104	 0.140001062807618 
1105	 0.140038813782689 
1106	 0.140116318707202 
1107	 0.140171288859742 
1108	 0.140230642392992 
1109	 0.140306749672206 
1110	 0.140367467014929 
1111	 0.140438273211901 
1112	 0.14050179078224 
1113	 0.140587996868466 
1114	 0.140710905496491 
1115	 0.140794149260945 
1116	 0.140867944285851 
1117	 0.140945320263193 
1118	 0.141010579244399 
1119	 0.141051367812355 
1120	 0.141132727703663 
1121	 0.141234068142592 
1122	 0.141306263536095 
1123	 0.141371863231775 
1124	 0.141441362110142 
1125	 0.141497710766172 
1126	 0.141558983971892 
1127	 0.14163052171863 
1128	 0.141701057636268 
1129	 0.141768307815008 
1130	 0.141828357420091 
1131	 0.141883506523431 
1132	 0.141942451930308 
1133	 0.142004348471125 
1134	 0.142062763577398 
1135	 0.142129668010293 
1136	 0.142186755900551 
1137	 0.142237633907477 
1138	 0.142249496947157 
1139	 0.142282132599622 
1140	 0.142307032138681 
1141	 0.142355279131841 
1142	 0.142425647460005 
1143	 0.142469852162802 
1144	 0.142519012389921 
1145	 0.142553534287526 
1146	 0.142560170651585 
1147	 0.142582460444562 
1148	 0.142598564795085 
1149	 0.142632915186927 
1150	 0.142679521182872 
1151	 0.142730914969024 
1152	 0.142779350519924 
1153	 0.142819601614461 
1154	 0.142854902271856 
1155	 0.142875620011375 
1156	 0.142895540770825 
1157	 0.142914764403835 
1158	 0.142937193583701 
1159	 0.142935968907625 
1160	 0.142971335498136 
1161	 0.143043303726921 
1162	 0.143083975236169 
1163	 0.143125877800897 
1164	 0.143170949227194 
1165	 0.143204849444341 
1166	 0.143228454832586 
1167	 0.143291609596135 
1168	 0.143346196477781 
1169	 0.143377868570587 
1170	 0.14338909004761 
1171	 0.143426504644206 
1172	 0.143458593441967 
1173	 0.143492312776836 
1174	 0.143542878774359 
1175	 0.143588160186777 
1176	 0.143617403050585 
1177	 0.14366146302073 
1178	 0.143736865884926 
1179	 0.143782419284031 
1180	 0.143803502186061 
1181	 0.143841317272081 
1182	 0.143882745203872 
1183	 0.143906229391765 
1184	 0.143944953679786 
1185	 0.143998376741777 
1186	 0.144047568206842 
1187	 0.144098762295492 
1188	 0.144139030077441 
1189	 0.144185656652049 
1190	 0.144216327188678 
1191	 0.144227760896346 
1192	 0.144245706377745 
1193	 0.144248352077297 
1194	 0.144273748031961 
1195	 0.144310639790221 
1196	 0.144344814670712 
1197	 0.144402981703882 
1198	 0.144444749869546 
1199	 0.144478684290582 
1200	 0.144498701144961 
1201	 0.144528742381699 
1202	 0.144552919212975 
1203	 0.144585218148515 
1204	 0.144616573520635 
1205	 0.144664845063867 
1206	 0.144740200956885 
1207	 0.144779449113984 
1208	 0.144813879412457 
1209	 0.144845229554808 
1210	 0.144847413719243 
1211	 0.144862284611953 
1212	 0.144887190810222 
1213	 0.144911725249751 
1214	 0.144929646745578 
1215	 0.144953489148968 
1216	 0.144981760294471 
1217	 0.145022435554789 
1218	 0.145047416458536 
1219	 0.145068558171499 
1220	 0.145089260917534 
1221	 0.145102621878982 
1222	 0.145119706825105 
1223	 0.145145006340597 
1224	 0.145155607214877 
1225	 0.145145741374354 
1226	 0.145159757107141 
1227	 0.145179742514099 
1228	 0.145198546931936 
1229	 0.145239658388267 
1230	 0.145265377846367 
1231	 0.145273199905843 
1232	 0.145288282135726 
1233	 0.145304316625826 
1234	 0.145319704053684 
1235	 0.145339168444751 
1236	 0.145360639054078 
1237	 0.145386245093139 
1238	 0.14541884973649 
1239	 0.145443225030615 
1240	 0.145472384406992 
1241	 0.14549094347632 
1242	 0.145500946852467 
1243	 0.145508744915197 
1244	 0.145507387285799 
1245	 0.145511453409484 
1246	 0.14551275584296 
1247	 0.145515811993679 
1248	 0.14551773045187 
1249	 0.14552636200737 
1250	 0.145535657796888 
1251	 0.145564168386729 
1252	 0.145585107713474 
1253	 0.14561984245129 
1254	 0.145634575950958 
1255	 0.145636710256615 
1256	 0.145646480813044 
1257	 0.145651885370143 
1258	 0.145659859214571 
1259	 0.1456663478053 
1260	 0.145681934334179 
1261	 0.145708721118716 
1262	 0.145721093050275 
1263	 0.145737851855667 
1264	 0.145746773059751 
1265	 0.14573788454133 
1266	 0.145734119885788 
1267	 0.145738353834222 
1268	 0.145726397002931 
1269	 0.145723454164501 
1270	 0.145715657127115 
1271	 0.145719484443318 
1272	 0.145736991248781 
1273	 0.145736832632525 
1274	 0.145732230792146 
1275	 0.145733209510979 
1276	 0.145725280692778 
1277	 0.145726173468972 
1278	 0.145730626521038 
1279	 0.145744296846476 
1280	 0.145756232104304 
1281	 0.145779605702123 
1282	 0.145822158452861 
1283	 0.145863840067604 
1284	 0.145903863656283 
1285	 0.145965735447987 
1286	 0.146011996089187 
1287	 0.146041409729534 
1288	 0.146075090430189 
1289	 0.146092809438397 
1290	 0.146126426099047 
1291	 0.146177484130613 
1292	 0.146206777092475 
1293	 0.146229652315386 
1294	 0.146254554719206 
1295	 0.146260131019693 
1296	 0.146283111528887 
1297	 0.146328819433091 
1298	 0.146352670503847 
1299	 0.146372679602273 
1300	 0.146387823416234 
1301	 0.14638967365096 
1302	 0.14639065709551 
1303	 0.146384068136808 
1304	 0.146384749298249 
1305	 0.14639741314388 
1306	 0.146390788473859 
1307	 0.146385966262866 
1308	 0.14638658867216 
1309	 0.146368329662524 
1310	 0.146324592460116 
1311	 0.146306757133442 
1312	 0.146289953870796 
1313	 0.146277791729525 
1314	 0.146286701254104 
1315	 0.146273540336218 
1316	 0.146247211318386 
1317	 0.146229511670423 
1318	 0.146209828128691 
1319	 0.146184949977003 
1320	 0.146166390387763 
1321	 0.146136995994294 
1322	 0.146092463973615 
1323	 0.146056679396285 
1324	 0.146007724274254 
1325	 0.145969175183362 
1326	 0.145940377132741 
1327	 0.145893260703233 
1328	 0.145849434610165 
1329	 0.145817230264351 
1330	 0.145790865074184 
1331	 0.145768257047115 
1332	 0.145745158914352 
1333	 0.14574044842764 
1334	 0.145714302058739 
1335	 0.145671700594097 
1336	 0.145636111222363 
1337	 0.145588257131619 
1338	 0.145559646315636 
1339	 0.145547038263868 
1340	 0.145524298222055 
1341	 0.145505054227082 
1342	 0.145485825159702 
1343	 0.145458229318247 
1344	 0.145439237588245 
1345	 0.145420684778561 
1346	 0.145399551066744 
1347	 0.145375222489811 
1348	 0.145346031185693 
1349	 0.145322818842702 
1350	 0.145316168395491 
1351	 0.145296799107896 
1352	 0.145273678517634 
1353	 0.145251586748628 
1354	 0.145219103753879 
1355	 0.145203535022992 
1356	 0.145201207421467 
1357	 0.14519010791067 
1358	 0.145183434229727 
1359	 0.145176239865748 
1360	 0.145171750829246 
1361	 0.145153544643204 
1362	 0.145131463092185 
1363	 0.145107258444496 
1364	 0.145068151369899 
1365	 0.145031840993721 
1366	 0.144997612447015 
1367	 0.14497005075532 
1368	 0.144932101247522 
1369	 0.144877503224811 
1370	 0.144818667854203 
1371	 0.144757230127818 
1372	 0.14469948386878 
1373	 0.144643970034226 
1374	 0.14456828738606 
1375	 0.144487596357557 
1376	 0.144396394006454 
1377	 0.144286721306644 
1378	 0.144172217603816 
1379	 0.144050698258864 
1380	 0.143930907216102 
1381	 0.143810765633661 
1382	 0.14366987133836 
1383	 0.143535511585192 
1384	 0.143367252982195 
1385	 0.143164617190322 
1386	 0.142958651506451 
1387	 0.142748246790951 
1388	 0.142518528920733 
1389	 0.142277705880207 
1390	 0.1420115032347 
1391	 0.141748033594957 
1392	 0.141421529057632 
1393	 0.14107377945114 
1394	 0.140726196603986 
1395	 0.140339273408414 
1396	 0.139949638684764 
1397	 0.139548680702665 
1398	 0.139138221398609 
1399	 0.138716839346669 
1400	 0.138273515601021 
1401	 0.13784861771518 
1402	 0.137422401189527 
1403	 0.13699666463427 
1404	 0.136572008575547 
1405	 0.13616066845215 
1406	 0.135739212747947 
1407	 0.135350530196135 
1408	 0.13497807150576 
1409	 0.134629864657006 
1410	 0.134297641019418 
1411	 0.133995148432727 
1412	 0.133710340982712 
1413	 0.133465228169907 
1414	 0.133264304036391 
1415	 0.13308068293483 
1416	 0.132913422700311 
1417	 0.132770954450333 
1418	 0.132639845835608 
1419	 0.132511712065231 
1420	 0.132417056834314 
1421	 0.132338304107963 
1422	 0.132251007804484 
1423	 0.132173367960022 
1424	 0.132087425943664 
1425	 0.13199463594445 
1426	 0.131914956899452 
1427	 0.131837473714943 
1428	 0.131758649559695 
1429	 0.13168307944987 
1430	 0.131616265030451 
1431	 0.131542983741296 
1432	 0.13149428492994 
1433	 0.131473478946319 
1434	 0.131437684739034 
1435	 0.131399488400316 
1436	 0.131373331864208 
1437	 0.131344275156989 
1438	 0.131329522460981 
1439	 0.131340181420087 
1440	 0.131337197957056 
1441	 0.131320824495394 
1442	 0.131315563551821 
1443	 0.131307199230065 
1444	 0.131301280341617 
1445	 0.13130916810794 
1446	 0.131312477359567 
1447	 0.13130409084426 
1448	 0.131299334405254 
1449	 0.131296068478109 
1450	 0.131297288504562 
1451	 0.13130341093626 
1452	 0.13131257877802 
1453	 0.13132884385231 
1454	 0.131356171250824 
1455	 0.131372804781206 
1456	 0.131399724570384 
1457	 0.131409616647815 
1458	 0.131401243665838 
1459	 0.131399966077773 
1460	 0.131389503320721 
1461	 0.13138818549676 
1462	 0.131390746567332 
1463	 0.131398545752606 
1464	 0.131403660329791 
1465	 0.131427163264514 
1466	 0.131461588150052 
1467	 0.131505198238763 
1468	 0.131571223546166 
1469	 0.1316307212458 
1470	 0.131695002965354 
1471	 0.13175104491891 
1472	 0.13182197602675 
1473	 0.131887794339696 
1474	 0.131955080402673 
1475	 0.132036984570835 
1476	 0.132115145664083 
1477	 0.132201290326292 
1478	 0.1322827579011 
1479	 0.132365042075958 
1480	 0.132462855263491 
1481	 0.132553700833895 
1482	 0.132651892736086 
1483	 0.132766633968245 
1484	 0.132866797002404 
1485	 0.132960749875719 
1486	 0.133056434561021 
1487	 0.133149161484611 
1488	 0.133241127430431 
1489	 0.133333638883489 
1490	 0.133421594694221 
1491	 0.133504465894528 
1492	 0.133595275401398 
1493	 0.133685283147956 
1494	 0.133774182167797 
1495	 0.133876657613254 
1496	 0.133960305180925 
1497	 0.13403173011172 
1498	 0.134107602352678 
1499	 0.134167466132819 
1500	 0.134237898860161 
1501	 0.134316940399339 
1502	 0.134394000914587 
1503	 0.134465469278742 
1504	 0.134560798714177 
1505	 0.134648755991982 
1506	 0.134722681588929 
1507	 0.134811762769909 
1508	 0.1348806024387 
1509	 0.134935370707082 
1510	 0.135004784515119 
1511	 0.135067218065481 
1512	 0.135124994604211 
1513	 0.13518496449616 
1514	 0.135241078210071 
1515	 0.135291949722029 
1516	 0.135340650437667 
1517	 0.135398583806786 
1518	 0.135467907029164 
1519	 0.135526917547927 
1520	 0.135581109935237 
1521	 0.135642911011579 
1522	 0.135704055786057 
1523	 0.135760726979164 
1524	 0.135827217480244 
1525	 0.135882786950437 
1526	 0.135924999553383 
1527	 0.135973577659474 
1528	 0.136026555708901 
1529	 0.136069349697279 
1530	 0.136102596347044 
1531	 0.13614856617272 
1532	 0.136196110642822 
1533	 0.136239248391594 
1534	 0.136284057967332 
1535	 0.136333913930319 
1536	 0.136382853797632 
1537	 0.136430544586504 
1538	 0.136485266937219 
1539	 0.136537084337988 
1540	 0.136590511217042 
1541	 0.136632282028959 
1542	 0.136670663292057 
1543	 0.136708756655772 
1544	 0.136732124674938 
1545	 0.136757443348428 
1546	 0.136784580753349 
1547	 0.136815642869157 
1548	 0.136837830996252 
1549	 0.136860831230322 
1550	 0.136886059931369 
1551	 0.136901343027078 
1552	 0.136913385778067 
1553	 0.136931496851318 
1554	 0.13695879413438 
1555	 0.136985067544101 
1556	 0.137021477831674 
1557	 0.137064834118677 
1558	 0.137092510506901 
1559	 0.13712793716322 
1560	 0.137158607007948 
1561	 0.137183712017113 
1562	 0.137208662867045 
1563	 0.137233912163666 
1564	 0.137260958950618 
1565	 0.137288869138238 
1566	 0.137311935291214 
1567	 0.137336443119697 
1568	 0.137354364699875 
1569	 0.137365271556055 
1570	 0.137374339963796 
1571	 0.137377207901484 
1572	 0.137388525642134 
1573	 0.137400840391648 
1574	 0.137411325762046 
1575	 0.137431024617266 
1576	 0.13743763415029 
1577	 0.137421073802697 
1578	 0.137436173080916 
1579	 0.137469139025178 
1580	 0.137490537529295 
1581	 0.137525724604287 
1582	 0.137548669188394 
1583	 0.137553677409819 
1584	 0.137568275515014 
1585	 0.137598397732166 
1586	 0.13761058990997 
1587	 0.137605802297758 
1588	 0.137611058435465 
1589	 0.137609942712348 
1590	 0.13761404752241 
1591	 0.137628773968189 
1592	 0.137641039273442 
1593	 0.137652834214088 
1594	 0.137663255580068 
1595	 0.137677526406421 
1596	 0.137684732047156 
1597	 0.137677513026085 
1598	 0.137684268486879 
1599	 0.137707429027678 
1600	 0.137712208821036 
1601	 0.137712856362583 
1602	 0.137714779757069 
1603	 0.137697240535352 
1604	 0.137689034509544 
1605	 0.137700612163393 
1606	 0.137699060507637 
1607	 0.137681753080423 
1608	 0.137676596479728 
1609	 0.137686269698924 
1610	 0.137674773975234 
1611	 0.137674398724035 
1612	 0.137695249666557 
1613	 0.137702851055999 
1614	 0.137688740295432 
1615	 0.137690372085353 
1616	 0.137685427629592 
1617	 0.137673309846871 
1618	 0.137680913921803 
1619	 0.137672375683426 
1620	 0.137667251623342 
1621	 0.137658584629749 
1622	 0.137648548222155 
1623	 0.137636736972735 
1624	 0.137618841816514 
1625	 0.137611380664648 
1626	 0.137610121997265 
1627	 0.137599130431064 
1628	 0.137588387921276 
1629	 0.137583628571546 
1630	 0.137571450056909 
1631	 0.137570631789541 
1632	 0.137586111697578 
1633	 0.137587124258449 
1634	 0.137590268319006 
1635	 0.137573560725063 
1636	 0.13753692664056 
1637	 0.137523214997328 
1638	 0.137507632895083 
1639	 0.137490083889727 
1640	 0.137476680900425 
1641	 0.137484743002441 
1642	 0.137501463470714 
1643	 0.137502107957387 
1644	 0.137527988219703 
1645	 0.137522051307175 
1646	 0.137474742900332 
1647	 0.13745402391584 
1648	 0.137448881491067 
1649	 0.137421484984613 
1650	 0.137382960598801 
1651	 0.137350043708279 
1652	 0.137307461070734 
1653	 0.137271736915305 
1654	 0.137234479216723 
1655	 0.13721564225643 
1656	 0.137207331943465 
1657	 0.137194331958864 
1658	 0.137201343698517 
1659	 0.137188126142359 
1660	 0.137151034372761 
1661	 0.137137616666275 
1662	 0.137134021332421 
1663	 0.137124179310406 
1664	 0.137121960234737 
1665	 0.137115512435456 
1666	 0.137104997687571 
1667	 0.137090274642628 
1668	 0.137078154210077 
1669	 0.137058620694767 
1670	 0.137027865018816 
1671	 0.137000294059422 
1672	 0.136973414316202 
1673	 0.136943142065407 
1674	 0.136914715108168 
1675	 0.136873998616615 
1676	 0.136821149451989 
1677	 0.136777642699339 
1678	 0.136723142171251 
1679	 0.136685044623402 
1680	 0.13666641826066 
1681	 0.13663446925236 
1682	 0.13660128970685 
1683	 0.136570288417444 
1684	 0.136528140119368 
1685	 0.136504304667835 
1686	 0.136494300055638 
1687	 0.136481185767985 
1688	 0.136481501632189 
1689	 0.136466148390208 
1690	 0.136447476996528 
1691	 0.136418695288949 
1692	 0.136372324242201 
1693	 0.136340842023959 
1694	 0.13631098251229 
1695	 0.136277458969365 
1696	 0.136247116631172 
1697	 0.136219662407787 
1698	 0.136194977617357 
1699	 0.136157958229683 
1700	 0.136116739878237 
1701	 0.136082762917069 
1702	 0.136036377779759 
1703	 0.136002699961545 
1704	 0.135988210547174 
1705	 0.13596020534055 
1706	 0.135929191385427 
1707	 0.135894828776645 
1708	 0.135858655416762 
1709	 0.13582000736279 
1710	 0.13577382246458 
1711	 0.135729656323221 
1712	 0.13567932619061 
1713	 0.135643499787535 
1714	 0.135619606272326 
1715	 0.135583797506493 
1716	 0.135551074355495 
1717	 0.13551497797627 
1718	 0.135471498228651 
1719	 0.135426544809061 
1720	 0.135372297946585 
1721	 0.135342657640925 
1722	 0.135333619200391 
1723	 0.135291813675907 
1724	 0.135262608143806 
1725	 0.135202225754526 
1726	 0.135086167415213 
1727	 0.13500943226085 
1728	 0.134937243964208 
1729	 0.134885597025851 
1730	 0.134866714048585 
1731	 0.134813512583443 
1732	 0.134755229859769 
1733	 0.134693483204572 
1734	 0.134616043643485 
1735	 0.134529558268324 
1736	 0.134436783063054 
1737	 0.134373397170513 
1738	 0.134298431391593 
1739	 0.1342465807458 
1740	 0.134244195667641 
1741	 0.134188557015463 
1742	 0.134111880575124 
1743	 0.134037263719094 
1744	 0.133938855319763 
1745	 0.133868335442722 
1746	 0.133808405943803 
1747	 0.133752464952477 
1748	 0.133693535245664 
1749	 0.133654099133883 
1750	 0.13362252394885 
1751	 0.133566825272847 
1752	 0.133520578632999 
1753	 0.133461340456401 
1754	 0.133352754519579 
1755	 0.133243977464886 
1756	 0.13316533988068 
1757	 0.133090122622323 
1758	 0.133024131762926 
1759	 0.133003523859142 
1760	 0.132956920990361 
1761	 0.132886889146126 
1762	 0.132840819474375 
1763	 0.132774910109325 
1764	 0.132697360765727 
1765	 0.132623259124462 
1766	 0.132562006624152 
1767	 0.132494114917067 
1768	 0.13243810878821 
1769	 0.132402870228703 
1770	 0.132323591279255 
1771	 0.132250745785244 
1772	 0.132206350580543 
1773	 0.132147240233293 
1774	 0.13210616825141 
1775	 0.132077671975047 
1776	 0.132008459794361 
1777	 0.131928202006633 
1778	 0.131864080586976 
1779	 0.13177064456668 
1780	 0.131703830157484 
1781	 0.131682676954709 
1782	 0.131648901471218 
1783	 0.13165251574727 
1784	 0.131628326314248 
1785	 0.131585919706066 
1786	 0.13155125959551 
1787	 0.131505984287507 
1788	 0.1314633522064 
1789	 0.131409580710503 
1790	 0.131379831999343 
1791	 0.131376880144917 
1792	 0.131354423042982 
1793	 0.131339305007637 
1794	 0.131320278931866 
1795	 0.131278688836093 
1796	 0.131242444404556 
1797	 0.131221969390363 
1798	 0.131197881529394 
1799	 0.131157171828017 
1800	 0.131136393367091 
1801	 0.128569492681328 
1802	 0.128598223762602 
1803	 0.128592792836184 
1804	 0.128565563888667 
1805	 0.128543440883451 
1806	 0.128514075595731 
1807	 0.128483170539285 
1808	 0.128460984426567 
1809	 0.128471689410836 
1810	 0.128462441331115 
1811	 0.128442704639344 
1812	 0.128406888924954 
1813	 0.128410095000708 
1814	 0.128403915563433 
1815	 0.128386480229786 
1816	 0.12840050542124 
1817	 0.128394748330556 
1818	 0.128370738268075 
1819	 0.128365291745098 
1820	 0.128372438513378 
1821	 0.128363091481839 
1822	 0.12835048166213 
1823	 0.128330225633731 
1824	 0.128307328159382 
1825	 0.1282874944829 
1826	 0.128272517049977 
1827	 0.128259043591832 
1828	 0.12823087045378 
1829	 0.128184813584713 
1830	 0.128146644778468 
1831	 0.128103275388546 
1832	 0.128061668935328 
1833	 0.128019670080408 
1834	 0.127989768484221 
1835	 0.127967839018771 
1836	 0.127924422946367 
1837	 0.127887583192522 
1838	 0.1278425006325 
1839	 0.127788298245184 
1840	 0.127710908794383 
1841	 0.12766433860278 
1842	 0.127609109403445 
1843	 0.12754272524597 
1844	 0.127498440432763 
1845	 0.127428557076298 
1846	 0.127354317636091 
1847	 0.12728859458598 
1848	 0.12720924673725 
1849	 0.127143501172884 
1850	 0.127071887900619 
1851	 0.127008348689186 
1852	 0.126922814835357 
1853	 0.12683813412715 
1854	 0.126745660756449 
1855	 0.12662951096561 
1856	 0.126529339509533 
1857	 0.126426333710526 
1858	 0.126303210700779 
1859	 0.126178278111015 
1860	 0.12604482834453 
1861	 0.125903746123 
1862	 0.125753618829891 
1863	 0.125591106571065 
1864	 0.125414226134468 
1865	 0.125226516394055 
1866	 0.124999674677361 
1867	 0.124758922021968 
1868	 0.124531900524355 
1869	 0.1242670741371 
1870	 0.123986046479761 
1871	 0.123682824607595 
1872	 0.123368597729463 
1873	 0.123002149920251 
1874	 0.122616202737891 
1875	 0.122204014381031 
1876	 0.12175056092862 
1877	 0.121280318693725 
1878	 0.120786250226784 
1879	 0.120254562786515 
1880	 0.119691200140921 
1881	 0.119090723171606 
1882	 0.118467974877979 
1883	 0.117814986573848 
1884	 0.117128472326433 
1885	 0.116416380086589 
1886	 0.115661992289608 
1887	 0.114870567756947 
1888	 0.114079111260155 
1889	 0.113237523867863 
1890	 0.112342330336694 
1891	 0.11143677282082 
1892	 0.110470500972205 
1893	 0.109510758385379 
1894	 0.108524461227207 
1895	 0.107576816231844 
1896	 0.106599354099284 
1897	 0.105639752747859 
1898	 0.104697540914465 
1899	 0.103749258380265 
1900	 0.102820208770934 
1901	 0.101892707534229 
1902	 0.101013819889442 
1903	 0.10015772765757 
1904	 9.93539902006096E-02 
1905	 9.85925072680932E-02 
1906	 9.78915254138012E-02 
1907	 9.71899304686626E-02 
1908	 9.65146459316804E-02 
1909	 9.58888619873952E-02 
1910	 0.095288437075907 
1911	 9.47548887510167E-02 
1912	 9.42584405138575E-02 
1913	 9.37722426688194E-02 
1914	 9.32837694155033E-02 
1915	 9.28577675874199E-02 
1916	 9.24636049728327E-02 
1917	 9.21168438685264E-02 
1918	 9.18093538339328E-02 
1919	 9.15451971365157E-02 
1920	 9.12759816176016E-02 
1921	 9.10303019099897E-02 
1922	 9.08247841953291E-02 
1923	 9.06335323758404E-02 
1924	 9.04639331185871E-02 
1925	 9.03240182698731E-02 
1926	 9.02003924563626E-02 
1927	 9.00951805913344E-02 
1928	 9.00025217433247E-02 
1929	 8.99247446735128E-02 
1930	 8.98803967904315E-02 
1931	 8.98407765141286E-02 
1932	 8.98120768759005E-02 
1933	 8.98156653867349E-02 
1934	 8.98201266892526E-02 
1935	 8.98284197994504E-02 
1936	 0.089840429858412 
1937	 8.98689598085004E-02 
1938	 8.99041620371134E-02 
1939	 8.99477892107281E-02 
1940	 0.090008470572483 
1941	 9.00523889522162E-02 
1942	 9.01326140383737E-02 
1943	 9.02431138123176E-02 
1944	 9.03452540323303E-02 
1945	 9.04878203356672E-02 
1946	 9.06189012131074E-02 
1947	 9.07514925607327E-02 
1948	 9.08768492102112E-02 
1949	 9.10058269729394E-02 
1950	 9.11333821383783E-02 
1951	 9.12424633912903E-02 
1952	 9.13732650958756E-02 
1953	 0.091531147604363 
1954	 9.16929938626146E-02 
1955	 0.091879788275055 
1956	 9.20727390146754E-02 
1957	 9.22464128064076E-02 
1958	 9.24148152856215E-02 
1959	 9.25832528711153E-02 
1960	 9.27193849587206E-02 
1961	 9.28975788976877E-02 
1962	 9.31006558137807E-02 
1963	 9.32973909176229E-02 
1964	 9.35106013427511E-02 
1965	 9.37347676117787E-02 
1966	 9.39347543160385E-02 
1967	 9.41413210140056E-02 
1968	 0.094343387576785 
1969	 9.45369333856528E-02 
1970	 9.47451447345916E-02 
1971	 9.49630442706012E-02 
1972	 9.51709644810831E-02 
1973	 9.53797985280826E-02 
1974	 9.55947629818507E-02 
1975	 9.58122751820033E-02 
1976	 0.096018155049838 
1977	 9.62233592825916E-02 
1978	 9.64332995205653E-02 
1979	 0.09664589717919 
1980	 9.68714025162658E-02 
1981	 9.70958098338542E-02 
1982	 9.73540730583002E-02 
1983	 9.75666971744616E-02 
1984	 9.77409528405558E-02 
1985	 9.79454492912193E-02 
1986	 9.81428605238091E-02 
1987	 9.83527854087004E-02 
1988	 9.85918401771949E-02 
1989	 9.88125823664807E-02 
1990	 9.90276483211918E-02 
1991	 9.92384828117465E-02 
1992	 9.94543825382394E-02 
1993	 0.09967160731898 
1994	 9.98891945530148E-02 
1995	 0.100103140101913 
1996	 0.100326696927408 
1997	 0.100569525237949 
1998	 0.100786164827145 
1999	 0.100986422760943 
2000	 0.10120347520016 
2001	 0.101416479136186 
2002	 0.101616118186703 
2003	 0.101858177806522 
2004	 0.102100558893814 
2005	 0.102324628008676 
2006	 0.102545173862362 
2007	 0.102756846858788 
2008	 0.102955521435252 
2009	 0.103149598747046 
2010	 0.103324063687212 
2011	 0.103520235053138 
2012	 0.103717497480311 
2013	 0.10391948308664 
2014	 0.104151737755736 
2015	 0.104358288194144 
2016	 0.104538455402789 
2017	 0.104741922322221 
2018	 0.104936834102031 
2019	 0.105119660251957 
2020	 0.105314832705279 
2021	 0.105522165960525 
2022	 0.105719636722077 
2023	 0.105922132524157 
2024	 0.106113150263281 
2025	 0.106291716967377 
2026	 0.106475670227122 
2027	 0.106657168612861 
2028	 0.106836960197618 
2029	 0.107009009317865 
2030	 0.107184662610446 
2031	 0.10734509627278 
2032	 0.107484085871581 
2033	 0.107641681856252 
2034	 0.10779898208666 
2035	 0.107961109565571 
2036	 0.108145685174238 
2037	 0.108300907949646 
2038	 0.108437807782376 
2039	 0.108584426310805 
2040	 0.108721113548332 
2041	 0.108857039777979 
2042	 0.109016104846525 
2043	 0.109144201605399 
2044	 0.109273729917688 
2045	 0.109384164447943 
2046	 0.109515529381473 
2047	 0.109655942945778 
2048	 0.109786715333483 
2049	 0.109925378567469 
2050	 0.11005378947897 
2051	 0.110169019192269 
2052	 0.110284166740105 
2053	 0.110389560085414 
2054	 0.110507523270839 
2055	 0.11063017228468 
2056	 0.11075039900422 
2057	 0.110872384110659 
2058	 0.111009636701195 
2059	 0.111126898347045 
2060	 0.111231090397678 
2061	 0.111341744441232 
2062	 0.111448401402958 
2063	 0.111553485802579 
2064	 0.111659712451447 
2065	 0.111762852918294 
2066	 0.111853545008373 
2067	 0.111960264986075 
2068	 0.112088092284373 
2069	 0.112189710807138 
2070	 0.112301310881568 
2071	 0.112419410496711 
2072	 0.112532094039531 
2073	 0.112640883735702 
2074	 0.112748081727695 
2075	 0.112859608762619 
2076	 0.112961368900327 
2077	 0.113049650162371 
2078	 0.113146408777307 
2079	 0.113240385581694 
2080	 0.11333927159716 
2081	 0.11345447268064 
2082	 0.113552455015338 
2083	 0.113640128808746 
2084	 0.113726523818712 
2085	 0.113822027517545 
2086	 0.113909879450621 
2087	 0.114007103159718 
2088	 0.114124030842586 
2089	 0.114222570872076 
2090	 0.1143154523272 
2091	 0.114402437847933 
2092	 0.114478547227589 
2093	 0.114560340069584 
2094	 0.114634032491761 
2095	 0.114717323685153 
2096	 0.114807351255474 
2097	 0.114899328491528 
2098	 0.115005764843123 
2099	 0.115094106873741 
2100	 0.115189011607409 
2101	 0.115289752015192 
2102	 0.115375547819302 
2103	 0.115448951372579 
2104	 0.115534224923568 
2105	 0.115613003468505 
2106	 0.115700653384594 
2107	 0.115804971373074 
2108	 0.115896828437391 
2109	 0.115981534086063 
2110	 0.116070741287625 
2111	 0.116160394689581 
2112	 0.116247459535819 
2113	 0.116331643743279 
2114	 0.11642461527965 
2115	 0.116507929119188 
2116	 0.116583043683585 
2117	 0.116664721798972 
2118	 0.116743683011663 
2119	 0.116831705009489 
2120	 0.116939053433797 
2121	 0.117016994844352 
2122	 0.117083847532552 
2123	 0.117152980863992 
2124	 0.11719649959838 
2125	 0.117259250928435 
2126	 0.117349076141341 
2127	 0.117414840625979 
2128	 0.117469599867246 
2129	 0.117525880407626 
2130	 0.117568829456167 
2131	 0.117616305181972 
2132	 0.117659367583402 
2133	 0.11771417112999 
2134	 0.117739401240725 
2135	 0.117745590486081 
2136	 0.11775454671049 
2137	 0.117743742795141 
2138	 0.117745981062166 
2139	 0.117760490220459 
2140	 0.117760218790113 
2141	 0.117764023951418 
2142	 0.117748480638961 
2143	 0.117723270887569 
2144	 0.117680176822704 
2145	 0.117592571296252 
2146	 0.117538586215389 
2147	 0.117497426601794 
2148	 0.117450478844128 
2149	 0.11739278712979 
2150	 0.117346693913762 
2151	 0.117296117297599 
2152	 0.117220385588471 
2153	 0.117162390969572 
2154	 0.11713755947391 
2155	 0.117076148976594 
2156	 0.116987926255803 
2157	 0.116914206941296 
2158	 0.116827440137977 
2159	 0.116754037498567 
2160	 0.116714596976251 
2161	 0.116636577761531 
2162	 0.116539299981538 
2163	 0.116445232272516 
2164	 0.116339881388964 
2165	 0.11620917540551 
2166	 0.116094948017384 
2167	 0.115983348844482 
2168	 0.115883384432837 
2169	 0.11579053573767 
2170	 0.11568536705477 
2171	 0.115588266602024 
2172	 0.115486675760625 
2173	 0.115372266086873 
2174	 0.115258818455067 
2175	 0.115158771765438 
2176	 0.115040844482514 
2177	 0.114903725674168 
2178	 0.114770061718942 
2179	 0.114635787118579 
2180	 0.114493762295853 
2181	 0.114339261492238 
2182	 0.114193256241374 
2183	 0.114050768493247 
2184	 0.113896921003998 
2185	 0.113754328355629 
2186	 0.113615726615156 
2187	 0.113484113685274 
2188	 0.113357388791599 
2189	 0.113233024414933 
2190	 0.113106443669755 
2191	 0.113006023191044 
2192	 0.112933947560025 
2193	 0.112829987967891 
2194	 0.112728531090395 
2195	 0.112626937445824 
2196	 0.112489609412805 
2197	 0.112383944195972 
2198	 0.112291834608303 
2199	 0.112223425399095 
2200	 0.112189294554926 
2201	 0.112138332331007 
2202	 0.11209085728149 
2203	 0.112060588916199 
2204	 0.112030052853797 
2205	 0.111979458108043 
2206	 0.111967500845502 
2207	 0.11198139085488 
2208	 0.111999370674604 
2209	 0.112038561279127 
2210	 0.112067404431922 
2211	 0.112112864667892 
2212	 0.112142658798797 
2213	 0.112154873051818 
2214	 0.112180852303849 
2215	 0.112188820957453 
2216	 0.112234413983129 
2217	 0.112320808573783 
2218	 0.112383039851056 
2219	 0.112472007932625 
2220	 0.11253096463839 
2221	 0.112566833656848 
2222	 0.112583805082515 
2223	 0.112598153668857 
2224	 0.112621801483575 
2225	 0.112634509843455 
2226	 0.112638806086703 
2227	 0.112650454863778 
2228	 0.112655121407695 
2229	 0.112677526313088 
2230	 0.112719620622199 
2231	 0.112744482721803 
2232	 0.112773884711482 
2233	 0.112786236148119 
2234	 0.112788464011814 
2235	 0.112781242417544 
2236	 0.112749577686167 
2237	 0.112741581225955 
2238	 0.112747713813322 
2239	 0.11272846562525 
2240	 0.11270305017184 
2241	 0.11268686412657 
2242	 0.112663800240941 
2243	 0.112629371899707 
2244	 0.112599404061044 
2245	 0.112569461417348 
2246	 0.112519478122906 
2247	 0.112452423432035 
2248	 0.112414439627354 
2249	 0.112400569698645 
2250	 0.112357104932998 
2251	 0.112310753224677 
2252	 0.112267855997584 
2253	 0.112211841098393 
2254	 0.112162609173894 
2255	 0.112124933580944 
2256	 0.112070656502374 
2257	 0.111989663579329 
2258	 0.11194512868321 
2259	 0.111910812619568 
2260	 0.111887991338746 
2261	 0.111891231515739 
2262	 0.111891343336491 
2263	 0.111907104178982 
2264	 0.111902571663452 
2265	 0.111892058621822 
2266	 0.111884392103732 
2267	 0.111861486396065 
2268	 0.111842970535433 
2269	 0.111838525100228 
2270	 0.11182304382321 
2271	 0.111771789704602 
2272	 0.111767313745569 
2273	 0.111789562317197 
2274	 0.111820756677133 
2275	 0.111843923676392 
2276	 0.111895476443908 
2277	 0.111904602291277 
2278	 0.111864971292234 
2279	 0.111890679914983 
2280	 0.111959020574648 
2281	 0.11197753177362 
2282	 0.111997757792995 
2283	 0.112016204681655 
2284	 0.111993009580607 
2285	 0.111991925770829 
2286	 0.112030503831775 
2287	 0.112037757582565 
2288	 0.112019370526809 
2289	 0.112007628761992 
2290	 0.111980231111126 
2291	 0.1119775918841 
2292	 0.111988546636227 
2293	 0.111986575719948 
2294	 0.112023516018707 
2295	 0.112012564659505 
2296	 0.111964706213095 
2297	 0.111903409215958 
2298	 0.111836496744829 
2299	 0.11179266438471 
2300	 0.111769457779781 
2301	 0.111775754594902 
2302	 0.111797283092123 
2303	 0.111754484430393 
2304	 0.111661738941842 
2305	 0.111609656836511 
2306	 0.111561663154438 
2307	 0.111500472223676 
2308	 0.11145048872842 
2309	 0.111426953802235 
2310	 0.111391806704971 
2311	 0.111337546507072 
2312	 0.111318206175452 
2313	 0.111347361570616 
2314	 0.111321668467282 
2315	 0.111267963193103 
2316	 0.111234355200753 
2317	 0.111188558402603 
2318	 0.11114462125762 
2319	 0.111151838251584 
2320	 0.111073230823365 
2321	 0.110906022906029 
2322	 0.110798582672256 
2323	 0.110653241684301 
2324	 0.11057267204451 
2325	 0.110574282355527 
2326	 0.110553762578047 
2327	 0.110546830873342 
2328	 0.110532507854313 
2329	 0.110550502909121 
2330	 0.110473971686972 
2331	 0.110432292182162 
2332	 0.110371761388312 
2333	 0.110246002724608 
2334	 0.110210081634169 
2335	 0.110136212319962 
2336	 0.11004102450733 
2337	 0.110021279378232 
2338	 0.109988229405703 
2339	 0.109955217848095 
2340	 0.109940656548872 
2341	 0.10990063825377 
2342	 0.109784163300469 
2343	 0.109608972631408 
2344	 0.109475220375483 
2345	 0.109353052145467 
2346	 0.109218160970726 
2347	 0.109113792710072 
2348	 0.109064836599175 
2349	 0.108948944252293 
2350	 0.108784388928165 
2351	 0.108682910361428 
2352	 0.108609246922602 
2353	 0.108504656377314 
2354	 0.108431042665813 
2355	 0.108318296670194 
2356	 0.108121228105444 
2357	 0.108004778382812 
2358	 0.107941273168145 
2359	 0.107844027292477 
2360	 0.107772855917498 
2361	 0.107678750552084 
2362	 0.107544961539842 
2363	 0.107425482054151 
2364	 0.107309561733245 
2365	 0.10720096515006 
2366	 0.107096021335234 
2367	 0.106989224320458 
2368	 0.106887836433489 
2369	 0.106785204202772 
2370	 0.106646912327132 
2371	 0.106590265645077 
2372	 0.106561453931977 
2373	 0.106452060899645 
2374	 0.106339620122201 
2375	 0.106149689613903 
2376	 0.105932269386547 
2377	 0.105728393972053 
2378	 0.105570976303203 
2379	 0.105490558669871 
2380	 0.105375538198757 
2381	 0.105282933814392 
2382	 0.105197215649343 
2383	 0.105079982693417 
2384	 0.104967947935689 
2385	 0.104869416895076 
2386	 0.104778850381371 
2387	 0.104593822157976 
2388	 0.104400301193462 
2389	 0.104281355580626 
2390	 0.104052652006624 
2391	 0.103839659749311 
2392	 0.103710862687317 
2393	 0.103503938805612 
2394	 0.10331607665917 
2395	 0.103154439643847 
2396	 0.10302562566332 
2397	 0.102924208339761 
2398	 0.102758515845266 
2399	 0.102591094323297 
2400	 0.102390376909884 
2401	 0.102126185612276 
2402	 0.10195304548172 
2403	 0.101832768150832 
2404	 0.101648612951475 
2405	 0.101491968670001 
2406	 0.10130605480303 
2407	 0.101107790920383 
2408	 0.100968094605055 
2409	 0.100778494128144 
2410	 0.100608289929988 
2411	 0.100491419093183 
2412	 0.100395798404992 
2413	 0.100375465410065 
2414	 0.100358437001442 
2415	 0.100255582472544 
2416	 0.100088551161364 
2417	 9.97837482892084E-02 
2418	 9.95848388018626E-02 
2419	 9.93974210978814E-02 
2420	 9.92084807575618E-02 
2421	 9.90568712222901E-02 
2422	 9.89300461277513E-02 
2423	 0.098772777725936 
2424	 9.86030694760584E-02 
2425	 9.85196839145685E-02 
2426	 9.83301771450714E-02 
2427	 9.80040294921843E-02 
2428	 9.78332794646315E-02 
2429	 9.77187765833029E-02 
2430	 9.75618382771414E-02 
2431	 9.74996559663715E-02 
2432	 9.73626893116407E-02 
2433	 9.71463090483025E-02 
2434	 0.096911036992536 
2435	 9.66347184738268E-02 
2436	 9.63856819405601E-02 
2437	 0.096110847778292 
2438	 9.58913025539306E-02 
2439	 0.095662970416823 
2440	 9.55301095324151E-02 
2441	 9.55327734669488E-02 
2442	 9.53977368907055E-02 
2443	 9.53314803874064E-02 
2444	 0.09515251127654 
2445	 9.47051592462976E-02 
2446	 9.44348213877918E-02 
2447	 9.42261324653891E-02 
2448	 9.40754488741755E-02 
2449	 9.40959288253268E-02 
2450	 9.39835735435994E-02 
2451	 9.38282830140323E-02 
2452	 9.36170115870634E-02 
2453	 9.32666705059612E-02 
2454	 9.30213157856517E-02 
2455	 9.28144530292929E-02 
2456	 9.26851494352761E-02 
2457	 9.26787579424964E-02 
2458	 9.25275287441642E-02 
2459	 9.23315442107691E-02 
2460	 9.21317246017153E-02 
2461	 0.091805063290909 
2462	 9.16431539445338E-02 
2463	 9.15931165606431E-02 
2464	 9.14606263982228E-02 
2465	 9.13842387723664E-02 
2466	 9.12392161242618E-02 
2467	 9.10257426748704E-02 
2468	 9.09099217177914E-02 
2469	 9.08556056124773E-02 
2470	 9.06144402150937E-02 
2471	 0.090307639978551 
2472	 8.99143510710911E-02 
2473	 8.96798788547897E-02 
2474	 8.95317268842493E-02 
2475	 0.089411433395667 
2476	 8.93781503119611E-02 
2477	 8.93105300122244E-02 
2478	 8.93384176502355E-02 
2479	 8.92597449143117E-02 
2480	 8.90808521874352E-02 
2481	 8.89600746873661E-02 
2482	 0.088836129259709 
2483	 8.87644470689728E-02 
2484	 8.87051342442466E-02 
2485	 8.86864406945175E-02 
2486	 8.84110656922321E-02 
2487	 8.80985598002806E-02 
2488	 8.79374356201676E-02 
2489	 8.76650175050327E-02 
2490	 8.75024183755683E-02 
2491	 8.75224708887615E-02 
2492	 0.087572386581842 
2493	 8.75332564898774E-02 
2494	 8.73722914951549E-02 
2495	 8.71121775057515E-02 
2496	 8.68335949168211E-02 
2497	 0.08654323108059 
2498	 8.65099818158646E-02 
2499	 8.65231373207199E-02 
2500	 8.64722494163774E-02 
