Wavelength	MM_3400002.asd
350	 4.79499697877559E-02 
351	 5.37246023516813E-02 
352	 5.62367128208602E-02 
353	 5.05441141758407E-02 
354	 5.32283293202367E-02 
355	 5.29303708888944E-02 
356	 5.01721415633263E-02 
357	 4.86683959933813E-02 
358	 5.24323206260965E-02 
359	 5.43748403145219E-02 
360	 5.44009521811148E-02 
361	 5.63037492833171E-02 
362	 5.17777956363416E-02 
363	 5.06374741923613E-02 
364	 5.60050491977276E-02 
365	 5.79922522972607E-02 
366	 5.33475899916693E-02 
367	 4.91517242896921E-02 
368	 5.18154445577833E-02 
369	 5.35675863728635E-02 
370	 5.16118079843669E-02 
371	 4.93124370757299E-02 
372	 5.30762705153828E-02 
373	 5.48465948746373E-02 
374	 0.056046713109629 
375	 5.78034288697045E-02 
376	 5.86121810944401E-02 
377	 5.64104589930691E-02 
378	 5.51829480604902E-02 
379	 5.81353573621073E-02 
380	 5.74601231046806E-02 
381	 5.62785870079619E-02 
382	 5.71476902202996E-02 
383	 6.11793768182789E-02 
384	 6.13910617590121E-02 
385	 0.058703736133984 
386	 0.056107031618037 
387	 5.80938435625821E-02 
388	 6.07524471803527E-02 
389	 6.15963350439146E-02 
390	 5.97932683028774E-02 
391	 5.95790481281789E-02 
392	 6.07340721812076E-02 
393	 0.062005962085873 
394	 6.16828686444648E-02 
395	 6.12578254767162E-02 
396	 6.22325233372633E-02 
397	 6.44618974029577E-02 
398	 6.44219938175174E-02 
399	 6.39763852737961E-02 
400	 6.40127332025967E-02 
401	 6.47123300489715E-02 
402	 6.42493739432374E-02 
403	 6.43586265613011E-02 
404	 6.50736751020028E-02 
405	 6.46156502954063E-02 
406	 6.52645134125367E-02 
407	 6.61811883032537E-02 
408	 0.066243701112395 
409	 6.50151377732747E-02 
410	 6.45645583038739E-02 
411	 6.49942564685621E-02 
412	 6.54358289540729E-02 
413	 6.56484957329127E-02 
414	 6.59755399194863E-02 
415	 6.62848772066144E-02 
416	 6.57645698169651E-02 
417	 6.52457630814293E-02 
418	 6.51843238415637E-02 
419	 6.55878039795213E-02 
420	 6.54005503778653E-02 
421	 6.50737440580404E-02 
422	 6.52004179721557E-02 
423	 6.62628421752341E-02 
424	 6.69996168084177E-02 
425	 6.65574504332476E-02 
426	 6.52696672536188E-02 
427	 6.53737445015221E-02 
428	 6.58074601201421E-02 
429	 0.065767354780309 
430	 6.49606363177377E-02 
431	 6.52733941991778E-02 
432	 6.55250498323944E-02 
433	 6.54082081901581E-02 
434	 6.55699346519537E-02 
435	 6.55429839107774E-02 
436	 6.54206199584143E-02 
437	 6.53203048721185E-02 
438	 6.50661130555232E-02 
439	 6.53471454797727E-02 
440	 6.59309902798525E-02 
441	 6.61636370435268E-02 
442	 6.61363633644753E-02 
443	 6.60677092987219E-02 
444	 6.60233202057772E-02 
445	 6.58145441711132E-02 
446	 6.55997218828197E-02 
447	 6.55080299498195E-02 
448	 0.065563003188269 
449	 6.53790969062795E-02 
450	 6.54039405116624E-02 
451	 6.55590450841482E-02 
452	 6.53587493172497E-02 
453	 0.065743650593893 
454	 6.58181214166652E-02 
455	 6.52032003006573E-02 
456	 6.55914199437467E-02 
457	 6.57161955459003E-02 
458	 6.55661914445598E-02 
459	 6.56271623580474E-02 
460	 6.56220837547607E-02 
461	 6.54160525531037E-02 
462	 6.51733527807852E-02 
463	 6.54587637022358E-02 
464	 6.55396578171936E-02 
465	 0.06553281791935 
466	 6.56601912971266E-02 
467	 6.55673061857386E-02 
468	 6.53511403090096E-02 
469	 6.52414777672966E-02 
470	 0.065503984177467 
471	 6.53575874599417E-02 
472	 6.51626960484308E-02 
473	 6.52078125946758E-02 
474	 6.51232230493322E-02 
475	 6.52181702097922E-02 
476	 6.54862961639145E-02 
477	 6.57316998329272E-02 
478	 6.55122982841906E-02 
479	 6.52540975543537E-02 
480	 6.51874005658879E-02 
481	 6.51646663313539E-02 
482	 6.51841829774999E-02 
483	 6.52672222917176E-02 
484	 6.54124981122036E-02 
485	 6.55367077632925E-02 
486	 6.53468518715493E-02 
487	 6.50294239250591E-02 
488	 6.51283478935679E-02 
489	 6.52119071843385E-02 
490	 0.065205978557071 
491	 6.51407341891925E-02 
492	 6.51533798637676E-02 
493	 6.50197923739237E-02 
494	 6.49630616474442E-02 
495	 6.52885108775589E-02 
496	 6.52191407003621E-02 
497	 6.50327123682491E-02 
498	 6.49942273262362E-02 
499	 6.52066324090093E-02 
500	 0.065208814922805 
501	 6.51185421181403E-02 
502	 0.065150410814981 
503	 6.51085570896508E-02 
504	 0.065017315038798 
505	 6.49616297883462E-02 
506	 6.50581062623661E-02 
507	 6.49988781397183E-02 
508	 6.50238872183024E-02 
509	 6.52225148815764E-02 
510	 6.49638790667964E-02 
511	 0.064862367770411 
512	 0.064936188254269 
513	 6.49008516012961E-02 
514	 6.48434754754678E-02 
515	 6.48272483018957E-02 
516	 0.06488431077706 
517	 6.50208738538098E-02 
518	 6.48994925989215E-02 
519	 6.47423296551636E-02 
520	 6.48579854690129E-02 
521	 0.064957259050001 
522	 6.49447528005915E-02 
523	 6.48190731125242E-02 
524	 6.46656416714536E-02 
525	 6.46667847557295E-02 
526	 6.47474243829508E-02 
527	 6.47771321700991E-02 
528	 6.46484041435872E-02 
529	 6.45972493196258E-02 
530	 6.46282145906779E-02 
531	 6.46035736555969E-02 
532	 0.064659627110809 
533	 6.47836119900322E-02 
534	 6.48967010916449E-02 
535	 6.48137046440365E-02 
536	 6.47337425468254E-02 
537	 6.47324886719914E-02 
538	 6.48029989319047E-02 
539	 6.47368647902953E-02 
540	 6.47140224180054E-02 
541	 6.47906104979413E-02 
542	 6.48217952522463E-02 
543	 6.47768130512892E-02 
544	 6.47610339019492E-02 
545	 6.48571358883057E-02 
546	 6.48971651056329E-02 
547	 6.48819144710956E-02 
548	 6.48607493610391E-02 
549	 6.49104240230861E-02 
550	 6.48644042038961E-02 
551	 6.48848847140914E-02 
552	 6.50491997372081E-02 
553	 6.50569348774796E-02 
554	 6.50865151972277E-02 
555	 6.51483560200308E-02 
556	 6.51796304948249E-02 
557	 0.065278714298104 
558	 6.53974089906512E-02 
559	 6.55024880488652E-02 
560	 6.56186897433377E-02 
561	 6.56893879642812E-02 
562	 6.57803392391664E-02 
563	 6.59631680062036E-02 
564	 6.61044450328269E-02 
565	 6.61872622365221E-02 
566	 6.62199402121874E-02 
567	 6.62314513445368E-02 
568	 6.63884858106892E-02 
569	 6.66502617410433E-02 
570	 6.69257172790698E-02 
571	 6.71521617875059E-02 
572	 6.74156345047375E-02 
573	 6.76640082599702E-02 
574	 6.77680374147666E-02 
575	 6.79393717047988E-02 
576	 6.82144888412052E-02 
577	 6.85435010776941E-02 
578	 6.87467552057334E-02 
579	 6.90025202225824E-02 
580	 6.92635503473245E-02 
581	 6.94281764898184E-02 
582	 6.97263094815184E-02 
583	 7.00238473879112E-02 
584	 7.02587215982707E-02 
585	 7.05135392493843E-02 
586	 0.070848790247805 
587	 7.12204198263842E-02 
588	 7.15653072635259E-02 
589	 7.19018124961899E-02 
590	 7.22760681050664E-02 
591	 7.26784286219082E-02 
592	 7.30520512833681E-02 
593	 7.34621637393415E-02 
594	 7.38232216385038E-02 
595	 7.41042032016926E-02 
596	 7.45083531149582E-02 
597	 7.48261810855335E-02 
598	 7.50538213349893E-02 
599	 7.52973812325485E-02 
600	 7.55462013744567E-02 
601	 7.58004753271388E-02 
602	 7.60490290080579E-02 
603	 7.62576544287689E-02 
604	 0.076514936664406 
605	 7.67898199316877E-02 
606	 7.70225250255267E-02 
607	 7.72519455082424E-02 
608	 7.75095974327629E-02 
609	 7.77813085237443E-02 
610	 7.80025903465602E-02 
611	 7.81880205829577E-02 
612	 7.83614691064983E-02 
613	 0.07853202427789 
614	 7.86464624751659E-02 
615	 7.87581445518243E-02 
616	 7.88649867810009E-02 
617	 7.89373677949931E-02 
618	 7.91388580517523E-02 
619	 7.92850461802561E-02 
620	 7.92942980324545E-02 
621	 7.94191578313697E-02 
622	 7.95197019696434E-02 
623	 7.95771671563068E-02 
624	 0.079626285074311 
625	 7.97405861209981E-02 
626	 7.98474683027419E-02 
627	 7.99174176707134E-02 
628	 7.99934703730424E-02 
629	 8.00592512551053E-02 
630	 8.01143747198869E-02 
631	 8.01718272163691E-02 
632	 8.02956116120544E-02 
633	 8.03041644552383E-02 
634	 8.02481174960533E-02 
635	 0.080356194545861 
636	 8.04637125839034E-02 
637	 8.05146547187499E-02 
638	 8.05188169438982E-02 
639	 8.05989627837806E-02 
640	 8.06898638816287E-02 
641	 8.07618407631993E-02 
642	 8.08061361313537E-02 
643	 8.08590770056417E-02 
644	 8.09049802790998E-02 
645	 8.09518608610972E-02 
646	 8.10509331253421E-02 
647	 0.081112213291242 
648	 0.081157807911029 
649	 8.12284877727496E-02 
650	 8.12875599285185E-02 
651	 8.13845688097369E-02 
652	 8.14907345815224E-02 
653	 8.15172131318988E-02 
654	 8.15894670858545E-02 
655	 8.16540171921545E-02 
656	 8.16877838528449E-02 
657	 8.18330200849065E-02 
658	 8.19597320381446E-02 
659	 8.20595135048546E-02 
660	 8.21702144450029E-02 
661	 8.22106150993126E-02 
662	 8.22569507761207E-02 
663	 8.23553817484254E-02 
664	 8.24885397289148E-02 
665	 0.082606356386832 
666	 8.27070844294732E-02 
667	 8.28031007562617E-02 
668	 8.28898165783779E-02 
669	 0.082991543022001 
670	 8.31053342221101E-02 
671	 8.32061928243964E-02 
672	 8.33077679477613E-02 
673	 8.34283078572774E-02 
674	 8.35724909988343E-02 
675	 8.37179428597783E-02 
676	 8.38234632707993E-02 
677	 8.39092829657605E-02 
678	 8.40186741122252E-02 
679	 8.41256340321978E-02 
680	 8.42652571334035E-02 
681	 8.44253787049849E-02 
682	 8.45273281679135E-02 
683	 8.46805672298654E-02 
684	 0.084836287608778 
685	 8.49415259494864E-02 
686	 8.50821093750521E-02 
687	 8.52410823530613E-02 
688	 8.53927080343357E-02 
689	 8.55101445023408E-02 
690	 8.56259296349683E-02 
691	 8.57594807784682E-02 
692	 8.59167494088466E-02 
693	 8.60847514164387E-02 
694	 8.62459526562761E-02 
695	 8.63921523553052E-02 
696	 8.65250093339035E-02 
697	 8.66682681199516E-02 
698	 8.68270092407948E-02 
699	 8.69866407987305E-02 
700	 8.71158077656057E-02 
701	 8.72637126499651E-02 
702	 8.74095390163199E-02 
703	 0.087537515490095 
704	 8.76883638182047E-02 
705	 8.78564333082425E-02 
706	 8.80101526087466E-02 
707	 8.81170612355654E-02 
708	 8.82590435926523E-02 
709	 0.088422495823951 
710	 8.85909583032067E-02 
711	 8.87612336490613E-02 
712	 0.088901936688192 
713	 8.90047821161512E-02 
714	 8.90932077933861E-02 
715	 8.92790592478568E-02 
716	 0.089442795027601 
717	 8.95517110590349E-02 
718	 8.96448072749875E-02 
719	 0.08975838157903 
720	 8.98920407614227E-02 
721	 9.00201200886237E-02 
722	 9.00745166679628E-02 
723	 9.01965040633851E-02 
724	 9.03569345321495E-02 
725	 9.04752694739121E-02 
726	 9.05429911471515E-02 
727	 0.090616296884424 
728	 9.07055316094122E-02 
729	 9.07759436206869E-02 
730	 9.08417410930844E-02 
731	 9.09185982097034E-02 
732	 9.10112237289211E-02 
733	 9.11022628406708E-02 
734	 9.11607311387189E-02 
735	 9.12015347048447E-02 
736	 9.12534125621772E-02 
737	 9.12904280077048E-02 
738	 0.091323430713178 
739	 9.13612156323632E-02 
740	 9.14065363585721E-02 
741	 9.14292452446153E-02 
742	 9.14337408416935E-02 
743	 9.14315894036722E-02 
744	 9.14317079280314E-02 
745	 9.14144818022394E-02 
746	 9.13999654519205E-02 
747	 9.14131277752239E-02 
748	 9.13671500050907E-02 
749	 9.13520037325847E-02 
750	 0.091370528783538 
751	 9.13053361574559E-02 
752	 9.12763640398759E-02 
753	 9.12537476877409E-02 
754	 9.11982099157971E-02 
755	 9.11431731444265E-02 
756	 9.11170082577667E-02 
757	 9.11072245800375E-02 
758	 0.091077222191562 
759	 9.09986852107931E-02 
760	 9.09048713967646E-02 
761	 9.08274524157784E-02 
762	 9.07861344346657E-02 
763	 9.07257295287266E-02 
764	 9.06402655379787E-02 
765	 9.05481343394823E-02 
766	 9.05033259470244E-02 
767	 9.04241214643374E-02 
768	 9.03256321703638E-02 
769	 9.02610812786692E-02 
770	 9.01701356597338E-02 
771	 9.00690528357078E-02 
772	 8.99709988919779E-02 
773	 8.98772840790686E-02 
774	 8.97966486601897E-02 
775	 8.97144952864375E-02 
776	 8.96181277678722E-02 
777	 8.95137484182866E-02 
778	 0.089409514254093 
779	 0.089311572413864 
780	 0.089223299304782 
781	 8.91408837436354E-02 
782	 8.90687910162677E-02 
783	 8.89883472230063E-02 
784	 8.88605450048654E-02 
785	 0.088746534316297 
786	 8.86506156220613E-02 
787	 8.85576368808212E-02 
788	 8.84305399171848E-02 
789	 8.83419466220127E-02 
790	 8.82622700488766E-02 
791	 8.81441285955827E-02 
792	 8.80714416318838E-02 
793	 8.79763641297316E-02 
794	 8.78573175575782E-02 
795	 8.77724471752157E-02 
796	 8.76906525857313E-02 
797	 0.08759890877751 
798	 8.74965777881302E-02 
799	 0.087399659349639 
800	 8.73155628100417E-02 
801	 8.72383081342869E-02 
802	 8.71537266113618E-02 
803	 0.08703331404572 
804	 8.69461532045492E-02 
805	 8.68869272090115E-02 
806	 8.68062201981921E-02 
807	 0.08673334466426 
808	 8.66463254826493E-02 
809	 8.65390632864546E-02 
810	 8.64328232467773E-02 
811	 8.63953436223381E-02 
812	 8.63547193838654E-02 
813	 8.62573633397265E-02 
814	 8.61902126486955E-02 
815	 8.61130059342211E-02 
816	 8.60194179764911E-02 
817	 8.59282660910602E-02 
818	 8.59161718556759E-02 
819	 8.58865182150111E-02 
820	 8.58041297857654E-02 
821	 8.57005691273677E-02 
822	 8.56191949552456E-02 
823	 8.55656796267505E-02 
824	 8.55274439226762E-02 
825	 8.54755567129349E-02 
826	 0.085424150399636 
827	 8.53653925975044E-02 
828	 8.53003472447952E-02 
829	 8.52771544772101E-02 
830	 8.52378826660492E-02 
831	 8.51822023887411E-02 
832	 8.51368188580697E-02 
833	 8.51009976517285E-02 
834	 8.50397932209871E-02 
835	 8.49730383180397E-02 
836	 8.49655780333673E-02 
837	 8.49406525167004E-02 
838	 0.084915737255438 
839	 8.48968471692756E-02 
840	 8.48448616719873E-02 
841	 8.47765587980309E-02 
842	 8.47497653684205E-02 
843	 8.47841834207253E-02 
844	 8.47430293248252E-02 
845	 8.47606494150064E-02 
846	 8.47755417168532E-02 
847	 8.46845547306962E-02 
848	 8.47061947690495E-02 
849	 0.084704799821828 
850	 8.46519756316502E-02 
851	 8.46245575857424E-02 
852	 8.45864669127778E-02 
853	 8.45802133014539E-02 
854	 8.46085724090689E-02 
855	 8.46052023182741E-02 
856	 8.46234871732666E-02 
857	 8.46667537929702E-02 
858	 8.47073018821969E-02 
859	 0.084665025580602 
860	 8.46535508588999E-02 
861	 8.46596616394567E-02 
862	 8.46416512549759E-02 
863	 8.46518202958494E-02 
864	 8.46541584427368E-02 
865	 8.46521766845134E-02 
866	 8.46730565145466E-02 
867	 8.47141857319428E-02 
868	 8.47659691634334E-02 
869	 8.47991580730696E-02 
870	 8.47776223262244E-02 
871	 8.48257486186147E-02 
872	 8.48615172568519E-02 
873	 8.48576414576751E-02 
874	 8.49281025566403E-02 
875	 8.49417986433951E-02 
876	 8.49492266797657E-02 
877	 8.49947112452288E-02 
878	 8.49775740306809E-02 
879	 8.50237113275611E-02 
880	 8.51132854299081E-02 
881	 8.51813505226163E-02 
882	 8.52125368937524E-02 
883	 8.52789529394864E-02 
884	 8.53386320655758E-02 
885	 8.53219657960195E-02 
886	 8.54141069788956E-02 
887	 8.54978266191884E-02 
888	 8.55213646780184E-02 
889	 8.55189490819095E-02 
890	 8.55798325586141E-02 
891	 8.56457300177586E-02 
892	 0.085698706686389 
893	 0.085790962027269 
894	 8.58139466082915E-02 
895	 8.58550202076454E-02 
896	 8.59577692816215E-02 
897	 8.60191051268623E-02 
898	 8.61115051173288E-02 
899	 8.61808637043765E-02 
900	 8.62010377795068E-02 
901	 8.63047420104987E-02 
902	 8.63998355997645E-02 
903	 8.64668117355245E-02 
904	 8.65294294075123E-02 
905	 8.66790754269135E-02 
906	 8.67537462758872E-02 
907	 8.67876979212587E-02 
908	 0.086890334414668 
909	 8.70082514719528E-02 
910	 8.71175320696161E-02 
911	 0.087227425225823 
912	 8.73533924909394E-02 
913	 8.73893934766152E-02 
914	 0.087468477726761 
915	 8.76014461320835E-02 
916	 8.76783570120747E-02 
917	 8.77005452204204E-02 
918	 8.77788694190653E-02 
919	 8.79413245356509E-02 
920	 8.81006721420961E-02 
921	 0.088192942572167 
922	 0.088241194701874 
923	 8.83162395145701E-02 
924	 8.85167523649685E-02 
925	 8.86282220361699E-02 
926	 8.87462936620533E-02 
927	 8.89173286567279E-02 
928	 8.89751758148873E-02 
929	 8.91430478921803E-02 
930	 8.93221708069796E-02 
931	 8.94070524689163E-02 
932	 8.94680764177886E-02 
933	 8.96308126801132E-02 
934	 8.97631966038516E-02 
935	 8.97811441868003E-02 
936	 8.99752789151364E-02 
937	 9.01228291727801E-02 
938	 9.01965083822591E-02 
939	 9.02726442668939E-02 
940	 9.05362137110588E-02 
941	 9.07310998965221E-02 
942	 9.08698084673959E-02 
943	 9.10392386144477E-02 
944	 9.11441696221319E-02 
945	 9.12331688997954E-02 
946	 9.13308617338117E-02 
947	 9.14471271899986E-02 
948	 9.15884081250227E-02 
949	 9.17333502474953E-02 
950	 0.091871194744809 
951	 9.20065098926913E-02 
952	 0.092177762985986 
953	 9.23591490136783E-02 
954	 9.25059308655353E-02 
955	 9.25995473631945E-02 
956	 9.27894557290793E-02 
957	 9.29725833706929E-02 
958	 9.30972773823191E-02 
959	 9.31777996236682E-02 
960	 9.33237571968612E-02 
961	 9.35276315938538E-02 
962	 9.37272300251723E-02 
963	 9.38449235226805E-02 
964	 9.38849170195253E-02 
965	 0.093994982190719 
966	 9.41404094833063E-02 
967	 9.42196142933069E-02 
968	 9.45695443838974E-02 
969	 9.48405615785381E-02 
970	 9.49170642281861E-02 
971	 0.094923861366357 
972	 9.51118609110724E-02 
973	 9.52916914083742E-02 
974	 9.53792915534466E-02 
975	 9.54267059832815E-02 
976	 9.56592577061716E-02 
977	 9.58331922972988E-02 
978	 9.58922799225633E-02 
979	 9.59542610394068E-02 
980	 9.61992014966721E-02 
981	 9.64246071393882E-02 
982	 9.65798737423616E-02 
983	 9.67262079613533E-02 
984	 9.68557608510723E-02 
985	 9.69694598060775E-02 
986	 9.71158161683251E-02 
987	 9.73265722079605E-02 
988	 9.74345840014794E-02 
989	 9.75376095742183E-02 
990	 9.76295413125303E-02 
991	 9.76898669498699E-02 
992	 9.79216007181384E-02 
993	 9.80324158699883E-02 
994	 9.80884259639638E-02 
995	 0.098237266566027 
996	 9.81894277675817E-02 
997	 9.82949654440404E-02 
998	 0.098533286005008 
999	 9.87483865133751E-02 
1000	 9.89249053416116E-02 
1001	 0.097509029978095 
1002	 9.76090413105977E-02 
1003	 9.77521975717675E-02 
1004	 9.78682921612315E-02 
1005	 9.79498433073843E-02 
1006	 9.80428524723806E-02 
1007	 9.81541020119587E-02 
1008	 0.098229439170803 
1009	 9.82800330431639E-02 
1010	 9.83351549395306E-02 
1011	 9.83562093054643E-02 
1012	 9.83789429392918E-02 
1013	 9.84455892262286E-02 
1014	 9.85074245403852E-02 
1015	 0.098612018669269 
1016	 9.87534594192797E-02 
1017	 9.88557984642432E-02 
1018	 9.89417951741399E-02 
1019	 9.90462692664029E-02 
1020	 9.91625045452177E-02 
1021	 9.92183915519804E-02 
1022	 9.92586624028244E-02 
1023	 9.93275916882998E-02 
1024	 9.93861362613628E-02 
1025	 9.94748478926083E-02 
1026	 9.96007410592287E-02 
1027	 9.96726145010354E-02 
1028	 9.97047224429442E-02 
1029	 9.96782996919433E-02 
1030	 9.96537193537501E-02 
1031	 9.96984497274482E-02 
1032	 9.97915806720807E-02 
1033	 9.98607508194766E-02 
1034	 9.99571837518046E-02 
1035	 0.100065535158202 
1036	 0.100072467238185 
1037	 0.100070870958341 
1038	 0.100059213493685 
1039	 0.100066283695279 
1040	 0.100103280166226 
1041	 0.100127428903231 
1042	 0.100212181633254 
1043	 0.10027929399712 
1044	 0.100327691464063 
1045	 0.100365255884023 
1046	 0.10040932195085 
1047	 0.1004268587891 
1048	 0.100474907258835 
1049	 0.100530111089289 
1050	 0.100610081820147 
1051	 0.100682678368741 
1052	 0.100697042379414 
1053	 0.100762782123634 
1054	 0.100843935498991 
1055	 0.1008643405557 
1056	 0.100907480464867 
1057	 0.100959845025829 
1058	 0.100990645999957 
1059	 0.101030023867167 
1060	 0.101094136596644 
1061	 0.101135131582796 
1062	 0.101221424128934 
1063	 0.10129604168856 
1064	 0.101400846370993 
1065	 0.101541713229459 
1066	 0.101599137999946 
1067	 0.101602178549625 
1068	 0.101563004148817 
1069	 0.101548136947463 
1070	 0.10157734070918 
1071	 0.101632141114599 
1072	 0.101696505496281 
1073	 0.101809658890131 
1074	 0.101894052082103 
1075	 0.101977684168441 
1076	 0.102064090660605 
1077	 0.102101629379769 
1078	 0.102126977807324 
1079	 0.102142872034541 
1080	 0.102172878498132 
1081	 0.10225919524401 
1082	 0.102343394067206 
1083	 0.102412681147398 
1084	 0.102498463380328 
1085	 0.102544429791279 
1086	 0.102560067745212 
1087	 0.102585016442746 
1088	 0.10259392375817 
1089	 0.102605051020199 
1090	 0.102653403781381 
1091	 0.102746747216958 
1092	 0.102828054091052 
1093	 0.102869059775841 
1094	 0.102907722086781 
1095	 0.102913908654678 
1096	 0.102949030976995 
1097	 0.103054120376899 
1098	 0.103096144024935 
1099	 0.103097931335418 
1100	 0.103138480940388 
1101	 0.10317894663076 
1102	 0.103205684617012 
1103	 0.103249192266893 
1104	 0.103304089498091 
1105	 0.103293754965578 
1106	 0.103276155944532 
1107	 0.103300572544605 
1108	 0.103351569318331 
1109	 0.103391913775872 
1110	 0.103419117703098 
1111	 0.103430231875891 
1112	 0.103403579903482 
1113	 0.103396367554436 
1114	 0.103371789731281 
1115	 0.103388035887717 
1116	 0.103433653596465 
1117	 0.103463627417478 
1118	 0.10350296670961 
1119	 0.103562719827584 
1120	 0.103595376127504 
1121	 0.103605772857625 
1122	 0.103602406329361 
1123	 0.103604615079551 
1124	 0.103604076941649 
1125	 0.103570480291176 
1126	 0.103587753962656 
1127	 0.103652567220426 
1128	 0.103669672498126 
1129	 0.10367237732864 
1130	 0.103699457419954 
1131	 0.103713887869024 
1132	 0.103730277902862 
1133	 0.103790056088177 
1134	 0.103816016184386 
1135	 0.103815029715071 
1136	 0.103808408270509 
1137	 0.103795949740705 
1138	 0.103790107855818 
1139	 0.103804216333975 
1140	 0.103837084672732 
1141	 0.103853062780409 
1142	 0.103885486451445 
1143	 0.103890763281559 
1144	 0.103859643191983 
1145	 0.103860991430685 
1146	 0.103874122336239 
1147	 0.103881571044463 
1148	 0.10389682744112 
1149	 0.103912374861326 
1150	 0.103927558164007 
1151	 0.103934613987809 
1152	 0.103941454803082 
1153	 0.10396432436843 
1154	 0.103978112422519 
1155	 0.103983851822736 
1156	 0.10399338317409 
1157	 0.104009760879923 
1158	 0.104016861758977 
1159	 0.104006917944129 
1160	 0.104024456036571 
1161	 0.104062467734293 
1162	 0.104080037459472 
1163	 0.104104292125055 
1164	 0.104119136001768 
1165	 0.104115395723378 
1166	 0.104116783487653 
1167	 0.104096336059795 
1168	 0.104103008312489 
1169	 0.104120047595367 
1170	 0.10414904876946 
1171	 0.104153255483963 
1172	 0.104161415089252 
1173	 0.104178745063246 
1174	 0.104172880606675 
1175	 0.104186946201658 
1176	 0.104237210598654 
1177	 0.104265979863014 
1178	 0.104283612136799 
1179	 0.104302109174098 
1180	 0.104314273265925 
1181	 0.104333063846578 
1182	 0.104361918782509 
1183	 0.104368382377365 
1184	 0.104389104306305 
1185	 0.104425453862581 
1186	 0.104440860702839 
1187	 0.104442609932637 
1188	 0.104456818624328 
1189	 0.104464331861383 
1190	 0.104480263854095 
1191	 0.104512894084094 
1192	 0.104530699993531 
1193	 0.104531895732426 
1194	 0.104554514161644 
1195	 0.104591647171376 
1196	 0.104614394948364 
1197	 0.104637162522563 
1198	 0.104666721659542 
1199	 0.104695438723293 
1200	 0.104715681112988 
1201	 0.104734783694425 
1202	 0.104761365066271 
1203	 0.104784450933299 
1204	 0.104790112179438 
1205	 0.104814279469312 
1206	 0.104858611112183 
1207	 0.104887878455617 
1208	 0.10491932254226 
1209	 0.104939261642961 
1210	 0.104942066272766 
1211	 0.104958014442538 
1212	 0.104980417646559 
1213	 0.104992185183314 
1214	 0.104994618452511 
1215	 0.105012057068992 
1216	 0.105032699697934 
1217	 0.105048034110919 
1218	 0.105068719938936 
1219	 0.105109212411398 
1220	 0.10513054992926 
1221	 0.105136623864595 
1222	 0.105152175843411 
1223	 0.105168654395866 
1224	 0.105186402654428 
1225	 0.105215329852026 
1226	 0.105224862333296 
1227	 0.105218818104979 
1228	 0.105224104931839 
1229	 0.105226263503658 
1230	 0.105225022763867 
1231	 0.105230416266926 
1232	 0.1052336369367 
1233	 0.105233272902266 
1234	 0.105218107980209 
1235	 0.105221668932343 
1236	 0.10523334817338 
1237	 0.105247224965923 
1238	 0.105272737132602 
1239	 0.10528513199064 
1240	 0.105293334588052 
1241	 0.105306506074704 
1242	 0.105324298771909 
1243	 0.105326160240805 
1244	 0.105318397618264 
1245	 0.105319236091116 
1246	 0.105302474565476 
1247	 0.105302806612541 
1248	 0.105329454366447 
1249	 0.105344314702157 
1250	 0.105355643660775 
1251	 0.105356098996883 
1252	 0.105362755048626 
1253	 0.105365865607246 
1254	 0.105366893924893 
1255	 0.105376169342227 
1256	 0.105368218284233 
1257	 0.105333732900922 
1258	 0.105329379767078 
1259	 0.10534223088084 
1260	 0.105334854664463 
1261	 0.105328752316421 
1262	 0.105326963836863 
1263	 0.10530947324492 
1264	 0.105298871506473 
1265	 0.10530371345262 
1266	 0.105305032911944 
1267	 0.105295394789854 
1268	 0.105301613276261 
1269	 0.105290925828177 
1270	 0.105276405896419 
1271	 0.105270363531928 
1272	 0.105249209440071 
1273	 0.105252050373515 
1274	 0.105283395735706 
1275	 0.105295614368706 
1276	 0.105305273904325 
1277	 0.105316153998887 
1278	 0.105317180633372 
1279	 0.105329796530503 
1280	 0.105347835877982 
1281	 0.105374292696361 
1282	 0.105409112663157 
1283	 0.10544325812668 
1284	 0.105483781782662 
1285	 0.105527329371995 
1286	 0.105564896744562 
1287	 0.105604437056753 
1288	 0.105643984415588 
1289	 0.105681590221618 
1290	 0.105725131133896 
1291	 0.105775672660278 
1292	 0.105819420689119 
1293	 0.105860601257483 
1294	 0.105905948648762 
1295	 0.105952612712778 
1296	 0.105992782474295 
1297	 0.106041152381435 
1298	 0.106075630839899 
1299	 0.106091340453116 
1300	 0.106115144981397 
1301	 0.10613303566002 
1302	 0.106157096523725 
1303	 0.106184499806015 
1304	 0.106216099337851 
1305	 0.106252176940398 
1306	 0.10629514763047 
1307	 0.106312977989939 
1308	 0.10633580263748 
1309	 0.106352378967675 
1310	 0.10635024149322 
1311	 0.106364068396425 
1312	 0.106383941330956 
1313	 0.106404576395129 
1314	 0.106431825766751 
1315	 0.106452045672767 
1316	 0.106480276688544 
1317	 0.106493157282267 
1318	 0.106486567574119 
1319	 0.106494270284021 
1320	 0.106507944380255 
1321	 0.106509356433982 
1322	 0.10651592178883 
1323	 0.106511976498012 
1324	 0.106482750905762 
1325	 0.106460737605908 
1326	 0.106455523129815 
1327	 0.106453640901906 
1328	 0.106457116497618 
1329	 0.106464500530111 
1330	 0.106466784966677 
1331	 0.106468692031623 
1332	 0.106457127787934 
1333	 0.10644054629495 
1334	 0.10642362938673 
1335	 0.106386451147368 
1336	 0.106369743568448 
1337	 0.106373184315154 
1338	 0.106355366959224 
1339	 0.106336828891 
1340	 0.106314678250068 
1341	 0.10627544356347 
1342	 0.106246435096026 
1343	 0.106225401950264 
1344	 0.106193533879031 
1345	 0.106172864006505 
1346	 0.106155945194089 
1347	 0.106132176440994 
1348	 0.106110736275031 
1349	 0.106085190421845 
1350	 0.106057643114325 
1351	 0.106036128904269 
1352	 0.106020479587613 
1353	 0.106001161510358 
1354	 0.105986646434654 
1355	 0.105963549735107 
1356	 0.105934577952535 
1357	 0.105907859596194 
1358	 0.105872258291433 
1359	 0.105845232566668 
1360	 0.105824061677026 
1361	 0.105806140049356 
1362	 0.105792608810295 
1363	 0.105780988370906 
1364	 0.105777396844723 
1365	 0.105762446327748 
1366	 0.105741220922841 
1367	 0.105727325968735 
1368	 0.10570558680166 
1369	 0.105678217910516 
1370	 0.105650758540697 
1371	 0.105617297923928 
1372	 0.105572647827413 
1373	 0.105533699227556 
1374	 0.105493172670221 
1375	 0.105448755586164 
1376	 0.105410490614746 
1377	 0.105375274107139 
1378	 0.105340977028166 
1379	 0.105309214734911 
1380	 0.105278277439303 
1381	 0.105255574774798 
1382	 0.10521616099042 
1383	 0.105175684713866 
1384	 0.105125534742673 
1385	 0.105058356945915 
1386	 0.104996532746044 
1387	 0.104929948764065 
1388	 0.104867452998921 
1389	 0.104810804121903 
1390	 0.104742905345692 
1391	 0.104677204775449 
1392	 0.104611220086189 
1393	 0.104551760187799 
1394	 0.104485076569033 
1395	 0.104406178108079 
1396	 0.104327055513154 
1397	 0.104235313969128 
1398	 0.104128281920994 
1399	 0.104021417564496 
1400	 0.103905484860851 
1401	 0.103793711968621 
1402	 0.10367536546043 
1403	 0.103563281412025 
1404	 0.103454523036328 
1405	 0.103351260018686 
1406	 0.103250219920547 
1407	 0.103152171165881 
1408	 0.103058413632941 
1409	 0.102969207135383 
1410	 0.102885100253886 
1411	 0.102799400937868 
1412	 0.102708439834215 
1413	 0.102636905738739 
1414	 0.102571340673403 
1415	 0.102495472649944 
1416	 0.102452328047316 
1417	 0.102423546808745 
1418	 0.102387887192914 
1419	 0.102363588852964 
1420	 0.102334133200554 
1421	 0.102300301521616 
1422	 0.102274200570744 
1423	 0.102259424699635 
1424	 0.102239015271781 
1425	 0.102216488249383 
1426	 0.102203951086927 
1427	 0.102201090809094 
1428	 0.102180473204099 
1429	 0.102156813016861 
1430	 0.102140759751799 
1431	 0.102107136292563 
1432	 0.102094731655631 
1433	 0.102106871673433 
1434	 0.102106007152845 
1435	 0.102098794264069 
1436	 0.10210619913133 
1437	 0.102122054246026 
1438	 0.102136283892854 
1439	 0.102164798011315 
1440	 0.102176697030434 
1441	 0.10218629018424 
1442	 0.102187339423296 
1443	 0.102181372627912 
1444	 0.1021874866362 
1445	 0.102189494973035 
1446	 0.102195193334159 
1447	 0.102226173114686 
1448	 0.102243615490878 
1449	 0.102255023890701 
1450	 0.102283580035613 
1451	 0.102298056580902 
1452	 0.102299789340107 
1453	 0.102310869822373 
1454	 0.102322014982259 
1455	 0.102333560829836 
1456	 0.10234644734784 
1457	 0.102360612061536 
1458	 0.102374315971835 
1459	 0.102392969672282 
1460	 0.102417047456319 
1461	 0.102435722811796 
1462	 0.10246169376457 
1463	 0.102476942561219 
1464	 0.102476143607344 
1465	 0.10248875329345 
1466	 0.102498839601154 
1467	 0.102516180451542 
1468	 0.102548189776846 
1469	 0.102572146111752 
1470	 0.102589764816338 
1471	 0.102619177354325 
1472	 0.102645993843025 
1473	 0.102685814262102 
1474	 0.102729583055848 
1475	 0.102763142539863 
1476	 0.102807455399738 
1477	 0.102840147681767 
1478	 0.102857631440254 
1479	 0.102883988589924 
1480	 0.102897873866414 
1481	 0.10290507017295 
1482	 0.102931680183223 
1483	 0.1029764594788 
1484	 0.103009412135918 
1485	 0.103046155661382 
1486	 0.103080381860311 
1487	 0.103111021237694 
1488	 0.103139365524214 
1489	 0.103166326890845 
1490	 0.103196763408127 
1491	 0.10321961012446 
1492	 0.103252981034688 
1493	 0.103303799040313 
1494	 0.103341078067827 
1495	 0.103377493726071 
1496	 0.103407468522779 
1497	 0.103421758311101 
1498	 0.103445153849941 
1499	 0.103469165038764 
1500	 0.103501267503849 
1501	 0.103544708554501 
1502	 0.103578384886922 
1503	 0.103616127756221 
1504	 0.103641596091384 
1505	 0.103658504586188 
1506	 0.103683114608032 
1507	 0.103711761189159 
1508	 0.103735708142627 
1509	 0.103757756021283 
1510	 0.103788896184578 
1511	 0.10381300142843 
1512	 0.103840602321004 
1513	 0.103860410407201 
1514	 0.103865279040349 
1515	 0.103882980921045 
1516	 0.103904032469723 
1517	 0.103922353758888 
1518	 0.103951649141194 
1519	 0.103969500265561 
1520	 0.103969856340007 
1521	 0.103991683596666 
1522	 0.104026090969813 
1523	 0.104051328852325 
1524	 0.104087412030742 
1525	 0.104105485626803 
1526	 0.104100095971857 
1527	 0.10411852145584 
1528	 0.1041458498786 
1529	 0.104165792143542 
1530	 0.104192871527677 
1531	 0.104218550711176 
1532	 0.104237984814744 
1533	 0.104257079498274 
1534	 0.104290621888961 
1535	 0.104301313064462 
1536	 0.104284031243929 
1537	 0.104287907591364 
1538	 0.104293857601984 
1539	 0.104299676893179 
1540	 0.10431771565346 
1541	 0.1043294425369 
1542	 0.104327042294312 
1543	 0.104336177102043 
1544	 0.104353013695454 
1545	 0.104373974236211 
1546	 0.104406672630652 
1547	 0.10443179597127 
1548	 0.104449835017888 
1549	 0.104464025530295 
1550	 0.104462209802789 
1551	 0.104474152760838 
1552	 0.104499162447464 
1553	 0.10451744738431 
1554	 0.104552799564926 
1555	 0.104585652360911 
1556	 0.104580027702751 
1557	 0.104578896573766 
1558	 0.104601099705693 
1559	 0.104597739974346 
1560	 0.104610173549768 
1561	 0.104655870493943 
1562	 0.104667851049589 
1563	 0.104654054063289 
1564	 0.104658960734827 
1565	 0.104660398123542 
1566	 0.104670008334501 
1567	 0.1046908538695 
1568	 0.104703886027536 
1569	 0.104722329393209 
1570	 0.104727761122334 
1571	 0.104720207098015 
1572	 0.104720196490766 
1573	 0.104714382541789 
1574	 0.104719394514546 
1575	 0.104733966410333 
1576	 0.104743291840925 
1577	 0.104755749167981 
1578	 0.104765111840974 
1579	 0.104772481406544 
1580	 0.104778784554418 
1581	 0.104785327313562 
1582	 0.104789672883047 
1583	 0.104786690521037 
1584	 0.104791588703122 
1585	 0.104797990781427 
1586	 0.104805379878675 
1587	 0.104820731332187 
1588	 0.10483191414414 
1589	 0.104844554386068 
1590	 0.104850205527416 
1591	 0.104843417695575 
1592	 0.10485167870559 
1593	 0.104865348041156 
1594	 0.104878172220081 
1595	 0.104901100241695 
1596	 0.104918103110835 
1597	 0.104934823008862 
1598	 0.104941700533093 
1599	 0.104945558097865 
1600	 0.104947044020644 
1601	 0.104935813611154 
1602	 0.104927048608762 
1603	 0.104913496075968 
1604	 0.104909686545697 
1605	 0.104916140314998 
1606	 0.104912886542151 
1607	 0.104909361387523 
1608	 0.104911356951083 
1609	 0.104894532844211 
1610	 0.104869602336833 
1611	 0.104852670261912 
1612	 0.104828746302963 
1613	 0.104828744069552 
1614	 0.104839178774901 
1615	 0.10485140388412 
1616	 0.104876243651792 
1617	 0.104876960550199 
1618	 0.104862070403199 
1619	 0.104844036088398 
1620	 0.104823963271609 
1621	 0.104825943491259 
1622	 0.104841802224358 
1623	 0.104847797873835 
1624	 0.104862000180669 
1625	 0.104875237441432 
1626	 0.10488511860339 
1627	 0.104887736276293 
1628	 0.104893207498308 
1629	 0.104900773023944 
1630	 0.104894356848908 
1631	 0.104902649642906 
1632	 0.104929516727457 
1633	 0.104940631091405 
1634	 0.104944864604545 
1635	 0.10495192931251 
1636	 0.104959064964815 
1637	 0.104962893102316 
1638	 0.104972181771232 
1639	 0.104959886590429 
1640	 0.104924117761687 
1641	 0.104919305693971 
1642	 0.104917058821136 
1643	 0.104912659591466 
1644	 0.104933403196432 
1645	 0.104927863713841 
1646	 0.104893494025245 
1647	 0.104885532179737 
1648	 0.104884408206507 
1649	 0.10488597809553 
1650	 0.104903057001078 
1651	 0.104902041438851 
1652	 0.104898543395577 
1653	 0.104885488333663 
1654	 0.104854233916335 
1655	 0.104839509178971 
1656	 0.104822275462156 
1657	 0.104816497802421 
1658	 0.104827678259224 
1659	 0.104826529299085 
1660	 0.104824775890466 
1661	 0.104822788020807 
1662	 0.104819487837037 
1663	 0.10481036579716 
1664	 0.104792382586129 
1665	 0.104790800465438 
1666	 0.104789558433013 
1667	 0.104794174233579 
1668	 0.104827348134609 
1669	 0.104825610646865 
1670	 0.104800382592499 
1671	 0.104789983512503 
1672	 0.104764221735901 
1673	 0.104758502105028 
1674	 0.104782055520957 
1675	 0.104775656238849 
1676	 0.104757080916358 
1677	 0.104745446397742 
1678	 0.104716433757319 
1679	 0.104707490806697 
1680	 0.104710900221262 
1681	 0.104720492484101 
1682	 0.104745715503615 
1683	 0.104755836233404 
1684	 0.10478005809887 
1685	 0.104773904733183 
1686	 0.104738285315747 
1687	 0.104715395026676 
1688	 0.104664976356034 
1689	 0.104658664911392 
1690	 0.104686387186459 
1691	 0.104694011797426 
1692	 0.104724931072591 
1693	 0.104728375308508 
1694	 0.104708073623106 
1695	 0.104689195459366 
1696	 0.104656297636543 
1697	 0.104638817203155 
1698	 0.104618236609163 
1699	 0.10460681971398 
1700	 0.104605933587715 
1701	 0.104613513801884 
1702	 0.104633931943395 
1703	 0.104642308775029 
1704	 0.104664825802726 
1705	 0.104660585795809 
1706	 0.104631781766992 
1707	 0.104611896757338 
1708	 0.104581094519651 
1709	 0.104560761181643 
1710	 0.1045344900557 
1711	 0.104530565553065 
1712	 0.104552086016771 
1713	 0.104550217527026 
1714	 0.104558087109728 
1715	 0.104548026681199 
1716	 0.10450405624704 
1717	 0.104490703570587 
1718	 0.104496057263571 
1719	 0.104482222272856 
1720	 0.104464752940361 
1721	 0.104455267337701 
1722	 0.104439140476125 
1723	 0.104423818403634 
1724	 0.104430768506004 
1725	 0.104410283165793 
1726	 0.104359474584114 
1727	 0.10433013046375 
1728	 0.104290322354762 
1729	 0.104277812313643 
1730	 0.104299477994377 
1731	 0.104288994074021 
1732	 0.104284448363054 
1733	 0.10426515861093 
1734	 0.104205617741969 
1735	 0.104189862416889 
1736	 0.10420157689082 
1737	 0.104183864315781 
1738	 0.104171565683038 
1739	 0.104153468525326 
1740	 0.104113095396596 
1741	 0.104085701253777 
1742	 0.104071330829349 
1743	 0.104042707415414 
1744	 0.10399771853928 
1745	 0.103985019442308 
1746	 0.103987788336396 
1747	 0.103987226297469 
1748	 0.103966338155198 
1749	 0.103941540347302 
1750	 0.103928103840809 
1751	 0.103911249774994 
1752	 0.103923110885022 
1753	 0.10388110516173 
1754	 0.103816320467084 
1755	 0.103778450850021 
1756	 0.103722542382703 
1757	 0.103728816724262 
1758	 0.103735341732146 
1759	 0.103705770274632 
1760	 0.103685172543024 
1761	 0.103621805221282 
1762	 0.103561620841036 
1763	 0.103535456376374 
1764	 0.10351939326448 
1765	 0.103508000365132 
1766	 0.103499600706299 
1767	 0.103489075849813 
1768	 0.103454318163578 
1769	 0.103424016309611 
1770	 0.103400261211449 
1771	 0.103380703091925 
1772	 0.10338899190589 
1773	 0.103379961527332 
1774	 0.103348794777423 
1775	 0.103320284858099 
1776	 0.103265642012946 
1777	 0.103220895757779 
1778	 0.103219857694461 
1779	 0.103213564294216 
1780	 0.103205495242877 
1781	 0.103185021017703 
1782	 0.103163698838906 
1783	 0.103161981779493 
1784	 0.103135536768782 
1785	 0.103116641031072 
1786	 0.103100034089296 
1787	 0.103063415459843 
1788	 0.103024820483179 
1789	 0.102974460362699 
1790	 0.102951123133846 
1791	 0.102942472462602 
1792	 0.102930064196137 
1793	 0.102946351374647 
1794	 0.102939456183238 
1795	 0.102895530783882 
1796	 0.102873004897154 
1797	 0.102861405832643 
1798	 0.102871933972951 
1799	 0.102899624968473 
1800	 0.102913972229852 
1801	 9.87592066365626E-02 
1802	 9.88057640898525E-02 
1803	 9.88691097526284E-02 
1804	 0.09891569039842 
1805	 9.89455582738314E-02 
1806	 9.89682339657019E-02 
1807	 9.89808304106163E-02 
1808	 9.90031020677512E-02 
1809	 9.90451999529597E-02 
1810	 9.90696731331216E-02 
1811	 9.90774031846142E-02 
1812	 9.90976344060979E-02 
1813	 9.91337669021472E-02 
1814	 9.91612170319735E-02 
1815	 9.92165541139607E-02 
1816	 0.099268113143832 
1817	 9.92888306438826E-02 
1818	 9.92932653104709E-02 
1819	 9.93039601815167E-02 
1820	 0.099296954443051 
1821	 9.92805111521961E-02 
1822	 9.93016217036783E-02 
1823	 9.93110288934104E-02 
1824	 9.93207249632611E-02 
1825	 9.93344401658115E-02 
1826	 9.93347607278552E-02 
1827	 9.93434268130355E-02 
1828	 9.93566258502417E-02 
1829	 9.93755715955005E-02 
1830	 0.099390481765545 
1831	 9.94152984007774E-02 
1832	 9.94264238623605E-02 
1833	 9.94224394741289E-02 
1834	 9.94114700887096E-02 
1835	 9.94125960429152E-02 
1836	 9.94096614820873E-02 
1837	 9.94075587629914E-02 
1838	 9.94257739236925E-02 
1839	 9.94271656452601E-02 
1840	 9.94211025627014E-02 
1841	 0.099408209468593 
1842	 9.93992084946704E-02 
1843	 9.93791027672734E-02 
1844	 9.93769441540583E-02 
1845	 9.93879397058735E-02 
1846	 9.93970221831631E-02 
1847	 9.93991042485478E-02 
1848	 9.93835081138505E-02 
1849	 9.93756673538934E-02 
1850	 9.93684928166024E-02 
1851	 0.099362834272298 
1852	 9.93528817648413E-02 
1853	 9.93449712025593E-02 
1854	 9.93233899641919E-02 
1855	 9.92998772567572E-02 
1856	 9.92866696822306E-02 
1857	 9.92670043234332E-02 
1858	 9.92533789360796E-02 
1859	 0.099230880088595 
1860	 0.099183492974141 
1861	 9.91137103890237E-02 
1862	 0.099044501540513 
1863	 9.89630324315851E-02 
1864	 9.88844866373785E-02 
1865	 9.88260073844716E-02 
1866	 9.87634772787492E-02 
1867	 9.87061945637843E-02 
1868	 9.86676858432463E-02 
1869	 9.86276791843019E-02 
1870	 9.85587326517781E-02 
1871	 9.84645795280652E-02 
1872	 9.83519860106754E-02 
1873	 0.098205009544214 
1874	 9.80432629049833E-02 
1875	 0.097889483716561 
1876	 9.77445507217284E-02 
1877	 9.75952333319853E-02 
1878	 9.74272588399605E-02 
1879	 9.72633042794736E-02 
1880	 9.70760895487646E-02 
1881	 9.68776336512965E-02 
1882	 0.096656711511888 
1883	 9.64230622871957E-02 
1884	 9.61419226044393E-02 
1885	 9.58669057609281E-02 
1886	 9.55935715759935E-02 
1887	 9.52915526099508E-02 
1888	 9.49991265622532E-02 
1889	 9.46880337383632E-02 
1890	 9.43449801323461E-02 
1891	 9.39888940438563E-02 
1892	 9.36014485875888E-02 
1893	 9.32218613807296E-02 
1894	 9.28320764615091E-02 
1895	 9.24354206393022E-02 
1896	 0.092029762809393 
1897	 9.16600386847079E-02 
1898	 9.12703747119762E-02 
1899	 0.090853133791782 
1900	 9.04741242437759E-02 
1901	 9.01061730873239E-02 
1902	 0.089751124300882 
1903	 8.94337214520642E-02 
1904	 8.91063617888604E-02 
1905	 8.87852565846354E-02 
1906	 8.84492007019507E-02 
1907	 0.088138604800452 
1908	 8.78411775972587E-02 
1909	 8.75661251366337E-02 
1910	 8.73041809911626E-02 
1911	 8.70513422934637E-02 
1912	 8.68174813753117E-02 
1913	 8.66031651907784E-02 
1914	 8.64210304726965E-02 
1915	 8.62334105126057E-02 
1916	 8.60512575327347E-02 
1917	 8.58905892976475E-02 
1918	 8.57351604600331E-02 
1919	 8.55725952942378E-02 
1920	 8.54577862144883E-02 
1921	 8.53364208542823E-02 
1922	 8.52190418957934E-02 
1923	 8.51400350226287E-02 
1924	 8.50508067978174E-02 
1925	 8.49611604972116E-02 
1926	 0.084887177862015 
1927	 8.48200116227989E-02 
1928	 8.47563133317106E-02 
1929	 8.47244430625645E-02 
1930	 0.084693479801312 
1931	 8.46592943402703E-02 
1932	 8.46433224337657E-02 
1933	 8.46322287292033E-02 
1934	 8.46483497612789E-02 
1935	 8.46540764829273E-02 
1936	 8.46691603644115E-02 
1937	 8.46848240526018E-02 
1938	 8.46899150757197E-02 
1939	 8.47053768908689E-02 
1940	 8.47339983116941E-02 
1941	 8.47703854353654E-02 
1942	 8.47920707936155E-02 
1943	 8.48344874045109E-02 
1944	 8.48628907431966E-02 
1945	 8.49011055883064E-02 
1946	 8.49456169907722E-02 
1947	 8.49920343127039E-02 
1948	 8.50384321827893E-02 
1949	 8.50997199088396E-02 
1950	 8.51527206965724E-02 
1951	 8.51927426608322E-02 
1952	 8.52494627822734E-02 
1953	 8.53229552082704E-02 
1954	 8.53918136248143E-02 
1955	 8.54858478437609E-02 
1956	 8.55836915811629E-02 
1957	 8.56717662461066E-02 
1958	 8.57588566848284E-02 
1959	 8.58487175775805E-02 
1960	 8.59361919537104E-02 
1961	 8.60223688175784E-02 
1962	 8.61034202694788E-02 
1963	 8.61924196559389E-02 
1964	 8.62771573929822E-02 
1965	 8.63680853709316E-02 
1966	 8.64896601969523E-02 
1967	 8.66138473454164E-02 
1968	 8.67257546392048E-02 
1969	 8.68433558135137E-02 
1970	 8.69508284609211E-02 
1971	 8.70346007937185E-02 
1972	 8.71435535210358E-02 
1973	 8.72648557301685E-02 
1974	 8.73825943710187E-02 
1975	 0.087507236027627 
1976	 8.76358961701002E-02 
1977	 8.77607359484311E-02 
1978	 8.78669062185511E-02 
1979	 8.79909707634614E-02 
1980	 8.81187406456632E-02 
1981	 8.82426085932448E-02 
1982	 8.83773082534548E-02 
1983	 8.84976662150935E-02 
1984	 8.86044985376095E-02 
1985	 8.87138712353475E-02 
1986	 8.88130497297846E-02 
1987	 8.89198700030748E-02 
1988	 8.90123095574664E-02 
1989	 8.91432092936532E-02 
1990	 8.92896932047904E-02 
1991	 8.94172043833821E-02 
1992	 8.95536085428309E-02 
1993	 0.089710648021118 
1994	 0.089841971191401 
1995	 8.99630508883372E-02 
1996	 9.00791823567068E-02 
1997	 9.01809631778898E-02 
1998	 0.090287411880028 
1999	 9.03809975329368E-02 
2000	 9.04892186162877E-02 
2001	 9.06102946624302E-02 
2002	 9.07233754511189E-02 
2003	 9.08404408228789E-02 
2004	 9.09656089990822E-02 
2005	 0.09108436114263 
2006	 9.11987157246746E-02 
2007	 9.13180948921641E-02 
2008	 9.14452864693514E-02 
2009	 9.15572366160713E-02 
2010	 9.16625822881138E-02 
2011	 9.17682995624576E-02 
2012	 9.18643685919683E-02 
2013	 0.091962177091723 
2014	 9.20527624213378E-02 
2015	 9.21607739147409E-02 
2016	 9.22577452178289E-02 
2017	 9.23588105523209E-02 
2018	 9.24784416385152E-02 
2019	 9.26203443371742E-02 
2020	 9.27447398455385E-02 
2021	 9.28900900926527E-02 
2022	 9.29997326151096E-02 
2023	 9.30780978070242E-02 
2024	 9.31686769661099E-02 
2025	 9.32408428829998E-02 
2026	 9.33278647413904E-02 
2027	 9.34353215821755E-02 
2028	 0.093525030572989 
2029	 9.36156830281017E-02 
2030	 0.09370781099669 
2031	 9.37950620507612E-02 
2032	 9.38728492908695E-02 
2033	 9.39581419794893E-02 
2034	 9.40409924846617E-02 
2035	 9.41302898905499E-02 
2036	 0.09423538009073 
2037	 9.43233238637396E-02 
2038	 9.44075215385847E-02 
2039	 9.44862170530967E-02 
2040	 9.45514311720956E-02 
2041	 9.46137894343261E-02 
2042	 9.46726548819033E-02 
2043	 9.47589342946383E-02 
2044	 9.48406304638613E-02 
2045	 9.49340868256742E-02 
2046	 9.50095103887004E-02 
2047	 9.50943722569112E-02 
2048	 9.51535981485724E-02 
2049	 9.51723720841405E-02 
2050	 9.52272856815058E-02 
2051	 9.52870333281301E-02 
2052	 0.095347514061174 
2053	 9.54426597589939E-02 
2054	 9.55101105546129E-02 
2055	 9.55576010364691E-02 
2056	 9.55930668377013E-02 
2057	 0.095657199128346 
2058	 9.57299998561253E-02 
2059	 9.57904140161992E-02 
2060	 9.58643763309368E-02 
2061	 9.59308683944253E-02 
2062	 9.59741495307934E-02 
2063	 9.60350653101622E-02 
2064	 9.61160608070419E-02 
2065	 9.61869128801594E-02 
2066	 9.62540386516204E-02 
2067	 9.63194834772784E-02 
2068	 9.63846244114603E-02 
2069	 9.64486229155824E-02 
2070	 9.65082766967299E-02 
2071	 9.65602842852934E-02 
2072	 9.66231749160899E-02 
2073	 9.66921621920426E-02 
2074	 9.67494824359961E-02 
2075	 9.68109265281011E-02 
2076	 9.68637506341615E-02 
2077	 9.68902668526751E-02 
2078	 9.69445255228198E-02 
2079	 9.70049940504149E-02 
2080	 9.70760325045742E-02 
2081	 9.71906863961186E-02 
2082	 9.72652231193342E-02 
2083	 9.73279219207664E-02 
2084	 9.73766846482504E-02 
2085	 9.74299819551093E-02 
2086	 9.74585123223703E-02 
2087	 9.75060780621033E-02 
2088	 9.75729175143262E-02 
2089	 9.76192632508624E-02 
2090	 9.76522418812063E-02 
2091	 9.76916329094345E-02 
2092	 9.77208998673492E-02 
2093	 9.77663974697929E-02 
2094	 9.78167202542915E-02 
2095	 9.78735023119147E-02 
2096	 9.79449702532408E-02 
2097	 0.098015420382539 
2098	 9.81003043833206E-02 
2099	 0.098167738684159 
2100	 9.82356714725847E-02 
2101	 9.83017884612172E-02 
2102	 9.83655012332714E-02 
2103	 9.84254797662709E-02 
2104	 9.84801695501573E-02 
2105	 9.85315678500823E-02 
2106	 9.85841609513391E-02 
2107	 9.86262801870298E-02 
2108	 9.86764389179203E-02 
2109	 9.87328288993472E-02 
2110	 9.87868686633572E-02 
2111	 9.88429490591521E-02 
2112	 0.09889898900675 
2113	 9.89548699205045E-02 
2114	 9.90055650680671E-02 
2115	 9.90768458851944E-02 
2116	 9.91640236013371E-02 
2117	 9.92224898132909E-02 
2118	 0.099283840034941 
2119	 9.93413900507356E-02 
2120	 9.93756185537673E-02 
2121	 9.94186725325611E-02 
2122	 9.94727936708231E-02 
2123	 9.95208876238619E-02 
2124	 9.95535110790812E-02 
2125	 9.95996756559899E-02 
2126	 9.96669661827856E-02 
2127	 9.97138908104745E-02 
2128	 9.97519573646326E-02 
2129	 9.97896422365831E-02 
2130	 9.98125554750133E-02 
2131	 9.98405128875082E-02 
2132	 9.98751259794795E-02 
2133	 0.099918480661509 
2134	 9.99514713995424E-02 
2135	 0.099995140656399 
2136	 0.100011268815648 
2137	 0.100013989631975 
2138	 0.100007870788124 
2139	 9.99644446413193E-02 
2140	 9.99565745861687E-02 
2141	 9.99655517144313E-02 
2142	 9.99608176299959E-02 
2143	 9.99892983214808E-02 
2144	 9.99756681788634E-02 
2145	 0.099924564444806 
2146	 9.98756072914618E-02 
2147	 9.98036496144033E-02 
2148	 9.97222721029302E-02 
2149	 9.96780603120083E-02 
2150	 9.96510588025816E-02 
2151	 9.96158853454274E-02 
2152	 0.099609516255353 
2153	 0.099572219166803 
2154	 9.95201396050333E-02 
2155	 9.94598152474059E-02 
2156	 9.93765020712234E-02 
2157	 9.93143403526237E-02 
2158	 0.099253633132646 
2159	 0.099189420552953 
2160	 9.91434133708932E-02 
2161	 9.90826254799643E-02 
2162	 9.90080472822219E-02 
2163	 9.89293982718104E-02 
2164	 9.88484641613863E-02 
2165	 9.87611302556026E-02 
2166	 9.86677665607822E-02 
2167	 0.098553088320323 
2168	 9.84757741744297E-02 
2169	 9.84044727343193E-02 
2170	 9.83467526612519E-02 
2171	 9.83231624985429E-02 
2172	 9.82765681583917E-02 
2173	 9.82387175951494E-02 
2174	 9.81755127333129E-02 
2175	 9.80909747430563E-02 
2176	 9.80133004254777E-02 
2177	 9.79231091808518E-02 
2178	 9.78330114313296E-02 
2179	 9.77399300234086E-02 
2180	 9.76563231479524E-02 
2181	 0.097569788798923 
2182	 9.74861098400309E-02 
2183	 9.74074244315708E-02 
2184	 9.73398681637181E-02 
2185	 9.72743193416646E-02 
2186	 9.72131155803815E-02 
2187	 9.71445772264968E-02 
2188	 9.70791908951197E-02 
2189	 9.70144361546028E-02 
2190	 9.69400765328534E-02 
2191	 9.68764196487435E-02 
2192	 0.096827003342643 
2193	 9.67694658772699E-02 
2194	 9.67044991251628E-02 
2195	 9.66468859577765E-02 
2196	 9.65940197834983E-02 
2197	 9.65401979647827E-02 
2198	 9.64945701132829E-02 
2199	 9.64405247115975E-02 
2200	 9.63699432055781E-02 
2201	 0.096316570477182 
2202	 9.62624234125071E-02 
2203	 9.62126314838591E-02 
2204	 9.61994366272552E-02 
2205	 9.62285483688925E-02 
2206	 9.62111760918109E-02 
2207	 0.096206270676281 
2208	 9.61760082156796E-02 
2209	 9.60936192732968E-02 
2210	 9.60666566980035E-02 
2211	 9.60619669859149E-02 
2212	 9.60522695484627E-02 
2213	 9.60601094991698E-02 
2214	 9.60626814584795E-02 
2215	 9.60601819021155E-02 
2216	 0.096064345456834 
2217	 0.096083720932825 
2218	 9.60918442843503E-02 
2219	 9.60949762270126E-02 
2220	 9.60970850644768E-02 
2221	 9.60899675863843E-02 
2222	 9.60887659801277E-02 
2223	 9.61021261449928E-02 
2224	 9.61071509398051E-02 
2225	 9.61179376663272E-02 
2226	 9.61296386109697E-02 
2227	 9.61612187245732E-02 
2228	 0.096211229642313 
2229	 9.62384969632097E-02 
2230	 9.62745770563878E-02 
2231	 9.62971682619156E-02 
2232	 9.62887671798129E-02 
2233	 9.63010914572503E-02 
2234	 9.63328526199118E-02 
2235	 9.63494464662009E-02 
2236	 9.63585290337822E-02 
2237	 9.63682261707163E-02 
2238	 9.63541176293807E-02 
2239	 9.63758254772328E-02 
2240	 9.64330204294348E-02 
2241	 9.64641577529936E-02 
2242	 9.65105388070119E-02 
2243	 9.65403053259112E-02 
2244	 9.65461439267847E-02 
2245	 9.65394394446945E-02 
2246	 9.65527123796292E-02 
2247	 9.65783391368678E-02 
2248	 9.65755462406841E-02 
2249	 9.65603288931156E-02 
2250	 9.65617925868751E-02 
2251	 9.65448002650332E-02 
2252	 9.65453618785841E-02 
2253	 9.65735433696981E-02 
2254	 9.65779992635404E-02 
2255	 9.65717816089874E-02 
2256	 0.096579354489715 
2257	 9.65978916665302E-02 
2258	 9.65881079633563E-02 
2259	 9.65527892531362E-02 
2260	 9.65484705521808E-02 
2261	 9.65290573484867E-02 
2262	 9.65435078129618E-02 
2263	 9.66196034491911E-02 
2264	 9.66566236726317E-02 
2265	 9.66922725936409E-02 
2266	 9.67103564668712E-02 
2267	 9.66880011810128E-02 
2268	 9.66944849479839E-02 
2269	 9.67162537759483E-02 
2270	 9.67149213073118E-02 
2271	 9.67557090508508E-02 
2272	 9.68066778940492E-02 
2273	 9.67965063089546E-02 
2274	 9.68035157703281E-02 
2275	 9.68093693330094E-02 
2276	 9.67864188244465E-02 
2277	 9.67929101771903E-02 
2278	 9.68404518202426E-02 
2279	 9.68432186588263E-02 
2280	 9.68264350214649E-02 
2281	 9.68218856026912E-02 
2282	 9.68095768405977E-02 
2283	 9.67882954538751E-02 
2284	 9.67558210350263E-02 
2285	 9.67511239518294E-02 
2286	 9.67394029802286E-02 
2287	 9.67477851841929E-02 
2288	 9.67964283248836E-02 
2289	 9.68284186697481E-02 
2290	 9.68541473154871E-02 
2291	 9.68816919436809E-02 
2292	 9.69372579369426E-02 
2293	 9.69522078496931E-02 
2294	 9.69075853056834E-02 
2295	 9.69258681035229E-02 
2296	 9.69737123104762E-02 
2297	 9.69969344461397E-02 
2298	 9.70216739189561E-02 
2299	 9.70346895710525E-02 
2300	 9.69825552832409E-02 
2301	 9.69342533162415E-02 
2302	 9.69298197490476E-02 
2303	 9.69270893218761E-02 
2304	 9.69308672446706E-02 
2305	 9.69160683068901E-02 
2306	 9.69072533500456E-02 
2307	 9.68956248512991E-02 
2308	 9.68980303452534E-02 
2309	 0.096921930184244 
2310	 9.69050381783501E-02 
2311	 0.096865556228856 
2312	 9.68473337811386E-02 
2313	 9.68102827177595E-02 
2314	 9.67868685897876E-02 
2315	 9.67862369579463E-02 
2316	 9.67833270612198E-02 
2317	 9.67769544124149E-02 
2318	 9.67744677906215E-02 
2319	 9.67930266708719E-02 
2320	 9.67938104745944E-02 
2321	 9.67736512083696E-02 
2322	 9.67597338882009E-02 
2323	 9.67473789978184E-02 
2324	 9.67423405610576E-02 
2325	 9.67239794307179E-02 
2326	 9.67322320153505E-02 
2327	 9.67855000703462E-02 
2328	 9.67812533715219E-02 
2329	 9.67666413724751E-02 
2330	 9.67770766593987E-02 
2331	 9.67439658182142E-02 
2332	 9.67454209601458E-02 
2333	 9.67756861168423E-02 
2334	 9.68261988606349E-02 
2335	 9.68781306939368E-02 
2336	 9.68674845078931E-02 
2337	 9.68473760000104E-02 
2338	 9.68264581891255E-02 
2339	 9.67652473013954E-02 
2340	 9.67604688660852E-02 
2341	 9.68223272606355E-02 
2342	 9.68263726858087E-02 
2343	 0.096838942236709 
2344	 9.68757307826136E-02 
2345	 9.68692820003192E-02 
2346	 9.68088041948809E-02 
2347	 9.67899499703251E-02 
2348	 9.67703282584465E-02 
2349	 9.67707050797364E-02 
2350	 9.68066324942275E-02 
2351	 9.67922694268181E-02 
2352	 9.67718510575332E-02 
2353	 9.67353585282319E-02 
2354	 9.66474804196983E-02 
2355	 9.66003941465515E-02 
2356	 9.65779862508995E-02 
2357	 9.65342501463967E-02 
2358	 9.64753258741713E-02 
2359	 9.64298172307086E-02 
2360	 9.64101139839876E-02 
2361	 9.63577573397211E-02 
2362	 9.62857456158853E-02 
2363	 9.62349248823522E-02 
2364	 9.61263767810285E-02 
2365	 0.096087604299995 
2366	 9.61524338162014E-02 
2367	 9.61431668536269E-02 
2368	 0.096144100595528 
2369	 0.096113686641227 
2370	 9.60255779110815E-02 
2371	 9.59301132467576E-02 
2372	 9.58289079407255E-02 
2373	 9.57932924483625E-02 
2374	 9.57940333556238E-02 
2375	 9.57757336359841E-02 
2376	 0.095841247427048 
2377	 9.58501696872958E-02 
2378	 0.095731030567134 
2379	 9.56523568425945E-02 
2380	 9.56362358922576E-02 
2381	 9.56110179653459E-02 
2382	 9.56063122181776E-02 
2383	 9.55627538404769E-02 
2384	 9.54367419788709E-02 
2385	 9.53752906822061E-02 
2386	 9.54095373894138E-02 
2387	 9.54203965669971E-02 
2388	 9.53130006723197E-02 
2389	 9.51101028486187E-02 
2390	 9.49458854378888E-02 
2391	 9.49010627529972E-02 
2392	 9.49012346469866E-02 
2393	 9.49256788751952E-02 
2394	 9.49085959431772E-02 
2395	 9.47437217566889E-02 
2396	 9.46458308975737E-02 
2397	 9.45647049318722E-02 
2398	 9.44197588797613E-02 
2399	 0.09437567063391 
2400	 9.43177778279283E-02 
2401	 9.42676485721907E-02 
2402	 9.42777690777396E-02 
2403	 0.094216942455404 
2404	 9.41044949213543E-02 
2405	 9.40195508255876E-02 
2406	 9.39166381240865E-02 
2407	 9.37634145880565E-02 
2408	 0.093609789608059 
2409	 0.093485555598268 
2410	 9.33615865741762E-02 
2411	 9.33311805163197E-02 
2412	 9.34199566012551E-02 
2413	 9.34493947097403E-02 
2414	 9.33841371650062E-02 
2415	 9.32597137290736E-02 
2416	 9.31271009333915E-02 
2417	 9.28415200123803E-02 
2418	 9.27335494980941E-02 
2419	 9.27519660617573E-02 
2420	 9.26995285701437E-02 
2421	 9.26980902273671E-02 
2422	 9.26581018430227E-02 
2423	 9.25481378655551E-02 
2424	 0.092474424303456 
2425	 9.24218725638845E-02 
2426	 9.23444077944933E-02 
2427	 9.22766624160271E-02 
2428	 9.21708636856168E-02 
2429	 9.20527240917824E-02 
2430	 9.19657281306414E-02 
2431	 9.18344143395306E-02 
2432	 9.16900930414191E-02 
2433	 9.15356332058047E-02 
2434	 0.091426451094094 
2435	 9.13275158242124E-02 
2436	 9.12784453308575E-02 
2437	 9.13365431424687E-02 
2438	 9.13356698477711E-02 
2439	 9.13173230285196E-02 
2440	 9.12474458571117E-02 
2441	 9.11090406363367E-02 
2442	 9.09820551542063E-02 
2443	 9.07976301377973E-02 
2444	 9.07223217562463E-02 
2445	 9.07581134963752E-02 
2446	 9.07043943287809E-02 
2447	 9.06687439310115E-02 
2448	 9.06477066195722E-02 
2449	 9.06060362374243E-02 
2450	 9.04947343224356E-02 
2451	 9.03417307981956E-02 
2452	 9.01539981731318E-02 
2453	 8.98671291960871E-02 
2454	 8.97201106067161E-02 
2455	 8.95980959482011E-02 
2456	 8.95354344730932E-02 
2457	 8.95882997671157E-02 
2458	 8.95675618481511E-02 
2459	 8.96403435331615E-02 
2460	 8.96061472747968E-02 
2461	 8.94452817301418E-02 
2462	 8.93018939644959E-02 
2463	 8.90746757733354E-02 
2464	 8.89280156345633E-02 
2465	 8.87814168719769E-02 
2466	 8.86869423717021E-02 
2467	 8.87179297502849E-02 
2468	 8.87133266402735E-02 
2469	 8.88083298509916E-02 
2470	 8.88001744615418E-02 
2471	 8.84767855695854E-02 
2472	 0.088333798426802 
2473	 8.81303386789871E-02 
2474	 8.77352133012901E-02 
2475	 8.76887039745358E-02 
2476	 8.77072907314467E-02 
2477	 8.76121659088728E-02 
2478	 8.76712785258793E-02 
2479	 8.77697958023513E-02 
2480	 0.08780983881985 
2481	 8.77653847309812E-02 
2482	 0.087776521980674 
2483	 8.77495039263938E-02 
2484	 8.75893501918406E-02 
2485	 8.75431493674525E-02 
2486	 0.087408319340573 
2487	 8.72010094253424E-02 
2488	 8.69828598925376E-02 
2489	 8.67682758083514E-02 
2490	 8.67435765187893E-02 
2491	 8.68115025357075E-02 
2492	 8.69272739052588E-02 
2493	 8.69871301932169E-02 
2494	 8.68609592820058E-02 
2495	 8.66822227097682E-02 
2496	 8.67126022587383E-02 
2497	 8.66136279173024E-02 
2498	 8.65057827485741E-02 
2499	 8.65244631373283E-02 
2500	 8.63883469707394E-02 
