Wavelength	MM_3500005.asd
350	 3.29517934423022E-02 
351	 3.98172093430171E-02 
352	 3.92506005081305E-02 
353	 2.78795675669939E-02 
354	 2.42709636144291E-02 
355	 3.23994221296931E-02 
356	 3.93549195688029E-02 
357	 3.51187562590657E-02 
358	 3.83069857412955E-02 
359	 3.45099164526015E-02 
360	 2.81410769299414E-02 
361	 0.033844665309385 
362	 3.30813149777783E-02 
363	 3.12658199831023E-02 
364	 3.16285364254145E-02 
365	 2.89026142911703E-02 
366	 3.21132821347611E-02 
367	 3.45309825831517E-02 
368	 0.030266301490452 
369	 3.42768706828817E-02 
370	 3.47369305666792E-02 
371	 3.22598664836858E-02 
372	 3.53944714396616E-02 
373	 3.54727131465737E-02 
374	 3.51064084351461E-02 
375	 3.57671985724499E-02 
376	 3.43470033440708E-02 
377	 3.31329109266273E-02 
378	 3.40114275919464E-02 
379	 3.72250370717415E-02 
380	 0.037435258626048 
381	 3.63929278837808E-02 
382	 3.62486661319946E-02 
383	 3.86587224362566E-02 
384	 3.75476037211358E-02 
385	 3.62848414688414E-02 
386	 3.74401198253173E-02 
387	 0.039768041257636 
388	 0.039189824604865 
389	 3.72891454683909E-02 
390	 3.72653021320074E-02 
391	 3.97731379162856E-02 
392	 4.28838511128324E-02 
393	 4.51574835512587E-02 
394	 4.58366360323454E-02 
395	 4.42862186639575E-02 
396	 4.42601213021053E-02 
397	 4.71290843790657E-02 
398	 4.80001869379985E-02 
399	 4.79826661950946E-02 
400	 4.78191551162412E-02 
401	 4.81056181984375E-02 
402	 4.87306161711301E-02 
403	 4.93255746870287E-02 
404	 4.95844380731632E-02 
405	 0.049339568224854 
406	 5.08902177197204E-02 
407	 5.25107406346184E-02 
408	 5.25385569512418E-02 
409	 5.12218389991163E-02 
410	 5.14726377628285E-02 
411	 0.05288087708275 
412	 5.36433779648356E-02 
413	 5.48743015371657E-02 
414	 5.49612364821161E-02 
415	 5.38185927109409E-02 
416	 5.34647959752937E-02 
417	 5.42814116535589E-02 
418	 0.055181377796874 
419	 5.51859153471585E-02 
420	 5.50783600467026E-02 
421	 5.46530709075717E-02 
422	 5.44619005312346E-02 
423	 5.52951873602277E-02 
424	 5.49812576919855E-02 
425	 5.45638906127885E-02 
426	 5.47310446914071E-02 
427	 5.48483615927055E-02 
428	 0.054217394200011 
429	 5.36030730024957E-02 
430	 5.38759056179239E-02 
431	 5.38701355599452E-02 
432	 0.05351598297759 
433	 5.31240412339424E-02 
434	 5.32608885940693E-02 
435	 5.31328894606565E-02 
436	 5.31773475420746E-02 
437	 5.36429008330748E-02 
438	 5.36376765612828E-02 
439	 5.38100718646965E-02 
440	 5.41739832962035E-02 
441	 5.44409269361381E-02 
442	 5.45898849956693E-02 
443	 5.50426723705392E-02 
444	 5.56924103657448E-02 
445	 5.55690734120427E-02 
446	 5.57843649268403E-02 
447	 5.62211164659489E-02 
448	 5.65185721454014E-02 
449	 5.68901138627842E-02 
450	 5.73602495493912E-02 
451	 5.78005388058154E-02 
452	 5.79890917054415E-02 
453	 5.83484724327439E-02 
454	 5.85192193328476E-02 
455	 5.83903213063241E-02 
456	 5.88258941901458E-02 
457	 5.89861829300211E-02 
458	 5.89802127767043E-02 
459	 5.92546430042925E-02 
460	 5.93032584860843E-02 
461	 5.94046718423292E-02 
462	 5.96236484028275E-02 
463	 5.96309587329382E-02 
464	 5.96921584055141E-02 
465	 5.98541856065706E-02 
466	 0.060073263094019 
467	 6.02112105690793E-02 
468	 0.060357216506234 
469	 6.04778738720185E-02 
470	 6.04557045375437E-02 
471	 6.05510013639493E-02 
472	 6.05276693741173E-02 
473	 6.03147765439271E-02 
474	 6.04198506560206E-02 
475	 6.06221851877219E-02 
476	 6.07735043204205E-02 
477	 6.07831012965307E-02 
478	 6.08018211371081E-02 
479	 6.08498100104779E-02 
480	 6.09232769658931E-02 
481	 6.10025734735529E-02 
482	 6.11567169956096E-02 
483	 6.12476175763115E-02 
484	 6.11973473336445E-02 
485	 6.14277406146522E-02 
486	 6.14460456193141E-02 
487	 6.12655040371546E-02 
488	 6.13168855278126E-02 
489	 6.14015840109532E-02 
490	 0.061513637946918 
491	 6.16140047086896E-02 
492	 6.14858148284458E-02 
493	 6.14758316592034E-02 
494	 6.14965364252911E-02 
495	 6.13352025376031E-02 
496	 6.15361011449846E-02 
497	 6.16844042687815E-02 
498	 6.16534290842103E-02 
499	 6.18879117765555E-02 
500	 6.18122230710072E-02 
501	 6.17028890343545E-02 
502	 6.18939105533691E-02 
503	 6.17985821788104E-02 
504	 6.17919899910927E-02 
505	 0.061941591886316 
506	 0.062011713994549 
507	 6.20347096591547E-02 
508	 6.20060276561419E-02 
509	 6.19615644816955E-02 
510	 6.20676368409614E-02 
511	 6.20666135327941E-02 
512	 6.19806971967642E-02 
513	 6.19823211297968E-02 
514	 6.21180035048471E-02 
515	 0.062266359581533 
516	 6.23312396574643E-02 
517	 6.22855991340702E-02 
518	 6.22370216971867E-02 
519	 6.22401814612249E-02 
520	 6.23095899298817E-02 
521	 6.23826973565492E-02 
522	 6.23934968439399E-02 
523	 6.23484168814746E-02 
524	 6.23270755514457E-02 
525	 6.23454234174614E-02 
526	 6.23771470766651E-02 
527	 6.24022423691412E-02 
528	 6.24641263133497E-02 
529	 6.25003643551013E-02 
530	 6.25300669078001E-02 
531	 6.26159490583673E-02 
532	 6.26495764373401E-02 
533	 6.26959136709083E-02 
534	 6.27770586204775E-02 
535	 6.27748036818002E-02 
536	 6.27236575081248E-02 
537	 6.27383372016388E-02 
538	 0.062908394186452 
539	 6.29193575277215E-02 
540	 6.29174319093922E-02 
541	 6.29858179870525E-02 
542	 0.063075164253369 
543	 0.063161285230852 
544	 6.32293690365838E-02 
545	 6.32879351707438E-02 
546	 0.063432376267824 
547	 0.063456885911015 
548	 6.34304687990559E-02 
549	 6.36355828942966E-02 
550	 6.36894539597396E-02 
551	 6.37217258842535E-02 
552	 6.38639568214668E-02 
553	 6.40088029096295E-02 
554	 6.41267577763472E-02 
555	 6.42377675393736E-02 
556	 0.064386812653718 
557	 6.45539374580427E-02 
558	 6.47421665273788E-02 
559	 6.49655468253813E-02 
560	 6.52657580529928E-02 
561	 6.54501955870243E-02 
562	 0.065598251375352 
563	 6.58477799069122E-02 
564	 6.60700446574612E-02 
565	 6.63233995808641E-02 
566	 6.66065509800653E-02 
567	 6.68430240648822E-02 
568	 0.067223563467571 
569	 6.76074364562889E-02 
570	 6.78741697161146E-02 
571	 6.82469581801668E-02 
572	 6.86526739468189E-02 
573	 6.90549892847021E-02 
574	 6.94490203605931E-02 
575	 0.069881338076836 
576	 7.03030239814457E-02 
577	 7.06918247828327E-02 
578	 7.11128533564754E-02 
579	 7.15871687844516E-02 
580	 7.20596621551255E-02 
581	 7.24668435312878E-02 
582	 7.29550552386884E-02 
583	 7.34443460459189E-02 
584	 7.39083459622061E-02 
585	 7.44234098504258E-02 
586	 7.50532595319292E-02 
587	 7.56889758718677E-02 
588	 7.62223976845347E-02 
589	 7.68014415698034E-02 
590	 7.73970997971237E-02 
591	 7.80017670199854E-02 
592	 7.86297723115289E-02 
593	 7.91672480148595E-02 
594	 0.079760318630461 
595	 8.04776163073456E-02 
596	 8.10469649452583E-02 
597	 8.16010713836814E-02 
598	 8.21531770340434E-02 
599	 0.082656516299648 
600	 8.30795931789216E-02 
601	 8.35406087604567E-02 
602	 8.40573397475198E-02 
603	 8.44325649784987E-02 
604	 8.49048467119658E-02 
605	 0.085410506057703 
606	 8.58123523175509E-02 
607	 0.086197608524107 
608	 8.66094139603848E-02 
609	 8.70587012052768E-02 
610	 8.75206783741018E-02 
611	 8.78621752225579E-02 
612	 8.81789072974413E-02 
613	 8.85502394588495E-02 
614	 8.87894485427173E-02 
615	 8.90685278690904E-02 
616	 8.93902022423793E-02 
617	 8.96420723370164E-02 
618	 8.98897760302061E-02 
619	 9.01138168884159E-02 
620	 0.090307942619432 
621	 9.05143000501049E-02 
622	 9.07590899459964E-02 
623	 9.09810064635887E-02 
624	 9.11100940524654E-02 
625	 9.12860879205145E-02 
626	 0.091484975545966 
627	 9.16642652298092E-02 
628	 9.17752346928711E-02 
629	 9.19140468039972E-02 
630	 9.20842434316439E-02 
631	 9.22574553475256E-02 
632	 0.092390610286957 
633	 0.092538291567967 
634	 9.26883164172386E-02 
635	 9.27803164793698E-02 
636	 9.29123060259936E-02 
637	 9.30803524849158E-02 
638	 9.32520016099517E-02 
639	 9.33715563565952E-02 
640	 9.34843862843735E-02 
641	 9.36185174264787E-02 
642	 9.37897347345809E-02 
643	 9.39914951313917E-02 
644	 9.41379132410308E-02 
645	 9.42187654060048E-02 
646	 9.43415686074951E-02 
647	 9.44602462721769E-02 
648	 9.45938890513278E-02 
649	 9.47577027944141E-02 
650	 9.48782444578172E-02 
651	 0.095013716807923 
652	 9.51722803169898E-02 
653	 9.53188149029295E-02 
654	 9.55100651412498E-02 
655	 9.56986156786446E-02 
656	 9.58460547596564E-02 
657	 0.095975887995678 
658	 9.61435128317991E-02 
659	 9.63314940913307E-02 
660	 9.64936074472549E-02 
661	 9.66728313855317E-02 
662	 9.68784453736525E-02 
663	 9.70966021063452E-02 
664	 9.72844816224741E-02 
665	 9.75013481194905E-02 
666	 9.76912498762948E-02 
667	 9.78149197231505E-02 
668	 0.098032044859001 
669	 9.82939057954524E-02 
670	 9.85522017786937E-02 
671	 9.87681827083659E-02 
672	 9.89892253577434E-02 
673	 9.92136164837479E-02 
674	 9.94390032979022E-02 
675	 9.96874251506308E-02 
676	 9.99043075201162E-02 
677	 0.100118915856979 
678	 0.100385877284249 
679	 0.100650683483225 
680	 0.100915075959958 
681	 0.101185198336295 
682	 0.101467066665255 
683	 0.101727471634028 
684	 0.101982119292927 
685	 0.102255782914665 
686	 0.10255393909565 
687	 0.102875612684112 
688	 0.103193886622816 
689	 0.103466913773318 
690	 0.103703465328609 
691	 0.103973086140627 
692	 0.10429896848806 
693	 0.104597945386652 
694	 0.10489518655904 
695	 0.10519283611289 
696	 0.105490969767363 
697	 0.10581689120385 
698	 0.106111965248265 
699	 0.106388341072856 
700	 0.106733753888926 
701	 0.107104399757981 
702	 0.107416816028929 
703	 0.107641354702236 
704	 0.107910939759081 
705	 0.108237728049235 
706	 0.108567713888095 
707	 0.108829590074765 
708	 0.109154305392899 
709	 0.10947999821839 
710	 0.109772691146652 
711	 0.110069521523627 
712	 0.110341989091382 
713	 0.110580339874523 
714	 0.110807550513996 
715	 0.11115105531322 
716	 0.111465278620523 
717	 0.111709397723352 
718	 0.111930278814499 
719	 0.112186097784547 
720	 0.112457502661659 
721	 0.112714656965803 
722	 0.112933659587543 
723	 0.113129522858298 
724	 0.113339160375085 
725	 0.113580280052074 
726	 0.113730766051734 
727	 0.1139284882544 
728	 0.11417449673136 
729	 0.11433666247881 
730	 0.114459942840547 
731	 0.114611368134513 
732	 0.11480393381234 
733	 0.114909118332604 
734	 0.1150296402932 
735	 0.115141805879375 
736	 0.115195197500315 
737	 0.115308490004199 
738	 0.115407613130984 
739	 0.115469054518287 
740	 0.115538569546664 
741	 0.115582049975672 
742	 0.115599747890348 
743	 0.115601373523667 
744	 0.115600255807728 
745	 0.115597089584921 
746	 0.115600238146804 
747	 0.115610996436176 
748	 0.11556220439546 
749	 0.115509153830254 
750	 0.115469129842912 
751	 0.115400748292332 
752	 0.115329141235891 
753	 0.115248493013037 
754	 0.115150998507747 
755	 0.11504229794061 
756	 0.114925703825818 
757	 0.114822404224814 
758	 0.114750400214785 
759	 0.114645490515018 
760	 0.11449756943658 
761	 0.114332055205766 
762	 0.114208852690038 
763	 0.114069224308138 
764	 0.113911353545284 
765	 0.113746743388358 
766	 0.113583705898669 
767	 0.113418823792377 
768	 0.113236052906509 
769	 0.113024430626498 
770	 0.11285693998854 
771	 0.112678247196783 
772	 0.112466424499988 
773	 0.112254498617805 
774	 0.11208443742542 
775	 0.111903706478936 
776	 0.111677083963802 
777	 0.111478677157048 
778	 0.111269627292004 
779	 0.111064998176843 
780	 0.11088930376822 
781	 0.110667255652234 
782	 0.110463222036943 
783	 0.110271793973685 
784	 0.110010740951944 
785	 0.109808702268896 
786	 0.109612543784502 
787	 0.10937654081087 
788	 0.10915412874438 
789	 0.108979893942652 
790	 0.108801798963249 
791	 0.108559512250357 
792	 0.108342450094038 
793	 0.108160534256134 
794	 0.107984231840998 
795	 0.107759672864069 
796	 0.107533420516422 
797	 0.107311272512721 
798	 0.107108361227915 
799	 0.106972768541021 
800	 0.106761817832368 
801	 0.106540787500396 
802	 0.106392742128021 
803	 0.106203251731783 
804	 0.10600058424958 
805	 0.105813559618365 
806	 0.105658926755436 
807	 0.105458677680432 
808	 0.10527114945916 
809	 0.105109476265582 
810	 0.104910834946936 
811	 0.104793141645934 
812	 0.104660656979959 
813	 0.104448812540572 
814	 0.104312498991162 
815	 0.104149713346759 
816	 0.103970637200908 
817	 0.103819011475813 
818	 0.103650235667728 
819	 0.10353516265147 
820	 0.10343232024711 
821	 0.103222783814582 
822	 0.103114509646169 
823	 0.103017041200586 
824	 0.102878399446496 
825	 0.102785934271465 
826	 0.102636257268085 
827	 0.102495194812258 
828	 0.10242094878053 
829	 0.102297232302432 
830	 0.102156268777068 
831	 0.102043691287453 
832	 0.101987106071718 
833	 0.101865227510909 
834	 0.10173692687247 
835	 0.101637851847477 
836	 0.101567089972245 
837	 0.101517315812447 
838	 0.101476785704814 
839	 0.101415239388924 
840	 0.101271969880355 
841	 0.101164565848659 
842	 0.101122284105205 
843	 0.101120954334639 
844	 0.101065011626092 
845	 0.100997964056869 
846	 0.100938242840412 
847	 0.100888755128664 
848	 0.10083183097454 
849	 0.100774398571561 
850	 0.100727358242985 
851	 0.100698098770335 
852	 0.100635000178374 
853	 0.100581362898038 
854	 0.1005659467473 
855	 0.10057536121446 
856	 0.10058431615401 
857	 0.100594492015112 
858	 0.100595752614466 
859	 0.100522163496301 
860	 0.100486130718939 
861	 0.100481286058357 
862	 0.100466826791576 
863	 0.100461299646707 
864	 0.100467503251557 
865	 0.100483417272964 
866	 0.100500611241174 
867	 0.100486109143895 
868	 0.100505618166422 
869	 0.100565555589738 
870	 0.100604731584307 
871	 0.10062023954535 
872	 0.100640395512528 
873	 0.100680207598681 
874	 0.100723246207553 
875	 0.100753534848573 
876	 0.100777386990788 
877	 0.100805461746671 
878	 0.100838472483636 
879	 0.100910360379436 
880	 0.100992845415432 
881	 0.101051439812288 
882	 0.101128481164968 
883	 0.101200731032082 
884	 0.101246549741766 
885	 0.101263839577749 
886	 0.101344610574951 
887	 0.101448073524948 
888	 0.10154523857599 
889	 0.101630222175957 
890	 0.101726942570741 
891	 0.101807399802949 
892	 0.101875796898493 
893	 0.10198138306436 
894	 0.102114688045587 
895	 0.102224825756691 
896	 0.102304767871225 
897	 0.102438937786761 
898	 0.102561630118374 
899	 0.10268201282207 
900	 0.102810743163277 
901	 0.102907529349288 
902	 0.103025115003794 
903	 0.103135187330217 
904	 0.10321745335217 
905	 0.103387828597132 
906	 0.103569595142047 
907	 0.103735308617728 
908	 0.103886153358171 
909	 0.104024699888922 
910	 0.104152324827872 
911	 0.104318409287725 
912	 0.104572255871098 
913	 0.1047665765196 
914	 0.104891099642322 
915	 0.105003089415061 
916	 0.105190611295537 
917	 0.105362603334085 
918	 0.105540063655916 
919	 0.105722000809424 
920	 0.105872254744968 
921	 0.106052176237044 
922	 0.106243845792758 
923	 0.106442531240401 
924	 0.106680946288038 
925	 0.10691608852632 
926	 0.107139549800651 
927	 0.1073433273774 
928	 0.107505431315255 
929	 0.107696269027327 
930	 0.107935355568752 
931	 0.108188884391037 
932	 0.108334432349295 
933	 0.108661036124695 
934	 0.108987040442243 
935	 0.109134264839848 
936	 0.109354700293094 
937	 0.10957610790463 
938	 0.10976621524844 
939	 0.10995543707268 
940	 0.110357859017048 
941	 0.110648858262891 
942	 0.110876574391781 
943	 0.111178822354074 
944	 0.111392063335131 
945	 0.111583875443272 
946	 0.111857449873666 
947	 0.112247124279342 
948	 0.112452822503984 
949	 0.112663687587332 
950	 0.112956960252716 
951	 0.113304561364538 
952	 0.113544925878096 
953	 0.113767911071187 
954	 0.114023929658706 
955	 0.11432132239874 
956	 0.114624411942217 
957	 0.114939054101846 
958	 0.115244924699488 
959	 0.115519829037664 
960	 0.115827973033587 
961	 0.116104645207792 
962	 0.116397494562931 
963	 0.116770720327048 
964	 0.116905357069554 
965	 0.117195013028091 
966	 0.11760108689917 
967	 0.117831114111461 
968	 0.118156446450593 
969	 0.118451702179788 
970	 0.118672840813285 
971	 0.118886736938809 
972	 0.119332162422801 
973	 0.119805402059225 
974	 0.12011921114368 
975	 0.120227241998835 
976	 0.120605636926562 
977	 0.12090182464208 
978	 0.121069708792974 
979	 0.121311357032898 
980	 0.12176301219487 
981	 0.122148891292359 
982	 0.122416909187253 
983	 0.122684452982109 
984	 0.12303023091918 
985	 0.123234259693513 
986	 0.12340809261322 
987	 0.123787597375082 
988	 0.124196147165485 
989	 0.124400827587886 
990	 0.124550649265627 
991	 0.124888909178432 
992	 0.125096683140146 
993	 0.125389490714642 
994	 0.125756419597842 
995	 0.126077137555648 
996	 0.126279997722719 
997	 0.126631768104955 
998	 0.127007376548078 
999	 0.127220579232656 
1000	 0.127476339074187 
1001	 0.127298791558575 
1002	 0.127525385532619 
1003	 0.127724805507439 
1004	 0.127954322331217 
1005	 0.128203926652831 
1006	 0.128438863711714 
1007	 0.128665954298212 
1008	 0.128936193180042 
1009	 0.129179722927515 
1010	 0.129359169621028 
1011	 0.129546152131508 
1012	 0.129759133313186 
1013	 0.12993773404578 
1014	 0.130191165264917 
1015	 0.130445122061351 
1016	 0.130611925195372 
1017	 0.130797272155327 
1018	 0.130974850003491 
1019	 0.131173556073299 
1020	 0.131365104032234 
1021	 0.131532078262726 
1022	 0.13171356946675 
1023	 0.13194822231549 
1024	 0.132140086139702 
1025	 0.132295361040141 
1026	 0.132509949495983 
1027	 0.132647344354646 
1028	 0.132727646611717 
1029	 0.132882387707281 
1030	 0.133062309908053 
1031	 0.133217784116085 
1032	 0.13335437479851 
1033	 0.133508538823536 
1034	 0.133703969147597 
1035	 0.133799105293485 
1036	 0.133884985394102 
1037	 0.134037186325532 
1038	 0.13411598115987 
1039	 0.134227125033401 
1040	 0.134377746558084 
1041	 0.134478850969577 
1042	 0.134583353812784 
1043	 0.134733554870645 
1044	 0.134856418986418 
1045	 0.134968764889079 
1046	 0.135065957087223 
1047	 0.135206625808647 
1048	 0.13532476381724 
1049	 0.135428907403933 
1050	 0.135526449966185 
1051	 0.13562970801677 
1052	 0.135781823829405 
1053	 0.135907548008482 
1054	 0.136037655939282 
1055	 0.136139488789699 
1056	 0.136163572356915 
1057	 0.136255310021573 
1058	 0.13637543671022 
1059	 0.136518300113761 
1060	 0.136713117219742 
1061	 0.136871676066057 
1062	 0.137040608057526 
1063	 0.13712966112241 
1064	 0.137151273589476 
1065	 0.137292862313522 
1066	 0.137426166366711 
1067	 0.137544877361463 
1068	 0.137699938055263 
1069	 0.13780567792104 
1070	 0.137911586230252 
1071	 0.137977689062116 
1072	 0.138074336383842 
1073	 0.138186977303914 
1074	 0.138291386705283 
1075	 0.138384880742712 
1076	 0.138495429292636 
1077	 0.13861580746735 
1078	 0.13870948786075 
1079	 0.138804673379111 
1080	 0.138902181405598 
1081	 0.139003229744417 
1082	 0.139109956476943 
1083	 0.139179520423205 
1084	 0.139225715478575 
1085	 0.139286244269769 
1086	 0.139310063061434 
1087	 0.139361887595 
1088	 0.139436687800724 
1089	 0.139513583594431 
1090	 0.139583794730392 
1091	 0.139676927310247 
1092	 0.139764088040482 
1093	 0.13984564730011 
1094	 0.139961595624851 
1095	 0.140077326631074 
1096	 0.140144483340805 
1097	 0.140215294770938 
1098	 0.14028601722291 
1099	 0.140309995055097 
1100	 0.140370461751713 
1101	 0.140470739993613 
1102	 0.140547628982603 
1103	 0.14061502455484 
1104	 0.140687603350029 
1105	 0.140756983655119 
1106	 0.140812589934739 
1107	 0.140874755468961 
1108	 0.140920841232007 
1109	 0.140951221088429 
1110	 0.141021583743375 
1111	 0.141083811275303 
1112	 0.141139018353117 
1113	 0.141210754222372 
1114	 0.14129883920461 
1115	 0.141376507353531 
1116	 0.141459310871086 
1117	 0.141544532125916 
1118	 0.141630730253541 
1119	 0.141716467201485 
1120	 0.141791194624447 
1121	 0.14185952149991 
1122	 0.141919942212387 
1123	 0.141972164316862 
1124	 0.142034323449199 
1125	 0.14210527395185 
1126	 0.142165656231683 
1127	 0.142218016050748 
1128	 0.14228146573626 
1129	 0.142343614642431 
1130	 0.142412119728118 
1131	 0.142505941025307 
1132	 0.142573883124579 
1133	 0.142625223170305 
1134	 0.142682654476736 
1135	 0.14274973763726 
1136	 0.142767966225382 
1137	 0.14281762036056 
1138	 0.142874324129458 
1139	 0.142922457376907 
1140	 0.142968035024933 
1141	 0.143022940764618 
1142	 0.143087886532745 
1143	 0.143130957411392 
1144	 0.143172408423929 
1145	 0.14319970110832 
1146	 0.143195138363986 
1147	 0.143214371579462 
1148	 0.143231262622654 
1149	 0.143260277531481 
1150	 0.143292407287509 
1151	 0.143357120665619 
1152	 0.143404919409797 
1153	 0.143460355992479 
1154	 0.143499478014203 
1155	 0.143525431326205 
1156	 0.143560634342044 
1157	 0.14359733776609 
1158	 0.143623184647647 
1159	 0.143647969763026 
1160	 0.14367308369294 
1161	 0.143682090570275 
1162	 0.143704228901351 
1163	 0.143739934077537 
1164	 0.14377056859747 
1165	 0.143794192422271 
1166	 0.143825168099643 
1167	 0.143893835520082 
1168	 0.143935439577126 
1169	 0.143967579316312 
1170	 0.143999659086559 
1171	 0.144034060554373 
1172	 0.14404128874278 
1173	 0.144076258593396 
1174	 0.144141393624137 
1175	 0.144182693373984 
1176	 0.144217628239016 
1177	 0.144252937515204 
1178	 0.144277179764482 
1179	 0.14431029953533 
1180	 0.144350324429118 
1181	 0.144386187592675 
1182	 0.144420887674325 
1183	 0.144460383471505 
1184	 0.144497687280702 
1185	 0.144528938320891 
1186	 0.144572386551009 
1187	 0.144621551004353 
1188	 0.144673482737742 
1189	 0.144744521090522 
1190	 0.144786260482932 
1191	 0.144816067514943 
1192	 0.144846994542176 
1193	 0.144855423290579 
1194	 0.144879953317417 
1195	 0.144912585817518 
1196	 0.144947184246403 
1197	 0.144993538199257 
1198	 0.14502883381436 
1199	 0.145061029537629 
1200	 0.145094485006306 
1201	 0.145120871434821 
1202	 0.145132096340594 
1203	 0.145161209800009 
1204	 0.145193221361882 
1205	 0.145231963377805 
1206	 0.145291301578991 
1207	 0.145326119025383 
1208	 0.1453460569813 
1209	 0.145380330480777 
1210	 0.145418189867637 
1211	 0.145442625878743 
1212	 0.145463267227909 
1213	 0.145492889627179 
1214	 0.145511789951415 
1215	 0.145534241305105 
1216	 0.145562521462882 
1217	 0.145609233911531 
1218	 0.145643135558196 
1219	 0.145673281400127 
1220	 0.145696273883897 
1221	 0.145721389471059 
1222	 0.145736620840925 
1223	 0.145729537151968 
1224	 0.145742787734539 
1225	 0.145761134866078 
1226	 0.14578216475988 
1227	 0.145819473877936 
1228	 0.145843838706289 
1229	 0.145863740111681 
1230	 0.145881664227232 
1231	 0.145891209146699 
1232	 0.145903090509861 
1233	 0.145915118857983 
1234	 0.145924920857099 
1235	 0.145943395304772 
1236	 0.145966228855852 
1237	 0.145986731903805 
1238	 0.146010401853389 
1239	 0.146036704690009 
1240	 0.146073508510705 
1241	 0.146088275678196 
1242	 0.146100088349775 
1243	 0.146102444184744 
1244	 0.146065510495744 
1245	 0.146064305743229 
1246	 0.146079539419594 
1247	 0.146095172463642 
1248	 0.146130464787173 
1249	 0.146163402559278 
1250	 0.146186248455119 
1251	 0.146198868457897 
1252	 0.14620605974425 
1253	 0.146195530248856 
1254	 0.146208038107338 
1255	 0.146223233093703 
1256	 0.146243033166165 
1257	 0.146286476718868 
1258	 0.146304786732675 
1259	 0.146316156676069 
1260	 0.146318126486235 
1261	 0.14629598681483 
1262	 0.146291461896212 
1263	 0.146285695521295 
1264	 0.14628488399631 
1265	 0.146308894036945 
1266	 0.146311942203294 
1267	 0.146302370010237 
1268	 0.146287858087306 
1269	 0.146285014516741 
1270	 0.146274861854118 
1271	 0.146270950037604 
1272	 0.146275224924136 
1273	 0.146287560026674 
1274	 0.146308519781843 
1275	 0.146315216150536 
1276	 0.146324155403471 
1277	 0.146337460580283 
1278	 0.146330608588167 
1279	 0.146342119254917 
1280	 0.146376884539138 
1281	 0.146406680205457 
1282	 0.146430337101183 
1283	 0.146467413847994 
1284	 0.146518317818003 
1285	 0.146566621745663 
1286	 0.146619183310505 
1287	 0.146668634890072 
1288	 0.146700429219059 
1289	 0.146715025069089 
1290	 0.146741862942168 
1291	 0.146755266190738 
1292	 0.146787892493567 
1293	 0.146841496605841 
1294	 0.146878462308209 
1295	 0.146918513948205 
1296	 0.146950921718196 
1297	 0.146970769261215 
1298	 0.146993599846587 
1299	 0.147020569046042 
1300	 0.147036703836015 
1301	 0.147046402360683 
1302	 0.147054305370722 
1303	 0.147060357137538 
1304	 0.147053388493594 
1305	 0.147043032358697 
1306	 0.147033535888428 
1307	 0.147006660668774 
1308	 0.146981978302966 
1309	 0.146968533626058 
1310	 0.146960554532464 
1311	 0.146949661752627 
1312	 0.14694580196654 
1313	 0.146937218197963 
1314	 0.14692897734613 
1315	 0.146913432149444 
1316	 0.146901432744896 
1317	 0.14687592991653 
1318	 0.146825755245682 
1319	 0.146796522296133 
1320	 0.146772276424034 
1321	 0.146748014918336 
1322	 0.146741392303091 
1323	 0.146718015842335 
1324	 0.146684004371023 
1325	 0.146659944570212 
1326	 0.146624995644933 
1327	 0.146586494787766 
1328	 0.146553230202286 
1329	 0.1465183349184 
1330	 0.14647977700486 
1331	 0.146440062655391 
1332	 0.146405320698899 
1333	 0.146365598067859 
1334	 0.146332445211292 
1335	 0.146305462118325 
1336	 0.146280670928042 
1337	 0.146265421354758 
1338	 0.146238055536226 
1339	 0.146202938955674 
1340	 0.14617787001649 
1341	 0.146149398228951 
1342	 0.146122434653466 
1343	 0.146100799911141 
1344	 0.146089338642437 
1345	 0.146062280225705 
1346	 0.146034449821338 
1347	 0.146016679737599 
1348	 0.145995673092924 
1349	 0.145975560480594 
1350	 0.145942051161883 
1351	 0.145914537947988 
1352	 0.145882476709015 
1353	 0.145855000460709 
1354	 0.145831959117709 
1355	 0.145808651093484 
1356	 0.145779228020122 
1357	 0.145757290947855 
1358	 0.145741268510076 
1359	 0.145728656592608 
1360	 0.145724086163139 
1361	 0.145716530666753 
1362	 0.145715481757858 
1363	 0.145701604176733 
1364	 0.145680632593402 
1365	 0.145656132614474 
1366	 0.14562762226672 
1367	 0.145591308393682 
1368	 0.145556383492237 
1369	 0.14552298955099 
1370	 0.145462792930818 
1371	 0.145398437253828 
1372	 0.145323784756869 
1373	 0.145242912545008 
1374	 0.145156126483884 
1375	 0.14506443506888 
1376	 0.144971151129609 
1377	 0.144868771215228 
1378	 0.144763055297905 
1379	 0.144667304293918 
1380	 0.14455056296183 
1381	 0.144424535227705 
1382	 0.144280185802762 
1383	 0.144120652303039 
1384	 0.143948690594401 
1385	 0.143764825443812 
1386	 0.143565296057218 
1387	 0.14336021851607 
1388	 0.143130057337408 
1389	 0.142880890546569 
1390	 0.14261248771887 
1391	 0.142317867850593 
1392	 0.142004726044315 
1393	 0.141682377146692 
1394	 0.141333073846526 
1395	 0.140947815171706 
1396	 0.140543761975175 
1397	 0.140135627242437 
1398	 0.139690542169096 
1399	 0.139270482620764 
1400	 0.138862234248405 
1401	 0.138448939819437 
1402	 0.138034771019153 
1403	 0.137619009218274 
1404	 0.137193982148763 
1405	 0.136786948991562 
1406	 0.136377098688489 
1407	 0.13598965174051 
1408	 0.135612242866741 
1409	 0.135262220982153 
1410	 0.134916109436935 
1411	 0.134613715004951 
1412	 0.13434424060778 
1413	 0.134105016388397 
1414	 0.133890273214503 
1415	 0.133709998232034 
1416	 0.133554192008058 
1417	 0.133409061234467 
1418	 0.133294468091466 
1419	 0.133194522230177 
1420	 0.1330786472526 
1421	 0.132976643425605 
1422	 0.132879021792922 
1423	 0.132776210291293 
1424	 0.132688269242815 
1425	 0.132620278883161 
1426	 0.132539353287661 
1427	 0.132449815034462 
1428	 0.132381984514046 
1429	 0.132319057892299 
1430	 0.13226958189814 
1431	 0.132249070172194 
1432	 0.132205715690691 
1433	 0.132145483833798 
1434	 0.132106424337312 
1435	 0.132071888429618 
1436	 0.132040577374207 
1437	 0.132026175505452 
1438	 0.132012368041608 
1439	 0.132004659701272 
1440	 0.131980314034203 
1441	 0.131954847741417 
1442	 0.131936921675247 
1443	 0.131910826074237 
1444	 0.131889054215857 
1445	 0.131902624407995 
1446	 0.131908577540675 
1447	 0.131902943769799 
1448	 0.131915795360225 
1449	 0.131919922332561 
1450	 0.131929932926377 
1451	 0.131937288373025 
1452	 0.131948445642754 
1453	 0.131955084761061 
1454	 0.131957512760831 
1455	 0.131961313751282 
1456	 0.13196457873241 
1457	 0.13197477416949 
1458	 0.131992785747871 
1459	 0.131997102444173 
1460	 0.131995520240287 
1461	 0.131999907038287 
1462	 0.131988859345833 
1463	 0.131998634348979 
1464	 0.132022760235163 
1465	 0.132054525920012 
1466	 0.132103487704292 
1467	 0.132143037980548 
1468	 0.132178611241655 
1469	 0.132228227424229 
1470	 0.132278381495152 
1471	 0.132339355935968 
1472	 0.132408340203871 
1473	 0.132477330442564 
1474	 0.132550160577827 
1475	 0.132621486071766 
1476	 0.132712725491797 
1477	 0.132816725749968 
1478	 0.132895614246851 
1479	 0.132975449189432 
1480	 0.133065514721576 
1481	 0.133143463244973 
1482	 0.133231579601802 
1483	 0.133336420814484 
1484	 0.133436046835504 
1485	 0.133531421716721 
1486	 0.133630537460778 
1487	 0.133738740464015 
1488	 0.133836211580912 
1489	 0.133924814222725 
1490	 0.134016396068039 
1491	 0.134118186188635 
1492	 0.134202212665009 
1493	 0.134266505453251 
1494	 0.134347225666752 
1495	 0.134426767452284 
1496	 0.134505324148938 
1497	 0.134597880834447 
1498	 0.134681185285394 
1499	 0.134755646420187 
1500	 0.134825785591332 
1501	 0.134887564264336 
1502	 0.13495854300849 
1503	 0.135026125539752 
1504	 0.135101446249153 
1505	 0.135187989688067 
1506	 0.135267404302317 
1507	 0.135334165901563 
1508	 0.135402595800944 
1509	 0.13547545368583 
1510	 0.135553035525794 
1511	 0.135631662278528 
1512	 0.135699615042156 
1513	 0.135749847620985 
1514	 0.135800657286842 
1515	 0.135863635061212 
1516	 0.135928952844254 
1517	 0.135991769168192 
1518	 0.136061966350896 
1519	 0.13612159058103 
1520	 0.13617346248645 
1521	 0.136224769085867 
1522	 0.136275045774486 
1523	 0.136321366749493 
1524	 0.136356375882173 
1525	 0.136409911553452 
1526	 0.136469473394124 
1527	 0.136524511771827 
1528	 0.136594972108228 
1529	 0.136648272604949 
1530	 0.136686981577166 
1531	 0.136735907643328 
1532	 0.136786115643888 
1533	 0.136829804739295 
1534	 0.136872564469717 
1535	 0.136910562978961 
1536	 0.136936776871884 
1537	 0.13697666847415 
1538	 0.13702133466791 
1539	 0.137068734812108 
1540	 0.137132040688683 
1541	 0.137176506723687 
1542	 0.13721234267007 
1543	 0.137250880797167 
1544	 0.137279700960619 
1545	 0.137310579712923 
1546	 0.137349224975094 
1547	 0.137372649942339 
1548	 0.137401688058318 
1549	 0.137432785540142 
1550	 0.137461521468435 
1551	 0.137489527563421 
1552	 0.13750766912714 
1553	 0.137519994436703 
1554	 0.137529582184363 
1555	 0.137554207258817 
1556	 0.137591228784116 
1557	 0.137624880063585 
1558	 0.137653531733268 
1559	 0.137668609892145 
1560	 0.137694090522339 
1561	 0.137712193811584 
1562	 0.137738882073382 
1563	 0.137781894605056 
1564	 0.137810525884923 
1565	 0.137831170790894 
1566	 0.137847999469407 
1567	 0.137858352947961 
1568	 0.137874052222373 
1569	 0.137892348972217 
1570	 0.137898732880935 
1571	 0.137897328874907 
1572	 0.137910033870119 
1573	 0.13791597461031 
1574	 0.137932455217613 
1575	 0.137968595420845 
1576	 0.137991515267549 
1577	 0.138009327859335 
1578	 0.138028727098119 
1579	 0.138056118821592 
1580	 0.13806757074278 
1581	 0.138055219020088 
1582	 0.138068539474216 
1583	 0.138094339619061 
1584	 0.138107946919333 
1585	 0.138132989663695 
1586	 0.138148570154916 
1587	 0.138142275002274 
1588	 0.138147853741388 
1589	 0.138170561171915 
1590	 0.138178515650168 
1591	 0.138170653555413 
1592	 0.138173716420601 
1593	 0.13817151328973 
1594	 0.138177169164473 
1595	 0.138200804341033 
1596	 0.138215266700553 
1597	 0.138233234612209 
1598	 0.138241318836055 
1599	 0.138241187443192 
1600	 0.138237231555874 
1601	 0.138216589178042 
1602	 0.138207246758809 
1603	 0.138204085729595 
1604	 0.138199522908567 
1605	 0.138198270887097 
1606	 0.138199190815184 
1607	 0.138203571429562 
1608	 0.138198084690177 
1609	 0.138202905520113 
1610	 0.138220203240343 
1611	 0.138217062690448 
1612	 0.138202364761328 
1613	 0.138194955174775 
1614	 0.138170635896929 
1615	 0.138154152349904 
1616	 0.138163344566769 
1617	 0.138161474459322 
1618	 0.138162589905035 
1619	 0.138176071634511 
1620	 0.138177745297253 
1621	 0.138173049070952 
1622	 0.138162702052911 
1623	 0.138154086544147 
1624	 0.138139831156606 
1625	 0.138123460134777 
1626	 0.138104632678364 
1627	 0.138088804381851 
1628	 0.138066264816255 
1629	 0.138056928402632 
1630	 0.138058401430655 
1631	 0.138059299923492 
1632	 0.138066840254287 
1633	 0.138062060715572 
1634	 0.138052159254964 
1635	 0.138049154515604 
1636	 0.138043133490726 
1637	 0.138037684476544 
1638	 0.138045215918406 
1639	 0.138031670806007 
1640	 0.138001320313408 
1641	 0.137981415530284 
1642	 0.137953673618103 
1643	 0.13793800789244 
1644	 0.137929491442966 
1645	 0.137924727767203 
1646	 0.137929361136953 
1647	 0.137924180573528 
1648	 0.137927898933925 
1649	 0.137909018062655 
1650	 0.137871175761799 
1651	 0.137841954261534 
1652	 0.137800826129932 
1653	 0.137771553086428 
1654	 0.137750840722238 
1655	 0.137727680906752 
1656	 0.137705777184327 
1657	 0.137684363490976 
1658	 0.1376681531225 
1659	 0.137642737813655 
1660	 0.137604735954965 
1661	 0.137587783770902 
1662	 0.137581201007815 
1663	 0.137562882247047 
1664	 0.137549634145974 
1665	 0.137540289822907 
1666	 0.13752516269395 
1667	 0.137506774269188 
1668	 0.13750174041753 
1669	 0.137482196736201 
1670	 0.137441837640787 
1671	 0.137412556930398 
1672	 0.137384631739889 
1673	 0.137362642219412 
1674	 0.137349641309094 
1675	 0.137321423576786 
1676	 0.137287417454826 
1677	 0.137261828419259 
1678	 0.13723035722595 
1679	 0.137199849976639 
1680	 0.137179587561504 
1681	 0.137154039486966 
1682	 0.137117741545784 
1683	 0.137088458065394 
1684	 0.137068026232772 
1685	 0.137042596203344 
1686	 0.13699894594104 
1687	 0.136990426120512 
1688	 0.137016512504324 
1689	 0.13700319748249 
1690	 0.136995027893093 
1691	 0.136973845383975 
1692	 0.136914255703639 
1693	 0.136876431787538 
1694	 0.136853898873023 
1695	 0.1368226909254 
1696	 0.136786311643299 
1697	 0.136750309401378 
1698	 0.136717831289005 
1699	 0.136677356625184 
1700	 0.136626113636966 
1701	 0.136583402100517 
1702	 0.136540122631733 
1703	 0.136503324678788 
1704	 0.136476721090736 
1705	 0.136441799020488 
1706	 0.136410497739343 
1707	 0.136364122946591 
1708	 0.13630427631413 
1709	 0.136252019027958 
1710	 0.136186399033855 
1711	 0.136145083358862 
1712	 0.136111709457645 
1713	 0.136095634002855 
1714	 0.136119381337414 
1715	 0.136092548121817 
1716	 0.136053767235899 
1717	 0.136013217183772 
1718	 0.135929489721453 
1719	 0.135890056320432 
1720	 0.135885372886824 
1721	 0.135854447258095 
1722	 0.13582826949359 
1723	 0.135784015598011 
1724	 0.135721308190645 
1725	 0.135667251879213 
1726	 0.135614985616768 
1727	 0.135550600639109 
1728	 0.135473357436718 
1729	 0.135409390472615 
1730	 0.135340400207136 
1731	 0.135282894241617 
1732	 0.135249451971212 
1733	 0.135182486029429 
1734	 0.13510373060223 
1735	 0.13502013308146 
1736	 0.134907835658719 
1737	 0.134835324292686 
1738	 0.134782023274975 
1739	 0.13471498368569 
1740	 0.134660331736917 
1741	 0.13459725082521 
1742	 0.134516402605913 
1743	 0.134459837581925 
1744	 0.134420119777288 
1745	 0.134365866362059 
1746	 0.134313387496201 
1747	 0.134249776808681 
1748	 0.134201358362727 
1749	 0.134148757416992 
1750	 0.134077771262018 
1751	 0.134012334806653 
1752	 0.133948701476444 
1753	 0.133883733448837 
1754	 0.133833491906451 
1755	 0.133760007949973 
1756	 0.133680892678743 
1757	 0.133629356846944 
1758	 0.133556760103871 
1759	 0.133491382042526 
1760	 0.133440332079478 
1761	 0.133388936062891 
1762	 0.133347463176656 
1763	 0.133295649877957 
1764	 0.133238324703389 
1765	 0.133131541212892 
1766	 0.133021992481431 
1767	 0.132967916102934 
1768	 0.132905800564978 
1769	 0.132839175287004 
1770	 0.13278122644151 
1771	 0.132711282247751 
1772	 0.132627699872106 
1773	 0.132559447141473 
1774	 0.132513603307491 
1775	 0.132464325350882 
1776	 0.132410818698448 
1777	 0.132370900636306 
1778	 0.132322693882033 
1779	 0.132239998644951 
1780	 0.132175162900748 
1781	 0.132147590770615 
1782	 0.132121855576299 
1783	 0.132086529597725 
1784	 0.132049015541946 
1785	 0.131991879526379 
1786	 0.131949629531878 
1787	 0.131923198336518 
1788	 0.131900569526287 
1789	 0.131861947594738 
1790	 0.131840769338544 
1791	 0.131860251342575 
1792	 0.131845323175012 
1793	 0.131825757029432 
1794	 0.131806339868864 
1795	 0.131757014003714 
1796	 0.131712934456644 
1797	 0.131670118649937 
1798	 0.131650214921089 
1799	 0.131651781692519 
1800	 0.131629705501026 
1801	 0.129040326587234 
1802	 0.129044093752594 
1803	 0.129063654472523 
1804	 0.129042770110077 
1805	 0.129021191715425 
1806	 0.129022353675613 
1807	 0.129006082824634 
1808	 0.128977476049057 
1809	 0.128922977251935 
1810	 0.128903052747031 
1811	 0.128888565344511 
1812	 0.128867185213335 
1813	 0.128866227721918 
1814	 0.128884040614114 
1815	 0.128868867915536 
1816	 0.128844858498796 
1817	 0.128827433388086 
1818	 0.128806705904095 
1819	 0.128797014823609 
1820	 0.128788853838235 
1821	 0.128789631221683 
1822	 0.128799249616587 
1823	 0.128785439626789 
1824	 0.128755112445509 
1825	 0.128725877011909 
1826	 0.128718487635556 
1827	 0.128713369609306 
1828	 0.128697979064639 
1829	 0.128697986253115 
1830	 0.128678523518662 
1831	 0.128639754949056 
1832	 0.128600856993011 
1833	 0.128555236948927 
1834	 0.128503111953275 
1835	 0.128475207944627 
1836	 0.128411336642199 
1837	 0.128352147620746 
1838	 0.128321071472483 
1839	 0.128263206060549 
1840	 0.128173412427621 
1841	 0.128115776246409 
1842	 0.128086488094889 
1843	 0.128019929777683 
1844	 0.12797395306253 
1845	 0.127939738440028 
1846	 0.12786537520444 
1847	 0.127783265401808 
1848	 0.127709869088936 
1849	 0.127624800584141 
1850	 0.127541455360605 
1851	 0.127461686980909 
1852	 0.127379558165079 
1853	 0.127281593705364 
1854	 0.127198457115428 
1855	 0.127105806488415 
1856	 0.127009977814509 
1857	 0.126906396198374 
1858	 0.126789575970986 
1859	 0.126672590498805 
1860	 0.126530576321882 
1861	 0.126369141343996 
1862	 0.126212406450664 
1863	 0.126048707397255 
1864	 0.125864547494938 
1865	 0.125679711592726 
1866	 0.125474248359804 
1867	 0.125260411267456 
1868	 0.125029982604009 
1869	 0.124767825028871 
1870	 0.124498145778154 
1871	 0.124196405739701 
1872	 0.123861613522507 
1873	 0.123493999800572 
1874	 0.123136382653319 
1875	 0.122743168174887 
1876	 0.122321751441424 
1877	 0.121886798935558 
1878	 0.121394092722873 
1879	 0.120866470574473 
1880	 0.12030775935702 
1881	 0.119698849498036 
1882	 0.119075315148692 
1883	 0.118431294471231 
1884	 0.117751441688641 
1885	 0.11701973089105 
1886	 0.116265636943981 
1887	 0.115448139638158 
1888	 0.114605325360653 
1889	 0.113777035271329 
1890	 0.11291136097096 
1891	 0.112013270483122 
1892	 0.111073618531181 
1893	 0.110127961680723 
1894	 0.10913404233801 
1895	 0.108166519605157 
1896	 0.107198204395544 
1897	 0.106266554125815 
1898	 0.105348497918724 
1899	 0.10441318139509 
1900	 0.10350331954547 
1901	 0.10262049875496 
1902	 0.101763136499052 
1903	 0.100935346468161 
1904	 0.100135943900849 
1905	 9.93667484143195E-02 
1906	 9.86122499379159E-02 
1907	 9.78943954500232E-02 
1908	 9.72041279532176E-02 
1909	 9.65542708911274E-02 
1910	 9.59523355127435E-02 
1911	 9.54167054800471E-02 
1912	 9.49263470046537E-02 
1913	 9.44522386848565E-02 
1914	 9.40246536653438E-02 
1915	 9.36087211328484E-02 
1916	 9.32028815103547E-02 
1917	 9.28248218879188E-02 
1918	 9.24978722487294E-02 
1919	 9.22015786692721E-02 
1920	 9.19641850727368E-02 
1921	 0.091752881640666 
1922	 9.15319814851042E-02 
1923	 9.13470881844724E-02 
1924	 9.11801052716824E-02 
1925	 9.10179385008684E-02 
1926	 9.08843203750263E-02 
1927	 9.07929945649693E-02 
1928	 9.07021974984139E-02 
1929	 9.05914363377213E-02 
1930	 9.05181974546799E-02 
1931	 9.04680448665078E-02 
1932	 0.090434365947251 
1933	 9.04197327963883E-02 
1934	 9.04493586142772E-02 
1935	 9.04695642745181E-02 
1936	 9.04841646904481E-02 
1937	 9.05180942572976E-02 
1938	 9.05732725767947E-02 
1939	 9.06204181341193E-02 
1940	 9.06686106634382E-02 
1941	 9.07363279368524E-02 
1942	 9.07892127218568E-02 
1943	 9.08723465549493E-02 
1944	 9.09703256466852E-02 
1945	 9.10760985767085E-02 
1946	 9.11884649612027E-02 
1947	 9.13214829478377E-02 
1948	 9.14448535254872E-02 
1949	 9.15617680684454E-02 
1950	 0.091692203749141 
1951	 9.18280386488859E-02 
1952	 9.19659134965695E-02 
1953	 9.21313800627046E-02 
1954	 9.23053219585141E-02 
1955	 9.24660376698811E-02 
1956	 9.26316964984442E-02 
1957	 0.092800754592841 
1958	 9.29629312839826E-02 
1959	 9.31304901977059E-02 
1960	 9.33073197067588E-02 
1961	 9.34902561231653E-02 
1962	 9.36694301475935E-02 
1963	 9.38522527506379E-02 
1964	 9.40495802646793E-02 
1965	 9.42389490783914E-02 
1966	 0.094432178893773 
1967	 9.46391191160574E-02 
1968	 9.48483060498272E-02 
1969	 9.50790936864323E-02 
1970	 9.52895945121124E-02 
1971	 9.54884495519443E-02 
1972	 9.56971644495156E-02 
1973	 9.59093690989372E-02 
1974	 9.61115645522741E-02 
1975	 9.63021534721007E-02 
1976	 9.65129653826174E-02 
1977	 9.67407285768912E-02 
1978	 9.69450158685279E-02 
1979	 9.71612273284255E-02 
1980	 9.73856624218531E-02 
1981	 9.76011448335565E-02 
1982	 9.78023767420161E-02 
1983	 0.098005950645961 
1984	 9.82126133976084E-02 
1985	 9.84234032846472E-02 
1986	 9.86200626002756E-02 
1987	 9.88305428382626E-02 
1988	 9.90598228050469E-02 
1989	 0.099277185550906 
1990	 9.95036755444331E-02 
1991	 9.97402644744396E-02 
1992	 9.99724630982425E-02 
1993	 0.100214976941893 
1994	 0.100441534760628 
1995	 0.100665090280454 
1996	 0.10088234737856 
1997	 0.101081760329148 
1998	 0.101297680338816 
1999	 0.101516647924364 
2000	 0.10173105821913 
2001	 0.101949569102403 
2002	 0.102174880539226 
2003	 0.102386344083396 
2004	 0.102597562883619 
2005	 0.102814391934387 
2006	 0.103036259788314 
2007	 0.103255801265536 
2008	 0.103483413161969 
2009	 0.10369796587822 
2010	 0.103910809944435 
2011	 0.104110887604645 
2012	 0.104285886120878 
2013	 0.104478855731761 
2014	 0.104673680566001 
2015	 0.104876353581795 
2016	 0.105060488710917 
2017	 0.1052488901357 
2018	 0.10543839245282 
2019	 0.105604721940207 
2020	 0.105799388428328 
2021	 0.106024218983222 
2022	 0.10622834059434 
2023	 0.106442188623631 
2024	 0.106635638645721 
2025	 0.106808931875789 
2026	 0.106989197862785 
2027	 0.107173127830524 
2028	 0.107328781064894 
2029	 0.107497755134131 
2030	 0.10767775373966 
2031	 0.107836735217959 
2032	 0.107982563521587 
2033	 0.108131280669352 
2034	 0.108255924569982 
2035	 0.108412961336484 
2036	 0.108597334662058 
2037	 0.108760231164573 
2038	 0.108937164373485 
2039	 0.10909601054752 
2040	 0.109226139244404 
2041	 0.109363030856444 
2042	 0.109509099571372 
2043	 0.10966322385531 
2044	 0.109803431563756 
2045	 0.109946926919137 
2046	 0.110072325905028 
2047	 0.11017982120282 
2048	 0.110292948556313 
2049	 0.110389385000405 
2050	 0.110509383792602 
2051	 0.110650746266335 
2052	 0.110770640646038 
2053	 0.110883997625599 
2054	 0.111008068071131 
2055	 0.111125530800996 
2056	 0.111238955986608 
2057	 0.111367346142662 
2058	 0.111527471434318 
2059	 0.111649174148812 
2060	 0.111759713880152 
2061	 0.111866103587236 
2062	 0.111953395209663 
2063	 0.112045532983593 
2064	 0.112118354487423 
2065	 0.112220185438849 
2066	 0.112338908443283 
2067	 0.112453787343312 
2068	 0.112589713062119 
2069	 0.112720579593142 
2070	 0.112839075703506 
2071	 0.112946742067679 
2072	 0.113050129311004 
2073	 0.113139473862062 
2074	 0.113248165891474 
2075	 0.11336283350977 
2076	 0.113468542530289 
2077	 0.113581855083396 
2078	 0.113690359225392 
2079	 0.113793963367014 
2080	 0.113887397331443 
2081	 0.113977370940629 
2082	 0.114067535093426 
2083	 0.114152385282688 
2084	 0.114225281233005 
2085	 0.114294326063421 
2086	 0.114356485855968 
2087	 0.114435822919641 
2088	 0.114508270825629 
2089	 0.11458987173491 
2090	 0.114696218257656 
2091	 0.114788567633136 
2092	 0.114872859589067 
2093	 0.114958735443749 
2094	 0.11505230040952 
2095	 0.115133670042917 
2096	 0.115184791684588 
2097	 0.115268805005352 
2098	 0.115381904001263 
2099	 0.115468705868778 
2100	 0.115564180322201 
2101	 0.115681882693805 
2102	 0.115780440991527 
2103	 0.115860970806682 
2104	 0.115949033401407 
2105	 0.116051789760849 
2106	 0.116127978576658 
2107	 0.116170660510801 
2108	 0.116244465974582 
2109	 0.116310748494638 
2110	 0.116398220891648 
2111	 0.116522007745737 
2112	 0.116631882380342 
2113	 0.116738365273045 
2114	 0.116861847100166 
2115	 0.11695914363663 
2116	 0.117034030438791 
2117	 0.117143135818221 
2118	 0.117261950443493 
2119	 0.117365036918123 
2120	 0.11750385368565 
2121	 0.117587895047629 
2122	 0.117617780276556 
2123	 0.11767488778424 
2124	 0.117709746791176 
2125	 0.117770227303978 
2126	 0.117873695489997 
2127	 0.117934312318522 
2128	 0.117964532177603 
2129	 0.118020105601368 
2130	 0.118052282731104 
2131	 0.118114152366591 
2132	 0.118173069817306 
2133	 0.118275485206821 
2134	 0.118320969460208 
2135	 0.118345073500068 
2136	 0.118354682439008 
2137	 0.118329538126587 
2138	 0.118325694364064 
2139	 0.118322876361121 
2140	 0.118305781982502 
2141	 0.118285709573546 
2142	 0.118265826536554 
2143	 0.118231237821099 
2144	 0.118199278694162 
2145	 0.11818029735444 
2146	 0.118149098521203 
2147	 0.118113933132243 
2148	 0.118059139198004 
2149	 0.118009690993343 
2150	 0.117954142785462 
2151	 0.117905652880461 
2152	 0.117864566031603 
2153	 0.117802468729212 
2154	 0.117739084522568 
2155	 0.117660868953835 
2156	 0.117556562653832 
2157	 0.117463685872964 
2158	 0.117373981332795 
2159	 0.117275056030831 
2160	 0.117164858938312 
2161	 0.117063258983227 
2162	 0.116954669009968 
2163	 0.116855512019962 
2164	 0.116764717458275 
2165	 0.116687978447491 
2166	 0.116588121220276 
2167	 0.116479018389096 
2168	 0.116379355002849 
2169	 0.116276842400036 
2170	 0.116163586241636 
2171	 0.116059821013534 
2172	 0.115938256643795 
2173	 0.11578708397094 
2174	 0.115655060413379 
2175	 0.115527067768536 
2176	 0.115398101890007 
2177	 0.11528388516048 
2178	 0.115148139286541 
2179	 0.11498771444838 
2180	 0.114847595720109 
2181	 0.114709468212036 
2182	 0.114567552515257 
2183	 0.114443580769975 
2184	 0.114308123897437 
2185	 0.114167692882139 
2186	 0.114008566646429 
2187	 0.113866607216192 
2188	 0.113725525215389 
2189	 0.113595934494555 
2190	 0.113468398432647 
2191	 0.113357884240314 
2192	 0.113273517899448 
2193	 0.113169042506798 
2194	 0.113054023288158 
2195	 0.112962244397228 
2196	 0.11286699274067 
2197	 0.112786012379111 
2198	 0.11273200328719 
2199	 0.112679562201924 
2200	 0.112636981730227 
2201	 0.112589988347678 
2202	 0.112533903461898 
2203	 0.112500287428117 
2204	 0.112489077131788 
2205	 0.112484836914897 
2206	 0.112485909858814 
2207	 0.112515416003976 
2208	 0.11254656327509 
2209	 0.112575755986402 
2210	 0.112609485532229 
2211	 0.112670103185512 
2212	 0.112711887044959 
2213	 0.112741644904389 
2214	 0.112773009921073 
2215	 0.112798173043859 
2216	 0.112834418752791 
2217	 0.112872841761531 
2218	 0.112907266611948 
2219	 0.112954028989072 
2220	 0.112993507115024 
2221	 0.113015431438477 
2222	 0.113045715076677 
2223	 0.113115896023918 
2224	 0.113165224067458 
2225	 0.113199096887255 
2226	 0.113239140876966 
2227	 0.113254185146076 
2228	 0.11322080264736 
2229	 0.113245486346189 
2230	 0.113300309822981 
2231	 0.113323701868797 
2232	 0.11337219876196 
2233	 0.113370282638318 
2234	 0.113311595694162 
2235	 0.113288895902814 
2236	 0.113265718368583 
2237	 0.113236350183682 
2238	 0.113230629112294 
2239	 0.113192148453575 
2240	 0.113099105120323 
2241	 0.113055497068417 
2242	 0.11303221648944 
2243	 0.112992920764951 
2244	 0.112968658727019 
2245	 0.112953323273399 
2246	 0.112905352797005 
2247	 0.112868015320882 
2248	 0.112835941470145 
2249	 0.112828611432746 
2250	 0.112781903547266 
2251	 0.112704746138163 
2252	 0.11266693546998 
2253	 0.112638936702076 
2254	 0.112586317857257 
2255	 0.112541470581342 
2256	 0.112501724774321 
2257	 0.112432698254724 
2258	 0.112386529447663 
2259	 0.112373812809801 
2260	 0.112347040616406 
2261	 0.112301622723561 
2262	 0.112276888179602 
2263	 0.112261265552524 
2264	 0.112259802033149 
2265	 0.112276727234529 
2266	 0.112289364750853 
2267	 0.112326997613479 
2268	 0.112342083572763 
2269	 0.112339449449175 
2270	 0.112342330331585 
2271	 0.112334751592708 
2272	 0.112318837706903 
2273	 0.112312822889485 
2274	 0.112310194953464 
2275	 0.112309925408894 
2276	 0.112311446554019 
2277	 0.112314967206816 
2278	 0.112318531101742 
2279	 0.112341398528948 
2280	 0.112374965916377 
2281	 0.112407542569577 
2282	 0.112457068102718 
2283	 0.112488011497595 
2284	 0.112519234761793 
2285	 0.112534963962194 
2286	 0.11254090032973 
2287	 0.112542799725189 
2288	 0.112521038587234 
2289	 0.112511630980544 
2290	 0.112500151329029 
2291	 0.112495730205954 
2292	 0.11250153861967 
2293	 0.112504673432481 
2294	 0.112525393153178 
2295	 0.112527435085143 
2296	 0.112521754196034 
2297	 0.112498527824701 
2298	 0.112485818645671 
2299	 0.112438528122679 
2300	 0.112404080605439 
2301	 0.112379862714312 
2302	 0.112334689271907 
2303	 0.112302490752448 
2304	 0.112267872244752 
2305	 0.11223307346912 
2306	 0.112190011291966 
2307	 0.112155467773774 
2308	 0.112085301102216 
2309	 0.111982124224307 
2310	 0.111899110803065 
2311	 0.11178661292048 
2312	 0.111729860341366 
2313	 0.111725717429028 
2314	 0.111685184283553 
2315	 0.111647737638869 
2316	 0.111606991778167 
2317	 0.11154348038383 
2318	 0.11149484002815 
2319	 0.111488264486645 
2320	 0.11143581029684 
2321	 0.111365595231499 
2322	 0.111277905895138 
2323	 0.111105030512548 
2324	 0.111023423314787 
2325	 0.110978254174403 
2326	 0.110939375049434 
2327	 0.110957151139397 
2328	 0.110988346844726 
2329	 0.110963759473996 
2330	 0.110897583467893 
2331	 0.110827439478262 
2332	 0.110754247057223 
2333	 0.110663746392916 
2334	 0.110607032758615 
2335	 0.110570537849042 
2336	 0.110507466012888 
2337	 0.110421872267711 
2338	 0.110326009563529 
2339	 0.110245911704572 
2340	 0.11018482310161 
2341	 0.110143736748899 
2342	 0.110102556227444 
2343	 0.110058109253593 
2344	 0.110000719043371 
2345	 0.109909442288026 
2346	 0.109810388180703 
2347	 0.109710180528685 
2348	 0.109560426237477 
2349	 0.109429030901526 
2350	 0.10931512363532 
2351	 0.109202592736804 
2352	 0.10906052700715 
2353	 0.108958867402195 
2354	 0.108886293029859 
2355	 0.108834358361461 
2356	 0.108834316831257 
2357	 0.108784243658102 
2358	 0.108729647274724 
2359	 0.108672950814408 
2360	 0.108607256167958 
2361	 0.108490261884985 
2362	 0.108340729203142 
2363	 0.108219306945891 
2364	 0.108048741288656 
2365	 0.107911929172678 
2366	 0.107833706606754 
2367	 0.107722671688322 
2368	 0.107594014228294 
2369	 0.107467384628813 
2370	 0.107343313588432 
2371	 0.107207687008468 
2372	 0.107103059827179 
2373	 0.106984532056875 
2374	 0.106885080362349 
2375	 0.106840215015221 
2376	 0.10672211109479 
2377	 0.106523078257628 
2378	 0.106338166905394 
2379	 0.106164733044113 
2380	 0.106037163677047 
2381	 0.105998052139205 
2382	 0.105899180952689 
2383	 0.105759163388919 
2384	 0.105669448842204 
2385	 0.105490419893115 
2386	 0.105318797357906 
2387	 0.105193573168407 
2388	 0.104995764988953 
2389	 0.10480376550616 
2390	 0.104687947443831 
2391	 0.104544832819313 
2392	 0.104340142516676 
2393	 0.10417084506384 
2394	 0.103982341505663 
2395	 0.103831555728473 
2396	 0.103760858501847 
2397	 0.103619406645296 
2398	 0.103389632418021 
2399	 0.103180134693347 
2400	 0.102969778215195 
2401	 0.102810324787591 
2402	 0.102720930903927 
2403	 0.102546391340072 
2404	 0.102367115698973 
2405	 0.102166529967174 
2406	 0.101899886216446 
2407	 0.101696610272187 
2408	 0.10159103683222 
2409	 0.101478328046156 
2410	 0.101322301834665 
2411	 0.10120216370667 
2412	 0.10096806173436 
2413	 0.10070731218474 
2414	 0.100584682132246 
2415	 0.100475952777207 
2416	 0.100352079846217 
2417	 0.100256841681308 
2418	 0.10013287019374 
2419	 0.099981793214288 
2420	 9.98509207706021E-02 
2421	 0.099770677529833 
2422	 9.95486285516874E-02 
2423	 9.92320717002063E-02 
2424	 9.90098059152759E-02 
2425	 0.098699028436506 
2426	 9.85166048243914E-02 
2427	 9.84979791943219E-02 
2428	 9.83754093008448E-02 
2429	 9.82288604962996E-02 
2430	 0.098089247827226 
2431	 9.79734495852561E-02 
2432	 9.77656927120634E-02 
2433	 9.74787979355902E-02 
2434	 9.72609992279189E-02 
2435	 9.70133510624906E-02 
2436	 9.67986008466447E-02 
2437	 9.66614067440958E-02 
2438	 9.64911312490014E-02 
2439	 9.62887090865034E-02 
2440	 9.60811486195533E-02 
2441	 9.58423368247492E-02 
2442	 9.57374255013339E-02 
2443	 9.57032724933684E-02 
2444	 0.095612077060824 
2445	 9.56396111876097E-02 
2446	 9.54632472359575E-02 
2447	 9.51056292328771E-02 
2448	 0.094869389621632 
2449	 9.46533619436058E-02 
2450	 9.44336554770528E-02 
2451	 9.41635408629586E-02 
2452	 9.40121244731619E-02 
2453	 9.38971606524089E-02 
2454	 9.37094902843615E-02 
2455	 9.36673223120286E-02 
2456	 9.34898168893808E-02 
2457	 0.09317135462782 
2458	 9.29324114669473E-02 
2459	 9.25925457188651E-02 
2460	 9.24315363216595E-02 
2461	 9.23749842848015E-02 
2462	 9.23472463920467E-02 
2463	 9.25300550781866E-02 
2464	 0.092482856894473 
2465	 9.23244198404136E-02 
2466	 9.21979897221456E-02 
2467	 0.092042854292389 
2468	 9.18002193620347E-02 
2469	 9.14920150039751E-02 
2470	 0.09134036244058 
2471	 0.091019900141575 
2472	 9.09506095564977E-02 
2473	 9.08226192563107E-02 
2474	 9.04958836735341E-02 
2475	 9.03197198770308E-02 
2476	 9.01461359018036E-02 
2477	 9.00773938388126E-02 
2478	 9.00924168351755E-02 
2479	 9.00053997481279E-02 
2480	 8.98423870712715E-02 
2481	 8.95721243610416E-02 
2482	 8.93761521616695E-02 
2483	 8.92711326001978E-02 
2484	 8.90936470066672E-02 
2485	 8.89989374355638E-02 
2486	 0.088842249704984 
2487	 8.86794245613702E-02 
2488	 8.87539413827098E-02 
2489	 8.87568079786751E-02 
2490	 8.87243511984083E-02 
2491	 8.87098804098088E-02 
2492	 8.84007631902939E-02 
2493	 8.81958088644254E-02 
2494	 8.81290926862564E-02 
2495	 0.087928473943386 
2496	 8.79936521895462E-02 
2497	 8.79437888268363E-02 
2498	 8.78221522804027E-02 
2499	 8.79779213746423E-02 
2500	 8.79600471590829E-02 
