Wavelength	MM_3200003.asd
350	 3.84826016225926E-02 
351	 3.76476356625135E-02 
352	 3.03643376413262E-02 
353	 2.12817689890917E-02 
354	 1.82892006238649E-02 
355	 0.025001926777019 
356	 3.31183583401409E-02 
357	 3.45571929292511E-02 
358	 3.44757728573707E-02 
359	 2.98201078301286E-02 
360	 2.63708284601749E-02 
361	 3.35137905950126E-02 
362	 3.48605326388439E-02 
363	 0.035019837886066 
364	 3.59103079457676E-02 
365	 3.07171998298163E-02 
366	 2.88733748967539E-02 
367	 2.93592023795143E-02 
368	 2.99148548911956E-02 
369	 3.72314185113353E-02 
370	 3.65097280308049E-02 
371	 3.02407420339452E-02 
372	 3.19931510089258E-02 
373	 3.53385009970294E-02 
374	 3.60373045449633E-02 
375	 3.43277053410749E-02 
376	 3.77043376349292E-02 
377	 3.81129846530225E-02 
378	 3.71651581582417E-02 
379	 0.038055773792324 
380	 3.77929938564903E-02 
381	 3.60082731292462E-02 
382	 0.035933019261265 
383	 4.20848454782931E-02 
384	 4.07433948392834E-02 
385	 3.87725791148814E-02 
386	 4.06600975833428E-02 
387	 4.06758657979637E-02 
388	 0.040413311275739 
389	 3.97963463748086E-02 
390	 3.88960078666631E-02 
391	 4.04428376171493E-02 
392	 4.15752779895024E-02 
393	 0.041936452756439 
394	 4.33858013038486E-02 
395	 4.44658855695014E-02 
396	 4.61170010833498E-02 
397	 0.048132105958556 
398	 4.67234548626638E-02 
399	 4.69603915005653E-02 
400	 4.88494088207725E-02 
401	 5.02154725219291E-02 
402	 4.82037873252098E-02 
403	 4.79523655964499E-02 
404	 5.01544806023564E-02 
405	 5.07067667398922E-02 
406	 5.01316730142522E-02 
407	 4.99820077551028E-02 
408	 5.08968421309729E-02 
409	 5.05216869872139E-02 
410	 5.08403162123171E-02 
411	 5.17312608039919E-02 
412	 5.21439694322895E-02 
413	 5.20325545416942E-02 
414	 5.18928669549298E-02 
415	 5.20839727717529E-02 
416	 5.27420526135295E-02 
417	 5.28984633831081E-02 
418	 5.31515671257317E-02 
419	 5.39626454968853E-02 
420	 5.39986423094052E-02 
421	 5.38126361123963E-02 
422	 5.39123426348576E-02 
423	 0.054601034491118 
424	 5.45387914547371E-02 
425	 5.45620732464109E-02 
426	 5.50783944898813E-02 
427	 5.51879508927773E-02 
428	 5.57746388623641E-02 
429	 5.60980590059018E-02 
430	 5.54176049525049E-02 
431	 5.55664826787434E-02 
432	 5.59927386767573E-02 
433	 5.62854491710134E-02 
434	 5.63249455337927E-02 
435	 5.69507186091498E-02 
436	 5.76523959999727E-02 
437	 5.78870309151394E-02 
438	 5.76427048416418E-02 
439	 5.78001763801094E-02 
440	 5.81188944330971E-02 
441	 5.79496826228106E-02 
442	 5.84034288031233E-02 
443	 5.88195461271597E-02 
444	 0.05887694267645 
445	 0.059013205023676 
446	 5.91526272237327E-02 
447	 5.92736770987071E-02 
448	 5.93641032965137E-02 
449	 5.93771977615433E-02 
450	 5.97583462646462E-02 
451	 6.03669706733709E-02 
452	 0.060577462542878 
453	 6.03851638178677E-02 
454	 6.01993734600938E-02 
455	 6.03350670591997E-02 
456	 6.07506808447455E-02 
457	 6.08847071404332E-02 
458	 6.08236132060506E-02 
459	 6.09221358696863E-02 
460	 6.09868730046055E-02 
461	 6.10415465513842E-02 
462	 6.11340573734361E-02 
463	 6.13177520310905E-02 
464	 6.16759291896943E-02 
465	 6.19726287541282E-02 
466	 6.20173757923408E-02 
467	 6.21742878880908E-02 
468	 6.23074547665763E-02 
469	 6.22591497870511E-02 
470	 6.19271597525354E-02 
471	 6.22389144083813E-02 
472	 6.25898086036685E-02 
473	 6.25498265362015E-02 
474	 6.27298552067344E-02 
475	 6.28615341862749E-02 
476	 6.29227574572176E-02 
477	 6.29832982027263E-02 
478	 6.29929358027746E-02 
479	 6.31165319830197E-02 
480	 0.06336568141153 
481	 6.35233142729264E-02 
482	 6.36899478531228E-02 
483	 6.37881454850488E-02 
484	 6.37818895993215E-02 
485	 6.39974480136568E-02 
486	 6.40452648159136E-02 
487	 6.39850483239268E-02 
488	 6.42276092019945E-02 
489	 6.43477361147785E-02 
490	 6.43119012155039E-02 
491	 0.064259972419261 
492	 6.46203017188063E-02 
493	 6.47232335001533E-02 
494	 6.46606061099352E-02 
495	 6.48261565141944E-02 
496	 6.49037961540478E-02 
497	 0.064944039938985 
498	 6.50080917837671E-02 
499	 6.51234133521737E-02 
500	 6.52332277930993E-02 
501	 6.52423036799769E-02 
502	 6.51303615150524E-02 
503	 6.52301707894144E-02 
504	 6.53406210905374E-02 
505	 6.53919960260276E-02 
506	 6.54540475178404E-02 
507	 6.56042816920124E-02 
508	 0.065765546102465 
509	 6.58576954480017E-02 
510	 6.58732886018697E-02 
511	 6.58851447732885E-02 
512	 6.58776139567449E-02 
513	 6.58130342754355E-02 
514	 6.59270432280142E-02 
515	 6.59973303181679E-02 
516	 6.59691612765764E-02 
517	 6.61742649868882E-02 
518	 6.62337301806255E-02 
519	 6.61742152484106E-02 
520	 0.066152321942004 
521	 6.62433498654652E-02 
522	 6.63171355452578E-02 
523	 6.63267199243724E-02 
524	 6.63252691099146E-02 
525	 6.63627214373241E-02 
526	 6.64102871488866E-02 
527	 6.64402617202893E-02 
528	 6.65054305608656E-02 
529	 6.64714741959141E-02 
530	 0.066440789814926 
531	 6.66305272197058E-02 
532	 6.66252673582112E-02 
533	 0.066691440021345 
534	 0.066920789356165 
535	 6.68158093462075E-02 
536	 6.68340633138626E-02 
537	 6.69337371925981E-02 
538	 6.69237607398782E-02 
539	 6.70213444200235E-02 
540	 0.067061280894768 
541	 6.70212962894107E-02 
542	 6.71049093218366E-02 
543	 6.71613974602153E-02 
544	 6.71909478438185E-02 
545	 6.72264656682336E-02 
546	 6.72687756634924E-02 
547	 6.72665808055714E-02 
548	 6.72396886873936E-02 
549	 6.72651353375386E-02 
550	 6.72937283375507E-02 
551	 6.73723051207784E-02 
552	 0.067519665439425 
553	 6.76634284764281E-02 
554	 6.76378664040099E-02 
555	 6.75691028505377E-02 
556	 0.067699314273502 
557	 6.77515834481649E-02 
558	 6.77947278909426E-02 
559	 6.78859713422367E-02 
560	 6.79978014589877E-02 
561	 0.068079144083201 
562	 6.81448375815219E-02 
563	 6.82285139215425E-02 
564	 6.83319743073504E-02 
565	 6.83215757982165E-02 
566	 6.82326475469311E-02 
567	 6.82909915913187E-02 
568	 6.83956447869265E-02 
569	 6.84925209610201E-02 
570	 6.85678655822012E-02 
571	 6.87270324754093E-02 
572	 6.88036302636639E-02 
573	 6.88218938872516E-02 
574	 6.89350199743789E-02 
575	 6.90749599054172E-02 
576	 6.91710152115962E-02 
577	 6.92137685489705E-02 
578	 6.93398674982558E-02 
579	 6.93999491184757E-02 
580	 0.069388540476769 
581	 6.93636159072313E-02 
582	 6.93521743808178E-02 
583	 6.93267897088837E-02 
584	 6.93121005146026E-02 
585	 6.94156223898016E-02 
586	 0.069524977815762 
587	 6.96134191155938E-02 
588	 0.069690725807303 
589	 6.98078372002873E-02 
590	 6.99249035987192E-02 
591	 7.00305536078765E-02 
592	 7.01411274318267E-02 
593	 7.02086983182887E-02 
594	 0.070319639091856 
595	 7.05002751044058E-02 
596	 7.05548641324738E-02 
597	 7.05315978505639E-02 
598	 7.05024337289732E-02 
599	 7.05394540148201E-02 
600	 7.05409680223064E-02 
601	 7.05961826812846E-02 
602	 7.07093447174992E-02 
603	 7.06897750931624E-02 
604	 0.0707026968827 
605	 7.07747436163193E-02 
606	 7.08658705937775E-02 
607	 7.08502001054793E-02 
608	 7.08729371533973E-02 
609	 7.09765779417137E-02 
610	 7.10682252610138E-02 
611	 7.10573570947849E-02 
612	 7.10455743417152E-02 
613	 7.11167880878298E-02 
614	 7.11191214459248E-02 
615	 7.11284249145468E-02 
616	 7.11431593138962E-02 
617	 7.11172002975888E-02 
618	 0.07116850007628 
619	 7.11959808529437E-02 
620	 7.11590710973137E-02 
621	 7.12242008233002E-02 
622	 7.12603899357045E-02 
623	 7.12462999289961E-02 
624	 7.12178531959329E-02 
625	 7.12875923393241E-02 
626	 7.13134091154287E-02 
627	 7.12648069543502E-02 
628	 7.12831314563219E-02 
629	 7.13386043722997E-02 
630	 7.14004858019166E-02 
631	 7.14428234019648E-02 
632	 7.14767870522989E-02 
633	 7.14818184262792E-02 
634	 7.14694125593075E-02 
635	 7.14762504611741E-02 
636	 7.14957394011345E-02 
637	 7.15141399073542E-02 
638	 7.15200139659623E-02 
639	 7.15087119904043E-02 
640	 7.15078055343944E-02 
641	 7.15336485175515E-02 
642	 7.15893848181723E-02 
643	 7.16352049376176E-02 
644	 7.16605426245433E-02 
645	 7.16793030084017E-02 
646	 7.17363334415554E-02 
647	 7.17735092105933E-02 
648	 7.17784439076683E-02 
649	 7.17620374788563E-02 
650	 7.17616618143661E-02 
651	 7.18018592757008E-02 
652	 7.18480089374611E-02 
653	 7.18243907888882E-02 
654	 7.18616399892687E-02 
655	 7.19156717756629E-02 
656	 7.19390272135039E-02 
657	 7.19539411720385E-02 
658	 0.07200145899836 
659	 7.20524926465946E-02 
660	 7.20539033600721E-02 
661	 7.20589865440509E-02 
662	 7.20808213142072E-02 
663	 7.21194497231988E-02 
664	 0.072163767867562 
665	 7.21684907120602E-02 
666	 7.21520969233445E-02 
667	 7.21502960712711E-02 
668	 0.072182618820293 
669	 7.21922997074688E-02 
670	 7.21954944643134E-02 
671	 7.22619809072149E-02 
672	 7.22791895829168E-02 
673	 7.22876167646015E-02 
674	 7.23177991319133E-02 
675	 7.23054319683451E-02 
676	 7.23411642399692E-02 
677	 7.23906666640693E-02 
678	 7.23815665426518E-02 
679	 7.23884524718881E-02 
680	 7.24353734934347E-02 
681	 7.24983782643655E-02 
682	 0.072498006525218 
683	 7.25503876813087E-02 
684	 7.26032739890261E-02 
685	 7.25966094839143E-02 
686	 7.26075269525737E-02 
687	 7.26128154330971E-02 
688	 7.26220994468389E-02 
689	 7.26608517816937E-02 
690	 7.26431250634616E-02 
691	 7.26364145524623E-02 
692	 7.26805113283261E-02 
693	 7.27184258365496E-02 
694	 7.27361164298645E-02 
695	 7.27544029024317E-02 
696	 7.27939961896701E-02 
697	 7.27867157254894E-02 
698	 7.27723511704815E-02 
699	 7.27879964425447E-02 
700	 7.28572264000014E-02 
701	 7.29041006744716E-02 
702	 7.29058843271845E-02 
703	 7.28690215958547E-02 
704	 7.28315532707101E-02 
705	 7.28594289406487E-02 
706	 7.29020232934816E-02 
707	 7.28653895420579E-02 
708	 0.072861728299643 
709	 7.28899174265555E-02 
710	 7.29214319621799E-02 
711	 7.29056473993509E-02 
712	 7.29214482559363E-02 
713	 7.29447359908833E-02 
714	 7.29402462341595E-02 
715	 7.29473667938577E-02 
716	 7.29509998119792E-02 
717	 7.29473579979339E-02 
718	 7.29433441897065E-02 
719	 7.29643580108457E-02 
720	 7.29731773071337E-02 
721	 7.29582643475457E-02 
722	 7.29751056947842E-02 
723	 7.29955621411853E-02 
724	 7.29994691731302E-02 
725	 7.29779918555052E-02 
726	 7.29647263809613E-02 
727	 7.29599887857455E-02 
728	 7.29539300819623E-02 
729	 7.29323156784012E-02 
730	 7.29575385179151E-02 
731	 7.29771275738796E-02 
732	 7.29516786512451E-02 
733	 7.29192881132797E-02 
734	 7.29054211000867E-02 
735	 7.29059543389514E-02 
736	 7.29020136167393E-02 
737	 0.072883498807622 
738	 7.28595576791443E-02 
739	 7.28434721329283E-02 
740	 7.28495360218785E-02 
741	 7.28436548965972E-02 
742	 7.28219868203799E-02 
743	 7.27920986137861E-02 
744	 7.27705728337511E-02 
745	 7.27576453650362E-02 
746	 7.27511779317585E-02 
747	 7.27446556235866E-02 
748	 7.27142887578115E-02 
749	 7.26952622110386E-02 
750	 7.26924863838553E-02 
751	 7.26686820445166E-02 
752	 7.26288935673758E-02 
753	 7.25871752868776E-02 
754	 7.25626117635791E-02 
755	 7.25843102126173E-02 
756	 7.25978791128387E-02 
757	 7.25794783485602E-02 
758	 7.25327065330919E-02 
759	 7.25251821202734E-02 
760	 7.24927144627812E-02 
761	 7.24306975061638E-02 
762	 0.072422525931123 
763	 7.24346894074468E-02 
764	 7.24242438713388E-02 
765	 7.23720288777402E-02 
766	 7.23333333639758E-02 
767	 7.23008260996833E-02 
768	 7.22807273513164E-02 
769	 0.072278481783823 
770	 7.22557194251685E-02 
771	 7.22267646882685E-02 
772	 0.072201667741514 
773	 7.21794550424546E-02 
774	 7.21867606081554E-02 
775	 7.21747377927077E-02 
776	 7.21172384692034E-02 
777	 7.20951439140596E-02 
778	 7.20754046026554E-02 
779	 7.20632005580254E-02 
780	 7.20690121011703E-02 
781	 0.072028800684584 
782	 7.20027491487734E-02 
783	 7.19984820937286E-02 
784	 7.19603900598223E-02 
785	 7.19175604315409E-02 
786	 7.18838747285291E-02 
787	 7.18632599916118E-02 
788	 7.18435967492788E-02 
789	 7.18246105982559E-02 
790	 7.17982893095077E-02 
791	 7.17594479253071E-02 
792	 7.17325637925931E-02 
793	 7.16742883089211E-02 
794	 7.16099524327521E-02 
795	 7.16167312478074E-02 
796	 7.16070549464633E-02 
797	 7.15772815433374E-02 
798	 7.15478880025815E-02 
799	 7.15598381507217E-02 
800	 7.15273215572334E-02 
801	 7.14891271350416E-02 
802	 7.14928421058497E-02 
803	 0.071461019996604 
804	 7.14306087629675E-02 
805	 7.14143415092033E-02 
806	 7.14016213146706E-02 
807	 7.13350570933396E-02 
808	 0.071283336969812 
809	 7.12806822652496E-02 
810	 7.12970685182125E-02 
811	 7.13094916607508E-02 
812	 0.071275461502602 
813	 7.11966492550614E-02 
814	 7.11989292242026E-02 
815	 7.11805222451019E-02 
816	 7.11375256888259E-02 
817	 7.11075302148811E-02 
818	 7.11174395858073E-02 
819	 7.11120663568535E-02 
820	 7.10646734529765E-02 
821	 7.09885529581375E-02 
822	 7.10070590478867E-02 
823	 7.10154367141529E-02 
824	 7.09624248843535E-02 
825	 7.09424146523281E-02 
826	 7.09275500814612E-02 
827	 7.09102170162701E-02 
828	 7.08917212667695E-02 
829	 7.08915638090062E-02 
830	 0.070872759998313 
831	 7.08354985835354E-02 
832	 7.08035800313171E-02 
833	 7.08130709274095E-02 
834	 0.070830888175923 
835	 7.08215573155503E-02 
836	 0.070762832455215 
837	 7.07537436419821E-02 
838	 7.07684792436991E-02 
839	 7.07658535304847E-02 
840	 7.07164718578157E-02 
841	 7.06997833438228E-02 
842	 7.06909170086018E-02 
843	 7.06564317873798E-02 
844	 7.06306167748602E-02 
845	 7.06434619742764E-02 
846	 7.06556400075293E-02 
847	 7.06190692816217E-02 
848	 7.06464620163881E-02 
849	 7.06111990814257E-02 
850	 7.05279811410754E-02 
851	 0.070528031344519 
852	 7.05040241361189E-02 
853	 7.04740787962552E-02 
854	 7.04698754647718E-02 
855	 7.05151984008677E-02 
856	 7.04990842657222E-02 
857	 7.05085245047167E-02 
858	 7.05886873286055E-02 
859	 7.05545072567898E-02 
860	 7.05085642247523E-02 
861	 7.04901587800117E-02 
862	 7.05018809284692E-02 
863	 7.04908561652302E-02 
864	 7.04467544923966E-02 
865	 7.04091202803733E-02 
866	 7.04302540780018E-02 
867	 7.04292067304779E-02 
868	 7.04157735613273E-02 
869	 7.04091602479469E-02 
870	 7.04250359676274E-02 
871	 7.04161127120919E-02 
872	 7.04126567872302E-02 
873	 0.070414819072446 
874	 7.03556383133564E-02 
875	 7.03434136243405E-02 
876	 7.03526621165128E-02 
877	 7.03466246722363E-02 
878	 7.03518162826994E-02 
879	 7.03748858024251E-02 
880	 7.03738599474802E-02 
881	 7.03296318303789E-02 
882	 7.03902840225469E-02 
883	 0.07041357819996 
884	 7.03693610291891E-02 
885	 7.03053290160659E-02 
886	 7.02767538819949E-02 
887	 7.02909743530827E-02 
888	 7.03049683202295E-02 
889	 7.02575803659443E-02 
890	 7.03008643870989E-02 
891	 7.03383111517255E-02 
892	 7.03155688830374E-02 
893	 7.02756511311083E-02 
894	 7.02847619719601E-02 
895	 7.02899638958791E-02 
896	 7.02656694180339E-02 
897	 7.02795663337891E-02 
898	 7.02995072079434E-02 
899	 7.02942657468371E-02 
900	 7.02675453929485E-02 
901	 7.03180004649542E-02 
902	 7.03240259934935E-02 
903	 7.02977526598463E-02 
904	 7.02883295830156E-02 
905	 7.02916273922668E-02 
906	 0.070298007259539 
907	 7.03131583615287E-02 
908	 7.03366027126882E-02 
909	 7.02978410906548E-02 
910	 7.02703296848548E-02 
911	 7.02914967053338E-02 
912	 7.03518437239104E-02 
913	 7.03541006409999E-02 
914	 0.070365998914354 
915	 7.03902637671986E-02 
916	 7.03667857774262E-02 
917	 7.03287703459967E-02 
918	 7.03572591209907E-02 
919	 7.04046850416087E-02 
920	 0.070298859206672 
921	 7.03072919650528E-02 
922	 7.03557914141028E-02 
923	 7.03687462572375E-02 
924	 7.03600954347653E-02 
925	 7.03652193655657E-02 
926	 7.03787811960074E-02 
927	 7.03853086420556E-02 
928	 7.03696884213885E-02 
929	 7.04032762740986E-02 
930	 7.04419293841612E-02 
931	 7.04385693215339E-02 
932	 7.04080953688102E-02 
933	 7.04614819692269E-02 
934	 7.04776515126563E-02 
935	 7.03832875667729E-02 
936	 7.04492411093308E-02 
937	 7.04652100724288E-02 
938	 7.04557344952058E-02 
939	 7.04903627208995E-02 
940	 7.05044658026877E-02 
941	 7.05769585247863E-02 
942	 7.05994441618999E-02 
943	 7.04850333391448E-02 
944	 7.05220617301536E-02 
945	 7.05420282977609E-02 
946	 7.05539014725136E-02 
947	 7.06049771927677E-02 
948	 7.05133112261077E-02 
949	 7.04940224380885E-02 
950	 7.05236564233714E-02 
951	 7.04944744601658E-02 
952	 7.05930343748733E-02 
953	 7.05764303441935E-02 
954	 7.04603554289044E-02 
955	 7.04208631362766E-02 
956	 7.05506194128923E-02 
957	 7.06762795612394E-02 
958	 0.070721271023493 
959	 7.06985285842668E-02 
960	 7.06583794262958E-02 
961	 7.06031802571021E-02 
962	 7.06174946130592E-02 
963	 7.07616128280143E-02 
964	 7.06547068587246E-02 
965	 7.06366146320953E-02 
966	 7.07421430534803E-02 
967	 7.07793613374403E-02 
968	 7.07626271950959E-02 
969	 7.07281772043043E-02 
970	 7.07207302211798E-02 
971	 0.070759969125879 
972	 0.070713339410318 
973	 7.07383638440595E-02 
974	 7.07917144685994E-02 
975	 7.07312308984135E-02 
976	 7.07605941029402E-02 
977	 7.07773029517542E-02 
978	 7.07433621499594E-02 
979	 7.06874972455828E-02 
980	 7.06575209091072E-02 
981	 7.06782796424407E-02 
982	 7.07427787875504E-02 
983	 7.08194829443614E-02 
984	 7.08751793279834E-02 
985	 7.08550461569502E-02 
986	 0.070814663541764 
987	 7.08458635405584E-02 
988	 7.08890617685031E-02 
989	 0.070896090310408 
990	 7.08820116695505E-02 
991	 7.08982257397656E-02 
992	 7.10037246612944E-02 
993	 7.09272125871062E-02 
994	 0.070789274451435 
995	 7.08211624710657E-02 
996	 7.08805871220393E-02 
997	 7.09610089834897E-02 
998	 7.10128804355359E-02 
999	 7.10028314994662E-02 
1000	 7.09820531001384E-02 
1001	 7.02518925878367E-02 
1002	 0.070282339205534 
1003	 7.03043259474272E-02 
1004	 0.070323877353418 
1005	 7.03266349370272E-02 
1006	 7.03224296643361E-02 
1007	 7.03203678546358E-02 
1008	 7.03019906938076E-02 
1009	 7.02849251149432E-02 
1010	 7.02908844186907E-02 
1011	 7.03360660253501E-02 
1012	 7.04163771932165E-02 
1013	 7.04627402638746E-02 
1014	 7.04621882082333E-02 
1015	 7.04427856004551E-02 
1016	 7.04186935771958E-02 
1017	 7.04007620340076E-02 
1018	 7.03779368868781E-02 
1019	 7.03973576134587E-02 
1020	 7.04178084919661E-02 
1021	 7.04385110610184E-02 
1022	 7.04725290119672E-02 
1023	 0.070471774143513 
1024	 7.04045924087791E-02 
1025	 7.02859404546175E-02 
1026	 0.070271442654561 
1027	 0.070292783979756 
1028	 7.03209094123324E-02 
1029	 7.03875858730046E-02 
1030	 7.03587608405124E-02 
1031	 7.03572540832005E-02 
1032	 0.070325555450461 
1033	 7.03363103049223E-02 
1034	 7.03365690108299E-02 
1035	 7.03470193499082E-02 
1036	 7.03038422848319E-02 
1037	 0.0702376705964 
1038	 7.02269452212883E-02 
1039	 7.02387222835558E-02 
1040	 0.070251813850386 
1041	 7.02585518013172E-02 
1042	 7.02368750314089E-02 
1043	 7.02368619220571E-02 
1044	 7.02552680862604E-02 
1045	 7.03137035575986E-02 
1046	 7.03228251931148E-02 
1047	 0.070266689561394 
1048	 7.02285377983432E-02 
1049	 7.01072753330731E-02 
1050	 6.99969931315293E-02 
1051	 7.00354962999818E-02 
1052	 7.00053371738286E-02 
1053	 7.00539350194918E-02 
1054	 7.02259268499072E-02 
1055	 7.02571375234069E-02 
1056	 7.03194845026531E-02 
1057	 7.03610006363695E-02 
1058	 0.070314766175872 
1059	 7.03013558570592E-02 
1060	 0.070307310696188 
1061	 7.03280314297336E-02 
1062	 0.070350253757792 
1063	 0.070414885525947 
1064	 7.04899684350429E-02 
1065	 7.05302189549658E-02 
1066	 7.05132977685111E-02 
1067	 0.070497297548948 
1068	 7.05135171942549E-02 
1069	 7.05662319803118E-02 
1070	 7.06009608355981E-02 
1071	 7.06649702581054E-02 
1072	 7.06953383614768E-02 
1073	 7.07057274139631E-02 
1074	 7.07035830074222E-02 
1075	 7.06776387183066E-02 
1076	 7.07025233617753E-02 
1077	 7.06857438974687E-02 
1078	 7.06125783198572E-02 
1079	 7.06280825229391E-02 
1080	 0.070673806358776 
1081	 0.070703148764045 
1082	 7.07667028429526E-02 
1083	 0.070806508822361 
1084	 7.08251345483244E-02 
1085	 7.08308409756001E-02 
1086	 7.08340800962274E-02 
1087	 7.08386870798899E-02 
1088	 7.08175959610644E-02 
1089	 0.070828237215299 
1090	 7.08481893849246E-02 
1091	 7.08553698469655E-02 
1092	 7.09048215757516E-02 
1093	 7.09366098996555E-02 
1094	 7.09148419304981E-02 
1095	 7.08841099244719E-02 
1096	 7.08619160678719E-02 
1097	 7.08192028829726E-02 
1098	 7.08216137539574E-02 
1099	 0.070905076609816 
1100	 7.09257917853817E-02 
1101	 7.09182851495382E-02 
1102	 7.09295328449735E-02 
1103	 7.09423557531378E-02 
1104	 7.09169006959494E-02 
1105	 7.09355043589237E-02 
1106	 7.09738744540335E-02 
1107	 0.070954690812541 
1108	 7.09646702629683E-02 
1109	 7.09889482522445E-02 
1110	 7.09747772259314E-02 
1111	 7.09867912503364E-02 
1112	 7.10348711436702E-02 
1113	 7.10443757726677E-02 
1114	 7.10243225494405E-02 
1115	 7.10362601196154E-02 
1116	 7.10633803496187E-02 
1117	 7.10552045938145E-02 
1118	 0.071029915046642 
1119	 7.10407124870487E-02 
1120	 7.10107644746428E-02 
1121	 7.09973244073608E-02 
1122	 0.071037789892074 
1123	 7.10597610271556E-02 
1124	 0.071071804475583 
1125	 7.10800811363072E-02 
1126	 7.10934410022079E-02 
1127	 0.071096452124211 
1128	 0.071109030383671 
1129	 7.11472129601994E-02 
1130	 7.11458871900626E-02 
1131	 7.11126833921951E-02 
1132	 7.11066152093122E-02 
1133	 7.11013397244272E-02 
1134	 7.10851561073973E-02 
1135	 7.10719578570026E-02 
1136	 7.10671380839029E-02 
1137	 0.071062456483612 
1138	 7.10437393949061E-02 
1139	 7.10399511359572E-02 
1140	 0.071067703652184 
1141	 7.10619053602069E-02 
1142	 7.10307462289363E-02 
1143	 7.10211878903246E-02 
1144	 7.10114355264849E-02 
1145	 7.10091914562429E-02 
1146	 7.10203509080063E-02 
1147	 7.10266731547413E-02 
1148	 7.10348012831635E-02 
1149	 7.10340302608759E-02 
1150	 0.071035803821884 
1151	 0.071032074975189 
1152	 7.09831725564287E-02 
1153	 7.09616860080976E-02 
1154	 7.09455870466125E-02 
1155	 7.09140669212493E-02 
1156	 7.09133994342086E-02 
1157	 7.09559384872883E-02 
1158	 7.09608307257225E-02 
1159	 7.09572325634821E-02 
1160	 7.09561454192053E-02 
1161	 7.09356197837399E-02 
1162	 7.09334580026627E-02 
1163	 7.09437254988363E-02 
1164	 7.09526273925539E-02 
1165	 0.070972730078613 
1166	 7.09875521256923E-02 
1167	 7.09710514609912E-02 
1168	 7.09675990270206E-02 
1169	 7.09737585752467E-02 
1170	 7.09715656923362E-02 
1171	 7.09836775621274E-02 
1172	 7.10248931745952E-02 
1173	 7.10403695090841E-02 
1174	 7.10412633466321E-02 
1175	 7.10535669810887E-02 
1176	 7.10711387611482E-02 
1177	 7.10786390675471E-02 
1178	 7.10755734449052E-02 
1179	 7.10869404348761E-02 
1180	 7.10977051881746E-02 
1181	 7.11123791608385E-02 
1182	 0.07114386973982 
1183	 7.11696004978348E-02 
1184	 7.11955109804723E-02 
1185	 7.12248481934173E-02 
1186	 7.12331911412369E-02 
1187	 7.12251153275288E-02 
1188	 7.12398769869193E-02 
1189	 7.12446807391622E-02 
1190	 7.12634573414738E-02 
1191	 7.13120262459659E-02 
1192	 7.13425821067486E-02 
1193	 7.13661572420683E-02 
1194	 7.13875323846034E-02 
1195	 0.071406781088628 
1196	 7.14253023634665E-02 
1197	 7.14291727073378E-02 
1198	 7.14481633881932E-02 
1199	 7.14738936899675E-02 
1200	 0.071511347241145 
1201	 7.15329699100554E-02 
1202	 7.15623933434246E-02 
1203	 7.15744898902084E-02 
1204	 7.15592317004694E-02 
1205	 0.071572355532653 
1206	 0.071590976588131 
1207	 7.16134148375123E-02 
1208	 7.16531127030197E-02 
1209	 7.16830075951628E-02 
1210	 7.17096760545045E-02 
1211	 7.17370182294811E-02 
1212	 7.17709636971179E-02 
1213	 7.17928025162537E-02 
1214	 7.18046376650844E-02 
1215	 7.18195698258934E-02 
1216	 7.18319895106223E-02 
1217	 7.18339182022211E-02 
1218	 7.18481296519305E-02 
1219	 7.18699503050358E-02 
1220	 7.18874512764799E-02 
1221	 7.19089499661398E-02 
1222	 7.19236390995401E-02 
1223	 0.071929719692739 
1224	 7.19462770535615E-02 
1225	 0.071963140747314 
1226	 7.19831271204135E-02 
1227	 7.20188670201905E-02 
1228	 7.20403750063103E-02 
1229	 7.20519442572946E-02 
1230	 7.20674530525136E-02 
1231	 7.20809419336238E-02 
1232	 0.072091281861519 
1233	 7.21007441776735E-02 
1234	 7.21126907305587E-02 
1235	 7.21210781673659E-02 
1236	 7.21187994458686E-02 
1237	 7.21321819112584E-02 
1238	 7.21537379687812E-02 
1239	 7.21720642157157E-02 
1240	 7.21994909139952E-02 
1241	 7.22182328493024E-02 
1242	 7.22290966931591E-02 
1243	 7.22460210407951E-02 
1244	 7.22721600886567E-02 
1245	 7.22822147920923E-02 
1246	 7.22845109468633E-02 
1247	 7.22886956751854E-02 
1248	 7.22756368588267E-02 
1249	 7.22704864479347E-02 
1250	 7.22962996380491E-02 
1251	 7.23165385911484E-02 
1252	 7.23383782352061E-02 
1253	 0.072373366603482 
1254	 7.23966070955297E-02 
1255	 7.24131411509668E-02 
1256	 7.24272318683401E-02 
1257	 7.24382634761303E-02 
1258	 7.24502560413081E-02 
1259	 7.24609536783035E-02 
1260	 7.24661949930795E-02 
1261	 7.24722314065079E-02 
1262	 7.24725455094507E-02 
1263	 7.24624231424152E-02 
1264	 0.072454729957541 
1265	 7.24440458643336E-02 
1266	 7.24363923720597E-02 
1267	 7.24282851669132E-02 
1268	 7.24181635951822E-02 
1269	 7.24207250583127E-02 
1270	 0.072432371705308 
1271	 7.24401224329568E-02 
1272	 7.24560879141395E-02 
1273	 7.24649637296179E-02 
1274	 7.24662299705063E-02 
1275	 7.24750995444011E-02 
1276	 7.24816581859912E-02 
1277	 7.24980032368691E-02 
1278	 7.25149482528996E-02 
1279	 0.072548170290605 
1280	 7.25970579027863E-02 
1281	 0.072645561271706 
1282	 7.27213807041713E-02 
1283	 7.27696831505395E-02 
1284	 7.27972336957977E-02 
1285	 7.28306162797663E-02 
1286	 7.28784412131604E-02 
1287	 7.29246887097739E-02 
1288	 7.29775791972425E-02 
1289	 7.30570493103913E-02 
1290	 7.31092226727209E-02 
1291	 0.07314591443731 
1292	 7.31895182571499E-02 
1293	 0.073225676707137 
1294	 7.32738432962843E-02 
1295	 7.33279801438411E-02 
1296	 7.33756156465119E-02 
1297	 7.34334196943958E-02 
1298	 7.34801060497365E-02 
1299	 7.35171630129094E-02 
1300	 7.35530951686883E-02 
1301	 7.35832861260685E-02 
1302	 7.36135005825437E-02 
1303	 7.36434526604236E-02 
1304	 7.36720578971342E-02 
1305	 7.36803731105075E-02 
1306	 7.36814134327537E-02 
1307	 7.36958259550122E-02 
1308	 7.37084964941282E-02 
1309	 7.37210113824269E-02 
1310	 7.37483293619993E-02 
1311	 7.37651113998987E-02 
1312	 7.37667124303566E-02 
1313	 0.073782062821904 
1314	 7.38091262073485E-02 
1315	 7.38245523274093E-02 
1316	 7.38416819244473E-02 
1317	 7.38496510283184E-02 
1318	 7.38485989271162E-02 
1319	 7.38496634903884E-02 
1320	 7.38462400146963E-02 
1321	 7.38396577778025E-02 
1322	 7.38245778727775E-02 
1323	 7.38217786282469E-02 
1324	 7.38197629367617E-02 
1325	 7.38155259098051E-02 
1326	 7.38295149883132E-02 
1327	 7.38345227667434E-02 
1328	 7.38069607280325E-02 
1329	 7.38052205089858E-02 
1330	 7.37871174475209E-02 
1331	 7.37410411555329E-02 
1332	 7.37243104836311E-02 
1333	 7.37206263891888E-02 
1334	 7.37138379657521E-02 
1335	 7.37251886744499E-02 
1336	 7.37232387442733E-02 
1337	 7.37163285945297E-02 
1338	 7.37070559117387E-02 
1339	 7.36855785343911E-02 
1340	 7.36719348767074E-02 
1341	 7.36600619294074E-02 
1342	 7.36517831833875E-02 
1343	 7.36449903664229E-02 
1344	 7.36494577061501E-02 
1345	 7.36401143525983E-02 
1346	 7.36214709494988E-02 
1347	 7.36173015494981E-02 
1348	 7.36046305904689E-02 
1349	 7.36034341692252E-02 
1350	 0.073617156722416 
1351	 7.36159454745247E-02 
1352	 7.36044297062108E-02 
1353	 7.36048857226016E-02 
1354	 7.36086998883792E-02 
1355	 7.36061053193847E-02 
1356	 7.36117222721941E-02 
1357	 0.073606304127666 
1358	 7.35748391426196E-02 
1359	 7.35758115713331E-02 
1360	 7.36026423655041E-02 
1361	 7.36037007836452E-02 
1362	 7.36187925573475E-02 
1363	 7.36129664936717E-02 
1364	 0.073560759993569 
1365	 7.35407324591614E-02 
1366	 7.35382418630244E-02 
1367	 0.073525525306033 
1368	 7.35167447811026E-02 
1369	 7.35132236145662E-02 
1370	 7.34865304485677E-02 
1371	 7.34438733002791E-02 
1372	 7.34000399365905E-02 
1373	 7.33524899215307E-02 
1374	 7.33013448346113E-02 
1375	 7.32402894149199E-02 
1376	 7.31895428089909E-02 
1377	 7.31481085840644E-02 
1378	 7.30874168011423E-02 
1379	 7.30203387954803E-02 
1380	 7.29500835259253E-02 
1381	 7.28726226756962E-02 
1382	 7.27831189752676E-02 
1383	 7.26919897912638E-02 
1384	 7.25915336556658E-02 
1385	 7.24689263610319E-02 
1386	 7.23561229993448E-02 
1387	 7.22522719019791E-02 
1388	 7.21367468134654E-02 
1389	 7.20270417328168E-02 
1390	 7.18902086869212E-02 
1391	 7.17430487175955E-02 
1392	 7.15865063806453E-02 
1393	 7.14230817086296E-02 
1394	 0.071267092513252 
1395	 7.11027865053479E-02 
1396	 7.09216264067508E-02 
1397	 7.07395427329145E-02 
1398	 7.05457762346172E-02 
1399	 7.03558811420315E-02 
1400	 7.01646451085538E-02 
1401	 0.069972574281453 
1402	 6.97768428283364E-02 
1403	 0.069582285106165 
1404	 0.069379393152851 
1405	 6.91961370842829E-02 
1406	 6.90177406381359E-02 
1407	 6.88501371993057E-02 
1408	 6.86984360860687E-02 
1409	 6.85491652271939E-02 
1410	 6.84000201005241E-02 
1411	 6.82655790799827E-02 
1412	 6.81384953736952E-02 
1413	 6.80264951774179E-02 
1414	 6.79292909952081E-02 
1415	 6.78431962114197E-02 
1416	 0.067754709831233 
1417	 6.76779927483659E-02 
1418	 6.76090644458824E-02 
1419	 6.75273783956719E-02 
1420	 0.067465614456833 
1421	 6.74170300904304E-02 
1422	 6.73647919192882E-02 
1423	 6.73363938080362E-02 
1424	 6.73050311408498E-02 
1425	 6.72818540697356E-02 
1426	 6.72533749212436E-02 
1427	 0.067222417905767 
1428	 6.72015317873959E-02 
1429	 6.71820775094752E-02 
1430	 6.71711588892078E-02 
1431	 6.71751255298812E-02 
1432	 6.71727015380577E-02 
1433	 6.71680803853765E-02 
1434	 6.71665342659783E-02 
1435	 6.71673306312434E-02 
1436	 6.71681556681707E-02 
1437	 0.0671651356621 
1438	 6.71769102410336E-02 
1439	 6.71988620198082E-02 
1440	 6.72143288621885E-02 
1441	 6.72434191192869E-02 
1442	 6.72770088186619E-02 
1443	 0.067296227406824 
1444	 6.73142581815933E-02 
1445	 6.73416511226258E-02 
1446	 6.73582980957481E-02 
1447	 0.067379729062536 
1448	 6.74108948275479E-02 
1449	 6.74257722496273E-02 
1450	 6.74532570796881E-02 
1451	 0.067482029664288 
1452	 6.75150980782054E-02 
1453	 6.75395152077679E-02 
1454	 0.067565929809362 
1455	 6.75898493563023E-02 
1456	 6.76044609429125E-02 
1457	 0.067629486699783 
1458	 0.067657221321501 
1459	 6.76899908831522E-02 
1460	 6.77292927104655E-02 
1461	 6.77666851680468E-02 
1462	 0.067812321058418 
1463	 6.78485667311326E-02 
1464	 6.78723778064243E-02 
1465	 0.067911502086654 
1466	 0.067952119612318 
1467	 6.79988423238397E-02 
1468	 6.80577469666522E-02 
1469	 6.81148035271551E-02 
1470	 6.81709744265739E-02 
1471	 6.82351436380008E-02 
1472	 6.83029399424293E-02 
1473	 6.83622368600368E-02 
1474	 6.84214735191528E-02 
1475	 6.84886962953166E-02 
1476	 6.85591252497634E-02 
1477	 6.86381022994747E-02 
1478	 6.87264245002042E-02 
1479	 6.87998801254027E-02 
1480	 6.88519046734852E-02 
1481	 6.89140786538812E-02 
1482	 6.89822282599035E-02 
1483	 0.069051919514785 
1484	 6.91135617375039E-02 
1485	 6.91789390459881E-02 
1486	 6.92442651803936E-02 
1487	 6.92977218439825E-02 
1488	 6.93633708340581E-02 
1489	 6.94438905673404E-02 
1490	 6.95174458068316E-02 
1491	 6.95800368353841E-02 
1492	 6.96565866459604E-02 
1493	 6.97522165535696E-02 
1494	 6.98280414507631E-02 
1495	 6.99040912585543E-02 
1496	 6.99740115697771E-02 
1497	 7.00195536233197E-02 
1498	 7.00829245478621E-02 
1499	 7.01597170989449E-02 
1500	 7.02250693784771E-02 
1501	 7.02922549388328E-02 
1502	 7.03586621142518E-02 
1503	 7.04167110754221E-02 
1504	 7.04760689389183E-02 
1505	 0.070548764407824 
1506	 7.06114794766464E-02 
1507	 7.06784783795477E-02 
1508	 7.07536464362195E-02 
1509	 0.070809440698316 
1510	 7.08574348812996E-02 
1511	 7.09121423993137E-02 
1512	 7.09519992714601E-02 
1513	 7.09992839273682E-02 
1514	 7.10606521340706E-02 
1515	 7.11131510816807E-02 
1516	 7.11672522451931E-02 
1517	 7.12128922876019E-02 
1518	 7.12549593622353E-02 
1519	 7.13015395614277E-02 
1520	 0.071336370920896 
1521	 7.13883573042727E-02 
1522	 0.071457991388306 
1523	 7.15138978272426E-02 
1524	 7.15721663372182E-02 
1525	 7.16234856144976E-02 
1526	 7.16681763831834E-02 
1527	 7.17136473533584E-02 
1528	 7.17516705344963E-02 
1529	 7.17973192859372E-02 
1530	 7.18453015086982E-02 
1531	 0.071892840642304 
1532	 7.19483049247312E-02 
1533	 7.19942418699847E-02 
1534	 7.20311272667141E-02 
1535	 7.20742889455099E-02 
1536	 7.21249981368831E-02 
1537	 7.21626482745574E-02 
1538	 7.21940275016783E-02 
1539	 7.22276285343596E-02 
1540	 7.22404709233857E-02 
1541	 7.22733410688198E-02 
1542	 7.23274596768778E-02 
1543	 7.23745643895618E-02 
1544	 7.24294164402403E-02 
1545	 7.24764699746654E-02 
1546	 7.25266337975899E-02 
1547	 7.25568004689091E-02 
1548	 7.25725195939651E-02 
1549	 7.25952034836148E-02 
1550	 0.072620079231695 
1551	 7.26439782188233E-02 
1552	 7.26870414561483E-02 
1553	 7.27344117328574E-02 
1554	 7.27634919529868E-02 
1555	 7.27907473666432E-02 
1556	 7.28229384011524E-02 
1557	 0.072863551137876 
1558	 7.28981304095818E-02 
1559	 7.29278819898687E-02 
1560	 7.29562114697534E-02 
1561	 0.072969693977097 
1562	 7.29959638903886E-02 
1563	 7.30315829575403E-02 
1564	 7.30620943612213E-02 
1565	 7.30937152308967E-02 
1566	 7.31229978361595E-02 
1567	 7.31512039961401E-02 
1568	 7.31770588249427E-02 
1569	 7.32048281954377E-02 
1570	 7.32219244745572E-02 
1571	 0.07322818825128 
1572	 7.32439279621526E-02 
1573	 7.32534158202726E-02 
1574	 7.32715688486948E-02 
1575	 7.32996883435858E-02 
1576	 7.33266168047422E-02 
1577	 7.33588489290058E-02 
1578	 7.33838685001492E-02 
1579	 7.34114098459017E-02 
1580	 7.34322140401081E-02 
1581	 7.34370839811105E-02 
1582	 7.34577281685894E-02 
1583	 0.073489879578142 
1584	 7.35082291383734E-02 
1585	 7.35260607605251E-02 
1586	 7.35436191696326E-02 
1587	 7.35506861260525E-02 
1588	 7.35636671081326E-02 
1589	 7.35782192901535E-02 
1590	 0.073600236388843 
1591	 7.36320801924115E-02 
1592	 0.073651539537145 
1593	 0.073671788781165 
1594	 7.36912812471362E-02 
1595	 7.36956453623629E-02 
1596	 7.37108094054072E-02 
1597	 0.073740301329255 
1598	 7.37601763084218E-02 
1599	 7.37781222077741E-02 
1600	 7.37921774204658E-02 
1601	 7.38022419386717E-02 
1602	 7.38081699810599E-02 
1603	 7.38064177720073E-02 
1604	 7.38109741220416E-02 
1605	 7.38133655256153E-02 
1606	 7.38176947123127E-02 
1607	 7.38299632100118E-02 
1608	 7.38366373573375E-02 
1609	 7.38474985954383E-02 
1610	 7.38551633433696E-02 
1611	 0.073864150651582 
1612	 7.38941738350014E-02 
1613	 7.39176301166399E-02 
1614	 7.39311702758937E-02 
1615	 7.39497482303614E-02 
1616	 7.39567854220375E-02 
1617	 7.39576054417965E-02 
1618	 0.073981379215158 
1619	 7.40057346641654E-02 
1620	 7.40062157744964E-02 
1621	 7.40196247715564E-02 
1622	 7.40387742471266E-02 
1623	 7.40411844478153E-02 
1624	 0.074036687953745 
1625	 7.40401567099749E-02 
1626	 7.40346289012551E-02 
1627	 0.074033255186945 
1628	 7.40382668919228E-02 
1629	 7.40466365099371E-02 
1630	 7.40529430226693E-02 
1631	 7.40614610705512E-02 
1632	 7.40810684804567E-02 
1633	 7.40913533632485E-02 
1634	 0.074092090982429 
1635	 7.41020726036137E-02 
1636	 7.41218814473321E-02 
1637	 7.41229298413093E-02 
1638	 7.41150329939135E-02 
1639	 7.41139103122984E-02 
1640	 0.074100440523747 
1641	 7.41054687746336E-02 
1642	 0.074126812353658 
1643	 7.41375507316603E-02 
1644	 7.41498050742332E-02 
1645	 7.41596911345428E-02 
1646	 7.41708296198655E-02 
1647	 7.41716450334362E-02 
1648	 7.41629289785542E-02 
1649	 7.41649968238993E-02 
1650	 7.41666342498065E-02 
1651	 7.41633107745323E-02 
1652	 7.41725020681738E-02 
1653	 0.074160383759512 
1654	 7.41195264424293E-02 
1655	 7.41083511187567E-02 
1656	 7.40939875004461E-02 
1657	 7.41047129811023E-02 
1658	 7.41507735144328E-02 
1659	 0.074170473897424 
1660	 7.41973142689653E-02 
1661	 7.42072643342688E-02 
1662	 7.42001012651941E-02 
1663	 7.41927576189308E-02 
1664	 0.074172130933237 
1665	 7.41672262903606E-02 
1666	 7.41627754917327E-02 
1667	 7.41620635375892E-02 
1668	 7.41782253431704E-02 
1669	 7.41787127263958E-02 
1670	 7.41683934403626E-02 
1671	 7.41649150344574E-02 
1672	 7.41576965160648E-02 
1673	 7.41570221208126E-02 
1674	 7.41647760608548E-02 
1675	 7.41649088494214E-02 
1676	 7.41635654420456E-02 
1677	 7.41634445682753E-02 
1678	 7.41599153173059E-02 
1679	 0.074158251372649 
1680	 7.41566487487204E-02 
1681	 7.41605237283318E-02 
1682	 7.41725830371621E-02 
1683	 7.41709721438555E-02 
1684	 0.074168053523707 
1685	 7.41624755763607E-02 
1686	 7.41419565060971E-02 
1687	 7.41318175601416E-02 
1688	 7.41209749948274E-02 
1689	 0.074124874742571 
1690	 7.41443424405339E-02 
1691	 7.41501110295084E-02 
1692	 7.41660758417685E-02 
1693	 7.41679295337827E-02 
1694	 7.41503489599023E-02 
1695	 7.41389654393093E-02 
1696	 7.41288522923753E-02 
1697	 7.41167583096948E-02 
1698	 7.40999511770977E-02 
1699	 7.40858503885953E-02 
1700	 7.40749058861187E-02 
1701	 7.40598582074248E-02 
1702	 7.40349217852605E-02 
1703	 7.40302065181599E-02 
1704	 7.40343183643203E-02 
1705	 7.40360226798607E-02 
1706	 7.40606332097891E-02 
1707	 7.40519129386152E-02 
1708	 7.40176716074121E-02 
1709	 7.40027389915978E-02 
1710	 7.39731007589651E-02 
1711	 7.39716086964455E-02 
1712	 0.0740029839812 
1713	 7.40060553449805E-02 
1714	 7.40126828263852E-02 
1715	 7.40001391513531E-02 
1716	 7.39643604598514E-02 
1717	 7.39397661862719E-02 
1718	 7.38987111042911E-02 
1719	 7.38891613808248E-02 
1720	 7.39096321379019E-02 
1721	 7.38993318286292E-02 
1722	 7.38905378403105E-02 
1723	 7.38795968873764E-02 
1724	 0.073845739902295 
1725	 7.38200475187776E-02 
1726	 0.073807837529202 
1727	 7.37917584151307E-02 
1728	 7.37618799899007E-02 
1729	 7.37443709087511E-02 
1730	 7.37386311390688E-02 
1731	 0.073734846943862 
1732	 7.37402105234715E-02 
1733	 7.37264690300218E-02 
1734	 7.37157585477819E-02 
1735	 7.36826453958748E-02 
1736	 0.073610508955192 
1737	 7.35873699186091E-02 
1738	 7.35832963703763E-02 
1739	 7.35622569994249E-02 
1740	 0.073564407040262 
1741	 7.35373603462851E-02 
1742	 7.34714911929199E-02 
1743	 7.34427133594691E-02 
1744	 7.34307381987809E-02 
1745	 7.34030083586775E-02 
1746	 7.33865129613782E-02 
1747	 0.073351199009698 
1748	 7.33009547106798E-02 
1749	 7.32855511048875E-02 
1750	 0.073263791529965 
1751	 7.32450130149293E-02 
1752	 7.32325800253737E-02 
1753	 7.32077480468252E-02 
1754	 7.31830491700111E-02 
1755	 7.31481366912117E-02 
1756	 7.31082041003472E-02 
1757	 7.30753452568599E-02 
1758	 7.30631613604236E-02 
1759	 0.073062294619353 
1760	 7.30447392282753E-02 
1761	 7.30187341266543E-02 
1762	 7.29724564216773E-02 
1763	 0.072914261889035 
1764	 7.28915304612649E-02 
1765	 7.28784502112367E-02 
1766	 7.28399917857525E-02 
1767	 0.072820261361298 
1768	 7.28095930802297E-02 
1769	 7.27805661495414E-02 
1770	 7.27705416260782E-02 
1771	 7.27528120407917E-02 
1772	 7.27178488086948E-02 
1773	 0.072688654676203 
1774	 7.26504517030478E-02 
1775	 7.26189929331304E-02 
1776	 0.072588086770407 
1777	 7.25486377521337E-02 
1778	 7.25341019339449E-02 
1779	 7.25228871525997E-02 
1780	 7.24910970196278E-02 
1781	 0.07247881811368 
1782	 7.24713307813991E-02 
1783	 0.072448260419242 
1784	 7.24299436980279E-02 
1785	 7.24044542736167E-02 
1786	 0.072381174417676 
1787	 7.23632874252122E-02 
1788	 7.23395827449989E-02 
1789	 0.072304276109243 
1790	 7.22947589918092E-02 
1791	 7.22895492979415E-02 
1792	 7.22932283590878E-02 
1793	 7.23367897920269E-02 
1794	 7.23379699401404E-02 
1795	 7.23243113187152E-02 
1796	 7.23185903931065E-02 
1797	 7.22870929741471E-02 
1798	 7.22761048518993E-02 
1799	 7.22729791617357E-02 
1800	 7.22716697541498E-02 
1801	 6.91918896794124E-02 
1802	 6.92189992376028E-02 
1803	 6.92599776642119E-02 
1804	 6.92452286899223E-02 
1805	 6.92216940372834E-02 
1806	 6.92521392226741E-02 
1807	 6.92661596250297E-02 
1808	 6.92801876719086E-02 
1809	 6.93274335807725E-02 
1810	 6.93465411098073E-02 
1811	 0.069331761500092 
1812	 6.93404455513675E-02 
1813	 6.93573652189109E-02 
1814	 6.93784567788743E-02 
1815	 6.93985462422251E-02 
1816	 6.93806144873006E-02 
1817	 6.93788670232143E-02 
1818	 6.93578953679263E-02 
1819	 6.93731370093346E-02 
1820	 6.94083643322827E-02 
1821	 6.94474268291849E-02 
1822	 6.94859321983601E-02 
1823	 6.95199444130527E-02 
1824	 6.95314162460824E-02 
1825	 6.95241873314608E-02 
1826	 6.95189458789985E-02 
1827	 6.94922075920661E-02 
1828	 6.94693705090161E-02 
1829	 6.94348329205659E-02 
1830	 6.94227349516943E-02 
1831	 6.94204937138691E-02 
1832	 6.94024864450323E-02 
1833	 6.94076020184567E-02 
1834	 6.94371179714725E-02 
1835	 6.94356331705355E-02 
1836	 6.94446747165302E-02 
1837	 6.94560138693021E-02 
1838	 6.94240808395838E-02 
1839	 6.94041209148194E-02 
1840	 6.93726986760991E-02 
1841	 6.93654685692643E-02 
1842	 6.93668001191303E-02 
1843	 0.069368030365383 
1844	 6.93543313042902E-02 
1845	 6.93312608712277E-02 
1846	 6.93023880096931E-02 
1847	 6.92699042232608E-02 
1848	 6.92522745520366E-02 
1849	 6.92332842998465E-02 
1850	 6.91973589938189E-02 
1851	 0.069142683181919 
1852	 6.90937476380863E-02 
1853	 6.90579539551532E-02 
1854	 6.90153991937552E-02 
1855	 6.89799920652139E-02 
1856	 6.89209650744783E-02 
1857	 6.88238758101987E-02 
1858	 0.068720192971579 
1859	 0.068623571985952 
1860	 6.85272127349751E-02 
1861	 6.84356874082023E-02 
1862	 6.83408757776877E-02 
1863	 0.068243993249344 
1864	 6.81225721841329E-02 
1865	 6.79837146906914E-02 
1866	 6.78459826252656E-02 
1867	 6.76892588621621E-02 
1868	 6.75118052318283E-02 
1869	 6.73313903330791E-02 
1870	 6.71485745119423E-02 
1871	 6.69376199475818E-02 
1872	 6.67043728314002E-02 
1873	 6.64735091411511E-02 
1874	 6.62320258611474E-02 
1875	 6.59400030845716E-02 
1876	 6.56476977019326E-02 
1877	 6.53460145977423E-02 
1878	 6.50041731763301E-02 
1879	 6.46480226876872E-02 
1880	 6.42694533117513E-02 
1881	 6.38533266547346E-02 
1882	 6.34433683780429E-02 
1883	 0.063027518240684 
1884	 6.25867803482116E-02 
1885	 6.21261813010565E-02 
1886	 6.16333229408417E-02 
1887	 0.061096034165803 
1888	 6.05671462450103E-02 
1889	 6.00368311053587E-02 
1890	 5.94983752541093E-02 
1891	 5.89521894538948E-02 
1892	 5.83807409695366E-02 
1893	 5.78272804516627E-02 
1894	 5.72674095759847E-02 
1895	 5.67302566699014E-02 
1896	 5.61875376557672E-02 
1897	 5.56566244511008E-02 
1898	 5.51476809400941E-02 
1899	 5.46375260339786E-02 
1900	 5.41668814042444E-02 
1901	 5.37323056563764E-02 
1902	 5.33019067306054E-02 
1903	 5.28788258564662E-02 
1904	 5.24896369791479E-02 
1905	 5.21201889857641E-02 
1906	 0.051772150508478 
1907	 5.14623705298861E-02 
1908	 5.11896801184416E-02 
1909	 5.09360115695473E-02 
1910	 5.06840856123414E-02 
1911	 5.04535067047114E-02 
1912	 5.02397167491829E-02 
1913	 5.00359096082916E-02 
1914	 4.98438863880399E-02 
1915	 4.96763869962685E-02 
1916	 0.04953233240972 
1917	 4.93786151408037E-02 
1918	 0.049256984619503 
1919	 4.91569188966467E-02 
1920	 4.90560247060012E-02 
1921	 4.89782556082867E-02 
1922	 4.89152556935721E-02 
1923	 4.88552436249583E-02 
1924	 4.88014219749363E-02 
1925	 4.87526852630782E-02 
1926	 4.87188518530043E-02 
1927	 0.048693527659369 
1928	 4.86788803077567E-02 
1929	 0.048675585386879 
1930	 4.86662846268309E-02 
1931	 4.86636193176765E-02 
1932	 4.86596957524491E-02 
1933	 4.86507604077527E-02 
1934	 0.048672258575487 
1935	 4.87068218387127E-02 
1936	 4.87665216707057E-02 
1937	 4.88104741158229E-02 
1938	 0.048862399614765 
1939	 4.89198146510158E-02 
1940	 4.89688207959438E-02 
1941	 4.90204247195088E-02 
1942	 4.91122962172031E-02 
1943	 4.92001959593755E-02 
1944	 0.049272181244903 
1945	 4.93428560636492E-02 
1946	 4.94219232723159E-02 
1947	 4.94958267791872E-02 
1948	 4.95742536040857E-02 
1949	 4.96638633715674E-02 
1950	 4.97552017767065E-02 
1951	 4.98311358365274E-02 
1952	 4.99307841154686E-02 
1953	 5.00706842819369E-02 
1954	 5.01989319703969E-02 
1955	 5.03332101217909E-02 
1956	 5.04551134952095E-02 
1957	 5.05687811940354E-02 
1958	 5.06552200368472E-02 
1959	 5.07666278966724E-02 
1960	 5.08895992917176E-02 
1961	 5.10053578876807E-02 
1962	 5.11126440037087E-02 
1963	 5.12353266783717E-02 
1964	 5.13573135976893E-02 
1965	 5.14945137791995E-02 
1966	 5.16523387506167E-02 
1967	 5.18091753900145E-02 
1968	 5.19414184415705E-02 
1969	 0.052053900850225 
1970	 5.21798140677051E-02 
1971	 5.22933711286671E-02 
1972	 5.24213814949033E-02 
1973	 5.25682852206671E-02 
1974	 5.27065328015371E-02 
1975	 5.28493629777725E-02 
1976	 5.29664432855962E-02 
1977	 5.31136430035059E-02 
1978	 5.32629722899787E-02 
1979	 5.33995019641987E-02 
1980	 5.35425536851258E-02 
1981	 5.36811541483117E-02 
1982	 5.38073314180334E-02 
1983	 5.39421735426294E-02 
1984	 5.40897658067643E-02 
1985	 5.42236283333765E-02 
1986	 5.43373801692554E-02 
1987	 5.44721732411084E-02 
1988	 5.46107420936628E-02 
1989	 5.47550512501446E-02 
1990	 5.49158519248313E-02 
1991	 5.50833473446061E-02 
1992	 0.055225806291599 
1993	 5.53520724309988E-02 
1994	 5.54906477601473E-02 
1995	 5.56111572966404E-02 
1996	 5.57527500137519E-02 
1997	 5.59225810643165E-02 
1998	 5.60671799650797E-02 
1999	 5.62051725727385E-02 
2000	 5.63457099735261E-02 
2001	 5.64749367416635E-02 
2002	 5.66098964597442E-02 
2003	 5.67438010376031E-02 
2004	 5.68727264200031E-02 
2005	 5.69976498105039E-02 
2006	 5.71104094764691E-02 
2007	 5.72284419974823E-02 
2008	 5.73400828073847E-02 
2009	 5.74658751328032E-02 
2010	 5.76033229889785E-02 
2011	 5.77346398427002E-02 
2012	 5.78776268061204E-02 
2013	 0.058009727733725 
2014	 5.81417230725316E-02 
2015	 5.82473808360627E-02 
2016	 5.83645682369674E-02 
2017	 5.84846498340759E-02 
2018	 5.86012315584624E-02 
2019	 5.87134267944884E-02 
2020	 5.88342757145139E-02 
2021	 5.89555408110065E-02 
2022	 5.90808249009467E-02 
2023	 5.92194969655099E-02 
2024	 0.059347981797953 
2025	 5.94807509513302E-02 
2026	 5.95984209377399E-02 
2027	 0.059697837428088 
2028	 5.98053995759239E-02 
2029	 5.99157392817247E-02 
2030	 6.00141096456378E-02 
2031	 6.01322747616027E-02 
2032	 6.02783064368836E-02 
2033	 6.03889713601136E-02 
2034	 6.04926187942989E-02 
2035	 6.05916598029225E-02 
2036	 6.06548046070089E-02 
2037	 6.07524443622179E-02 
2038	 6.08790780029805E-02 
2039	 6.09821648557304E-02 
2040	 6.10840786694391E-02 
2041	 6.11923780072885E-02 
2042	 6.12740965005377E-02 
2043	 6.13615788448755E-02 
2044	 6.14493121715741E-02 
2045	 6.15410263224807E-02 
2046	 6.16297702224202E-02 
2047	 6.17114763352401E-02 
2048	 6.18032768650603E-02 
2049	 6.19021618859149E-02 
2050	 6.20003799886817E-02 
2051	 6.21082142316379E-02 
2052	 6.22055609720577E-02 
2053	 6.23055068333273E-02 
2054	 6.23925177999209E-02 
2055	 6.24682533640064E-02 
2056	 6.25357797346576E-02 
2057	 6.26105543195431E-02 
2058	 0.062678828675719 
2059	 6.27526920352795E-02 
2060	 6.28344503596135E-02 
2061	 6.29091869499173E-02 
2062	 6.29766477862972E-02 
2063	 0.063051790431319 
2064	 6.31291354260498E-02 
2065	 6.32087332467783E-02 
2066	 6.32925666522701E-02 
2067	 6.33768586431726E-02 
2068	 6.34675413450617E-02 
2069	 6.35455206377501E-02 
2070	 6.36368789784982E-02 
2071	 0.063742757709037 
2072	 6.38152723364545E-02 
2073	 6.38778769490242E-02 
2074	 6.39442167119547E-02 
2075	 6.39777848933091E-02 
2076	 6.40473387621353E-02 
2077	 6.41449745507545E-02 
2078	 6.42277196163708E-02 
2079	 6.43254048113574E-02 
2080	 6.44035375800628E-02 
2081	 0.064455063644616 
2082	 0.064527677986683 
2083	 6.46116027716251E-02 
2084	 6.46792652550273E-02 
2085	 6.47539091740423E-02 
2086	 6.48437245924855E-02 
2087	 6.49176578186556E-02 
2088	 6.49809600393419E-02 
2089	 6.50451641760082E-02 
2090	 6.51035761943904E-02 
2091	 0.065170897847586 
2092	 6.52344253234289E-02 
2093	 6.53031723371545E-02 
2094	 6.53888137963643E-02 
2095	 0.065460198756645 
2096	 0.065517138708444 
2097	 0.065586741472425 
2098	 0.065653075113925 
2099	 6.57349926853657E-02 
2100	 6.58016754098959E-02 
2101	 6.58711228151672E-02 
2102	 6.59378666686491E-02 
2103	 0.065993687406001 
2104	 6.60547043738475E-02 
2105	 6.61183531282875E-02 
2106	 6.61892522383196E-02 
2107	 6.62600628830484E-02 
2108	 6.63320455852254E-02 
2109	 6.64232594062336E-02 
2110	 6.64948557514525E-02 
2111	 6.65441595767292E-02 
2112	 0.06661021305576 
2113	 6.66755801050311E-02 
2114	 6.67490543616958E-02 
2115	 6.68140700483691E-02 
2116	 6.68860603978441E-02 
2117	 6.69509107558502E-02 
2118	 6.70025074005821E-02 
2119	 6.70650087657631E-02 
2120	 6.71329280138907E-02 
2121	 6.72026283691815E-02 
2122	 6.72832993722604E-02 
2123	 6.73458164577811E-02 
2124	 6.74000736918867E-02 
2125	 6.74587118441858E-02 
2126	 0.067511120223862 
2127	 6.75585324092879E-02 
2128	 0.067617380016586 
2129	 6.76592557660458E-02 
2130	 6.76858078778124E-02 
2131	 6.77011675348368E-02 
2132	 0.067721196323748 
2133	 6.77339435778065E-02 
2134	 6.77517260606096E-02 
2135	 6.77654885568623E-02 
2136	 6.77921166508733E-02 
2137	 6.78280967837799E-02 
2138	 6.78567418037051E-02 
2139	 0.06790392846996 
2140	 6.79228627536696E-02 
2141	 6.79268571417956E-02 
2142	 6.79230615941962E-02 
2143	 6.78964368695981E-02 
2144	 6.78767218230502E-02 
2145	 6.78416933971688E-02 
2146	 6.78219970897386E-02 
2147	 6.78143172505899E-02 
2148	 6.78070007602605E-02 
2149	 6.77941735560983E-02 
2150	 6.77834362822477E-02 
2151	 6.77795221085006E-02 
2152	 6.77824234132159E-02 
2153	 0.067762077041742 
2154	 6.77409063187058E-02 
2155	 6.77142481208114E-02 
2156	 6.76604886853455E-02 
2157	 0.067621481693994 
2158	 6.76038590972103E-02 
2159	 6.75641081447978E-02 
2160	 0.06749964417264 
2161	 6.74520705327026E-02 
2162	 6.73967315225536E-02 
2163	 6.73547381004064E-02 
2164	 6.73252779787694E-02 
2165	 6.73163200969256E-02 
2166	 6.72772565663368E-02 
2167	 6.72358847280561E-02 
2168	 0.067182837024458 
2169	 6.71028633080282E-02 
2170	 6.70472904909023E-02 
2171	 0.066989784639128 
2172	 6.69494260671526E-02 
2173	 6.69307042754991E-02 
2174	 6.68973732464405E-02 
2175	 6.68711911652789E-02 
2176	 6.68416454946579E-02 
2177	 6.68009471125752E-02 
2178	 6.67662319136354E-02 
2179	 0.066752001835914 
2180	 6.67073858627692E-02 
2181	 0.066631435804672 
2182	 6.65779179777697E-02 
2183	 6.65127159203718E-02 
2184	 6.64636614304425E-02 
2185	 6.64129181595211E-02 
2186	 6.63840942081193E-02 
2187	 6.63380855980754E-02 
2188	 6.62732740265206E-02 
2189	 6.62309166231252E-02 
2190	 6.62071455106583E-02 
2191	 6.61631137554149E-02 
2192	 6.61124787648399E-02 
2193	 6.60717614795081E-02 
2194	 6.60173657099265E-02 
2195	 6.59824705114337E-02 
2196	 0.06598223319154 
2197	 6.59538106041557E-02 
2198	 6.58994231280817E-02 
2199	 6.58748517997908E-02 
2200	 6.58595181030132E-02 
2201	 6.58364310332084E-02 
2202	 6.58301332054465E-02 
2203	 0.065825322058394 
2204	 6.58130432259189E-02 
2205	 6.57805835261358E-02 
2206	 6.57692232671691E-02 
2207	 6.57698004547679E-02 
2208	 6.57692229542848E-02 
2209	 6.57762972510795E-02 
2210	 6.57749999312457E-02 
2211	 6.57782063115594E-02 
2212	 6.57697700047521E-02 
2213	 6.57427334310499E-02 
2214	 6.57294765026458E-02 
2215	 6.57105533764104E-02 
2216	 6.57097961615732E-02 
2217	 6.57242514781337E-02 
2218	 6.57395583692656E-02 
2219	 6.57720777360209E-02 
2220	 6.57944665724498E-02 
2221	 6.58320695248336E-02 
2222	 6.58366857817269E-02 
2223	 6.58185726952182E-02 
2224	 0.065811685863115 
2225	 6.58104097592016E-02 
2226	 6.57946980148557E-02 
2227	 6.58045373942654E-02 
2228	 6.58462027714404E-02 
2229	 6.58562028196519E-02 
2230	 6.58610133246108E-02 
2231	 6.58602386685158E-02 
2232	 0.065829627779805 
2233	 6.58408239907536E-02 
2234	 6.58832034159997E-02 
2235	 6.58959005644834E-02 
2236	 6.59373969903459E-02 
2237	 0.065928909651499 
2238	 6.58502802534878E-02 
2239	 6.58203162800423E-02 
2240	 0.065777566043128 
2241	 6.57662270074869E-02 
2242	 0.065794754565173 
2243	 6.58217983169958E-02 
2244	 6.58699819551043E-02 
2245	 6.59166169107088E-02 
2246	 6.59413494848173E-02 
2247	 6.59499930528604E-02 
2248	 6.59572797595096E-02 
2249	 6.59348630289711E-02 
2250	 6.59398669946988E-02 
2251	 6.59633838898934E-02 
2252	 6.59694577923638E-02 
2253	 6.59743163060215E-02 
2254	 6.59716347927825E-02 
2255	 0.065954423657196 
2256	 6.59520074432198E-02 
2257	 6.59523333263909E-02 
2258	 6.59541047412192E-02 
2259	 6.59627221732781E-02 
2260	 6.59661231180069E-02 
2261	 6.59645109775826E-02 
2262	 6.59714248417184E-02 
2263	 6.59934983100456E-02 
2264	 6.59944686674269E-02 
2265	 6.59779593214487E-02 
2266	 6.59787461556394E-02 
2267	 6.59720528764123E-02 
2268	 6.59739281834886E-02 
2269	 6.60117023945276E-02 
2270	 6.60157575089592E-02 
2271	 6.59985938720487E-02 
2272	 6.60134781330921E-02 
2273	 6.60144573527763E-02 
2274	 0.066009865355566 
2275	 6.60131890578596E-02 
2276	 6.60274268157401E-02 
2277	 6.60255572962777E-02 
2278	 6.60231054464773E-02 
2279	 6.60039060539527E-02 
2280	 6.59428424257381E-02 
2281	 6.59417285994903E-02 
2282	 6.59720685776022E-02 
2283	 6.59884959301812E-02 
2284	 6.60570320020758E-02 
2285	 6.60628157453004E-02 
2286	 6.60046792348847E-02 
2287	 6.59808296548222E-02 
2288	 6.59491815788458E-02 
2289	 6.59247902266916E-02 
2290	 6.59172733599982E-02 
2291	 6.59123230372083E-02 
2292	 6.59035443016522E-02 
2293	 6.58992628377135E-02 
2294	 6.59004562105348E-02 
2295	 6.59061452904428E-02 
2296	 6.59078209746389E-02 
2297	 6.59384712956184E-02 
2298	 6.59477401640638E-02 
2299	 6.59086536729039E-02 
2300	 6.58686510828825E-02 
2301	 6.58357191717898E-02 
2302	 6.58037100562938E-02 
2303	 6.57735900056816E-02 
2304	 0.065727307303653 
2305	 6.56592045907966E-02 
2306	 6.56177595638753E-02 
2307	 6.55801306695172E-02 
2308	 6.55774769697309E-02 
2309	 6.56119654910921E-02 
2310	 6.56134718949669E-02 
2311	 6.56267766506819E-02 
2312	 0.065610402276513 
2313	 6.55648313109791E-02 
2314	 6.55276291110566E-02 
2315	 6.54712151271837E-02 
2316	 6.54480352961647E-02 
2317	 6.54246731072542E-02 
2318	 6.54306499575288E-02 
2319	 6.55074291017279E-02 
2320	 6.55108336345916E-02 
2321	 6.54822938379572E-02 
2322	 6.54648561196837E-02 
2323	 0.065395862644433 
2324	 6.53632761201315E-02 
2325	 6.53904738085169E-02 
2326	 6.53794802683681E-02 
2327	 6.53518123621617E-02 
2328	 6.53189415169076E-02 
2329	 0.065276192443086 
2330	 6.52114424314453E-02 
2331	 6.51838495760945E-02 
2332	 6.51923791927893E-02 
2333	 6.52494260658297E-02 
2334	 6.52849164401463E-02 
2335	 6.52234081724757E-02 
2336	 6.51542150013326E-02 
2337	 6.50717444950436E-02 
2338	 6.50019913673068E-02 
2339	 6.49888510928469E-02 
2340	 6.49601389673916E-02 
2341	 6.49618783899454E-02 
2342	 0.064955118768177 
2343	 6.49365262907232E-02 
2344	 6.49813989806106E-02 
2345	 6.49737710694648E-02 
2346	 6.49340969957529E-02 
2347	 6.48907141975621E-02 
2348	 6.48308612330988E-02 
2349	 6.47724340210259E-02 
2350	 6.46979099954031E-02 
2351	 6.46257597803301E-02 
2352	 6.45535657146993E-02 
2353	 6.44861569213555E-02 
2354	 6.44124696893267E-02 
2355	 6.43625779139574E-02 
2356	 6.43391283868675E-02 
2357	 6.42977389909148E-02 
2358	 6.42715744078986E-02 
2359	 6.42005175749283E-02 
2360	 6.40612860539843E-02 
2361	 6.39890302213886E-02 
2362	 6.39404155304247E-02 
2363	 0.063891309093129 
2364	 6.39168306549981E-02 
2365	 6.38672525451098E-02 
2366	 6.37449672958658E-02 
2367	 6.36519514119842E-02 
2368	 6.35312224374751E-02 
2369	 6.34375756026582E-02 
2370	 6.33638533805751E-02 
2371	 6.33039477698495E-02 
2372	 6.32427088807165E-02 
2373	 6.32072995277274E-02 
2374	 6.31809444987237E-02 
2375	 6.31343275532961E-02 
2376	 6.30793943602393E-02 
2377	 6.30212316909633E-02 
2378	 6.29738726291949E-02 
2379	 0.062958272940031 
2380	 6.29377252583858E-02 
2381	 6.28772934934854E-02 
2382	 6.28096566693632E-02 
2383	 6.27181876715054E-02 
2384	 0.062661745665932 
2385	 0.062642855392865 
2386	 6.25763707715843E-02 
2387	 6.25568460824983E-02 
2388	 6.25198031362375E-02 
2389	 6.23883991098299E-02 
2390	 6.23423267733201E-02 
2391	 6.23223441819989E-02 
2392	 6.21648347353466E-02 
2393	 6.20728514407718E-02 
2394	 6.20457513900258E-02 
2395	 6.19451312923533E-02 
2396	 6.18873412159545E-02 
2397	 0.061877963900827 
2398	 6.18554366040823E-02 
2399	 6.17630588520757E-02 
2400	 6.16548991373305E-02 
2401	 6.15724212598236E-02 
2402	 6.14923243938498E-02 
2403	 6.14150752267328E-02 
2404	 6.13257947506857E-02 
2405	 6.12397137982422E-02 
2406	 6.11265201782648E-02 
2407	 6.09872812869829E-02 
2408	 6.08247673392224E-02 
2409	 6.07596717990596E-02 
2410	 6.07494848168207E-02 
2411	 6.07058561364656E-02 
2412	 6.07270955316169E-02 
2413	 6.06909036305609E-02 
2414	 6.05522916538726E-02 
2415	 6.04158675209725E-02 
2416	 6.03137057547534E-02 
2417	 6.02226469514823E-02 
2418	 6.01350386418331E-02 
2419	 6.00960683935856E-02 
2420	 5.99989350093463E-02 
2421	 5.98877557749542E-02 
2422	 5.97393565684619E-02 
2423	 5.94981987316162E-02 
2424	 5.93813858974593E-02 
2425	 5.93220952575427E-02 
2426	 5.92377713998336E-02 
2427	 0.059215864301988 
2428	 5.91404433118834E-02 
2429	 5.89985015971132E-02 
2430	 5.88951223442193E-02 
2431	 5.88183902599565E-02 
2432	 5.87513847278842E-02 
2433	 5.86599813218542E-02 
2434	 5.86130765283168E-02 
2435	 5.86614290906645E-02 
2436	 5.85700314759228E-02 
2437	 5.83846838270558E-02 
2438	 5.83097015335503E-02 
2439	 5.82692241400339E-02 
2440	 5.81551216249701E-02 
2441	 5.80506717106005E-02 
2442	 5.79748957680618E-02 
2443	 5.77532875857896E-02 
2444	 5.76309194922865E-02 
2445	 5.77982550700351E-02 
2446	 5.76879371589439E-02 
2447	 5.73286462329986E-02 
2448	 5.71708379023881E-02 
2449	 5.69790053289374E-02 
2450	 5.68153346514568E-02 
2451	 5.68398498699309E-02 
2452	 5.67620065903985E-02 
2453	 5.65354043795397E-02 
2454	 5.63984243756212E-02 
2455	 5.63178013113285E-02 
2456	 5.62225074788973E-02 
2457	 5.62274454915069E-02 
2458	 5.60877824254394E-02 
2459	 0.055795498519305 
2460	 5.56590382120817E-02 
2461	 5.54907402052367E-02 
2462	 5.53490168389691E-02 
2463	 5.53325994591145E-02 
2464	 0.05534477083931 
2465	 5.53668144666816E-02 
2466	 5.53597264625195E-02 
2467	 5.54644479036685E-02 
2468	 5.53883212552303E-02 
2469	 5.51220109051593E-02 
2470	 5.50172585828859E-02 
2471	 0.054928463026767 
2472	 5.49557460586985E-02 
2473	 5.49428724657546E-02 
2474	 5.49174266554193E-02 
2475	 0.054734504048668 
2476	 5.45168900757248E-02 
2477	 5.44768412455239E-02 
2478	 5.43287473082658E-02 
2479	 5.43034974703798E-02 
2480	 0.054341119480105 
2481	 5.41207701151977E-02 
2482	 5.40020385540261E-02 
2483	 5.39523394893256E-02 
2484	 5.38179326896329E-02 
2485	 5.38222601856036E-02 
2486	 5.38153740563823E-02 
2487	 5.37421421285124E-02 
2488	 5.35813300014572E-02 
2489	 5.34392023908708E-02 
2490	 5.35476496950367E-02 
2491	 5.34764476874234E-02 
2492	 5.33879097682091E-02 
2493	 5.33739000101084E-02 
2494	 5.30753900720213E-02 
2495	 5.29980879649538E-02 
2496	 5.32193972494862E-02 
2497	 5.32322461888594E-02 
2498	 5.32204801914484E-02 
2499	 5.32226187333199E-02 
2500	 5.29590637429883E-02 
