Wavelength	MM_3500009.asd
350	 3.34205304079664E-02 
351	 3.75769881223584E-02 
352	 3.94515798736509E-02 
353	 3.87759071903893E-02 
354	 3.37133464453112E-02 
355	 3.82536914426824E-02 
356	 4.34377187854666E-02 
357	 4.02687209435921E-02 
358	 4.39429898865572E-02 
359	 3.92227575830016E-02 
360	 3.09963948184486E-02 
361	 3.52034160861177E-02 
362	 3.35438761077661E-02 
363	 0.032577594830483 
364	 3.51922168509112E-02 
365	 3.38456795519957E-02 
366	 3.19324177546298E-02 
367	 0.032068404309095 
368	 3.51257328660613E-02 
369	 3.70642851690408E-02 
370	 3.45150412744872E-02 
371	 3.11433263055363E-02 
372	 3.42557333352208E-02 
373	 3.59647513215268E-02 
374	 0.036986695663624 
375	 3.84573845576704E-02 
376	 4.04575291913946E-02 
377	 3.77482659889993E-02 
378	 3.52068895273266E-02 
379	 3.81423041119956E-02 
380	 4.05752017345046E-02 
381	 4.01271853264382E-02 
382	 3.94870298459127E-02 
383	 4.38468679215355E-02 
384	 3.97962591732393E-02 
385	 3.49725729788763E-02 
386	 3.54156261006658E-02 
387	 3.84797047523053E-02 
388	 4.12998015131605E-02 
389	 4.27847460425839E-02 
390	 4.28903633953595E-02 
391	 4.24765511835536E-02 
392	 4.33532013620658E-02 
393	 4.52822506142698E-02 
394	 4.63135812655898E-02 
395	 4.51475395016357E-02 
396	 4.52620517086774E-02 
397	 4.78062049959734E-02 
398	 4.71241057061683E-02 
399	 4.82515388820694E-02 
400	 5.08040038693213E-02 
401	 5.24208668857462E-02 
402	 5.17396428924397E-02 
403	 5.14401734245653E-02 
404	 5.18451329922356E-02 
405	 5.07980231588733E-02 
406	 5.19077415943349E-02 
407	 0.053555789904351 
408	 5.38989779393526E-02 
409	 5.29764165344453E-02 
410	 5.32379437212211E-02 
411	 5.46098409286632E-02 
412	 5.57642104348767E-02 
413	 5.62459386211366E-02 
414	 5.58377091125368E-02 
415	 5.50869467231064E-02 
416	 0.055423767313235 
417	 5.50643178429518E-02 
418	 5.51804511995124E-02 
419	 5.65597407225341E-02 
420	 5.63063894741451E-02 
421	 5.59775358855125E-02 
422	 5.62017823943993E-02 
423	 5.67868612185267E-02 
424	 5.59748197758218E-02 
425	 5.53657517927693E-02 
426	 5.56528630651516E-02 
427	 5.50750132504719E-02 
428	 5.51209049721019E-02 
429	 5.54914073189572E-02 
430	 5.54108645886863E-02 
431	 5.47122171093219E-02 
432	 5.41822933954979E-02 
433	 5.40261106026369E-02 
434	 5.38696022675151E-02 
435	 5.43541824677613E-02 
436	 5.47425600555165E-02 
437	 5.45389631300656E-02 
438	 5.45068569501971E-02 
439	 5.46597650916106E-02 
440	 5.49600281317591E-02 
441	 5.53254491662977E-02 
442	 5.57025826133259E-02 
443	 5.60394496013235E-02 
444	 5.63645977637715E-02 
445	 5.68191315128619E-02 
446	 5.73392879813544E-02 
447	 5.76688335336922E-02 
448	 5.76759368714905E-02 
449	 5.79296873206607E-02 
450	 5.84655848292853E-02 
451	 5.89613917242954E-02 
452	 5.88740945498214E-02 
453	 0.058958211521342 
454	 5.91603492509505E-02 
455	 5.93620803280063E-02 
456	 5.96918615891832E-02 
457	 5.97889361780221E-02 
458	 5.97982745080768E-02 
459	 6.00288441251395E-02 
460	 6.00824391971974E-02 
461	 6.01840047122524E-02 
462	 6.04629798475497E-02 
463	 6.08473006403957E-02 
464	 6.10262948445728E-02 
465	 6.11615061196833E-02 
466	 6.14248081907497E-02 
467	 6.14448736148485E-02 
468	 6.14261497939776E-02 
469	 6.13697627837869E-02 
470	 6.11428711266389E-02 
471	 6.13559502889619E-02 
472	 6.17570802696415E-02 
473	 6.19688093447788E-02 
474	 0.061627500993404 
475	 6.14526329951615E-02 
476	 6.14652471022525E-02 
477	 6.14141903697937E-02 
478	 6.15689864682909E-02 
479	 6.16990922678124E-02 
480	 6.17794686637939E-02 
481	 6.21329207134092E-02 
482	 6.21482011145131E-02 
483	 6.20991196300711E-02 
484	 6.23213882933578E-02 
485	 6.23631474330179E-02 
486	 0.062184243440438 
487	 6.20418238293939E-02 
488	 6.23651216948507E-02 
489	 6.22816173743222E-02 
490	 6.22307553256898E-02 
491	 6.25071224935145E-02 
492	 6.24900515412796E-02 
493	 6.23061322349979E-02 
494	 6.22470937503943E-02 
495	 6.25660836936325E-02 
496	 6.24627423331087E-02 
497	 6.24460641539835E-02 
498	 6.26886113183018E-02 
499	 6.26773525030571E-02 
500	 6.27770180219774E-02 
501	 6.29113784023987E-02 
502	 6.29130018860533E-02 
503	 6.27774713674947E-02 
504	 6.26981631989158E-02 
505	 6.27534553612392E-02 
506	 6.29008379249978E-02 
507	 6.29306475475289E-02 
508	 6.29973429567814E-02 
509	 6.31344699983512E-02 
510	 6.28014475270749E-02 
511	 6.27194846040231E-02 
512	 6.28881620535496E-02 
513	 6.29369160496775E-02 
514	 0.062983338507649 
515	 6.29850911920107E-02 
516	 6.29635728962819E-02 
517	 6.30736356630548E-02 
518	 6.32183567351495E-02 
519	 6.32500618814122E-02 
520	 6.31086525086604E-02 
521	 6.32739233648029E-02 
522	 6.33484346526559E-02 
523	 6.32601241472074E-02 
524	 6.33197578728406E-02 
525	 6.32600814890095E-02 
526	 6.32188203967486E-02 
527	 6.33169354527861E-02 
528	 6.33449669187603E-02 
529	 6.33556218442244E-02 
530	 6.33993143198416E-02 
531	 6.35052632790173E-02 
532	 6.34478016035301E-02 
533	 6.34560755358223E-02 
534	 6.36236770018056E-02 
535	 0.06362190869397 
536	 6.36862747998742E-02 
537	 6.37892781165557E-02 
538	 0.063815510620279 
539	 6.37639058527415E-02 
540	 6.38177130727812E-02 
541	 6.39830718202027E-02 
542	 6.40170632401339E-02 
543	 0.06407623957522 
544	 6.41932765563351E-02 
545	 6.43233963659031E-02 
546	 0.064235853113151 
547	 6.42245089197993E-02 
548	 6.43552114685015E-02 
549	 6.44850275119996E-02 
550	 6.45421843511112E-02 
551	 0.064558995832339 
552	 0.064618415368271 
553	 6.49050691545271E-02 
554	 6.50067581505147E-02 
555	 6.50254430357594E-02 
556	 6.52889536874838E-02 
557	 6.54738958502399E-02 
558	 6.56310669016563E-02 
559	 6.58385581357223E-02 
560	 6.61635899363652E-02 
561	 6.63300013873597E-02 
562	 6.64620702039054E-02 
563	 6.67580370885902E-02 
564	 6.69753888600669E-02 
565	 6.71859957550365E-02 
566	 6.74266935557207E-02 
567	 6.76752480011839E-02 
568	 0.067982046928366 
569	 0.06835089765348 
570	 0.068753330468738 
571	 6.90973626743587E-02 
572	 6.94756016998505E-02 
573	 6.98882474168078E-02 
574	 7.02733573454992E-02 
575	 7.06763815259845E-02 
576	 7.11348829910646E-02 
577	 0.071626089497696 
578	 7.19841112532973E-02 
579	 7.24307545090756E-02 
580	 7.29110233147415E-02 
581	 7.32899144998465E-02 
582	 7.37714187617347E-02 
583	 7.42623837837471E-02 
584	 7.47261997752459E-02 
585	 7.52431094035362E-02 
586	 7.58283126753834E-02 
587	 7.64082727406314E-02 
588	 7.69345602435722E-02 
589	 7.76090636676003E-02 
590	 7.82474701154269E-02 
591	 7.88103621732078E-02 
592	 7.94031078394256E-02 
593	 8.00084887832827E-02 
594	 8.06407634059635E-02 
595	 8.12956881595096E-02 
596	 8.19256902522721E-02 
597	 8.24544605079559E-02 
598	 8.28978836043092E-02 
599	 8.33341419144433E-02 
600	 8.38510492889169E-02 
601	 8.43576041423196E-02 
602	 8.48077617227091E-02 
603	 8.52785569427267E-02 
604	 8.57321797250419E-02 
605	 8.61984428951982E-02 
606	 8.66993676019202E-02 
607	 8.70891760232571E-02 
608	 8.74659339120424E-02 
609	 8.78836475274787E-02 
610	 8.83277108254221E-02 
611	 8.87352687642355E-02 
612	 8.90879234353878E-02 
613	 8.93911240253401E-02 
614	 8.96852697663787E-02 
615	 8.99444263720331E-02 
616	 9.01756084436759E-02 
617	 9.04092521350243E-02 
618	 9.06836514620374E-02 
619	 9.09238195693443E-02 
620	 0.091107060638662 
621	 9.13650156800568E-02 
622	 9.15788268046958E-02 
623	 9.17475760639908E-02 
624	 9.19197462767803E-02 
625	 9.21346603441558E-02 
626	 9.23222747735848E-02 
627	 9.24634023689385E-02 
628	 9.26162954482179E-02 
629	 9.28059538233099E-02 
630	 9.30070304990355E-02 
631	 9.31824270615867E-02 
632	 9.33198733559809E-02 
633	 9.34040686386355E-02 
634	 9.34941454851272E-02 
635	 9.36959219651254E-02 
636	 9.38575929190035E-02 
637	 9.39651811303117E-02 
638	 9.40551316295111E-02 
639	 0.094229554905155 
640	 9.43671733016037E-02 
641	 0.094474981324365 
642	 0.094613154003089 
643	 9.47535600170949E-02 
644	 9.48949541398714E-02 
645	 9.50312066023417E-02 
646	 9.51443721107638E-02 
647	 9.53088385582902E-02 
648	 9.55043768677203E-02 
649	 9.56762596922253E-02 
650	 9.57519977167957E-02 
651	 9.58712426392472E-02 
652	 9.60496442294691E-02 
653	 9.61946133344514E-02 
654	 0.096385129603019 
655	 9.65525220469197E-02 
656	 9.66690493571967E-02 
657	 9.68755001931349E-02 
658	 9.70762969768463E-02 
659	 0.097238624089121 
660	 9.73719394671752E-02 
661	 9.75722292924962E-02 
662	 9.77662188880338E-02 
663	 9.79379888450896E-02 
664	 9.81795682340546E-02 
665	 9.83998464715508E-02 
666	 9.85860354192434E-02 
667	 9.87575826909812E-02 
668	 9.89589391104342E-02 
669	 9.91822341468239E-02 
670	 9.94144671098929E-02 
671	 9.96386587069057E-02 
672	 9.98310506936215E-02 
673	 0.100050656179133 
674	 0.10032444696749 
675	 0.100575549205675 
676	 0.100797688206134 
677	 0.101022003273924 
678	 0.101284071142514 
679	 0.101496576455096 
680	 0.101747739541909 
681	 0.102065487023344 
682	 0.102382016999807 
683	 0.102650757699168 
684	 0.102885371532398 
685	 0.103125579030026 
686	 0.103427912185741 
687	 0.103757107931253 
688	 0.104061020011684 
689	 0.104290168123726 
690	 0.104562569443656 
691	 0.104863159788061 
692	 0.105167381322533 
693	 0.105477676790856 
694	 0.105752681164124 
695	 0.10603737685708 
696	 0.106382714985678 
697	 0.106686330427101 
698	 0.10696529666232 
699	 0.107253786369244 
700	 0.107593242140595 
701	 0.107938986677405 
702	 0.108262940327062 
703	 0.108551580335786 
704	 0.108814706856675 
705	 0.109095642267511 
706	 0.109393552440289 
707	 0.109687443072643 
708	 0.110019104329294 
709	 0.110346075334401 
710	 0.110640156446238 
711	 0.110906828060182 
712	 0.111168847989186 
713	 0.111438193154218 
714	 0.111715904231636 
715	 0.111974647367527 
716	 0.112262514760993 
717	 0.112556651845199 
718	 0.112790323463982 
719	 0.11303518620334 
720	 0.113306109371641 
721	 0.11357968782597 
722	 0.113773617319422 
723	 0.113978295156841 
724	 0.114199918673569 
725	 0.114410638826847 
726	 0.11456201432998 
727	 0.114768231504666 
728	 0.115016302587019 
729	 0.115175408222425 
730	 0.115334080444615 
731	 0.115500131507074 
732	 0.115654185883361 
733	 0.115740688154925 
734	 0.115850454721212 
735	 0.115975700764219 
736	 0.116071375436395 
737	 0.116143283815772 
738	 0.116207569181247 
739	 0.116279203567567 
740	 0.116368487307059 
741	 0.116424864331299 
742	 0.116433464129966 
743	 0.116411878426721 
744	 0.116441994862664 
745	 0.116442259433001 
746	 0.116414518769652 
747	 0.11639542028449 
748	 0.116356645794374 
749	 0.116330907132482 
750	 0.116314158828634 
751	 0.116253495913163 
752	 0.116158309013632 
753	 0.116055584286655 
754	 0.115967480721368 
755	 0.115889788014972 
756	 0.115796039019677 
757	 0.115692610185342 
758	 0.11559896882261 
759	 0.115498662885789 
760	 0.115332290563123 
761	 0.115130599577227 
762	 0.115035692158135 
763	 0.114883765698521 
764	 0.114701270622627 
765	 0.114541352694816 
766	 0.114399013592523 
767	 0.114238867020647 
768	 0.114061474655498 
769	 0.113880616380067 
770	 0.113653107884338 
771	 0.11344244495488 
772	 0.113269026747204 
773	 0.113091312093841 
774	 0.112908953190525 
775	 0.112716125211222 
776	 0.11250663507349 
777	 0.112267229380909 
778	 0.112054543768597 
779	 0.111868030473355 
780	 0.111678589633425 
781	 0.111470356089114 
782	 0.111290287137281 
783	 0.111111005859024 
784	 0.11083184272183 
785	 0.110605265752955 
786	 0.110395688458152 
787	 0.110165749443351 
788	 0.109964108869297 
789	 0.109788528351214 
790	 0.109589596649619 
791	 0.109330692710658 
792	 0.109141000677735 
793	 0.108953146869484 
794	 0.108752928633351 
795	 0.108575377121004 
796	 0.108352203646058 
797	 0.108124587351189 
798	 0.107924744711285 
799	 0.107735794067339 
800	 0.107559483242273 
801	 0.107373047432946 
802	 0.107161962399805 
803	 0.106971154104777 
804	 0.106767890018847 
805	 0.106575369707058 
806	 0.106437257595165 
807	 0.10625221832731 
808	 0.106049409421224 
809	 0.105856246304355 
810	 0.105677564095242 
811	 0.10556334009066 
812	 0.105415984502072 
813	 0.105185564825402 
814	 0.105039330261122 
815	 0.104900773649472 
816	 0.104752745753238 
817	 0.104601622433483 
818	 0.104450276899046 
819	 0.104318810451016 
820	 0.104177793508768 
821	 0.103971241271153 
822	 0.10385460059852 
823	 0.103745408657027 
824	 0.103600264429937 
825	 0.103500700708538 
826	 0.103385963078748 
827	 0.103272857357119 
828	 0.10317857861391 
829	 0.103053236493757 
830	 0.102922296172632 
831	 0.102814823928082 
832	 0.102742750029727 
833	 0.102609160731449 
834	 0.102486580472278 
835	 0.102405104861766 
836	 0.102340866189566 
837	 0.102273599075273 
838	 0.10220096518496 
839	 0.102119383482513 
840	 0.102015674670687 
841	 0.101932880632996 
842	 0.101886559128284 
843	 0.10186264058688 
844	 0.101785668311524 
845	 0.101721669964102 
846	 0.101668605732044 
847	 0.101601603553266 
848	 0.101561914703128 
849	 0.101528405680312 
850	 0.101475668426359 
851	 0.101389515377676 
852	 0.101373170179062 
853	 0.101359683319592 
854	 0.10132386985728 
855	 0.101335500573174 
856	 0.101308993240902 
857	 0.101274411109915 
858	 0.101267120770534 
859	 0.101267756849298 
860	 0.101228518512589 
861	 0.101201747038986 
862	 0.101239962939276 
863	 0.101228337690163 
864	 0.10120918011586 
865	 0.101210820583499 
866	 0.101241796941829 
867	 0.101258120901466 
868	 0.101289433562202 
869	 0.101329531114194 
870	 0.101335502574391 
871	 0.101366706689474 
872	 0.101412397536826 
873	 0.101446436847802 
874	 0.101439107698089 
875	 0.101474310496306 
876	 0.101528175874532 
877	 0.101561149140316 
878	 0.101561317729643 
879	 0.101639232201173 
880	 0.101716194673198 
881	 0.101713183720016 
882	 0.101855375008856 
883	 0.101922510539976 
884	 0.101920605947808 
885	 0.101979406417174 
886	 0.102095535379741 
887	 0.102195880162287 
888	 0.102263345927816 
889	 0.102337491967197 
890	 0.102455244311099 
891	 0.102546927900734 
892	 0.102606346659829 
893	 0.102718822465922 
894	 0.102841470527288 
895	 0.102949709957693 
896	 0.103040444291802 
897	 0.103142736187838 
898	 0.103261439982672 
899	 0.103394675752633 
900	 0.10353265684505 
901	 0.1036555197907 
902	 0.103750103612974 
903	 0.103831041550514 
904	 0.103930145980172 
905	 0.104095181531817 
906	 0.104287975346372 
907	 0.104464939888266 
908	 0.104596286925432 
909	 0.104718398714665 
910	 0.104851996512986 
911	 0.105037851775558 
912	 0.105294223984971 
913	 0.105420202781382 
914	 0.105556232189772 
915	 0.105723654864141 
916	 0.105830922371328 
917	 0.106029568263533 
918	 0.106243557026174 
919	 0.106411590751555 
920	 0.106535884364396 
921	 0.106761298748595 
922	 0.107012657283828 
923	 0.107223514573026 
924	 0.107404346791913 
925	 0.107601632546334 
926	 0.107833143882929 
927	 0.108066815967494 
928	 0.108198282034467 
929	 0.108453928464022 
930	 0.108714472069531 
931	 0.108881641947877 
932	 0.109112692638658 
933	 0.109421806854627 
934	 0.109701677903406 
935	 0.109875172206469 
936	 0.110061613595055 
937	 0.1102681269202 
938	 0.110496344840139 
939	 0.110758398099631 
940	 0.111141051868694 
941	 0.111365320752001 
942	 0.111586089781373 
943	 0.111986071894825 
944	 0.11211763228922 
945	 0.112320916713749 
946	 0.112633416945571 
947	 0.112939412791715 
948	 0.113175958465622 
949	 0.113371921304408 
950	 0.113611705886142 
951	 0.113957180254681 
952	 0.114247342090527 
953	 0.114511484545076 
954	 0.114806735106077 
955	 0.115164260015411 
956	 0.115419820725003 
957	 0.11576256263911 
958	 0.116102136656983 
959	 0.116248244616112 
960	 0.116524206742855 
961	 0.116817989223852 
962	 0.117098383720935 
963	 0.117398964219999 
964	 0.117701758345193 
965	 0.117997671160292 
966	 0.1182736245208 
967	 0.118533156708297 
968	 0.118882975275253 
969	 0.119214697187572 
970	 0.119490098195281 
971	 0.119737449628204 
972	 0.119971822207931 
973	 0.120362517228732 
974	 0.1207987160271 
975	 0.12105219053031 
976	 0.121415321485258 
977	 0.121786057341717 
978	 0.122043221241694 
979	 0.122153292295898 
980	 0.122481856603808 
981	 0.122905683460308 
982	 0.123251572660183 
983	 0.123419558442006 
984	 0.123707833929621 
985	 0.123903328048701 
986	 0.124134230720728 
987	 0.124597477106659 
988	 0.124769955242064 
989	 0.124953090646786 
990	 0.125301858014729 
991	 0.125774270801791 
992	 0.125990130741948 
993	 0.126121209216282 
994	 0.126361244941229 
995	 0.126790813144833 
996	 0.127089005581154 
997	 0.127394543777754 
998	 0.127640964741743 
999	 0.127793087055086 
1000	 0.128205823125353 
1001	 0.127713324899955 
1002	 0.127993383652834 
1003	 0.128252100031827 
1004	 0.128500895865184 
1005	 0.128709373841422 
1006	 0.128930155423018 
1007	 0.129143386589477 
1008	 0.129374750227283 
1009	 0.129640849998704 
1010	 0.129866136892042 
1011	 0.130102812896426 
1012	 0.130371565767308 
1013	 0.130624605949654 
1014	 0.13080529740215 
1015	 0.130987405813468 
1016	 0.131219929075639 
1017	 0.131416468754937 
1018	 0.131566329871308 
1019	 0.131784271837649 
1020	 0.132019784179726 
1021	 0.132144948546816 
1022	 0.132320264575406 
1023	 0.132515725809975 
1024	 0.13266743605409 
1025	 0.132871544809958 
1026	 0.133041958467195 
1027	 0.133166201901419 
1028	 0.133324890860358 
1029	 0.133487467087206 
1030	 0.133675247667174 
1031	 0.133834605132926 
1032	 0.133997026521839 
1033	 0.134120305598599 
1034	 0.134257139568134 
1035	 0.13436472602539 
1036	 0.134471886547265 
1037	 0.134609887816682 
1038	 0.134748961844618 
1039	 0.134911206035783 
1040	 0.135052720605037 
1041	 0.135149687935834 
1042	 0.135229499843168 
1043	 0.135297253651076 
1044	 0.135402564094141 
1045	 0.135537934557319 
1046	 0.135684960711674 
1047	 0.135809029059199 
1048	 0.135918658664065 
1049	 0.135979634558838 
1050	 0.136099045315558 
1051	 0.136263978753323 
1052	 0.136404625774523 
1053	 0.136512820918343 
1054	 0.136615580889192 
1055	 0.136753921679655 
1056	 0.136892580290168 
1057	 0.137020882272979 
1058	 0.137204131532357 
1059	 0.137318751370311 
1060	 0.137378006015164 
1061	 0.137439670974551 
1062	 0.137488936894178 
1063	 0.137569551472657 
1064	 0.137709502472008 
1065	 0.137868239336201 
1066	 0.138050899821309 
1067	 0.138199874050189 
1068	 0.138322175561034 
1069	 0.138458052991445 
1070	 0.138572669830915 
1071	 0.138684608447015 
1072	 0.138791701568221 
1073	 0.138854495518513 
1074	 0.138947215204844 
1075	 0.139048091267983 
1076	 0.139176712297805 
1077	 0.139280584130395 
1078	 0.139378120549216 
1079	 0.139466390451948 
1080	 0.139543752888061 
1081	 0.139608371945244 
1082	 0.139688572660294 
1083	 0.139770514795218 
1084	 0.13984309889847 
1085	 0.139907989043237 
1086	 0.139971817200319 
1087	 0.140057308111179 
1088	 0.140140520475579 
1089	 0.140225589802565 
1090	 0.140341585482053 
1091	 0.140463326867839 
1092	 0.14054925332883 
1093	 0.140640484070147 
1094	 0.140726585272397 
1095	 0.140765316265661 
1096	 0.140804641208632 
1097	 0.140873632856767 
1098	 0.14094238772575 
1099	 0.141031347144032 
1100	 0.141095439494494 
1101	 0.14113805156561 
1102	 0.14120444263876 
1103	 0.141272264589255 
1104	 0.141342909697544 
1105	 0.141411196250505 
1106	 0.14150507909027 
1107	 0.141551079750385 
1108	 0.141595945504339 
1109	 0.141663761021314 
1110	 0.14173250241776 
1111	 0.141800022211893 
1112	 0.141858603136579 
1113	 0.141934133829434 
1114	 0.142031190305563 
1115	 0.142102113886171 
1116	 0.142170321843811 
1117	 0.142245989007606 
1118	 0.142305196795827 
1119	 0.142376830863142 
1120	 0.142461366888887 
1121	 0.142539482482982 
1122	 0.142618668143679 
1123	 0.142679483165701 
1124	 0.142749302343611 
1125	 0.14282182701369 
1126	 0.142890231496521 
1127	 0.142955265855102 
1128	 0.143019192496235 
1129	 0.143077182331865 
1130	 0.143143229246961 
1131	 0.143208495456381 
1132	 0.143288239915552 
1133	 0.143404738949824 
1134	 0.143471591697641 
1135	 0.143518761746939 
1136	 0.143555739111817 
1137	 0.143597992175182 
1138	 0.143637724868135 
1139	 0.143690510568851 
1140	 0.143786384289228 
1141	 0.143835680560798 
1142	 0.143854263278225 
1143	 0.143888885020391 
1144	 0.143916795525875 
1145	 0.14395424825464 
1146	 0.144011593543931 
1147	 0.144044610967714 
1148	 0.144059452428413 
1149	 0.144084599657158 
1150	 0.14409965795006 
1151	 0.14411940272077 
1152	 0.144155274774728 
1153	 0.144187097374737 
1154	 0.144222988584366 
1155	 0.144264415400571 
1156	 0.144292767623345 
1157	 0.144314021024355 
1158	 0.144348572115031 
1159	 0.144383999635295 
1160	 0.144411360653239 
1161	 0.14444324651594 
1162	 0.144475646800494 
1163	 0.144485470948134 
1164	 0.144522565348558 
1165	 0.14458563216527 
1166	 0.144643546480624 
1167	 0.144707665219761 
1168	 0.14474297701235 
1169	 0.14477786407324 
1170	 0.144792889923046 
1171	 0.144824792567341 
1172	 0.144856917756545 
1173	 0.144893517242023 
1174	 0.144937369991985 
1175	 0.144975321880067 
1176	 0.145019705516747 
1177	 0.145050912395504 
1178	 0.145052331891799 
1179	 0.145090508359823 
1180	 0.145151591083038 
1181	 0.145197803319561 
1182	 0.14525192954743 
1183	 0.145321409307693 
1184	 0.145371116237698 
1185	 0.145400731473268 
1186	 0.145436484015735 
1187	 0.145476558333363 
1188	 0.145509629341115 
1189	 0.145528258074664 
1190	 0.145559062909524 
1191	 0.145606808524278 
1192	 0.145630649740172 
1193	 0.145630989039349 
1194	 0.145655977642075 
1195	 0.145680409776834 
1196	 0.145707724601553 
1197	 0.145752248399768 
1198	 0.145798299981801 
1199	 0.145844892982074 
1200	 0.145886065203515 
1201	 0.14592760727301 
1202	 0.145979332228322 
1203	 0.146019907383199 
1204	 0.146049246984539 
1205	 0.146082670541754 
1206	 0.146121418575732 
1207	 0.146150111522722 
1208	 0.146168653678855 
1209	 0.146192852557115 
1210	 0.146204666450747 
1211	 0.146235486007946 
1212	 0.146288763160931 
1213	 0.146325621243526 
1214	 0.146375604405348 
1215	 0.146406863844792 
1216	 0.146425274546263 
1217	 0.146419280179827 
1218	 0.146431798178102 
1219	 0.146438705604468 
1220	 0.146453849899771 
1221	 0.146481246096439 
1222	 0.146497694624896 
1223	 0.146508956524277 
1224	 0.146524078645845 
1225	 0.146536071104189 
1226	 0.146551800080686 
1227	 0.146566462749231 
1228	 0.146589970904714 
1229	 0.146627221376952 
1230	 0.146652397629219 
1231	 0.146681745919726 
1232	 0.146704221925934 
1233	 0.146719953590878 
1234	 0.146719346839508 
1235	 0.146733634488043 
1236	 0.146744024914193 
1237	 0.146771746164521 
1238	 0.146824573293171 
1239	 0.14684366671147 
1240	 0.1468508793919 
1241	 0.146871839015988 
1242	 0.146879133318976 
1243	 0.146891626387808 
1244	 0.146920973938067 
1245	 0.146946613590404 
1246	 0.146972167522176 
1247	 0.146982828967728 
1248	 0.146979559061097 
1249	 0.146996125642062 
1250	 0.147002169734521 
1251	 0.147012024412385 
1252	 0.147020760794717 
1253	 0.147046141259486 
1254	 0.147057941542144 
1255	 0.147058434622953 
1256	 0.147060642833594 
1257	 0.147058887031318 
1258	 0.147069949882063 
1259	 0.147087033763855 
1260	 0.147092774577527 
1261	 0.147105381002907 
1262	 0.14711669408444 
1263	 0.147118556408039 
1264	 0.147114051856906 
1265	 0.147106770000565 
1266	 0.147106817763026 
1267	 0.147099358638924 
1268	 0.14709361441313 
1269	 0.147095297547759 
1270	 0.147114932458081 
1271	 0.147117956651416 
1272	 0.147114767464395 
1273	 0.147113542900349 
1274	 0.147102373681777 
1275	 0.147106312675071 
1276	 0.147123669323888 
1277	 0.147126370548327 
1278	 0.147124225140867 
1279	 0.14713736601692 
1280	 0.147139833675301 
1281	 0.147157682083845 
1282	 0.147189867871487 
1283	 0.147234132804032 
1284	 0.147292563907104 
1285	 0.147356387450798 
1286	 0.147414270792874 
1287	 0.147470149678255 
1288	 0.147506405245365 
1289	 0.147517134501436 
1290	 0.147537704344914 
1291	 0.147548194951331 
1292	 0.147577070546659 
1293	 0.147610959852934 
1294	 0.147642954191002 
1295	 0.147691172272861 
1296	 0.14772523656791 
1297	 0.147750257987885 
1298	 0.147772394909008 
1299	 0.147789991107358 
1300	 0.147808330500478 
1301	 0.147832612271475 
1302	 0.147838853718764 
1303	 0.147840705760255 
1304	 0.147824372354267 
1305	 0.14781835186688 
1306	 0.147799461796196 
1307	 0.147782159877493 
1308	 0.147785358965648 
1309	 0.147779503414916 
1310	 0.147769198415825 
1311	 0.147756100952231 
1312	 0.147751449033337 
1313	 0.147726637918852 
1314	 0.147681465747052 
1315	 0.147646688644474 
1316	 0.147603352503122 
1317	 0.147576499278951 
1318	 0.147561548424385 
1319	 0.147538982075115 
1320	 0.147525204340221 
1321	 0.147501146477583 
1322	 0.147460071545252 
1323	 0.147437817101632 
1324	 0.147409147801596 
1325	 0.147389575913586 
1326	 0.147381936330821 
1327	 0.147354667710637 
1328	 0.147325232907483 
1329	 0.147288262242588 
1330	 0.147244872699352 
1331	 0.147177064115508 
1332	 0.147144702609228 
1333	 0.147128350849892 
1334	 0.147100927034782 
1335	 0.147085454490718 
1336	 0.147070805761549 
1337	 0.147044314415501 
1338	 0.147025175547837 
1339	 0.147025463700146 
1340	 0.147010279680906 
1341	 0.146990483633886 
1342	 0.14696472772873 
1343	 0.146935076865978 
1344	 0.146892019590022 
1345	 0.146860739513195 
1346	 0.146836902381071 
1347	 0.146815389971229 
1348	 0.146801642561518 
1349	 0.146768391797976 
1350	 0.146720473021775 
1351	 0.146698188881786 
1352	 0.146683336758699 
1353	 0.146668515017879 
1354	 0.146675846828322 
1355	 0.14666244500219 
1356	 0.146628941339571 
1357	 0.146612627437488 
1358	 0.146602846149432 
1359	 0.14658711165902 
1360	 0.146578871088444 
1361	 0.146565318970516 
1362	 0.146542470554128 
1363	 0.146521647343488 
1364	 0.146507927167014 
1365	 0.146483803955463 
1366	 0.146457692879807 
1367	 0.146423259545904 
1368	 0.146376643428842 
1369	 0.146311138530847 
1370	 0.146243719788016 
1371	 0.146177708046624 
1372	 0.146109606701189 
1373	 0.146042609534702 
1374	 0.145957980816002 
1375	 0.145859472793981 
1376	 0.145757494088275 
1377	 0.145641627106721 
1378	 0.14552946490474 
1379	 0.145418672267633 
1380	 0.145296841345075 
1381	 0.145178288109255 
1382	 0.14503569803639 
1383	 0.144879163617094 
1384	 0.144712323734795 
1385	 0.14454310959312 
1386	 0.144340160780898 
1387	 0.144119990571343 
1388	 0.143880663241025 
1389	 0.143611587285974 
1390	 0.14332467407184 
1391	 0.143041767211111 
1392	 0.142718300242612 
1393	 0.142389445872843 
1394	 0.142060949871985 
1395	 0.141699612715526 
1396	 0.141324951100954 
1397	 0.140927660992242 
1398	 0.140496331643191 
1399	 0.140070834648931 
1400	 0.139627792367278 
1401	 0.139200682328136 
1402	 0.138769651334446 
1403	 0.138351328515409 
1404	 0.137937693992007 
1405	 0.137538731880755 
1406	 0.137143949706046 
1407	 0.136766185353074 
1408	 0.13640378502517 
1409	 0.136051557263916 
1410	 0.135694622108963 
1411	 0.135383890589082 
1412	 0.135091714732304 
1413	 0.134835883641332 
1414	 0.134623843385088 
1415	 0.134434908904713 
1416	 0.134272368753002 
1417	 0.134130936131951 
1418	 0.133999476777596 
1419	 0.133882297530423 
1420	 0.133790799992229 
1421	 0.133702122222898 
1422	 0.133606789692355 
1423	 0.133515735772959 
1424	 0.133428940664183 
1425	 0.133331947286044 
1426	 0.133252998431365 
1427	 0.133192813008494 
1428	 0.133129112404269 
1429	 0.133067467661053 
1430	 0.133007679124338 
1431	 0.132951210903638 
1432	 0.13289596541504 
1433	 0.132834072615031 
1434	 0.132789852817805 
1435	 0.132755191889121 
1436	 0.132727910892859 
1437	 0.1327175207645 
1438	 0.132704895530821 
1439	 0.132696136353956 
1440	 0.132687027857109 
1441	 0.132683423904335 
1442	 0.132673211986579 
1443	 0.132658661469619 
1444	 0.132658216982602 
1445	 0.132655137393837 
1446	 0.132664484637155 
1447	 0.132690700159842 
1448	 0.132688548878181 
1449	 0.132676213932152 
1450	 0.132675063656238 
1451	 0.132680959943818 
1452	 0.132691417179562 
1453	 0.132696689414556 
1454	 0.132708052773382 
1455	 0.132715180257134 
1456	 0.132716015179922 
1457	 0.132714147094406 
1458	 0.132713075724199 
1459	 0.132717639616196 
1460	 0.132711867171582 
1461	 0.132720579367667 
1462	 0.132748886175326 
1463	 0.13276398243091 
1464	 0.13276675054336 
1465	 0.13278903109226 
1466	 0.132809750113206 
1467	 0.132846879295397 
1468	 0.132910924086978 
1469	 0.132967122817261 
1470	 0.133015041798975 
1471	 0.133091587088948 
1472	 0.133168257808932 
1473	 0.13325844821495 
1474	 0.133362622202014 
1475	 0.133434409424393 
1476	 0.133491964202144 
1477	 0.133546401760321 
1478	 0.133612561882725 
1479	 0.133692973808416 
1480	 0.133777192434207 
1481	 0.133879421076791 
1482	 0.133983009663127 
1483	 0.134087429971349 
1484	 0.134195089916381 
1485	 0.134321006254224 
1486	 0.134424348706796 
1487	 0.134514383704196 
1488	 0.134609991334725 
1489	 0.134701864811446 
1490	 0.134791862633277 
1491	 0.1348808298868 
1492	 0.134972906824316 
1493	 0.135062652407431 
1494	 0.135154782267078 
1495	 0.135253916447903 
1496	 0.135339880511586 
1497	 0.135419783903576 
1498	 0.135501562496567 
1499	 0.135580873185624 
1500	 0.135658612433812 
1501	 0.135731256626869 
1502	 0.135806561929372 
1503	 0.135881669966922 
1504	 0.135953039310166 
1505	 0.136031024435302 
1506	 0.136110277506562 
1507	 0.136169324010218 
1508	 0.136232562457641 
1509	 0.136308854750222 
1510	 0.136380825814713 
1511	 0.13645454390985 
1512	 0.136518130661493 
1513	 0.136565364236094 
1514	 0.136612752161225 
1515	 0.136672066086115 
1516	 0.136726121740951 
1517	 0.13677478667459 
1518	 0.136816161171489 
1519	 0.136872853656269 
1520	 0.13693187551388 
1521	 0.136989492776363 
1522	 0.137059041928618 
1523	 0.137114088486632 
1524	 0.137155485210529 
1525	 0.137206208661946 
1526	 0.137256200849766 
1527	 0.137313772389409 
1528	 0.137381462686976 
1529	 0.13743627160561 
1530	 0.137491851874722 
1531	 0.137541604727214 
1532	 0.137579353632578 
1533	 0.137624009371781 
1534	 0.137674325555427 
1535	 0.137715549452578 
1536	 0.137741097818498 
1537	 0.137785483425151 
1538	 0.137838938190401 
1539	 0.137888904611471 
1540	 0.13796311708219 
1541	 0.138007853598918 
1542	 0.13802291200078 
1543	 0.138054089581429 
1544	 0.138074633309028 
1545	 0.138106902021075 
1546	 0.138161142308407 
1547	 0.138202863287015 
1548	 0.138225467290396 
1549	 0.138248041449983 
1550	 0.138267209429252 
1551	 0.138283535921953 
1552	 0.138310799316171 
1553	 0.138348256399381 
1554	 0.138379210487332 
1555	 0.138404200028272 
1556	 0.138427654812956 
1557	 0.138459151009596 
1558	 0.13849474281449 
1559	 0.138522537022185 
1560	 0.138547786109954 
1561	 0.138570137687075 
1562	 0.138596425727196 
1563	 0.138619336062757 
1564	 0.13864487213791 
1565	 0.13867919167866 
1566	 0.138704889074758 
1567	 0.138719752428994 
1568	 0.138744967094468 
1569	 0.138781599712398 
1570	 0.138796675502043 
1571	 0.138809826455992 
1572	 0.138815430993576 
1573	 0.138788985324104 
1574	 0.138800435028134 
1575	 0.138829022728653 
1576	 0.138850225869072 
1577	 0.138894067638784 
1578	 0.138916034229407 
1579	 0.138919950599673 
1580	 0.13893266064106 
1581	 0.138939500213469 
1582	 0.138955486413633 
1583	 0.138984777273202 
1584	 0.138999390332999 
1585	 0.139004771868091 
1586	 0.139019848615176 
1587	 0.139036358895968 
1588	 0.13904569699868 
1589	 0.139058695823217 
1590	 0.139072734640292 
1591	 0.139074668244894 
1592	 0.139083146385704 
1593	 0.139107728060505 
1594	 0.139119146846712 
1595	 0.1391198893544 
1596	 0.13912299400465 
1597	 0.139120258405044 
1598	 0.13912309909226 
1599	 0.139132926638324 
1600	 0.139137049103973 
1601	 0.139142562481643 
1602	 0.139141802692084 
1603	 0.139139411064002 
1604	 0.139127463925791 
1605	 0.139101539627945 
1606	 0.139084622267273 
1607	 0.139060524261917 
1608	 0.139039961479998 
1609	 0.139053295543571 
1610	 0.139056278802178 
1611	 0.139053153646459 
1612	 0.139060250321764 
1613	 0.13905733651378 
1614	 0.139046159058189 
1615	 0.139037529664911 
1616	 0.139031354204249 
1617	 0.139027603646591 
1618	 0.139026685593 
1619	 0.139029447830698 
1620	 0.139020738809439 
1621	 0.139009101231261 
1622	 0.138981824565675 
1623	 0.138976145129362 
1624	 0.138980508820071 
1625	 0.138972944558889 
1626	 0.138968406396034 
1627	 0.138963851487183 
1628	 0.138950900904322 
1629	 0.138941758965652 
1630	 0.138938737523797 
1631	 0.138937518074641 
1632	 0.13892968003661 
1633	 0.138933879175341 
1634	 0.138953268659059 
1635	 0.138959186399939 
1636	 0.138966915396695 
1637	 0.138962502815482 
1638	 0.138954773830134 
1639	 0.138929822699163 
1640	 0.138882353047002 
1641	 0.13885587813429 
1642	 0.13882694073675 
1643	 0.138799927350819 
1644	 0.13878256182039 
1645	 0.138765473531837 
1646	 0.138742155970876 
1647	 0.138727358531863 
1648	 0.138726870263397 
1649	 0.138716749965024 
1650	 0.138708724489952 
1651	 0.138684469700681 
1652	 0.138642847598672 
1653	 0.138624090066237 
1654	 0.138604339889719 
1655	 0.138586815611351 
1656	 0.138595149421241 
1657	 0.13857639247364 
1658	 0.138529421567913 
1659	 0.138508447182265 
1660	 0.138492378244101 
1661	 0.138478456809937 
1662	 0.138478228640269 
1663	 0.138470751541524 
1664	 0.138462221004512 
1665	 0.138448506640562 
1666	 0.138439278655912 
1667	 0.13841445229294 
1668	 0.138372911343803 
1669	 0.138340382221982 
1670	 0.138302857562523 
1671	 0.138268201150537 
1672	 0.138239428716227 
1673	 0.138205773917383 
1674	 0.138162692263454 
1675	 0.138134034515225 
1676	 0.138110706341777 
1677	 0.138091131183238 
1678	 0.1380876007894 
1679	 0.138067490582361 
1680	 0.138044113014021 
1681	 0.138014497922168 
1682	 0.137969748102017 
1683	 0.137937952778499 
1684	 0.13790494513816 
1685	 0.137880467490938 
1686	 0.137873273508082 
1687	 0.137846646701954 
1688	 0.137813488816932 
1689	 0.137783352660784 
1690	 0.137736959025079 
1691	 0.137710846007916 
1692	 0.137703842257832 
1693	 0.137683873446856 
1694	 0.137663513502326 
1695	 0.137645004898456 
1696	 0.137625458221858 
1697	 0.137599176891067 
1698	 0.13757855795115 
1699	 0.137545759475494 
1700	 0.137490741888566 
1701	 0.137457567449551 
1702	 0.137433632517208 
1703	 0.13740247733409 
1704	 0.137389650976217 
1705	 0.137345142448679 
1706	 0.137264355647764 
1707	 0.137217664729036 
1708	 0.137178918320756 
1709	 0.137128849818603 
1710	 0.137090326988811 
1711	 0.137050389527623 
1712	 0.136982400765347 
1713	 0.136954568627391 
1714	 0.136969605340142 
1715	 0.136947692254291 
1716	 0.136928626469323 
1717	 0.136891640747609 
1718	 0.136827445781948 
1719	 0.136773391582996 
1720	 0.136705866814148 
1721	 0.136668148874535 
1722	 0.136653528913553 
1723	 0.136614912780056 
1724	 0.136588105733754 
1725	 0.136544612679549 
1726	 0.136470858989601 
1727	 0.136409950135447 
1728	 0.136361332368764 
1729	 0.136298187482646 
1730	 0.136223138679602 
1731	 0.136154988558186 
1732	 0.136081608700661 
1733	 0.136016324818861 
1734	 0.135955708475587 
1735	 0.135892718335839 
1736	 0.135833762846142 
1737	 0.135773299384282 
1738	 0.135712473481935 
1739	 0.135644233098259 
1740	 0.135572203206418 
1741	 0.135508330738395 
1742	 0.135444889300943 
1743	 0.13537760846337 
1744	 0.135311577329707 
1745	 0.135250248008728 
1746	 0.135182992917105 
1747	 0.135131321968115 
1748	 0.135078429514711 
1749	 0.135021303554083 
1750	 0.134967705965439 
1751	 0.1349022875622 
1752	 0.134837572888859 
1753	 0.134759893855388 
1754	 0.13466359651716 
1755	 0.134593769017291 
1756	 0.134519300728329 
1757	 0.134439724458609 
1758	 0.134395567843541 
1759	 0.134330445699364 
1760	 0.134250880525404 
1761	 0.134186967897357 
1762	 0.13411011076391 
1763	 0.134039236804202 
1764	 0.133974407086816 
1765	 0.133900227970065 
1766	 0.133828595824945 
1767	 0.133776816937026 
1768	 0.133744615406218 
1769	 0.133719581442245 
1770	 0.133695944754388 
1771	 0.133645041958809 
1772	 0.133567947789114 
1773	 0.133481585004209 
1774	 0.133402075434831 
1775	 0.133341312706172 
1776	 0.133282633645846 
1777	 0.133240694567435 
1778	 0.133189224605268 
1779	 0.133119271501539 
1780	 0.133076993528923 
1781	 0.133045322540507 
1782	 0.133016082228161 
1783	 0.133002156787478 
1784	 0.132959629724828 
1785	 0.132893607144814 
1786	 0.132839529475937 
1787	 0.132763580294862 
1788	 0.132710265217483 
1789	 0.132683919222691 
1790	 0.132649476109567 
1791	 0.132615237022468 
1792	 0.132591766307966 
1793	 0.132570996041438 
1794	 0.132542744444268 
1795	 0.132523591454144 
1796	 0.132509395165282 
1797	 0.132497268306864 
1798	 0.132472299964245 
1799	 0.132441072781972 
1800	 0.132411231129337 
1801	 0.129668680849382 
1802	 0.129663163891852 
1803	 0.129624212627935 
1804	 0.129594791803766 
1805	 0.129589455152329 
1806	 0.129557976616539 
1807	 0.129515746064791 
1808	 0.129504833574217 
1809	 0.129528513752053 
1810	 0.129527428443093 
1811	 0.129514503733432 
1812	 0.129539039893635 
1813	 0.129561457851705 
1814	 0.129537665869792 
1815	 0.129532518222284 
1816	 0.12952431525241 
1817	 0.129512589262857 
1818	 0.129491427792322 
1819	 0.129474959818286 
1820	 0.129454970509131 
1821	 0.129450723749304 
1822	 0.129444744259185 
1823	 0.129414818752944 
1824	 0.129405547442156 
1825	 0.129426073233977 
1826	 0.129432987320251 
1827	 0.129423653941006 
1828	 0.129404179934223 
1829	 0.12936462285905 
1830	 0.129324290954535 
1831	 0.129263655046638 
1832	 0.129231430301383 
1833	 0.129201733273274 
1834	 0.129169459841795 
1835	 0.12911544622957 
1836	 0.129064526100796 
1837	 0.129025411589302 
1838	 0.128978971627206 
1839	 0.128927717847944 
1840	 0.128879067182701 
1841	 0.128831203285034 
1842	 0.128768571814236 
1843	 0.128705987961466 
1844	 0.128661732545154 
1845	 0.128594905026552 
1846	 0.128533077549265 
1847	 0.128459007821622 
1848	 0.128357620700981 
1849	 0.128287152783546 
1850	 0.12821023937534 
1851	 0.128126699203029 
1852	 0.128049915301203 
1853	 0.127985140261393 
1854	 0.127903935232895 
1855	 0.12784009748804 
1856	 0.127757598778978 
1857	 0.127651555290939 
1858	 0.127530707590675 
1859	 0.127366746449721 
1860	 0.127207633811704 
1861	 0.12703424582117 
1862	 0.126866088152714 
1863	 0.126693253315167 
1864	 0.126516226396879 
1865	 0.126319428641013 
1866	 0.126121248668483 
1867	 0.12589465735304 
1868	 0.125654068982704 
1869	 0.125395698245964 
1870	 0.125095378402095 
1871	 0.124792468235221 
1872	 0.124484605006919 
1873	 0.124148531807778 
1874	 0.123785437637984 
1875	 0.12340983383527 
1876	 0.122978912944878 
1877	 0.122512705699148 
1878	 0.122005667362313 
1879	 0.121452849885856 
1880	 0.120873762312451 
1881	 0.120244259028249 
1882	 0.119612993959938 
1883	 0.118967925898868 
1884	 0.118277717308263 
1885	 0.117574746849735 
1886	 0.11681849765267 
1887	 0.116001020669402 
1888	 0.11515366835566 
1889	 0.114250677698426 
1890	 0.113336390834705 
1891	 0.112416127281721 
1892	 0.111460167247608 
1893	 0.110514173488804 
1894	 0.109579511353203 
1895	 0.108610287545269 
1896	 0.107619033270868 
1897	 0.106662848440339 
1898	 0.105676665505232 
1899	 0.104698115336711 
1900	 0.103759231758824 
1901	 0.102828027531778 
1902	 0.101952615945131 
1903	 0.101144109507702 
1904	 0.100339289185307 
1905	 9.95481775597325E-02 
1906	 9.88224738567869E-02 
1907	 9.81271756338034E-02 
1908	 9.74481461892004E-02 
1909	 9.68561181736993E-02 
1910	 9.62946706236184E-02 
1911	 9.57374431017899E-02 
1912	 9.52204008243591E-02 
1913	 9.47325460517612E-02 
1914	 9.42570759302155E-02 
1915	 9.38305917948605E-02 
1916	 9.34445013264068E-02 
1917	 9.30938010329712E-02 
1918	 9.27884305017007E-02 
1919	 9.25046957216199E-02 
1920	 9.22430479536077E-02 
1921	 0.092019490983675 
1922	 0.09180947761166 
1923	 9.16225507629904E-02 
1924	 9.14489287081396E-02 
1925	 9.12939821883398E-02 
1926	 9.11532043168894E-02 
1927	 9.10192513505359E-02 
1928	 9.09158807165884E-02 
1929	 9.08439700677929E-02 
1930	 9.08116657246885E-02 
1931	 9.07810583676621E-02 
1932	 9.07671351108158E-02 
1933	 0.090779464612509 
1934	 9.07844608674603E-02 
1935	 9.07960624776276E-02 
1936	 9.08209573379964E-02 
1937	 0.090859090799167 
1938	 9.08962078624578E-02 
1939	 9.09446596997739E-02 
1940	 0.09101449118867 
1941	 0.091089592087003 
1942	 9.11559098726303E-02 
1943	 9.12371656190699E-02 
1944	 9.13584284528984E-02 
1945	 9.14990471384723E-02 
1946	 9.16252948079542E-02 
1947	 9.17707596458008E-02 
1948	 9.18926496600424E-02 
1949	 9.19779810199538E-02 
1950	 9.20989317470106E-02 
1951	 9.22217693495754E-02 
1952	 9.23703040348027E-02 
1953	 9.25218004859836E-02 
1954	 9.26843898497613E-02 
1955	 9.28640605962193E-02 
1956	 9.30291762398772E-02 
1957	 0.093198518644228 
1958	 9.33829994325143E-02 
1959	 9.35573982736029E-02 
1960	 9.37125925515035E-02 
1961	 9.38895516382882E-02 
1962	 9.40840474546992E-02 
1963	 9.42716013331804E-02 
1964	 9.44670070948823E-02 
1965	 9.46466154405482E-02 
1966	 9.48377536650773E-02 
1967	 9.50410912273519E-02 
1968	 9.52458271774028E-02 
1969	 9.54681068331072E-02 
1970	 9.56773509321043E-02 
1971	 9.58769950241333E-02 
1972	 9.60859123856986E-02 
1973	 9.62813469721653E-02 
1974	 9.65008319835028E-02 
1975	 9.67398162884481E-02 
1976	 9.69905199356592E-02 
1977	 0.097211222895464 
1978	 9.74507045134452E-02 
1979	 0.097683215086379 
1980	 9.78661447299312E-02 
1981	 9.80667415631666E-02 
1982	 9.82626788372004E-02 
1983	 9.84745219866684E-02 
1984	 9.86904560167412E-02 
1985	 9.89052000771424E-02 
1986	 9.91246663390086E-02 
1987	 0.09934941623105 
1988	 9.95756014699724E-02 
1989	 9.97992161347342E-02 
1990	 0.100019710192453 
1991	 0.100260356613566 
1992	 0.100485226798966 
1993	 0.100687127921253 
1994	 0.100914254922785 
1995	 0.101163143513247 
1996	 0.10139047768223 
1997	 0.101617243889808 
1998	 0.101841491476473 
1999	 0.102045488460933 
2000	 0.102262717111296 
2001	 0.102484998684724 
2002	 0.10271273807842 
2003	 0.1029435051637 
2004	 0.103195883777802 
2005	 0.103428790855255 
2006	 0.103669131825609 
2007	 0.10388650103053 
2008	 0.104082604328879 
2009	 0.104285697646605 
2010	 0.104478426255009 
2011	 0.104674681304914 
2012	 0.104877328922208 
2013	 0.105070969528652 
2014	 0.105246195939394 
2015	 0.105444469699002 
2016	 0.105650581079249 
2017	 0.105831033799736 
2018	 0.106026148933893 
2019	 0.106230474042846 
2020	 0.10642968064691 
2021	 0.106626018783268 
2022	 0.106826337497071 
2023	 0.107037790818465 
2024	 0.107233253397728 
2025	 0.107423069291928 
2026	 0.107607447965584 
2027	 0.10778359123039 
2028	 0.107950388359048 
2029	 0.108119134705377 
2030	 0.108281656908057 
2031	 0.108453972459603 
2032	 0.108635497762663 
2033	 0.108796099335277 
2034	 0.108950849713095 
2035	 0.109109312691877 
2036	 0.109253763749635 
2037	 0.109403805448838 
2038	 0.109572548075362 
2039	 0.109719373297614 
2040	 0.109844631719822 
2041	 0.109973064711818 
2042	 0.110115854626597 
2043	 0.110270858500375 
2044	 0.110412218034531 
2045	 0.110572976767852 
2046	 0.11070100877747 
2047	 0.11078912220801 
2048	 0.110911815298119 
2049	 0.111035738024106 
2050	 0.11116884307777 
2051	 0.111340085374597 
2052	 0.111473559292773 
2053	 0.111595474267044 
2054	 0.11170686247074 
2055	 0.111788833140164 
2056	 0.111867222277903 
2057	 0.111972087971887 
2058	 0.112085962610899 
2059	 0.112200557747826 
2060	 0.112331428553274 
2061	 0.112457491653723 
2062	 0.112587162777364 
2063	 0.112705367354163 
2064	 0.11282955715144 
2065	 0.112940316782566 
2066	 0.113019990924505 
2067	 0.113121691845997 
2068	 0.113224197662988 
2069	 0.113344750103275 
2070	 0.113453558592395 
2071	 0.113575827202657 
2072	 0.113675531486167 
2073	 0.113752023224159 
2074	 0.113851357417273 
2075	 0.113962523375128 
2076	 0.114054115002336 
2077	 0.114140083681938 
2078	 0.114233420565128 
2079	 0.114311857363753 
2080	 0.114401274781052 
2081	 0.114511318882461 
2082	 0.114613185025617 
2083	 0.114713280748015 
2084	 0.114800364624018 
2085	 0.114906832603468 
2086	 0.115025124757232 
2087	 0.115128206401827 
2088	 0.115233540316954 
2089	 0.115336787701294 
2090	 0.115430202278984 
2091	 0.115525255782787 
2092	 0.115627597593441 
2093	 0.115720976778279 
2094	 0.115794873728293 
2095	 0.115887419776103 
2096	 0.115998411894282 
2097	 0.116092805613751 
2098	 0.116187791401079 
2099	 0.116278433564669 
2100	 0.11636692443904 
2101	 0.116439391491042 
2102	 0.116526480759483 
2103	 0.116625419068715 
2104	 0.116713854979827 
2105	 0.116797594955159 
2106	 0.116883613810739 
2107	 0.116964324165259 
2108	 0.117051806185987 
2109	 0.117145819940313 
2110	 0.117236851031054 
2111	 0.117322673627525 
2112	 0.117420001710412 
2113	 0.117536088604036 
2114	 0.117627516779246 
2115	 0.117727195162872 
2116	 0.117838735435931 
2117	 0.117932826236357 
2118	 0.11801895312615 
2119	 0.11809496099259 
2120	 0.118152815504424 
2121	 0.118227708963306 
2122	 0.118309974661147 
2123	 0.11837253295143 
2124	 0.118432149054117 
2125	 0.118494367335756 
2126	 0.118547218794207 
2127	 0.118589585979196 
2128	 0.118625185239825 
2129	 0.118672597934236 
2130	 0.118718392934227 
2131	 0.118743319903395 
2132	 0.118798489889335 
2133	 0.118887682465804 
2134	 0.118945796232461 
2135	 0.119013372085731 
2136	 0.119040017928633 
2137	 0.119034521966094 
2138	 0.119038971045079 
2139	 0.11901843781049 
2140	 0.11900768364418 
2141	 0.119015735448783 
2142	 0.118999903256168 
2143	 0.118970930814782 
2144	 0.118933161923827 
2145	 0.118867598604102 
2146	 0.118819244143442 
2147	 0.118773970992347 
2148	 0.118727346403884 
2149	 0.118680321585294 
2150	 0.11865248578165 
2151	 0.11859139761986 
2152	 0.118514974678105 
2153	 0.118429658643963 
2154	 0.118317753586431 
2155	 0.118225332272154 
2156	 0.118107849987239 
2157	 0.118039112210504 
2158	 0.118031493973456 
2159	 0.11797094445836 
2160	 0.117927091984465 
2161	 0.117852019007612 
2162	 0.117710030534362 
2163	 0.117594993861125 
2164	 0.117481648594671 
2165	 0.117371781442025 
2166	 0.117275921714962 
2167	 0.117197812614571 
2168	 0.117104470412778 
2169	 0.117017772544399 
2170	 0.116919918959453 
2171	 0.116817912376604 
2172	 0.116700909451792 
2173	 0.116572183665466 
2174	 0.116445193643256 
2175	 0.116308889370906 
2176	 0.116164689086061 
2177	 0.116012071559913 
2178	 0.115867920958106 
2179	 0.115706854309911 
2180	 0.115564029761355 
2181	 0.115456763944869 
2182	 0.115324345524485 
2183	 0.115177940425482 
2184	 0.115030928060289 
2185	 0.114903408819259 
2186	 0.114772254060213 
2187	 0.114643343022202 
2188	 0.114536514005957 
2189	 0.114419293551669 
2190	 0.114285672155752 
2191	 0.114167200617348 
2192	 0.114060414611946 
2193	 0.113953528101393 
2194	 0.113834783848314 
2195	 0.113743794439072 
2196	 0.113698806404955 
2197	 0.113610858641959 
2198	 0.113505195175237 
2199	 0.113411222736236 
2200	 0.113270249197686 
2201	 0.113176025377899 
2202	 0.113103095248823 
2203	 0.113070765683678 
2204	 0.113063463573344 
2205	 0.113110281599484 
2206	 0.113105213483281 
2207	 0.113101708655007 
2208	 0.113115942896629 
2209	 0.113097902384829 
2210	 0.113121910434403 
2211	 0.113211547969361 
2212	 0.113252062411432 
2213	 0.113266957475569 
2214	 0.113307193062775 
2215	 0.113353081877554 
2216	 0.113388362450713 
2217	 0.113437347562698 
2218	 0.113475383031139 
2219	 0.113501343051695 
2220	 0.113519675236542 
2221	 0.113546521260691 
2222	 0.113539992385242 
2223	 0.113532266304835 
2224	 0.113531665890999 
2225	 0.113559544562574 
2226	 0.113609050588926 
2227	 0.113656668944338 
2228	 0.113734126840524 
2229	 0.113776940142743 
2230	 0.113803084591102 
2231	 0.113833344085383 
2232	 0.113853371011058 
2233	 0.113876473558694 
2234	 0.1139124277234 
2235	 0.11392649368521 
2236	 0.113931528145338 
2237	 0.113921125690542 
2238	 0.113888791324577 
2239	 0.113859434554759 
2240	 0.113803005689044 
2241	 0.113776800021872 
2242	 0.113785043795886 
2243	 0.113762210896983 
2244	 0.113735158386363 
2245	 0.113711105351433 
2246	 0.113659559039921 
2247	 0.113596289361229 
2248	 0.113561905563784 
2249	 0.113558069497074 
2250	 0.1135034444679 
2251	 0.113429379336568 
2252	 0.113376555977322 
2253	 0.113298730322423 
2254	 0.113248230864716 
2255	 0.113234286606926 
2256	 0.113200384672169 
2257	 0.113153474082731 
2258	 0.113124047051676 
2259	 0.113107877818406 
2260	 0.113081010994043 
2261	 0.113050286409262 
2262	 0.113027275740463 
2263	 0.113007233252748 
2264	 0.11299015583736 
2265	 0.112972045567067 
2266	 0.112967798178814 
2267	 0.112973176485736 
2268	 0.112973758426056 
2269	 0.112987508776881 
2270	 0.112996701242514 
2271	 0.113009700702893 
2272	 0.11300945641549 
2273	 0.112987084611549 
2274	 0.112991347638299 
2275	 0.113007836823909 
2276	 0.113030823300543 
2277	 0.113041927762333 
2278	 0.113067489512371 
2279	 0.113093281512678 
2280	 0.113099492755809 
2281	 0.113124857562976 
2282	 0.113182610324233 
2283	 0.113214808287024 
2284	 0.113230946949692 
2285	 0.11325392160879 
2286	 0.113287692227239 
2287	 0.113296213780219 
2288	 0.113315465231844 
2289	 0.113280466369964 
2290	 0.113168566292141 
2291	 0.113122482712211 
2292	 0.113059430903628 
2293	 0.113029512666451 
2294	 0.113094095117113 
2295	 0.113085132366108 
2296	 0.113036356558725 
2297	 0.112998717257165 
2298	 0.112932881950104 
2299	 0.112870258759516 
2300	 0.112856567795379 
2301	 0.112855383896319 
2302	 0.112880813918178 
2303	 0.112895687534496 
2304	 0.11287105665061 
2305	 0.112809048049139 
2306	 0.112748624173655 
2307	 0.112638579489971 
2308	 0.112578640206093 
2309	 0.11254719619637 
2310	 0.112502514159275 
2311	 0.112454758943414 
2312	 0.112412384693999 
2313	 0.112372218962177 
2314	 0.112338631768362 
2315	 0.112328023615743 
2316	 0.112292914296869 
2317	 0.11225605513273 
2318	 0.112189444310214 
2319	 0.112082341010663 
2320	 0.112009282755868 
2321	 0.111918628387587 
2322	 0.111851815167814 
2323	 0.11182949479361 
2324	 0.111783471582796 
2325	 0.111732802781356 
2326	 0.111694964498561 
2327	 0.111677765005026 
2328	 0.111604303766678 
2329	 0.111542081641616 
2330	 0.111526548607637 
2331	 0.111563181003969 
2332	 0.111567222154875 
2333	 0.111544282288218 
2334	 0.111503047874172 
2335	 0.11136814500907 
2336	 0.111254649118656 
2337	 0.11121538083632 
2338	 0.111161243007844 
2339	 0.111067816036737 
2340	 0.110997663426742 
2341	 0.110934355400319 
2342	 0.110821030408101 
2343	 0.110766329406276 
2344	 0.110724609985891 
2345	 0.110657360599092 
2346	 0.110594171962798 
2347	 0.110506251206634 
2348	 0.110387079507724 
2349	 0.110274839810087 
2350	 0.110116842578941 
2351	 0.110011158100613 
2352	 0.109942327435918 
2353	 0.109859811748864 
2354	 0.109837632433876 
2355	 0.109742368899356 
2356	 0.109567617063005 
2357	 0.109461148413186 
2358	 0.109341691733106 
2359	 0.10923017432686 
2360	 0.109176729357443 
2361	 0.109094807620218 
2362	 0.109015497883856 
2363	 0.108891820652987 
2364	 0.10872556677566 
2365	 0.108593357759033 
2366	 0.10844880487629 
2367	 0.108298742032014 
2368	 0.108157963166327 
2369	 0.10804026784624 
2370	 0.10792826819665 
2371	 0.107769069217127 
2372	 0.107723407756371 
2373	 0.107671405421398 
2374	 0.107478849309052 
2375	 0.107313684256377 
2376	 0.107135513180524 
2377	 0.106939551856382 
2378	 0.106823273947236 
2379	 0.106735359989537 
2380	 0.10671032426264 
2381	 0.106680962088916 
2382	 0.106577450705716 
2383	 0.106519610699224 
2384	 0.106379165744293 
2385	 0.106121920489792 
2386	 0.105931235962019 
2387	 0.105734256998496 
2388	 0.10551976826304 
2389	 0.105350355265119 
2390	 0.105200194429845 
2391	 0.105023086247079 
2392	 0.104805853859239 
2393	 0.104651797372962 
2394	 0.104573026105962 
2395	 0.104458114745087 
2396	 0.104318482910919 
2397	 0.104145520790462 
2398	 0.103952982714646 
2399	 0.103784121352692 
2400	 0.103645257087331 
2401	 0.103580496493557 
2402	 0.103485664049546 
2403	 0.103382784875476 
2404	 0.103259285725868 
2405	 0.103073912050378 
2406	 0.102856384073726 
2407	 0.102620804208667 
2408	 0.10242327840305 
2409	 0.102188582433364 
2410	 0.101925975217635 
2411	 0.101676336391473 
2412	 0.101502547642085 
2413	 0.101339214776619 
2414	 0.101232656212071 
2415	 0.101176755244689 
2416	 0.101020483515628 
2417	 0.100775025414678 
2418	 0.100642238180747 
2419	 0.100485486213166 
2420	 0.100341697673598 
2421	 0.100326891309085 
2422	 0.100193272041081 
2423	 9.99371668855662E-02 
2424	 9.97556703004466E-02 
2425	 0.099587109423439 
2426	 9.93903966100591E-02 
2427	 9.92494531982554E-02 
2428	 9.90582493167708E-02 
2429	 9.87816829936068E-02 
2430	 9.85260581466607E-02 
2431	 9.82380269612778E-02 
2432	 0.098008280139903 
2433	 9.78040338053404E-02 
2434	 9.76221747664347E-02 
2435	 9.75466738080866E-02 
2436	 9.73397713190504E-02 
2437	 9.70346334541258E-02 
2438	 9.68238800403021E-02 
2439	 9.65685884889288E-02 
2440	 9.63935521614033E-02 
2441	 9.63529244397996E-02 
2442	 9.62593289009882E-02 
2443	 9.61758008191341E-02 
2444	 9.59788103627544E-02 
2445	 9.57071755028875E-02 
2446	 9.55103162590936E-02 
2447	 9.52794038338713E-02 
2448	 9.51249808683026E-02 
2449	 9.50707890227835E-02 
2450	 9.49050559450937E-02 
2451	 9.46831756740962E-02 
2452	 9.44664763094255E-02 
2453	 9.42039127790635E-02 
2454	 9.39618372692862E-02 
2455	 9.37610431966162E-02 
2456	 9.35526598059885E-02 
2457	 9.33263727361165E-02 
2458	 9.31911853710026E-02 
2459	 9.30480088573739E-02 
2460	 0.092910456171801 
2461	 9.28529577994415E-02 
2462	 9.27528709476736E-02 
2463	 9.27184956791117E-02 
2464	 9.25590527369682E-02 
2465	 9.23173978663629E-02 
2466	 9.20804265273226E-02 
2467	 9.16329754474223E-02 
2468	 9.14378143935076E-02 
2469	 9.13929772800599E-02 
2470	 9.14360529395488E-02 
2471	 9.16527103554978E-02 
2472	 9.16756207804262E-02 
2473	 0.091453143409179 
2474	 9.11430928131885E-02 
2475	 9.07662750940064E-02 
2476	 9.04304228326761E-02 
2477	 0.090312197791964 
2478	 9.03303520952914E-02 
2479	 9.02474973841065E-02 
2480	 9.01550570846597E-02 
2481	 9.00531934129249E-02 
2482	 8.98619643333554E-02 
2483	 8.97357177589208E-02 
2484	 0.089822650086096 
2485	 0.089890666275957 
2486	 8.97735435252958E-02 
2487	 8.97363614152197E-02 
2488	 8.96919126774705E-02 
2489	 8.95017677909857E-02 
2490	 8.93698326316364E-02 
2491	 8.91195860866362E-02 
2492	 8.86355939471716E-02 
2493	 8.82436792438989E-02 
2494	 8.79501371114179E-02 
2495	 8.78941069512911E-02 
2496	 8.80361841722449E-02 
2497	 8.81219182388683E-02 
2498	 0.088343167288363 
2499	 8.83273309659458E-02 
2500	 0.088077899707858 
