Wavelength	MM_3200008.asd
350	 3.04645145175755E-02 
351	 0.037939316602557 
352	 3.60423495038806E-02 
353	 0.025693826481087 
354	 2.79880234813867E-02 
355	 2.79569116202644E-02 
356	 2.97686894646145E-02 
357	 3.77699369554772E-02 
358	 3.91866354703005E-02 
359	 3.82721274000922E-02 
360	 3.71213266346325E-02 
361	 3.58974175787735E-02 
362	 3.24855588960664E-02 
363	 0.030686687620197 
364	 3.16329484433038E-02 
365	 3.14660999475734E-02 
366	 2.80153523658946E-02 
367	 2.79071075727026E-02 
368	 3.57199977529835E-02 
369	 0.040219723147902 
370	 3.73067668507794E-02 
371	 3.16070278759333E-02 
372	 3.24050914723891E-02 
373	 3.19652585081825E-02 
374	 3.31449970656443E-02 
375	 3.62712535321728E-02 
376	 3.49926774384097E-02 
377	 3.35692216716948E-02 
378	 3.44799987311396E-02 
379	 3.80208780325194E-02 
380	 3.86762043249026E-02 
381	 3.54444435254203E-02 
382	 3.33285446420157E-02 
383	 4.00581647174181E-02 
384	 4.02081463311642E-02 
385	 3.80958174779357E-02 
386	 3.84307406287401E-02 
387	 4.12760425104085E-02 
388	 4.22679613453727E-02 
389	 4.15015149313406E-02 
390	 4.05936896228815E-02 
391	 3.99819513600382E-02 
392	 4.15805290205596E-02 
393	 4.44063461560188E-02 
394	 4.52374669488972E-02 
395	 4.48144227534101E-02 
396	 4.46310853329306E-02 
397	 4.54328361656999E-02 
398	 4.62750676146592E-02 
399	 4.59282870935966E-02 
400	 4.57701399093736E-02 
401	 4.73542685649725E-02 
402	 4.73287239449739E-02 
403	 4.71839333115474E-02 
404	 4.75457562061786E-02 
405	 4.78696125523107E-02 
406	 4.82240486923065E-02 
407	 0.049066169440434 
408	 5.02824903310945E-02 
409	 5.01317587339387E-02 
410	 4.96826250235689E-02 
411	 4.99513934438838E-02 
412	 5.15125462978985E-02 
413	 5.23227994514318E-02 
414	 5.21868927512456E-02 
415	 5.16477436634174E-02 
416	 5.18819006111838E-02 
417	 5.22321992544584E-02 
418	 5.29086121469231E-02 
419	 5.39022911577397E-02 
420	 5.38512804497806E-02 
421	 0.053593329670117 
422	 5.36290315726229E-02 
423	 5.41099650797044E-02 
424	 5.42446797645407E-02 
425	 5.44554130856598E-02 
426	 5.48869089950763E-02 
427	 5.48858825041079E-02 
428	 5.49020103787172E-02 
429	 5.50870247343156E-02 
430	 5.54469526169156E-02 
431	 5.58210934763738E-02 
432	 5.58557831941308E-02 
433	 5.58121531080403E-02 
434	 5.64767247251334E-02 
435	 5.67863459663147E-02 
436	 5.68549237049611E-02 
437	 5.69354815292278E-02 
438	 5.69445815182448E-02 
439	 5.73224062990574E-02 
440	 5.79292531948106E-02 
441	 5.83360164305704E-02 
442	 5.84120360630837E-02 
443	 5.83938803721531E-02 
444	 5.84527043011969E-02 
445	 5.85990779436546E-02 
446	 0.058842622692085 
447	 5.90987732467817E-02 
448	 5.92880007746614E-02 
449	 5.94427825325139E-02 
450	 5.98808146607445E-02 
451	 6.03470237885227E-02 
452	 0.060162194531883 
453	 6.00434950202771E-02 
454	 6.01116489661981E-02 
455	 6.03017340329119E-02 
456	 6.03733174804584E-02 
457	 6.05420207811543E-02 
458	 6.07327014083478E-02 
459	 0.060781682405519 
460	 6.09156489131723E-02 
461	 6.10495672407463E-02 
462	 6.11201887526209E-02 
463	 6.11258780925492E-02 
464	 6.13980179280831E-02 
465	 6.16990636863039E-02 
466	 6.17525216838611E-02 
467	 6.17930507414759E-02 
468	 6.20472963705809E-02 
469	 6.23775465046978E-02 
470	 6.23746644102003E-02 
471	 6.21542527745313E-02 
472	 6.21294878611606E-02 
473	 6.24770840654177E-02 
474	 6.27555004601159E-02 
475	 6.28266265057899E-02 
476	 6.28456938252654E-02 
477	 6.30472322933387E-02 
478	 6.30465471281984E-02 
479	 6.32060253912776E-02 
480	 0.063548968327923 
481	 6.35534052279314E-02 
482	 6.34630707040326E-02 
483	 6.35166339761729E-02 
484	 6.38184748085038E-02 
485	 6.39529405915067E-02 
486	 6.39969297345956E-02 
487	 6.40382290381871E-02 
488	 6.41510455760825E-02 
489	 6.41665599452036E-02 
490	 0.064178530698692 
491	 6.42962721106359E-02 
492	 6.45918272236545E-02 
493	 6.46785960861939E-02 
494	 6.45818306188172E-02 
495	 6.45486376523993E-02 
496	 6.48304983607193E-02 
497	 6.49805384039996E-02 
498	 6.49001698180659E-02 
499	 0.065105161781523 
500	 6.52014829320797E-02 
501	 0.065185824215389 
502	 6.51783380642835E-02 
503	 6.53204916070373E-02 
504	 0.065431394271346 
505	 6.54143007662547E-02 
506	 6.52760818064682E-02 
507	 6.53568223781236E-02 
508	 6.55351682277632E-02 
509	 6.56502973583666E-02 
510	 6.57005136150978E-02 
511	 6.57288914163312E-02 
512	 6.57608594043677E-02 
513	 6.58085448433229E-02 
514	 6.58576261910157E-02 
515	 0.065928849030812 
516	 6.60150713032506E-02 
517	 6.60550982805539E-02 
518	 6.61021052011527E-02 
519	 6.61417338612578E-02 
520	 6.61494313682133E-02 
521	 6.61604614816536E-02 
522	 6.61936149642457E-02 
523	 6.62494505497771E-02 
524	 6.63113144229105E-02 
525	 6.64382549273768E-02 
526	 6.64850484357771E-02 
527	 6.63846686771149E-02 
528	 6.64551622067026E-02 
529	 6.65031100082923E-02 
530	 6.65040947729475E-02 
531	 6.65442061618538E-02 
532	 6.65994144575459E-02 
533	 6.67088746450704E-02 
534	 6.68393551363029E-02 
535	 0.066770178160432 
536	 6.68047992051162E-02 
537	 6.69039445166363E-02 
538	 6.69203339407231E-02 
539	 6.69800676387924E-02 
540	 6.70078398845259E-02 
541	 0.067001739211523 
542	 6.70767381237942E-02 
543	 6.71136983864455E-02 
544	 6.71278272142311E-02 
545	 0.067162748266912 
546	 0.067230298562571 
547	 6.72179839514367E-02 
548	 6.71824056251314E-02 
549	 6.73087762119473E-02 
550	 6.73495548234862E-02 
551	 0.06737342673731 
552	 6.74584179564523E-02 
553	 6.75608504088061E-02 
554	 6.76021559220847E-02 
555	 6.76157329379596E-02 
556	 0.067686623049657 
557	 6.77556534980551E-02 
558	 6.78424456109273E-02 
559	 0.067944608181357 
560	 6.80058283306571E-02 
561	 6.80692629728343E-02 
562	 0.068126872925469 
563	 6.81628767222896E-02 
564	 0.068221059552081 
565	 6.82406213622527E-02 
566	 6.82192419603861E-02 
567	 6.82257601403656E-02 
568	 6.83712814362564E-02 
569	 6.85202398349373E-02 
570	 6.85634572422586E-02 
571	 6.86987008702799E-02 
572	 6.88095625974898E-02 
573	 0.068891515096352 
574	 6.90136021956263E-02 
575	 6.90900861447789E-02 
576	 6.91584600021338E-02 
577	 6.92439920282984E-02 
578	 6.93057797676226E-02 
579	 6.93356941242535E-02 
580	 6.93293357720643E-02 
581	 6.92986248622063E-02 
582	 6.93397966613072E-02 
583	 6.93408932949629E-02 
584	 6.92908380954661E-02 
585	 6.93444095237225E-02 
586	 6.94706330401536E-02 
587	 6.96031356495312E-02 
588	 6.96895096169105E-02 
589	 6.98074864279752E-02 
590	 6.99103850365528E-02 
591	 7.00002435608691E-02 
592	 7.01253665438309E-02 
593	 7.02711830890366E-02 
594	 7.04034610848962E-02 
595	 7.04965028057545E-02 
596	 0.070558226770402 
597	 7.05906242818606E-02 
598	 7.05866837820926E-02 
599	 7.05470438350986E-02 
600	 7.05851974823564E-02 
601	 7.06202705551569E-02 
602	 7.06127556832771E-02 
603	 7.06346552765721E-02 
604	 7.07144237954718E-02 
605	 7.08145920205272E-02 
606	 7.08775570852151E-02 
607	 7.08952821221124E-02 
608	 7.09352855260809E-02 
609	 7.10145655813788E-02 
610	 7.10870582254487E-02 
611	 7.10765041152912E-02 
612	 7.10676440072341E-02 
613	 7.11243117801871E-02 
614	 7.10920479884724E-02 
615	 7.10850830594578E-02 
616	 7.11091138701354E-02 
617	 7.11032461197043E-02 
618	 0.071200795414795 
619	 0.071260478346732 
620	 7.12193480758959E-02 
621	 7.12723424501369E-02 
622	 7.13026262578579E-02 
623	 7.12844637068956E-02 
624	 0.071245873625167 
625	 7.13297295881833E-02 
626	 7.13991443082011E-02 
627	 7.13958173601628E-02 
628	 7.13940283045998E-02 
629	 7.14080621732638E-02 
630	 7.14444982761174E-02 
631	 7.14913439826836E-02 
632	 7.14850658052521E-02 
633	 7.14916599684682E-02 
634	 7.15211803847131E-02 
635	 7.15361985769355E-02 
636	 7.15416222615874E-02 
637	 7.15505698633832E-02 
638	 7.15720066877003E-02 
639	 7.16042073147332E-02 
640	 7.16078032498263E-02 
641	 7.16128530702361E-02 
642	 7.16682998229368E-02 
643	 7.16928286210286E-02 
644	 7.17082890880553E-02 
645	 7.17295630070846E-02 
646	 7.17464125938914E-02 
647	 7.17767296425327E-02 
648	 7.18052384018657E-02 
649	 7.18152238056203E-02 
650	 7.18275833153763E-02 
651	 7.18319097875245E-02 
652	 7.18423411458838E-02 
653	 7.18909459457897E-02 
654	 7.19358154795591E-02 
655	 7.19376829229192E-02 
656	 7.19132276958973E-02 
657	 7.20277969635003E-02 
658	 7.20629922912324E-02 
659	 7.20402895778616E-02 
660	 7.20762419077273E-02 
661	 7.20472030943075E-02 
662	 0.072063352268148 
663	 7.21496778124939E-02 
664	 7.21785024596999E-02 
665	 7.22204158678255E-02 
666	 7.22494404969992E-02 
667	 7.22368615487777E-02 
668	 7.22508618700549E-02 
669	 7.22548076965287E-02 
670	 7.22476295522599E-02 
671	 7.22585780149838E-02 
672	 7.22708533666128E-02 
673	 7.23176522391623E-02 
674	 7.23985798828723E-02 
675	 7.24160745087073E-02 
676	 7.24206091064839E-02 
677	 7.24293464514487E-02 
678	 7.24412790532618E-02 
679	 7.24156162458673E-02 
680	 7.24378859861648E-02 
681	 0.072516787092641 
682	 7.25495999809637E-02 
683	 7.25533161783094E-02 
684	 7.25502915004722E-02 
685	 7.25666144129616E-02 
686	 7.26291742677205E-02 
687	 7.26864561110128E-02 
688	 7.27133823656402E-02 
689	 0.072708916669466 
690	 7.26937304978674E-02 
691	 7.27126002392153E-02 
692	 7.27674914023454E-02 
693	 7.27702674498001E-02 
694	 7.27799974730697E-02 
695	 7.27874327172648E-02 
696	 7.27752477871384E-02 
697	 7.28172129357389E-02 
698	 7.28513805115611E-02 
699	 7.28663182072749E-02 
700	 7.29094835401532E-02 
701	 7.29095788175629E-02 
702	 7.29149113319221E-02 
703	 7.29537579125504E-02 
704	 7.29205994289246E-02 
705	 7.29151470691844E-02 
706	 7.29381793265112E-02 
707	 7.29425533414483E-02 
708	 7.29524401557268E-02 
709	 7.29683168979398E-02 
710	 7.29833011089463E-02 
711	 7.29832138611047E-02 
712	 7.29803827598519E-02 
713	 7.29769199029706E-02 
714	 7.29777390577475E-02 
715	 7.30095514256126E-02 
716	 7.30493088174139E-02 
717	 7.30678774078186E-02 
718	 0.073041147727828 
719	 0.07304418453857 
720	 7.30474451475466E-02 
721	 7.30331773536009E-02 
722	 0.073037508566424 
723	 7.30413692662885E-02 
724	 0.073033208883637 
725	 7.30088203071107E-02 
726	 7.29814407820698E-02 
727	 7.29978258455077E-02 
728	 7.30408492679569E-02 
729	 7.30364054037274E-02 
730	 0.073005067338239 
731	 7.29860531395733E-02 
732	 7.29984113485275E-02 
733	 7.30077904984096E-02 
734	 7.30018501240676E-02 
735	 7.29744697372154E-02 
736	 7.29339557135846E-02 
737	 7.29445362807939E-02 
738	 7.29424213566128E-02 
739	 0.07290908938258 
740	 7.28858510782245E-02 
741	 7.28867576684868E-02 
742	 7.28961191752633E-02 
743	 7.28880474761532E-02 
744	 7.28235425617929E-02 
745	 7.27917471448103E-02 
746	 7.27910827770539E-02 
747	 7.27776403569952E-02 
748	 7.27576962335927E-02 
749	 7.27412396601962E-02 
750	 7.27262518694353E-02 
751	 0.07269589231451 
752	 7.26649975367625E-02 
753	 0.07264404610788 
754	 7.26355144665587E-02 
755	 7.26227857501466E-02 
756	 7.26134921872059E-02 
757	 7.26060922791082E-02 
758	 0.072594364135778 
759	 7.25769952008906E-02 
760	 7.25389590405861E-02 
761	 7.24901058103765E-02 
762	 0.072471074406163 
763	 7.24516312111451E-02 
764	 7.24399233782745E-02 
765	 7.24359612699185E-02 
766	 7.23850037001425E-02 
767	 7.23714326927699E-02 
768	 7.23772389609135E-02 
769	 7.23423817275428E-02 
770	 0.072317958818028 
771	 7.22958771376279E-02 
772	 7.22680144462897E-02 
773	 7.22331533967957E-02 
774	 7.22357315506938E-02 
775	 7.22238635874087E-02 
776	 7.21637441989662E-02 
777	 7.21282011861021E-02 
778	 7.21139544303147E-02 
779	 7.21068837823928E-02 
780	 7.20881848503139E-02 
781	 7.20554283214749E-02 
782	 7.20544197481017E-02 
783	 0.07206162223152 
784	 0.071984662734893 
785	 7.19483555996744E-02 
786	 7.19293095185757E-02 
787	 7.18973026682766E-02 
788	 7.18782542662076E-02 
789	 0.071864935815845 
790	 0.071836258507727 
791	 7.17798952104558E-02 
792	 7.17560028487202E-02 
793	 0.071733552007758 
794	 7.17139369561795E-02 
795	 7.17236542795916E-02 
796	 7.16827536914663E-02 
797	 7.16327779774426E-02 
798	 7.16059715404866E-02 
799	 7.15811954855029E-02 
800	 7.15524303421848E-02 
801	 0.071526200148192 
802	 7.15099691043276E-02 
803	 0.071498782435619 
804	 7.14730515394719E-02 
805	 7.14395647928018E-02 
806	 7.14176871094132E-02 
807	 7.13762045400809E-02 
808	 7.13328136996374E-02 
809	 7.12998644956969E-02 
810	 7.12754543227373E-02 
811	 7.12726732088793E-02 
812	 7.12811197363637E-02 
813	 7.12798037166421E-02 
814	 7.12316925592368E-02 
815	 7.12020449043574E-02 
816	 7.11771584958245E-02 
817	 0.071128044027348 
818	 7.11374712748567E-02 
819	 7.11403465074669E-02 
820	 7.11017841290817E-02 
821	 0.07102712158953 
822	 7.09681123589017E-02 
823	 7.09746549838377E-02 
824	 7.10282851529623E-02 
825	 7.10062860522192E-02 
826	 7.09623929432426E-02 
827	 0.070935534565324 
828	 7.09364421206715E-02 
829	 7.08947921284896E-02 
830	 7.08577773691901E-02 
831	 7.08392704875488E-02 
832	 7.08339418087685E-02 
833	 7.08314138776502E-02 
834	 7.08383917887885E-02 
835	 7.08292768960684E-02 
836	 7.07601017484526E-02 
837	 7.07695640181356E-02 
838	 7.07824046349766E-02 
839	 7.07469582264562E-02 
840	 0.07071254692745 
841	 7.07133038489262E-02 
842	 7.07130306495224E-02 
843	 7.06759381779141E-02 
844	 7.06298606954231E-02 
845	 7.06478978966644E-02 
846	 7.06789813903349E-02 
847	 7.06408443016932E-02 
848	 7.06478884951958E-02 
849	 7.06287385316552E-02 
850	 0.070580770790012 
851	 7.05642284081521E-02 
852	 7.05539121276712E-02 
853	 7.05380705967228E-02 
854	 7.05212865816398E-02 
855	 7.05286421977045E-02 
856	 7.05363274779715E-02 
857	 7.05581995404548E-02 
858	 7.05890932246758E-02 
859	 7.05513553734393E-02 
860	 7.05183296160359E-02 
861	 7.05089450383776E-02 
862	 7.05135780376427E-02 
863	 7.04959078023861E-02 
864	 7.04693047644121E-02 
865	 7.04468718894469E-02 
866	 7.04388761725342E-02 
867	 7.04446839097927E-02 
868	 7.04474548535491E-02 
869	 7.04503833356228E-02 
870	 7.04730944089193E-02 
871	 7.04502622690529E-02 
872	 7.04116234585574E-02 
873	 7.03875759187109E-02 
874	 7.03814654863775E-02 
875	 7.03894034399143E-02 
876	 7.03752338794701E-02 
877	 7.03322676887751E-02 
878	 7.03487488316669E-02 
879	 7.03774231938913E-02 
880	 0.070394060006292 
881	 7.03962668068901E-02 
882	 7.04465399163645E-02 
883	 7.04117769333489E-02 
884	 7.03305887247316E-02 
885	 7.03198548418779E-02 
886	 7.03090389434296E-02 
887	 7.03198443056417E-02 
888	 0.070342097115777 
889	 7.03393951518909E-02 
890	 7.03422994590281E-02 
891	 0.070316721720812 
892	 7.02829802846697E-02 
893	 7.03276400251842E-02 
894	 7.03141820532235E-02 
895	 7.02906391892265E-02 
896	 7.02953930233996E-02 
897	 7.02825706384058E-02 
898	 0.070294398314235 
899	 7.03060448928277E-02 
900	 7.02998271489849E-02 
901	 7.03307798656996E-02 
902	 7.02819518304791E-02 
903	 7.02414873624625E-02 
904	 7.03076903638451E-02 
905	 7.03434248594274E-02 
906	 7.03187018150455E-02 
907	 7.02695842284967E-02 
908	 7.02618035369921E-02 
909	 7.03214550187536E-02 
910	 7.03546241030744E-02 
911	 7.03566982196288E-02 
912	 7.03773949087033E-02 
913	 7.03631258192634E-02 
914	 7.03333125020026E-02 
915	 7.02940180635168E-02 
916	 7.02461325280076E-02 
917	 0.070314932375217 
918	 7.03647073698033E-02 
919	 7.03409049079098E-02 
920	 7.03224195991318E-02 
921	 7.03217452586238E-02 
922	 7.03285495645251E-02 
923	 7.03439004155819E-02 
924	 7.03904918661389E-02 
925	 7.03826756315401E-02 
926	 7.04181455099486E-02 
927	 7.04954170392296E-02 
928	 7.03686433330085E-02 
929	 7.03693133353606E-02 
930	 7.04397239999107E-02 
931	 7.04582778631712E-02 
932	 7.03958662562338E-02 
933	 7.04879080287338E-02 
934	 7.06109401678156E-02 
935	 7.05962411566464E-02 
936	 7.04653001830998E-02 
937	 7.04656394887918E-02 
938	 7.04803831514112E-02 
939	 7.03782871811951E-02 
940	 7.04422765089591E-02 
941	 7.05411310013473E-02 
942	 7.05821416364566E-02 
943	 7.05388868659937E-02 
944	 7.05650014024315E-02 
945	 7.05745662743583E-02 
946	 7.05666750543741E-02 
947	 7.05643145246767E-02 
948	 0.070501552973041 
949	 7.04665156685233E-02 
950	 7.04930136090955E-02 
951	 7.05584105955745E-02 
952	 7.05569838766266E-02 
953	 7.05371745908595E-02 
954	 7.05248208808199E-02 
955	 7.05332685099063E-02 
956	 7.06046363032105E-02 
957	 7.07018916823075E-02 
958	 0.070741008389072 
959	 7.06671046302396E-02 
960	 7.07086855600027E-02 
961	 7.07014010481857E-02 
962	 7.06658241785473E-02 
963	 7.07144943209981E-02 
964	 7.06488546262019E-02 
965	 7.06518544270861E-02 
966	 7.07331727022334E-02 
967	 7.07846989922392E-02 
968	 7.08773956997215E-02 
969	 7.08833719726018E-02 
970	 7.07827867013664E-02 
971	 7.06710553856014E-02 
972	 7.07728953920858E-02 
973	 7.08067315925243E-02 
974	 7.07600649692305E-02 
975	 7.07966944338574E-02 
976	 7.07917165219142E-02 
977	 7.08458302278137E-02 
978	 7.08722654264624E-02 
979	 7.07290685267524E-02 
980	 7.07036381503964E-02 
981	 7.07893013854305E-02 
982	 0.070854553726456 
983	 7.07826314384412E-02 
984	 7.08975267326896E-02 
985	 0.07084965297362 
986	 0.070709420732468 
987	 7.07340897457671E-02 
988	 7.06956525949432E-02 
989	 7.08189167560017E-02 
990	 7.09647975101142E-02 
991	 7.09110184262065E-02 
992	 7.10045145374785E-02 
993	 7.09858261956599E-02 
994	 7.09047403198522E-02 
995	 7.09233614251775E-02 
996	 7.09979198563118E-02 
997	 7.10719928428022E-02 
998	 7.10587897863617E-02 
999	 7.09578811857481E-02 
1000	 7.10716140547658E-02 
1001	 7.03163564396675E-02 
1002	 7.02995220789083E-02 
1003	 7.03449809669275E-02 
1004	 7.03251161405684E-02 
1005	 7.02761336984053E-02 
1006	 7.02785460357898E-02 
1007	 7.02911647854218E-02 
1008	 7.02461724845037E-02 
1009	 7.02261605301043E-02 
1010	 7.02646322316565E-02 
1011	 7.02802417660481E-02 
1012	 7.03499354537247E-02 
1013	 7.04383191418297E-02 
1014	 7.04634071271123E-02 
1015	 7.04861592315176E-02 
1016	 7.04545535937289E-02 
1017	 0.070433551346679 
1018	 7.03985958176802E-02 
1019	 0.07042507747786 
1020	 7.04134088884118E-02 
1021	 7.03863444461981E-02 
1022	 7.04307520773497E-02 
1023	 7.04392635724067E-02 
1024	 7.03894242961304E-02 
1025	 7.03980658424756E-02 
1026	 7.03497423793865E-02 
1027	 7.02560433905226E-02 
1028	 7.02798731640433E-02 
1029	 7.03296718046036E-02 
1030	 7.03571956752942E-02 
1031	 7.03674328145556E-02 
1032	 7.04085625695577E-02 
1033	 7.03665652513517E-02 
1034	 7.02973867291786E-02 
1035	 7.03086016839263E-02 
1036	 7.03146746907328E-02 
1037	 7.03244191521776E-02 
1038	 7.03317132605404E-02 
1039	 0.070270511980716 
1040	 7.02143084941886E-02 
1041	 7.01790679730702E-02 
1042	 7.01926971724065E-02 
1043	 7.02082632789434E-02 
1044	 7.02167900618365E-02 
1045	 7.02284856211049E-02 
1046	 7.02783273800015E-02 
1047	 7.02921302194764E-02 
1048	 7.02992571590074E-02 
1049	 7.02981502347894E-02 
1050	 7.02853119180079E-02 
1051	 7.02913444309302E-02 
1052	 7.02740256024593E-02 
1053	 7.02962887684988E-02 
1054	 7.03543864350839E-02 
1055	 7.03584537794131E-02 
1056	 7.03561501515212E-02 
1057	 7.03552649646012E-02 
1058	 7.03168250260608E-02 
1059	 7.03126852578497E-02 
1060	 7.03116062090838E-02 
1061	 7.03603977215296E-02 
1062	 7.04307992924553E-02 
1063	 7.04862887385914E-02 
1064	 7.04966625764643E-02 
1065	 7.04990092377391E-02 
1066	 7.04944392007139E-02 
1067	 7.04973673649216E-02 
1068	 0.070532237849388 
1069	 7.06075925601281E-02 
1070	 7.06483212831049E-02 
1071	 7.06676681350474E-02 
1072	 0.070684502966296 
1073	 7.06889702420414E-02 
1074	 7.06953914377965E-02 
1075	 0.070684697724028 
1076	 0.070725134247903 
1077	 7.07358093466931E-02 
1078	 7.07374412489956E-02 
1079	 7.07829346184792E-02 
1080	 0.07081881536584 
1081	 7.08333938469456E-02 
1082	 7.08644492702966E-02 
1083	 7.08714498826281E-02 
1084	 7.08269995992326E-02 
1085	 7.08081034702742E-02 
1086	 7.07812849755142E-02 
1087	 7.07963987268459E-02 
1088	 7.08239364825514E-02 
1089	 7.08764532587074E-02 
1090	 7.09277206666078E-02 
1091	 7.09853456201793E-02 
1092	 7.09716603285505E-02 
1093	 7.09395075464944E-02 
1094	 7.09546472271122E-02 
1095	 0.070940037943064 
1096	 7.09358836952989E-02 
1097	 7.09590904775509E-02 
1098	 7.09682161390296E-02 
1099	 7.09696288739098E-02 
1100	 7.09632950956118E-02 
1101	 7.09534233541485E-02 
1102	 7.09531149843583E-02 
1103	 7.09408994201559E-02 
1104	 0.070947471611452 
1105	 7.09683171834657E-02 
1106	 7.09661012499893E-02 
1107	 7.09550963804738E-02 
1108	 7.09479114061582E-02 
1109	 7.09709692117999E-02 
1110	 7.10001223390639E-02 
1111	 7.10104094952145E-02 
1112	 7.10246921195945E-02 
1113	 7.10332683466177E-02 
1114	 7.10204607678732E-02 
1115	 7.10192445837342E-02 
1116	 0.071020468787261 
1117	 0.071037328522942 
1118	 7.10720833975518E-02 
1119	 7.10837961190968E-02 
1120	 7.10911458373736E-02 
1121	 7.10943843008966E-02 
1122	 7.10682962882472E-02 
1123	 7.10323707301809E-02 
1124	 7.10175171166074E-02 
1125	 7.10057135019332E-02 
1126	 0.071017610794273 
1127	 7.10529856667814E-02 
1128	 7.10699537218293E-02 
1129	 0.071100055750818 
1130	 7.11162568644176E-02 
1131	 7.11145208826441E-02 
1132	 7.11196956411208E-02 
1133	 7.11378133035036E-02 
1134	 7.11377874514896E-02 
1135	 7.11139798233212E-02 
1136	 7.11137584059836E-02 
1137	 7.10993315689352E-02 
1138	 7.10863159072333E-02 
1139	 7.10815391348175E-02 
1140	 7.10800269762577E-02 
1141	 7.10841082983734E-02 
1142	 7.11060855968658E-02 
1143	 7.11019132003867E-02 
1144	 7.10866326478715E-02 
1145	 7.10822241346973E-02 
1146	 0.071060494004999 
1147	 7.10569532960447E-02 
1148	 7.10824558449166E-02 
1149	 7.10890533763894E-02 
1150	 7.10911070735969E-02 
1151	 7.10859662377706E-02 
1152	 7.10745257865311E-02 
1153	 7.10763230992992E-02 
1154	 0.071080933544982 
1155	 7.11001974789553E-02 
1156	 7.10945276689212E-02 
1157	 7.10853440931783E-02 
1158	 7.10683244512152E-02 
1159	 7.10338404420646E-02 
1160	 7.10065402448238E-02 
1161	 7.09678663559878E-02 
1162	 7.09501904419214E-02 
1163	 7.09321514158754E-02 
1164	 7.09300113295639E-02 
1165	 7.09567294813486E-02 
1166	 7.09732700912044E-02 
1167	 7.09912952268038E-02 
1168	 0.071013446183777 
1169	 7.10259875881667E-02 
1170	 7.10314178200317E-02 
1171	 7.10428282015536E-02 
1172	 7.10508781063653E-02 
1173	 7.10611444654338E-02 
1174	 7.10733505859977E-02 
1175	 7.10870817828292E-02 
1176	 7.11151893810534E-02 
1177	 7.11206702411073E-02 
1178	 7.10989148380208E-02 
1179	 7.11054386372136E-02 
1180	 0.071106403104619 
1181	 7.11177857646731E-02 
1182	 7.11542850337555E-02 
1183	 7.12006632714642E-02 
1184	 7.12253747518499E-02 
1185	 7.12395426791577E-02 
1186	 7.12597523028573E-02 
1187	 7.12691454393928E-02 
1188	 7.12962750958258E-02 
1189	 7.13447773944141E-02 
1190	 7.13650277228319E-02 
1191	 7.13771218561709E-02 
1192	 7.13926008723609E-02 
1193	 7.13918565729873E-02 
1194	 7.13976728480125E-02 
1195	 7.14109607306143E-02 
1196	 7.14252568130494E-02 
1197	 7.14358317433401E-02 
1198	 7.14479892193127E-02 
1199	 7.14627643741764E-02 
1200	 7.14849057116708E-02 
1201	 7.15037841189103E-02 
1202	 7.15212018493168E-02 
1203	 7.15379241902744E-02 
1204	 0.071556420143659 
1205	 7.15737482461086E-02 
1206	 7.15792217636102E-02 
1207	 7.16053568361311E-02 
1208	 7.16505584473339E-02 
1209	 7.16803955976047E-02 
1210	 7.17183786242515E-02 
1211	 7.17461369259792E-02 
1212	 7.17572955867845E-02 
1213	 7.17727672955869E-02 
1214	 7.17824321114476E-02 
1215	 7.18013455074984E-02 
1216	 7.18239164962868E-02 
1217	 7.18515953642701E-02 
1218	 7.18703480161429E-02 
1219	 7.19000998591394E-02 
1220	 0.071906523319842 
1221	 7.18813364183265E-02 
1222	 7.18916637988694E-02 
1223	 7.19050774263671E-02 
1224	 7.19271684346363E-02 
1225	 7.19833105634166E-02 
1226	 7.20126861679826E-02 
1227	 7.20283464653359E-02 
1228	 7.20482985334268E-02 
1229	 7.20602597153266E-02 
1230	 7.20755410738125E-02 
1231	 7.20963014495501E-02 
1232	 7.21130799593649E-02 
1233	 7.21280999794269E-02 
1234	 7.21450487652472E-02 
1235	 7.21480389455516E-02 
1236	 7.21299032531581E-02 
1237	 7.21483318535062E-02 
1238	 7.21797060082764E-02 
1239	 0.07219938756634 
1240	 7.22453981462586E-02 
1241	 7.22660100633677E-02 
1242	 0.072259379064782 
1243	 7.22612957697141E-02 
1244	 7.22561876381705E-02 
1245	 7.22630883977211E-02 
1246	 7.22647397034777E-02 
1247	 7.22801614353865E-02 
1248	 7.23087234235185E-02 
1249	 7.23561260873363E-02 
1250	 7.23740029464943E-02 
1251	 7.23872696316475E-02 
1252	 7.23979708240629E-02 
1253	 7.23917749119478E-02 
1254	 7.23948558106151E-02 
1255	 7.24051368871332E-02 
1256	 7.24072636314567E-02 
1257	 7.23971660667001E-02 
1258	 7.24004409375888E-02 
1259	 7.24101275981152E-02 
1260	 7.24176727734345E-02 
1261	 7.24352733152946E-02 
1262	 7.24435775571951E-02 
1263	 7.24451467559799E-02 
1264	 7.24468780583482E-02 
1265	 0.072440877277231 
1266	 7.24402474552403E-02 
1267	 7.24344129520145E-02 
1268	 7.24426123588459E-02 
1269	 7.24533610384421E-02 
1270	 7.24786595398824E-02 
1271	 0.072483268832257 
1272	 7.24846691713194E-02 
1273	 0.072481059267254 
1274	 7.24490807389552E-02 
1275	 7.24541997896321E-02 
1276	 7.24707870859102E-02 
1277	 7.25013529722254E-02 
1278	 7.25635464730804E-02 
1279	 7.26114188350478E-02 
1280	 0.072672619171185 
1281	 7.27136878959608E-02 
1282	 7.27284762203122E-02 
1283	 7.27643047734478E-02 
1284	 7.27889008238627E-02 
1285	 7.28377063683035E-02 
1286	 7.29244598638015E-02 
1287	 7.29898176512211E-02 
1288	 7.30384914273403E-02 
1289	 7.30783616952373E-02 
1290	 7.31228532702793E-02 
1291	 7.31437053447017E-02 
1292	 7.31916235442933E-02 
1293	 0.073261792865924 
1294	 7.33223082667995E-02 
1295	 7.33948052045025E-02 
1296	 7.34422891356237E-02 
1297	 7.34747697886184E-02 
1298	 7.35119807203119E-02 
1299	 7.35250259934922E-02 
1300	 7.35606429203458E-02 
1301	 7.36272508145686E-02 
1302	 0.07366671891279 
1303	 0.073704379515366 
1304	 7.37349573847841E-02 
1305	 7.37165399636364E-02 
1306	 7.37105639626697E-02 
1307	 0.073703079375343 
1308	 7.37011083581734E-02 
1309	 7.37175857743053E-02 
1310	 7.37651207760639E-02 
1311	 7.37791539101171E-02 
1312	 7.37893478135661E-02 
1313	 7.37956155085114E-02 
1314	 0.073782667827874 
1315	 7.37820940242957E-02 
1316	 7.37852655345883E-02 
1317	 7.37954527670756E-02 
1318	 7.38205894346465E-02 
1319	 7.38262782442835E-02 
1320	 7.38277779536424E-02 
1321	 7.38262925600372E-02 
1322	 7.38106384881302E-02 
1323	 0.073790880595831 
1324	 7.37886945158132E-02 
1325	 7.37935928197637E-02 
1326	 7.38027941939174E-02 
1327	 7.38015815861121E-02 
1328	 7.37809502712762E-02 
1329	 7.37574044692768E-02 
1330	 7.37386006012379E-02 
1331	 0.073705801839627 
1332	 7.36889345593728E-02 
1333	 7.36900557533453E-02 
1334	 7.36782943067148E-02 
1335	 0.073656688641323 
1336	 0.073648731120739 
1337	 7.36516913016969E-02 
1338	 7.36410882956546E-02 
1339	 7.36250887996203E-02 
1340	 7.36197303363013E-02 
1341	 7.36099301853832E-02 
1342	 7.36031991290029E-02 
1343	 7.36096025006143E-02 
1344	 7.36134301093003E-02 
1345	 7.35974871531551E-02 
1346	 7.35955623503099E-02 
1347	 7.36031558054774E-02 
1348	 7.35972087682225E-02 
1349	 7.35966805779631E-02 
1350	 7.35937657790884E-02 
1351	 7.35861000942094E-02 
1352	 7.35662083387962E-02 
1353	 7.35652457956403E-02 
1354	 7.35734406246854E-02 
1355	 0.073572652816172 
1356	 7.35793936527917E-02 
1357	 7.35730489040718E-02 
1358	 7.35473617942456E-02 
1359	 0.073540021039101 
1360	 7.35416898854511E-02 
1361	 7.35391617891985E-02 
1362	 7.35455000239549E-02 
1363	 7.35443127768788E-02 
1364	 7.35352036980134E-02 
1365	 7.35239694799149E-02 
1366	 7.35081020185399E-02 
1367	 7.34973627817021E-02 
1368	 7.34906938950036E-02 
1369	 7.34781409700935E-02 
1370	 7.34525193228534E-02 
1371	 7.34083280923835E-02 
1372	 7.33501374552339E-02 
1373	 7.32935017331835E-02 
1374	 7.32332576500478E-02 
1375	 7.31705901631283E-02 
1376	 7.31134776668013E-02 
1377	 7.30554046375004E-02 
1378	 7.29882797308959E-02 
1379	 7.29249862898449E-02 
1380	 7.28530278276688E-02 
1381	 7.27785322706471E-02 
1382	 7.26868758437821E-02 
1383	 7.25865002163951E-02 
1384	 7.24794106982617E-02 
1385	 7.23448123047489E-02 
1386	 7.22256284435047E-02 
1387	 7.21303045102492E-02 
1388	 7.20047265630116E-02 
1389	 7.18665828699557E-02 
1390	 7.17243382053442E-02 
1391	 0.071570952708766 
1392	 7.13919274823229E-02 
1393	 7.12269216003551E-02 
1394	 7.10592129998067E-02 
1395	 7.08650065710327E-02 
1396	 7.06744859227152E-02 
1397	 7.04746111130654E-02 
1398	 7.02647511481422E-02 
1399	 7.00491223817766E-02 
1400	 6.98196805150223E-02 
1401	 6.96096852199982E-02 
1402	 6.93978398352351E-02 
1403	 6.91954486494676E-02 
1404	 0.069006316644543 
1405	 0.068818887896768 
1406	 6.86313786728581E-02 
1407	 6.84541149953601E-02 
1408	 6.82850333243368E-02 
1409	 6.81249881956252E-02 
1410	 6.79723468144221E-02 
1411	 6.78243281488774E-02 
1412	 6.76823311186453E-02 
1413	 6.75471286136025E-02 
1414	 6.74316913406981E-02 
1415	 6.73360579512919E-02 
1416	 6.72659977523463E-02 
1417	 6.72024036436176E-02 
1418	 6.71254158860783E-02 
1419	 6.70389956422714E-02 
1420	 6.69639922303032E-02 
1421	 6.69078350020462E-02 
1422	 6.68642511702074E-02 
1423	 6.68322811600138E-02 
1424	 6.67958390630377E-02 
1425	 6.67568284306215E-02 
1426	 6.67267593082517E-02 
1427	 6.67022147303398E-02 
1428	 6.66811991109448E-02 
1429	 6.66596766244813E-02 
1430	 6.66504573734754E-02 
1431	 6.66560915634561E-02 
1432	 0.066652076869924 
1433	 6.66521151129916E-02 
1434	 6.66539864194051E-02 
1435	 6.66481258346131E-02 
1436	 6.66503160658113E-02 
1437	 6.66594426238591E-02 
1438	 0.066670629944197 
1439	 6.66851396231454E-02 
1440	 6.66984709678554E-02 
1441	 6.67216885905435E-02 
1442	 0.066753326281128 
1443	 6.67840621385518E-02 
1444	 6.68095456973016E-02 
1445	 6.68279247780343E-02 
1446	 6.68590299852737E-02 
1447	 6.68752583704087E-02 
1448	 6.68850712243416E-02 
1449	 6.69129079625061E-02 
1450	 6.69224537418597E-02 
1451	 6.69423962535213E-02 
1452	 0.066971664852799 
1453	 0.067002896285014 
1454	 6.70361742071403E-02 
1455	 6.70650530538718E-02 
1456	 6.70974959908344E-02 
1457	 0.067128187610138 
1458	 6.71487293567082E-02 
1459	 6.71795338207102E-02 
1460	 6.72184784226558E-02 
1461	 6.72547192117067E-02 
1462	 6.72891514548075E-02 
1463	 6.73351808423956E-02 
1464	 6.73844096433602E-02 
1465	 6.74392090946435E-02 
1466	 6.75066913033852E-02 
1467	 6.75694777570632E-02 
1468	 6.76397667008214E-02 
1469	 6.77001073526832E-02 
1470	 6.77553553134486E-02 
1471	 6.78054616562578E-02 
1472	 6.78593186671552E-02 
1473	 6.79220025161732E-02 
1474	 6.80085328327543E-02 
1475	 6.80978305743309E-02 
1476	 6.81625321877083E-02 
1477	 6.82284757810185E-02 
1478	 6.82928714987835E-02 
1479	 6.83502628253785E-02 
1480	 6.84306782664793E-02 
1481	 6.85045832499492E-02 
1482	 6.85835946982616E-02 
1483	 6.86681380275831E-02 
1484	 6.87491087331387E-02 
1485	 6.88337634041315E-02 
1486	 6.89131345365418E-02 
1487	 6.89883917167385E-02 
1488	 0.069055579923938 
1489	 6.91137991898332E-02 
1490	 0.069183682034506 
1491	 6.92535928893381E-02 
1492	 6.93227199146576E-02 
1493	 6.93941451837382E-02 
1494	 6.94716143279525E-02 
1495	 6.95554082551824E-02 
1496	 6.96262640048228E-02 
1497	 6.96983356485926E-02 
1498	 6.97705502327398E-02 
1499	 6.98286707830971E-02 
1500	 6.98954933312568E-02 
1501	 6.99737428962609E-02 
1502	 0.070044486692014 
1503	 7.01115882335377E-02 
1504	 7.01770903791181E-02 
1505	 7.02374493116067E-02 
1506	 7.03057661508042E-02 
1507	 7.03741113662615E-02 
1508	 7.04368995102922E-02 
1509	 7.05052426755922E-02 
1510	 7.05724313422311E-02 
1511	 0.070635835301867 
1512	 7.06984351474641E-02 
1513	 7.07589406223343E-02 
1514	 7.08140197490713E-02 
1515	 7.08613389771197E-02 
1516	 7.09144837868631E-02 
1517	 7.09702432752508E-02 
1518	 7.10243829970507E-02 
1519	 7.10852215796505E-02 
1520	 7.11523636572648E-02 
1521	 7.12182775492824E-02 
1522	 7.12933849384219E-02 
1523	 7.13548446091755E-02 
1524	 0.071414833889703 
1525	 7.14657024775684E-02 
1526	 7.15001068456646E-02 
1527	 7.15421317426961E-02 
1528	 0.071579980279441 
1529	 0.071626719712548 
1530	 7.16810163126142E-02 
1531	 7.17302374916876E-02 
1532	 7.17860156875338E-02 
1533	 7.18320787173829E-02 
1534	 7.18645701680412E-02 
1535	 7.19077140956911E-02 
1536	 7.19564869275205E-02 
1537	 7.19993284808912E-02 
1538	 7.20406478606476E-02 
1539	 7.20862938686966E-02 
1540	 7.21324934652052E-02 
1541	 7.21719003744875E-02 
1542	 7.22157956846302E-02 
1543	 7.22571944794306E-02 
1544	 7.22863007041528E-02 
1545	 7.23189585066935E-02 
1546	 7.23530042928053E-02 
1547	 7.23882453841173E-02 
1548	 7.24249233799103E-02 
1549	 7.24747718871533E-02 
1550	 0.072530426585774 
1551	 7.25707961043744E-02 
1552	 7.25987466348241E-02 
1553	 7.26251745046322E-02 
1554	 7.26459852428823E-02 
1555	 7.26732836176244E-02 
1556	 7.27177121998064E-02 
1557	 7.27534164962585E-02 
1558	 7.27741172670132E-02 
1559	 7.28097839182289E-02 
1560	 7.28443206430694E-02 
1561	 7.28747577493038E-02 
1562	 7.29048848836236E-02 
1563	 7.29403102184698E-02 
1564	 7.29739365536917E-02 
1565	 7.30033971077775E-02 
1566	 7.30289027668265E-02 
1567	 7.30600482005765E-02 
1568	 7.30861397529488E-02 
1569	 7.31036394853136E-02 
1570	 7.31197277434353E-02 
1571	 7.31335202062718E-02 
1572	 7.31501722742565E-02 
1573	 0.073155128033404 
1574	 0.073177306915988 
1575	 7.32193930076446E-02 
1576	 7.32470632190621E-02 
1577	 0.073272810635562 
1578	 7.32996456542506E-02 
1579	 7.33239173994028E-02 
1580	 7.33449228529728E-02 
1581	 7.33667537678806E-02 
1582	 7.33867272547721E-02 
1583	 7.33962585437845E-02 
1584	 7.34167589487331E-02 
1585	 7.34461756353735E-02 
1586	 7.34704935607838E-02 
1587	 7.34962102904594E-02 
1588	 7.35218399490363E-02 
1589	 7.35486299169327E-02 
1590	 7.35694305624323E-02 
1591	 7.35839404136975E-02 
1592	 7.36037809861326E-02 
1593	 7.36300553364539E-02 
1594	 0.073644031323376 
1595	 7.36502067231811E-02 
1596	 7.36645048615186E-02 
1597	 7.36637775330715E-02 
1598	 7.36765281293226E-02 
1599	 7.37158965953766E-02 
1600	 7.37416838922603E-02 
1601	 7.37670725918297E-02 
1602	 7.37854601143826E-02 
1603	 7.37933352866303E-02 
1604	 7.37996597309756E-02 
1605	 7.38002993213497E-02 
1606	 7.38027685762975E-02 
1607	 0.073796872717376 
1608	 7.38052747798812E-02 
1609	 7.38164940223253E-02 
1610	 0.073819548214105 
1611	 7.38337988900158E-02 
1612	 7.38434642303221E-02 
1613	 7.38583810559057E-02 
1614	 7.38762236471833E-02 
1615	 0.073891701602731 
1616	 7.39050156388447E-02 
1617	 7.39069106883445E-02 
1618	 7.39194297815923E-02 
1619	 7.39384360172919E-02 
1620	 7.39514150403114E-02 
1621	 7.39608373522029E-02 
1622	 7.39673971046178E-02 
1623	 7.39827192143128E-02 
1624	 7.39962428730304E-02 
1625	 7.40091959636826E-02 
1626	 7.40310178641222E-02 
1627	 7.40465662799266E-02 
1628	 7.40554962546331E-02 
1629	 7.40659361833015E-02 
1630	 7.40805552367208E-02 
1631	 7.40892928673135E-02 
1632	 7.40911696048631E-02 
1633	 7.40948167186653E-02 
1634	 7.40955160482771E-02 
1635	 7.41043848421212E-02 
1636	 7.41164292833958E-02 
1637	 7.41253393630211E-02 
1638	 7.41399451947372E-02 
1639	 0.074150428382925 
1640	 7.41624180288655E-02 
1641	 7.41549734220853E-02 
1642	 7.41308405542193E-02 
1643	 7.41311016120771E-02 
1644	 7.41264832602548E-02 
1645	 7.41277621579147E-02 
1646	 7.41536953693624E-02 
1647	 7.41626424958975E-02 
1648	 7.41560821302751E-02 
1649	 7.41584431670507E-02 
1650	 7.41721952476119E-02 
1651	 7.41700813606859E-02 
1652	 7.41585539735135E-02 
1653	 7.41477294761976E-02 
1654	 7.41256223654111E-02 
1655	 7.41174362301778E-02 
1656	 7.41147613979254E-02 
1657	 7.41113732093883E-02 
1658	 7.41102931167735E-02 
1659	 7.41171368988641E-02 
1660	 7.41293222235873E-02 
1661	 7.41380941378201E-02 
1662	 7.41613096487512E-02 
1663	 7.41635680417117E-02 
1664	 7.41466867136062E-02 
1665	 7.41431096728763E-02 
1666	 7.41377953964239E-02 
1667	 7.41321097321501E-02 
1668	 7.41282117726535E-02 
1669	 7.41308073195285E-02 
1670	 7.41357733737702E-02 
1671	 7.41360336561262E-02 
1672	 7.41460772614825E-02 
1673	 7.41441722027955E-02 
1674	 7.41178421720988E-02 
1675	 7.41221588567358E-02 
1676	 7.41474518014662E-02 
1677	 7.41538146455029E-02 
1678	 7.41698183709996E-02 
1679	 7.41732980514765E-02 
1680	 7.41539759847566E-02 
1681	 0.074148001131289 
1682	 7.41393446479176E-02 
1683	 7.41495224903308E-02 
1684	 7.41838001596317E-02 
1685	 7.41856005146697E-02 
1686	 7.41862909667445E-02 
1687	 7.41820910238294E-02 
1688	 7.41471806178822E-02 
1689	 7.41326319722396E-02 
1690	 7.41301046724879E-02 
1691	 7.41313769581655E-02 
1692	 7.41367625953529E-02 
1693	 7.41374041901497E-02 
1694	 7.41518423178204E-02 
1695	 7.41479278998502E-02 
1696	 7.41265475153878E-02 
1697	 7.41129425505646E-02 
1698	 7.40956844831899E-02 
1699	 7.40812807934024E-02 
1700	 7.40749083149544E-02 
1701	 7.40538906941359E-02 
1702	 7.40135554802141E-02 
1703	 0.074001387118916 
1704	 7.39959338064431E-02 
1705	 7.39904376350468E-02 
1706	 7.40070283662202E-02 
1707	 7.40107385484897E-02 
1708	 7.40092527847782E-02 
1709	 7.39973864452196E-02 
1710	 7.39746141601798E-02 
1711	 7.39690679984484E-02 
1712	 7.39519073402509E-02 
1713	 7.39537650242107E-02 
1714	 7.39965183578645E-02 
1715	 7.39936807915721E-02 
1716	 7.39708623073678E-02 
1717	 7.39563224707356E-02 
1718	 7.39208014916021E-02 
1719	 0.073902542821115 
1720	 7.38985484201748E-02 
1721	 7.38873075114511E-02 
1722	 7.38767776359938E-02 
1723	 7.38598798892071E-02 
1724	 7.38427969602186E-02 
1725	 7.38179758664123E-02 
1726	 7.37738203021811E-02 
1727	 7.37578137371826E-02 
1728	 7.37623025579138E-02 
1729	 7.37441124555414E-02 
1730	 7.37263582720411E-02 
1731	 7.37179005542508E-02 
1732	 7.36990831347039E-02 
1733	 7.36743897887889E-02 
1734	 7.36642374493252E-02 
1735	 0.073639982007388 
1736	 7.35888091911873E-02 
1737	 7.35583609003212E-02 
1738	 7.35431187283171E-02 
1739	 7.35200359627289E-02 
1740	 7.34971835841402E-02 
1741	 7.34690967464167E-02 
1742	 7.34413460303752E-02 
1743	 7.34069221647485E-02 
1744	 7.33566081675297E-02 
1745	 7.33298367868904E-02 
1746	 0.073314890451889 
1747	 7.32797511664745E-02 
1748	 7.32572503252616E-02 
1749	 7.32382147878595E-02 
1750	 7.32138046970368E-02 
1751	 7.31954535589121E-02 
1752	 7.31916618896591E-02 
1753	 7.31552444953108E-02 
1754	 7.31166906673252E-02 
1755	 7.31066129927703E-02 
1756	 7.30763101465466E-02 
1757	 0.073039523217028 
1758	 7.30042332806088E-02 
1759	 7.29651769854007E-02 
1760	 7.29349886602513E-02 
1761	 0.07291558876001 
1762	 7.29128302223446E-02 
1763	 0.072907704162889 
1764	 7.28698712213303E-02 
1765	 0.072820347233919 
1766	 7.27738783253659E-02 
1767	 7.27358477111422E-02 
1768	 7.27119886559529E-02 
1769	 7.26874481531982E-02 
1770	 7.26633881445515E-02 
1771	 7.26458760073402E-02 
1772	 7.26380937650251E-02 
1773	 7.26209676761306E-02 
1774	 7.26142846382807E-02 
1775	 7.25979351010008E-02 
1776	 7.25221973294302E-02 
1777	 7.24732328448293E-02 
1778	 0.072457542598775 
1779	 0.072429144609268 
1780	 7.24357360846282E-02 
1781	 7.24594888883868E-02 
1782	 7.24599042091678E-02 
1783	 7.24005347101953E-02 
1784	 7.23714642283503E-02 
1785	 7.23313626114392E-02 
1786	 7.22982761938524E-02 
1787	 7.22886785220232E-02 
1788	 7.22857714384255E-02 
1789	 7.22860491382545E-02 
1790	 7.22807686566448E-02 
1791	 7.22878548720418E-02 
1792	 7.22877209918422E-02 
1793	 7.22737842831181E-02 
1794	 7.22614278646317E-02 
1795	 7.22595782368859E-02 
1796	 7.22471408938705E-02 
1797	 7.22118625998118E-02 
1798	 0.072204170836879 
1799	 0.072208043239427 
1800	 7.22008880605011E-02 
1801	 6.91695320682693E-02 
1802	 6.92211171825853E-02 
1803	 6.92337225092484E-02 
1804	 6.92473749871025E-02 
1805	 6.92486575147437E-02 
1806	 6.92584355126572E-02 
1807	 6.92999370218981E-02 
1808	 6.93247208121172E-02 
1809	 6.93607684075882E-02 
1810	 6.93838260849723E-02 
1811	 0.069399996125004 
1812	 6.94023630780023E-02 
1813	 0.069402374879077 
1814	 0.069414898881101 
1815	 6.94540742118381E-02 
1816	 6.94552293253629E-02 
1817	 6.94557923062647E-02 
1818	 6.94543063022888E-02 
1819	 6.94518700416042E-02 
1820	 6.94279521986248E-02 
1821	 0.069429526734156 
1822	 6.94315246494109E-02 
1823	 6.94345266698719E-02 
1824	 6.94413371582402E-02 
1825	 0.069455618154548 
1826	 0.06946432884634 
1827	 6.94497234425475E-02 
1828	 6.94463347550107E-02 
1829	 6.94328019161259E-02 
1830	 6.94239040710053E-02 
1831	 6.94173954487001E-02 
1832	 6.94274470192584E-02 
1833	 6.94326829695124E-02 
1834	 6.94230084407779E-02 
1835	 6.94165930689629E-02 
1836	 6.94154633829259E-02 
1837	 6.94003209884674E-02 
1838	 6.93850213258298E-02 
1839	 6.93781368505139E-02 
1840	 6.93828290665544E-02 
1841	 6.93726982908226E-02 
1842	 6.93604965813834E-02 
1843	 6.93385769146266E-02 
1844	 6.92995574580182E-02 
1845	 6.92821258302281E-02 
1846	 6.92604249904738E-02 
1847	 6.92287833677078E-02 
1848	 6.92171810789251E-02 
1849	 6.92075533607791E-02 
1850	 6.91698885517137E-02 
1851	 6.91176252247325E-02 
1852	 6.90676435581522E-02 
1853	 6.90046373722786E-02 
1854	 6.89172770151449E-02 
1855	 0.068850460881409 
1856	 6.87787911317561E-02 
1857	 6.87084652057208E-02 
1858	 6.86372692428859E-02 
1859	 6.85422328382556E-02 
1860	 6.84387234682884E-02 
1861	 6.83353899523987E-02 
1862	 6.81969867773517E-02 
1863	 6.80494850643619E-02 
1864	 6.79235310843711E-02 
1865	 6.77854887384119E-02 
1866	 6.76303539906816E-02 
1867	 6.74608413791587E-02 
1868	 6.72772385514441E-02 
1869	 0.067064464551857 
1870	 6.68484776938074E-02 
1871	 6.66159447571263E-02 
1872	 6.63805428593111E-02 
1873	 6.60925964475822E-02 
1874	 6.57985303970987E-02 
1875	 6.55041067452672E-02 
1876	 0.065171128515387 
1877	 6.48390565528351E-02 
1878	 6.45126117164517E-02 
1879	 0.064121689482833 
1880	 6.37055612166273E-02 
1881	 6.32641153661896E-02 
1882	 0.062799826039825 
1883	 6.22802398275634E-02 
1884	 6.17784675700907E-02 
1885	 6.12897886474815E-02 
1886	 6.07470011180468E-02 
1887	 6.01972929546285E-02 
1888	 5.96327893883502E-02 
1889	 5.90299316333805E-02 
1890	 5.84464246971881E-02 
1891	 5.78628508370508E-02 
1892	 0.057267543283173 
1893	 5.66800272500155E-02 
1894	 5.60946388766154E-02 
1895	 5.55259316836914E-02 
1896	 5.49363324395455E-02 
1897	 0.054394354306401 
1898	 5.38597409922384E-02 
1899	 0.053309902151235 
1900	 5.28108749052204E-02 
1901	 5.23373353604907E-02 
1902	 5.18887018672226E-02 
1903	 5.14765156040875E-02 
1904	 5.10821672302437E-02 
1905	 5.07082909204986E-02 
1906	 5.03693234626423E-02 
1907	 5.00268217877422E-02 
1908	 4.97096729982095E-02 
1909	 4.94298289752825E-02 
1910	 4.91510837767937E-02 
1911	 4.89261883960892E-02 
1912	 4.87253445360146E-02 
1913	 4.85241676933381E-02 
1914	 4.83331698041231E-02 
1915	 4.81587134406631E-02 
1916	 4.79872265419821E-02 
1917	 0.047838678173392 
1918	 4.77253939765048E-02 
1919	 4.76168293794509E-02 
1920	 4.75155811918177E-02 
1921	 4.74409051340549E-02 
1922	 4.73743462341869E-02 
1923	 4.73063830565269E-02 
1924	 4.72489901445788E-02 
1925	 4.71951434113019E-02 
1926	 4.71668406263651E-02 
1927	 0.047148576294919 
1928	 4.71534704189792E-02 
1929	 4.71659996327688E-02 
1930	 4.71724170531184E-02 
1931	 4.71667851200155E-02 
1932	 4.71565338041385E-02 
1933	 4.71801140529052E-02 
1934	 4.72203070496585E-02 
1935	 4.72579953022743E-02 
1936	 4.73065439831675E-02 
1937	 4.73589246198809E-02 
1938	 0.04740719830112 
1939	 4.74704513158931E-02 
1940	 4.75538774827722E-02 
1941	 4.76368131434097E-02 
1942	 4.76981459187098E-02 
1943	 4.77728128150041E-02 
1944	 4.78249088853689E-02 
1945	 4.78839200332324E-02 
1946	 4.79677401412502E-02 
1947	 4.80694974350875E-02 
1948	 4.81735833823865E-02 
1949	 4.83161606531476E-02 
1950	 4.84178164794831E-02 
1951	 4.84954872312391E-02 
1952	 4.85950884140972E-02 
1953	 4.86719714562507E-02 
1954	 4.87642860747909E-02 
1955	 4.88990165713029E-02 
1956	 4.90208724063823E-02 
1957	 0.049146825393481 
1958	 4.92798581608691E-02 
1959	 4.94138727694816E-02 
1960	 4.95485464662116E-02 
1961	 4.96833951698008E-02 
1962	 4.98222714134808E-02 
1963	 4.99615080316542E-02 
1964	 5.01013778075973E-02 
1965	 5.02389338895159E-02 
1966	 5.03764869612743E-02 
1967	 5.05144605526237E-02 
1968	 5.06601570796541E-02 
1969	 5.08106611329508E-02 
1970	 5.09546661191946E-02 
1971	 5.11024559382444E-02 
1972	 5.12517696534839E-02 
1973	 5.13927357327754E-02 
1974	 5.15411521973977E-02 
1975	 5.17081699822407E-02 
1976	 5.18584417268235E-02 
1977	 5.19876683917209E-02 
1978	 5.21237033570569E-02 
1979	 0.052263262959054 
1980	 0.05241730481125 
1981	 5.25697396776049E-02 
1982	 5.27422884897303E-02 
1983	 5.28961518733218E-02 
1984	 5.30384071504013E-02 
1985	 5.31832252421793E-02 
1986	 5.33286383355811E-02 
1987	 5.34696939370072E-02 
1988	 5.36000631779761E-02 
1989	 5.37439899153763E-02 
1990	 5.38899294115957E-02 
1991	 0.054024542322723 
1992	 0.054178892977616 
1993	 5.43576025361241E-02 
1994	 5.45124354139341E-02 
1995	 5.46666989285463E-02 
1996	 5.48161368951528E-02 
1997	 5.49494874366214E-02 
1998	 5.50887676774892E-02 
1999	 5.52371674927037E-02 
2000	 5.53730606617076E-02 
2001	 5.55016345707414E-02 
2002	 5.56261613195758E-02 
2003	 5.57508308713722E-02 
2004	 5.58778115013829E-02 
2005	 5.60196433164266E-02 
2006	 5.61868845201939E-02 
2007	 5.63301071020631E-02 
2008	 5.64747706295479E-02 
2009	 5.66095506320614E-02 
2010	 5.67151963860205E-02 
2011	 5.68450451764722E-02 
2012	 5.69861164854507E-02 
2013	 5.71247884032827E-02 
2014	 5.72699409383602E-02 
2015	 5.74297165843892E-02 
2016	 5.75613262457697E-02 
2017	 5.76873809773651E-02 
2018	 5.78118982165064E-02 
2019	 5.79182675676087E-02 
2020	 0.058047982991233 
2021	 5.81976704831031E-02 
2022	 5.83224961568918E-02 
2023	 5.84525092611385E-02 
2024	 5.85678394825966E-02 
2025	 0.058628942338997 
2026	 5.87438392493081E-02 
2027	 5.88829653603642E-02 
2028	 5.90344417429002E-02 
2029	 5.91753143543128E-02 
2030	 0.059353219124332 
2031	 5.94758307453792E-02 
2032	 5.95556949053697E-02 
2033	 5.96608844141636E-02 
2034	 5.97599535526619E-02 
2035	 5.98593091141438E-02 
2036	 5.99622570746795E-02 
2037	 6.00666727775964E-02 
2038	 6.01596325363921E-02 
2039	 6.02652246162014E-02 
2040	 6.03831086304567E-02 
2041	 6.05040181221323E-02 
2042	 0.060622091906331 
2043	 6.07317349250525E-02 
2044	 6.08384357492998E-02 
2045	 6.09383172411407E-02 
2046	 6.10363308646608E-02 
2047	 6.11349999156749E-02 
2048	 6.12235225207615E-02 
2049	 6.13005891613366E-02 
2050	 6.13863703223297E-02 
2051	 6.14697593762486E-02 
2052	 6.15494227556435E-02 
2053	 6.16232064818016E-02 
2054	 6.17084374018428E-02 
2055	 6.17940520183232E-02 
2056	 6.18855026464775E-02 
2057	 6.19771718258285E-02 
2058	 6.20890337251581E-02 
2059	 0.062173670123643 
2060	 6.22352902083358E-02 
2061	 6.23189798418989E-02 
2062	 6.23971881487531E-02 
2063	 6.24898394846454E-02 
2064	 6.26121214767679E-02 
2065	 6.27111697296773E-02 
2066	 6.28082158402934E-02 
2067	 6.28955761746507E-02 
2068	 6.29684814941164E-02 
2069	 6.30368220606812E-02 
2070	 0.063113053307152 
2071	 6.31898477485498E-02 
2072	 6.32645254216927E-02 
2073	 6.33435506766293E-02 
2074	 6.34151362182833E-02 
2075	 6.34759170221399E-02 
2076	 0.06354826777629 
2077	 6.36189543253381E-02 
2078	 6.36990841299503E-02 
2079	 6.37871930573376E-02 
2080	 6.38781224393418E-02 
2081	 6.39902095272223E-02 
2082	 6.40805775321009E-02 
2083	 6.41601017085433E-02 
2084	 6.42438685117851E-02 
2085	 6.43181101069701E-02 
2086	 0.064375468635358 
2087	 6.44389919571774E-02 
2088	 6.45029089693342E-02 
2089	 6.45691492050387E-02 
2090	 6.46332432822355E-02 
2091	 0.064695830603228 
2092	 6.47535435421486E-02 
2093	 6.48240713326498E-02 
2094	 6.49065709909871E-02 
2095	 6.49753294821093E-02 
2096	 6.50436262108595E-02 
2097	 6.51175370360886E-02 
2098	 6.51876246021818E-02 
2099	 6.52457318528612E-02 
2100	 0.065318914713347 
2101	 6.54134663106454E-02 
2102	 6.54829023228366E-02 
2103	 6.55393480908794E-02 
2104	 6.56047624575114E-02 
2105	 6.56581529847512E-02 
2106	 6.57298876889518E-02 
2107	 6.58228468912342E-02 
2108	 6.58984134678332E-02 
2109	 6.59712802108881E-02 
2110	 6.60466009677184E-02 
2111	 6.61150557362554E-02 
2112	 6.61832173192234E-02 
2113	 6.62452508337048E-02 
2114	 0.066327776799607 
2115	 6.64018461948469E-02 
2116	 6.64736381768904E-02 
2117	 6.65440657170444E-02 
2118	 6.66153393958511E-02 
2119	 6.66900052208184E-02 
2120	 6.67656275900125E-02 
2121	 0.066834068298285 
2122	 6.68995635810557E-02 
2123	 6.69737288371602E-02 
2124	 6.70549900184352E-02 
2125	 0.067118550517584 
2126	 6.71934886708589E-02 
2127	 6.72463812469346E-02 
2128	 6.72676822692655E-02 
2129	 0.067291744596179 
2130	 6.73065211668389E-02 
2131	 6.73164387660316E-02 
2132	 6.73420768194924E-02 
2133	 6.73776864471867E-02 
2134	 6.73939415927406E-02 
2135	 0.067405313727177 
2136	 6.74297323640068E-02 
2137	 6.74433870238398E-02 
2138	 6.74657472149251E-02 
2139	 6.75251583773475E-02 
2140	 6.75454154420668E-02 
2141	 6.75262348684903E-02 
2142	 6.75356854194959E-02 
2143	 0.067561315262633 
2144	 0.067560118500425 
2145	 6.75569451457015E-02 
2146	 6.75527141688359E-02 
2147	 6.75288198696939E-02 
2148	 6.74882986302941E-02 
2149	 6.74774195940231E-02 
2150	 6.74916914803256E-02 
2151	 6.74849564393429E-02 
2152	 6.74812910808659E-02 
2153	 0.067468129359019 
2154	 6.74445079282736E-02 
2155	 6.74210670682119E-02 
2156	 6.73984177990905E-02 
2157	 6.73668186030742E-02 
2158	 6.73176298150693E-02 
2159	 6.72862215166995E-02 
2160	 6.72717352587934E-02 
2161	 6.72320744409507E-02 
2162	 6.71848662244627E-02 
2163	 6.71411986319679E-02 
2164	 6.70635992300026E-02 
2165	 6.70147277805253E-02 
2166	 6.69774988768181E-02 
2167	 6.69658705990245E-02 
2168	 6.69388638895165E-02 
2169	 6.69283297896548E-02 
2170	 6.68842357786641E-02 
2171	 6.68198040146008E-02 
2172	 6.67635587234454E-02 
2173	 6.66844367518872E-02 
2174	 6.66264523131867E-02 
2175	 6.65781475117967E-02 
2176	 6.65342016140452E-02 
2177	 6.65083034772598E-02 
2178	 6.64674339492617E-02 
2179	 6.64285492786936E-02 
2180	 6.63834218492344E-02 
2181	 6.63119647975138E-02 
2182	 6.62601175111562E-02 
2183	 6.62165796735047E-02 
2184	 6.61805033633091E-02 
2185	 6.61412710930209E-02 
2186	 6.61107559787882E-02 
2187	 6.60779602417668E-02 
2188	 6.60439577121216E-02 
2189	 6.60064952435094E-02 
2190	 6.59667419000177E-02 
2191	 6.59390051003338E-02 
2192	 6.59206260325467E-02 
2193	 6.58831705852456E-02 
2194	 6.58417387346583E-02 
2195	 6.58073378467311E-02 
2196	 6.57498094450533E-02 
2197	 6.57155179128789E-02 
2198	 6.57234918437397E-02 
2199	 6.56998726299221E-02 
2200	 6.56471247614276E-02 
2201	 6.56215939360428E-02 
2202	 0.065617385013067 
2203	 6.55772625617026E-02 
2204	 6.55520651823378E-02 
2205	 6.55474819240126E-02 
2206	 6.55313071210301E-02 
2207	 6.54861580739264E-02 
2208	 0.065487914723341 
2209	 6.55266586084393E-02 
2210	 6.55360900955134E-02 
2211	 6.55530572981155E-02 
2212	 6.55608150394019E-02 
2213	 6.55489746348629E-02 
2214	 6.55493353306799E-02 
2215	 6.55575217599694E-02 
2216	 6.55648438187487E-02 
2217	 6.55781282072457E-02 
2218	 6.55782225158376E-02 
2219	 6.55725595476228E-02 
2220	 6.55668304082956E-02 
2221	 6.55311837961352E-02 
2222	 6.55348421326898E-02 
2223	 6.55534402896348E-02 
2224	 6.55595554145906E-02 
2225	 6.55639719715943E-02 
2226	 6.55715522388093E-02 
2227	 6.55832548265279E-02 
2228	 0.065587231742385 
2229	 6.55984072362946E-02 
2230	 6.56220742827668E-02 
2231	 6.56425113695588E-02 
2232	 6.56632853661186E-02 
2233	 6.56777954997905E-02 
2234	 6.56876939075975E-02 
2235	 6.57071726779857E-02 
2236	 6.57277758551432E-02 
2237	 0.065745024699729 
2238	 6.57969306298807E-02 
2239	 6.57982565152976E-02 
2240	 6.57366154500299E-02 
2241	 6.57196532388979E-02 
2242	 0.065707889851017 
2243	 6.56852896612483E-02 
2244	 6.56614635232419E-02 
2245	 6.56855114291304E-02 
2246	 6.56675378137363E-02 
2247	 6.56253804349567E-02 
2248	 0.065620514935414 
2249	 6.56366764777863E-02 
2250	 6.56458473113478E-02 
2251	 6.56696303198065E-02 
2252	 6.56842669839135E-02 
2253	 0.065702037922999 
2254	 6.57051599741604E-02 
2255	 0.065690643202605 
2256	 0.065693269396408 
2257	 6.57096689557678E-02 
2258	 6.57004123255736E-02 
2259	 6.56743438757136E-02 
2260	 6.56725466537883E-02 
2261	 6.56483261214846E-02 
2262	 6.56560998191891E-02 
2263	 6.57232923423593E-02 
2264	 6.57491760155761E-02 
2265	 6.57733390019669E-02 
2266	 0.065778297325062 
2267	 6.57591434397762E-02 
2268	 6.57377278757954E-02 
2269	 6.57132542317736E-02 
2270	 6.56531580645117E-02 
2271	 6.56059712950867E-02 
2272	 6.55879524976292E-02 
2273	 6.56141421613888E-02 
2274	 6.56554983397381E-02 
2275	 6.56660656207493E-02 
2276	 6.56900740134292E-02 
2277	 6.56959417802278E-02 
2278	 0.065667940716901 
2279	 6.56506748972268E-02 
2280	 6.56342803076491E-02 
2281	 6.56283095847548E-02 
2282	 6.56162189254861E-02 
2283	 6.56152804595953E-02 
2284	 6.56426635775829E-02 
2285	 6.56476449793807E-02 
2286	 6.56216524420831E-02 
2287	 6.56311162246379E-02 
2288	 6.56840262986595E-02 
2289	 6.56793215298732E-02 
2290	 6.56691601092187E-02 
2291	 6.56438936623738E-02 
2292	 6.55390243130365E-02 
2293	 6.55015705238039E-02 
2294	 6.54954675793546E-02 
2295	 6.54936158078079E-02 
2296	 0.065541787062164 
2297	 6.55548145607802E-02 
2298	 6.55307855299643E-02 
2299	 6.55393229438766E-02 
2300	 6.55484857764818E-02 
2301	 6.55643535437832E-02 
2302	 6.55645929054025E-02 
2303	 6.55404325206913E-02 
2304	 6.54917281262208E-02 
2305	 6.53949391511311E-02 
2306	 6.53542837716328E-02 
2307	 6.53559119773362E-02 
2308	 0.065322881093842 
2309	 6.52944445167371E-02 
2310	 6.52557996192758E-02 
2311	 6.51806386670188E-02 
2312	 0.065138121165644 
2313	 6.51127058567758E-02 
2314	 6.50954449012149E-02 
2315	 6.51022303100236E-02 
2316	 6.50913094325544E-02 
2317	 6.50811765098729E-02 
2318	 6.50556597586872E-02 
2319	 6.50120165725455E-02 
2320	 6.49769035006557E-02 
2321	 6.49172802930223E-02 
2322	 6.49029277325686E-02 
2323	 6.49397336028253E-02 
2324	 6.49355772210031E-02 
2325	 0.064930989314864 
2326	 6.49358987672755E-02 
2327	 6.49352561680952E-02 
2328	 6.49007548963682E-02 
2329	 6.48852764038701E-02 
2330	 6.48770736615387E-02 
2331	 6.48365099807903E-02 
2332	 6.48040129968445E-02 
2333	 6.48151148047381E-02 
2334	 0.064794361933216 
2335	 6.47470027450053E-02 
2336	 6.47116359871832E-02 
2337	 6.46848356373159E-02 
2338	 6.46574464528643E-02 
2339	 6.45927535763808E-02 
2340	 6.45525857112507E-02 
2341	 6.45218626296185E-02 
2342	 6.45048967062135E-02 
2343	 6.45304057286589E-02 
2344	 6.44861067397278E-02 
2345	 6.44444454007779E-02 
2346	 6.43587288263089E-02 
2347	 6.42849293222673E-02 
2348	 6.42101898195643E-02 
2349	 6.41541766784228E-02 
2350	 6.40822083876064E-02 
2351	 6.40555676683726E-02 
2352	 0.064090309233289 
2353	 6.40485727074697E-02 
2354	 6.39915624435887E-02 
2355	 6.39261600357334E-02 
2356	 6.38254128942116E-02 
2357	 6.37220844410935E-02 
2358	 6.35933744782657E-02 
2359	 0.063506837169757 
2360	 6.34085444571594E-02 
2361	 6.33497456598398E-02 
2362	 6.33540320421627E-02 
2363	 6.33352201413003E-02 
2364	 0.063340409327376 
2365	 6.32896944717106E-02 
2366	 6.32201662649325E-02 
2367	 6.31579116477869E-02 
2368	 6.30417518772883E-02 
2369	 6.29459227864815E-02 
2370	 6.28492126765552E-02 
2371	 6.27921129651904E-02 
2372	 6.27543831203357E-02 
2373	 6.27434705015366E-02 
2374	 6.27626507953362E-02 
2375	 6.27416254412404E-02 
2376	 6.26686343568363E-02 
2377	 0.062606279272059 
2378	 6.25152422905344E-02 
2379	 6.24258100025108E-02 
2380	 6.23329993353095E-02 
2381	 0.062211605653682 
2382	 6.21616246802103E-02 
2383	 6.21088777090853E-02 
2384	 6.20775906701172E-02 
2385	 6.21173720907026E-02 
2386	 6.20792902307196E-02 
2387	 0.0619688015935 
2388	 6.18607465939358E-02 
2389	 6.17040479939306E-02 
2390	 6.14882639262593E-02 
2391	 6.13965151010583E-02 
2392	 6.13778609598929E-02 
2393	 6.12613098248059E-02 
2394	 6.12488055976136E-02 
2395	 6.12267017595514E-02 
2396	 6.10487856865748E-02 
2397	 6.09874630810377E-02 
2398	 6.09254724579206E-02 
2399	 6.08023097998697E-02 
2400	 6.08263940026271E-02 
2401	 6.08611774330202E-02 
2402	 6.07873580160761E-02 
2403	 6.06859483073084E-02 
2404	 6.05714442603697E-02 
2405	 6.04342934153698E-02 
2406	 0.06028333723333 
2407	 6.01849000018653E-02 
2408	 0.060064921000872 
2409	 5.98619972988541E-02 
2410	 0.059801962607591 
2411	 5.97868150216189E-02 
2412	 5.96733091597018E-02 
2413	 5.96470563437339E-02 
2414	 5.96071664302424E-02 
2415	 5.95037707701972E-02 
2416	 5.94444104091983E-02 
2417	 0.059478719622023 
2418	 0.059406376274892 
2419	 5.92534306764389E-02 
2420	 5.91785775974426E-02 
2421	 5.90926586604878E-02 
2422	 5.89871729761991E-02 
2423	 5.89169290596443E-02 
2424	 5.88607091263705E-02 
2425	 5.88100670907185E-02 
2426	 5.87282328999925E-02 
2427	 5.86581395487198E-02 
2428	 5.85521705628114E-02 
2429	 5.83782811212731E-02 
2430	 5.82978124614847E-02 
2431	 5.82573283038951E-02 
2432	 5.81785184050062E-02 
2433	 5.80592577740207E-02 
2434	 0.057997256532822 
2435	 0.058054040100824 
2436	 0.05796860767247 
2437	 5.78660198459395E-02 
2438	 5.77628482586747E-02 
2439	 5.74691373091997E-02 
2440	 5.73149282879839E-02 
2441	 5.72786028248386E-02 
2442	 5.71842146221473E-02 
2443	 5.71151063564743E-02 
2444	 5.70077571219535E-02 
2445	 5.68667811594142E-02 
2446	 5.67895861907603E-02 
2447	 5.67525874524688E-02 
2448	 5.66895740793971E-02 
2449	 5.66547184545908E-02 
2450	 5.65129735263885E-02 
2451	 5.62346427054961E-02 
2452	 5.60465344421435E-02 
2453	 5.58940727367158E-02 
2454	 5.57249792810263E-02 
2455	 5.56032696188329E-02 
2456	 5.54926995059122E-02 
2457	 5.53096352895058E-02 
2458	 5.51916487176781E-02 
2459	 5.51573475948545E-02 
2460	 5.50870648241163E-02 
2461	 5.49974135076627E-02 
2462	 5.49569185480561E-02 
2463	 5.50273147483494E-02 
2464	 0.054912942103405 
2465	 0.054671850892563 
2466	 5.45448211373571E-02 
2467	 5.43162379328779E-02 
2468	 5.41925151805695E-02 
2469	 5.42495362644374E-02 
2470	 5.44496797854572E-02 
2471	 5.44331476474613E-02 
2472	 5.44289501375439E-02 
2473	 5.43913420911836E-02 
2474	 5.41608711830718E-02 
2475	 5.39921649710081E-02 
2476	 5.39126855338163E-02 
2477	 5.38476426001161E-02 
2478	 5.37563642935156E-02 
2479	 5.35284343312619E-02 
2480	 5.34231528406838E-02 
2481	 5.33093459019749E-02 
2482	 5.30307039940175E-02 
2483	 5.29856347192961E-02 
2484	 5.29499254913008E-02 
2485	 5.27531076834793E-02 
2486	 5.26977706794928E-02 
2487	 5.27315856054349E-02 
2488	 5.27487018547122E-02 
2489	 5.28289038290939E-02 
2490	 5.29804315230626E-02 
2491	 0.052988979880279 
2492	 5.27887844665688E-02 
2493	 5.25950402245022E-02 
2494	 5.23184507015069E-02 
2495	 5.20348599946019E-02 
2496	 5.20507830055755E-02 
2497	 5.19174453487253E-02 
2498	 5.17158312960289E-02 
2499	 5.17531726838674E-02 
2500	 5.15760813072402E-02 
