Wavelength	MM_3300009.asd
350	 4.35016467867535E-02 
351	 0.045194994446412 
352	 4.55267051119373E-02 
353	 4.14393121813292E-02 
354	 4.05297530918894E-02 
355	 4.28304465418525E-02 
356	 4.31070637076201E-02 
357	 3.90445016556523E-02 
358	 4.52261419423532E-02 
359	 4.57388488651463E-02 
360	 4.13636463404424E-02 
361	 4.29405069992439E-02 
362	 4.07474975963393E-02 
363	 3.73109449732364E-02 
364	 0.03558928512812 
365	 3.70581183324684E-02 
366	 3.41375429620552E-02 
367	 3.28859013372722E-02 
368	 3.87255408500468E-02 
369	 0.039938755570343 
370	 0.038360452127803 
371	 3.68304500421065E-02 
372	 3.82770895521717E-02 
373	 4.07901552183157E-02 
374	 4.14023326338022E-02 
375	 3.97896935656852E-02 
376	 4.02752811173569E-02 
377	 3.96248565015884E-02 
378	 3.99000841997611E-02 
379	 4.31220948236722E-02 
380	 4.51123899931918E-02 
381	 4.45313701433049E-02 
382	 4.26758195457552E-02 
383	 4.24724667987627E-02 
384	 4.11309524888207E-02 
385	 4.06186696154216E-02 
386	 4.20859019947058E-02 
387	 4.41389606744826E-02 
388	 4.49215920573763E-02 
389	 4.48986172974951E-02 
390	 4.52883563850212E-02 
391	 4.66673523525075E-02 
392	 4.70228254852733E-02 
393	 4.65887888031794E-02 
394	 4.74529900462301E-02 
395	 4.87511793418096E-02 
396	 4.96919551913099E-02 
397	 0.05011498521092 
398	 5.13200009616124E-02 
399	 5.11444298582839E-02 
400	 5.06796395924787E-02 
401	 5.18572923516652E-02 
402	 5.43181000560902E-02 
403	 5.50905268752041E-02 
404	 5.42526690758404E-02 
405	 5.49450795768299E-02 
406	 5.55677919304104E-02 
407	 5.57803194928569E-02 
408	 5.58292006066906E-02 
409	 5.69304302174527E-02 
410	 5.73762964532812E-02 
411	 5.77478922859847E-02 
412	 0.059287248834498 
413	 5.97362993357589E-02 
414	 5.97895514796197E-02 
415	 6.00651393613255E-02 
416	 6.07534430294567E-02 
417	 6.01720283581517E-02 
418	 5.98409618921509E-02 
419	 6.10436210361842E-02 
420	 6.17139435483465E-02 
421	 6.15771461383246E-02 
422	 0.061434554861343 
423	 6.24770316359938E-02 
424	 6.22323134621494E-02 
425	 6.19930277031864E-02 
426	 6.24000101451729E-02 
427	 6.19788436061044E-02 
428	 0.062162246954694 
429	 0.062669715274871 
430	 6.28152459531475E-02 
431	 6.27834248846176E-02 
432	 6.30355813965257E-02 
433	 6.34835040267973E-02 
434	 6.35433290973129E-02 
435	 6.39861154848302E-02 
436	 6.43433198376697E-02 
437	 6.42489576930638E-02 
438	 6.41521472831948E-02 
439	 6.45513746528457E-02 
440	 6.51314926896726E-02 
441	 6.52589888739705E-02 
442	 6.54348230139775E-02 
443	 6.57329644809084E-02 
444	 6.60679040586498E-02 
445	 0.066180799244136 
446	 6.63613257255209E-02 
447	 6.65864737173306E-02 
448	 0.066834356531482 
449	 6.75216942214945E-02 
450	 6.80946525756757E-02 
451	 6.83513556855927E-02 
452	 6.84229455853089E-02 
453	 0.068252908967367 
454	 6.83108194289141E-02 
455	 6.88053833337935E-02 
456	 6.91680831197705E-02 
457	 6.92889911670887E-02 
458	 6.93728058190443E-02 
459	 6.96932020298194E-02 
460	 6.97088708181157E-02 
461	 6.96686815523615E-02 
462	 6.97750198314086E-02 
463	 7.00640729636765E-02 
464	 7.04299273947081E-02 
465	 7.07178413260534E-02 
466	 7.08323084677414E-02 
467	 7.09445365976631E-02 
468	 7.10123625348788E-02 
469	 7.09827232380445E-02 
470	 7.08358792378041E-02 
471	 7.12339079842572E-02 
472	 7.14142920444207E-02 
473	 7.10230501257683E-02 
474	 7.12024169568053E-02 
475	 7.16721476101795E-02 
476	 7.19631337158744E-02 
477	 7.16912497191694E-02 
478	 7.19284363029011E-02 
479	 7.21623664775918E-02 
480	 7.21669750450209E-02 
481	 7.23055841674741E-02 
482	 7.23838087117594E-02 
483	 7.24171970043027E-02 
484	 7.24811281417822E-02 
485	 7.26891128398516E-02 
486	 7.26969745309365E-02 
487	 7.25921674444411E-02 
488	 7.27943297301156E-02 
489	 7.28604550729749E-02 
490	 7.30409843113069E-02 
491	 7.34158936377632E-02 
492	 0.073351283984757 
493	 7.32224206648966E-02 
494	 7.32288573672949E-02 
495	 7.34560220032375E-02 
496	 7.37728475059741E-02 
497	 7.38539281161412E-02 
498	 7.37006139544041E-02 
499	 7.38042272403905E-02 
500	 7.40063388292068E-02 
501	 7.40509540206005E-02 
502	 7.38249779082647E-02 
503	 7.39881457984737E-02 
504	 7.41378901572721E-02 
505	 7.41452365537763E-02 
506	 7.41675896912039E-02 
507	 7.43183862756603E-02 
508	 7.44910809861435E-02 
509	 7.45946055029265E-02 
510	 7.47244680786118E-02 
511	 0.074694900542846 
512	 7.46241575496555E-02 
513	 7.47491881971873E-02 
514	 7.47868460876489E-02 
515	 0.074751253342726 
516	 7.47392384267239E-02 
517	 0.074941084440781 
518	 7.50767151292733E-02 
519	 7.50686074687421E-02 
520	 7.49712176147128E-02 
521	 7.51067575927541E-02 
522	 7.52778868554758E-02 
523	 7.53834811427958E-02 
524	 7.54564891288019E-02 
525	 7.55376082613312E-02 
526	 0.075616708518306 
527	 7.56748572911078E-02 
528	 7.57099418787696E-02 
529	 7.56945012707049E-02 
530	 7.57146214780185E-02 
531	 7.58974896750277E-02 
532	 0.075907868757045 
533	 7.59617712791766E-02 
534	 7.61658435425196E-02 
535	 7.62428021716657E-02 
536	 7.62402422843575E-02 
537	 7.62655544931257E-02 
538	 7.64147444815422E-02 
539	 7.64776246555192E-02 
540	 7.65360204581961E-02 
541	 7.66335968994724E-02 
542	 7.67321111574439E-02 
543	 7.68392389227208E-02 
544	 7.69304201134223E-02 
545	 7.69884826138808E-02 
546	 7.70448565205972E-02 
547	 7.71742479464666E-02 
548	 7.73530779527363E-02 
549	 7.74789947901333E-02 
550	 7.76182307969173E-02 
551	 7.76922367710546E-02 
552	 0.077711435806191 
553	 7.80089263932416E-02 
554	 7.81382954973472E-02 
555	 7.81768195760274E-02 
556	 7.84329261691759E-02 
557	 7.85946276803499E-02 
558	 0.078715499521614 
559	 7.88639870897956E-02 
560	 7.90653955082722E-02 
561	 7.92524760243103E-02 
562	 7.93801479596939E-02 
563	 0.079464503584992 
564	 7.97881772876554E-02 
565	 8.01159801123091E-02 
566	 8.03543779038279E-02 
567	 8.06033702841031E-02 
568	 8.09645060255118E-02 
569	 8.12784951452878E-02 
570	 8.14386186688693E-02 
571	 8.17409456428096E-02 
572	 8.20033576416788E-02 
573	 8.22323596452847E-02 
574	 8.25563266719179E-02 
575	 0.082824769197493 
576	 0.083157231278207 
577	 0.083596883955469 
578	 8.39244171121807E-02 
579	 8.42957219429619E-02 
580	 8.46775964788158E-02 
581	 8.49765886212007E-02 
582	 8.52693211926801E-02 
583	 8.55299315204339E-02 
584	 8.57572000137874E-02 
585	 8.59939874519819E-02 
586	 8.63466256141939E-02 
587	 8.67142088135118E-02 
588	 0.086994133468211 
589	 8.73813269555981E-02 
590	 8.77394926373367E-02 
591	 8.80193284919102E-02 
592	 0.088262113005663 
593	 0.088432951751237 
594	 8.86206487455296E-02 
595	 8.89016976960734E-02 
596	 8.92600201957732E-02 
597	 8.97090281708249E-02 
598	 0.090194738216683 
599	 9.06367961114986E-02 
600	 9.10792290214256E-02 
601	 9.14561873505522E-02 
602	 9.17368369826835E-02 
603	 9.19686606238686E-02 
604	 9.22124389094331E-02 
605	 9.24618194297462E-02 
606	 9.26911228491682E-02 
607	 9.29321162574201E-02 
608	 9.31639617402827E-02 
609	 9.33804435974687E-02 
610	 9.35958847139433E-02 
611	 9.38074733016251E-02 
612	 9.40311092315925E-02 
613	 9.42607197322298E-02 
614	 9.44029534247655E-02 
615	 9.45559030480817E-02 
616	 9.47336224877412E-02 
617	 9.48931466889874E-02 
618	 9.50979727627692E-02 
619	 9.52415700196516E-02 
620	 9.52949389157526E-02 
621	 9.54471558726395E-02 
622	 0.095607003319517 
623	 9.57506048534278E-02 
624	 0.095877033482905 
625	 9.59767088991071E-02 
626	 9.60905224708615E-02 
627	 9.62121942788908E-02 
628	 9.62678985732936E-02 
629	 9.63677782069522E-02 
630	 9.64847184098802E-02 
631	 9.65724502370035E-02 
632	 9.66636149209616E-02 
633	 9.67842698363583E-02 
634	 9.69175709647835E-02 
635	 9.70132488478712E-02 
636	 9.70678003927505E-02 
637	 9.71531396969169E-02 
638	 9.72895301900181E-02 
639	 9.73361021609624E-02 
640	 9.74007461096219E-02 
641	 9.74954631523082E-02 
642	 9.75935783645654E-02 
643	 9.77336557513895E-02 
644	 9.78471921330362E-02 
645	 9.79124459836388E-02 
646	 9.79878628307867E-02 
647	 9.80687658757142E-02 
648	 9.81438559909094E-02 
649	 9.82108628101617E-02 
650	 0.098317552320943 
651	 9.84560901615789E-02 
652	 9.85826118524128E-02 
653	 0.098634499427297 
654	 9.87655851758428E-02 
655	 9.88499884582169E-02 
656	 9.88331628978905E-02 
657	 0.098969393105547 
658	 9.91112253882947E-02 
659	 9.92275758900297E-02 
660	 9.93375453804262E-02 
661	 9.94211770233147E-02 
662	 9.95075400928961E-02 
663	 0.099611293553275 
664	 9.97204355432042E-02 
665	 9.98178433774003E-02 
666	 9.99027898075856E-02 
667	 9.99876673238282E-02 
668	 0.10010925719316 
669	 0.100258646305041 
670	 0.100403173900296 
671	 0.100497351700887 
672	 0.100602716978751 
673	 0.100709090322207 
674	 0.100816691521293 
675	 0.100990740547046 
676	 0.101111436607356 
677	 0.101193922915979 
678	 0.101311993845603 
679	 0.101487629509328 
680	 0.101625474395869 
681	 0.101711077370342 
682	 0.101847466116028 
683	 0.101970747511034 
684	 0.102121511735612 
685	 0.10232110621081 
686	 0.102428421229664 
687	 0.102535175760882 
688	 0.102677898083598 
689	 0.102844580620539 
690	 0.102974538405059 
691	 0.103094862675417 
692	 0.103233102082051 
693	 0.103391186306907 
694	 0.103555760008908 
695	 0.103702385519227 
696	 0.103816778620786 
697	 0.103954867220071 
698	 0.104113344983182 
699	 0.10426911102886 
700	 0.104385424708563 
701	 0.104515852471648 
702	 0.10466590364267 
703	 0.104820693277449 
704	 0.104937382034296 
705	 0.105071963919659 
706	 0.1052059025754 
707	 0.10529459271884 
708	 0.105420467775414 
709	 0.10559175650322 
710	 0.105779252967154 
711	 0.105914223905935 
712	 0.106042945087111 
713	 0.106166900955049 
714	 0.106276318469703 
715	 0.106359576137078 
716	 0.106460185919877 
717	 0.106588898271971 
718	 0.106727229485727 
719	 0.106833207060807 
720	 0.10692699399693 
721	 0.10702679370155 
722	 0.107127116520188 
723	 0.107235180119119 
724	 0.107337301999016 
725	 0.107419393556654 
726	 0.107502875695317 
727	 0.107581803090303 
728	 0.107654359086135 
729	 0.107724684643937 
730	 0.107819773900209 
731	 0.107906549084313 
732	 0.107967522233625 
733	 0.108049075385763 
734	 0.108131355265543 
735	 0.108190021172819 
736	 0.108208722331994 
737	 0.108231219162427 
738	 0.108267909527037 
739	 0.108314063676574 
740	 0.108351870223652 
741	 0.108387182167799 
742	 0.108415835527681 
743	 0.108429520405259 
744	 0.108409928007102 
745	 0.108394505528609 
746	 0.108411554619973 
747	 0.108466866136412 
748	 0.108461477746183 
749	 0.108429316604655 
750	 0.108398055333487 
751	 0.108371878644374 
752	 0.108362552705721 
753	 0.108358623808342 
754	 0.108343482036577 
755	 0.108299645025218 
756	 0.108281358377462 
757	 0.108258646548121 
758	 0.108177720757505 
759	 0.108161913700073 
760	 0.108108943905235 
761	 0.108020742406842 
762	 0.108050551959157 
763	 0.108024165034184 
764	 0.107946795517902 
765	 0.107861631533713 
766	 0.107787098596932 
767	 0.107717109183207 
768	 0.107668319648776 
769	 0.107655910492049 
770	 0.107612800707214 
771	 0.107539182384018 
772	 0.107448629161097 
773	 0.107362109164001 
774	 0.107303312445517 
775	 0.107246989346597 
776	 0.107172564628611 
777	 0.107106361477703 
778	 0.107033557397605 
779	 0.106967193542648 
780	 0.106921601653888 
781	 0.10683905645963 
782	 0.106745861726362 
783	 0.106658341769298 
784	 0.106575247158561 
785	 0.106511178584049 
786	 0.106427724677827 
787	 0.106319678815812 
788	 0.106289835847665 
789	 0.106231193874203 
790	 0.106139352382327 
791	 0.106047250933028 
792	 0.105955143812082 
793	 0.10589748200578 
794	 0.105862631658203 
795	 0.105799486901003 
796	 0.105696524150827 
797	 0.105609020139854 
798	 0.105556505269826 
799	 0.105473281471365 
800	 0.105400065046605 
801	 0.105326847171272 
802	 0.105238096364205 
803	 0.105150385222561 
804	 0.105111640884307 
805	 0.105086312954991 
806	 0.104999719912376 
807	 0.10493270060154 
808	 0.104881240651351 
809	 0.104818601792861 
810	 0.104704079705562 
811	 0.10466710493327 
812	 0.10462013586255 
813	 0.104506139935826 
814	 0.104494295041918 
815	 0.104434629214984 
816	 0.104356320505728 
817	 0.104339549587138 
818	 0.104313354347524 
819	 0.104257744159526 
820	 0.104176533646525 
821	 0.104093636167643 
822	 0.104031786342575 
823	 0.103978596968051 
824	 0.103924189372382 
825	 0.103873218560753 
826	 0.103833383708303 
827	 0.103771825154552 
828	 0.103685777339202 
829	 0.103709952897531 
830	 0.103667007299461 
831	 0.103584464314548 
832	 0.103576666212932 
833	 0.103612318212371 
834	 0.103563067423184 
835	 0.103443974772607 
836	 0.103404254151171 
837	 0.103410603404838 
838	 0.103419807643753 
839	 0.103398118253576 
840	 0.10333507398912 
841	 0.103267907495877 
842	 0.103239105525967 
843	 0.103259234588641 
844	 0.103244698372195 
845	 0.103225887109564 
846	 0.103200400250487 
847	 0.103160056301761 
848	 0.103144876949474 
849	 0.103152291422438 
850	 0.103147744793775 
851	 0.103086962778049 
852	 0.103093505880439 
853	 0.103097228063212 
854	 0.103057576275098 
855	 0.103018362933345 
856	 0.103073736227198 
857	 0.103119531576895 
858	 0.103079467028535 
859	 0.103072578069199 
860	 0.103083304981486 
861	 0.103106134680154 
862	 0.103126061208942 
863	 0.103088915381277 
864	 0.103067473216837 
865	 0.103089459973109 
866	 0.10313572284982 
867	 0.103106702980784 
868	 0.103068315497459 
869	 0.10306961613415 
870	 0.103119014049867 
871	 0.103168652384069 
872	 0.103184188959707 
873	 0.10317489841313 
874	 0.103211087728631 
875	 0.103249959470806 
876	 0.103244358704912 
877	 0.103204076817152 
878	 0.10329448081475 
879	 0.10332756792922 
880	 0.103326564886448 
881	 0.103367666054847 
882	 0.103405852158667 
883	 0.103484658929359 
884	 0.103542071265352 
885	 0.103499372149198 
886	 0.103551268036094 
887	 0.103609807715523 
888	 0.10364080839388 
889	 0.10367734880707 
890	 0.10376239056868 
891	 0.10380460428678 
892	 0.103797675121562 
893	 0.103855217075754 
894	 0.103896246874746 
895	 0.103951589244462 
896	 0.104041432655935 
897	 0.104131738326677 
898	 0.104156857028761 
899	 0.104177350040043 
900	 0.104244525013312 
901	 0.104285251599629 
902	 0.104366610096167 
903	 0.104473300666668 
904	 0.104560723207465 
905	 0.104591688426128 
906	 0.104624676184139 
907	 0.104674909576186 
908	 0.104742242703144 
909	 0.104882874737445 
910	 0.104948263501583 
911	 0.104985761157066 
912	 0.105140413250172 
913	 0.105230892457808 
914	 0.105310319407229 
915	 0.105395483736044 
916	 0.105457641101335 
917	 0.105520945290234 
918	 0.10559422949236 
919	 0.105669078498485 
920	 0.105726573064318 
921	 0.105861576266489 
922	 0.105973723318308 
923	 0.106033290776005 
924	 0.106156919960559 
925	 0.106262925976997 
926	 0.106335662912832 
927	 0.106382829203662 
928	 0.106426714860921 
929	 0.106520311329764 
930	 0.106667848946704 
931	 0.106835688801126 
932	 0.106943184522501 
933	 0.107097122775601 
934	 0.107214961979676 
935	 0.107234320900303 
936	 0.107306168533558 
937	 0.107415457038638 
938	 0.107541039264524 
939	 0.107663873029746 
940	 0.107795804464776 
941	 0.107936579273826 
942	 0.10807684656379 
943	 0.108196693338437 
944	 0.108244725953144 
945	 0.108349845697302 
946	 0.108479770187538 
947	 0.108557198932529 
948	 0.1086782707054 
949	 0.108773642274811 
950	 0.108839820633297 
951	 0.108913507301611 
952	 0.109023495390639 
953	 0.109159921752671 
954	 0.109295120880102 
955	 0.109407382866302 
956	 0.109555382726369 
957	 0.109679897506914 
958	 0.109747960861712 
959	 0.109786841960709 
960	 0.110024380055495 
961	 0.110145482457965 
962	 0.110223072681715 
963	 0.110506412576569 
964	 0.110572891330887 
965	 0.110628556177065 
966	 0.110768106384414 
967	 0.110964120241505 
968	 0.11115662233553 
969	 0.111312732906937 
970	 0.11137305157275 
971	 0.111329476737398 
972	 0.111549210525997 
973	 0.111766451735986 
974	 0.111861459171394 
975	 0.111904114007226 
976	 0.112200709165444 
977	 0.112455332783721 
978	 0.112568255376162 
979	 0.112612106383015 
980	 0.112622013838317 
981	 0.112693452477784 
982	 0.112866074467957 
983	 0.113114373587764 
984	 0.113334863129081 
985	 0.113457232281927 
986	 0.11349285019121 
987	 0.113540188635604 
988	 0.113849290352156 
989	 0.114089438519034 
990	 0.114191850125868 
991	 0.114284718098007 
992	 0.114598182358361 
993	 0.114727988060617 
994	 0.114772755676301 
995	 0.114962525654258 
996	 0.114977537354318 
997	 0.115192013460445 
998	 0.115496035369022 
999	 0.115653916658277 
1000	 0.115749301627006 
1001	 0.113493755217314 
1002	 0.113643944011013 
1003	 0.113732481268316 
1004	 0.113859802774946 
1005	 0.114015027594122 
1006	 0.114134178092536 
1007	 0.114237267911064 
1008	 0.114398269823512 
1009	 0.114505033113516 
1010	 0.114623145659233 
1011	 0.1147456103788 
1012	 0.114775266634786 
1013	 0.114808466522518 
1014	 0.114956615127577 
1015	 0.115117189539014 
1016	 0.115195798320771 
1017	 0.115301105249788 
1018	 0.115444720891117 
1019	 0.115510111402753 
1020	 0.115523810370909 
1021	 0.115646882608503 
1022	 0.115737448933058 
1023	 0.115747138353793 
1024	 0.115828528728293 
1025	 0.115907103658105 
1026	 0.115957000443263 
1027	 0.116076292459305 
1028	 0.116126379498184 
1029	 0.116186553447931 
1030	 0.116350192402915 
1031	 0.116442953579308 
1032	 0.116500190349665 
1033	 0.116551131227329 
1034	 0.116598048604304 
1035	 0.116585934582914 
1036	 0.116651073992035 
1037	 0.116746373189526 
1038	 0.116821640329849 
1039	 0.116939959550029 
1040	 0.117028959608409 
1041	 0.117092712803521 
1042	 0.117179887269321 
1043	 0.117260617269469 
1044	 0.117341907911112 
1045	 0.117425022678683 
1046	 0.117496081195151 
1047	 0.117550054473447 
1048	 0.117603898056695 
1049	 0.117640249388167 
1050	 0.117709910845724 
1051	 0.117820729852259 
1052	 0.117912351833676 
1053	 0.118025264329056 
1054	 0.118116061301604 
1055	 0.118143398289467 
1056	 0.118231097925395 
1057	 0.118313107299892 
1058	 0.118381565340911 
1059	 0.118460045883056 
1060	 0.118588343264721 
1061	 0.118630984617062 
1062	 0.118643296453277 
1063	 0.118706761924346 
1064	 0.11872892997355 
1065	 0.118783336886902 
1066	 0.118881731114077 
1067	 0.118911593309493 
1068	 0.118947293669828 
1069	 0.119027877645322 
1070	 0.119089388498686 
1071	 0.119170092389457 
1072	 0.119204092340572 
1073	 0.119196202208018 
1074	 0.119208879395731 
1075	 0.119199318407461 
1076	 0.119200492103236 
1077	 0.119216445556724 
1078	 0.119259526563343 
1079	 0.119322885989308 
1080	 0.119374017221276 
1081	 0.119415365504173 
1082	 0.119429660205908 
1083	 0.119450385372326 
1084	 0.119441433268332 
1085	 0.11945837112936 
1086	 0.119499460196784 
1087	 0.119514972377464 
1088	 0.119520808259539 
1089	 0.119510855869249 
1090	 0.119519313965342 
1091	 0.119563717066512 
1092	 0.11958125314486 
1093	 0.119556385218883 
1094	 0.119552479261016 
1095	 0.119563308381536 
1096	 0.119566636735793 
1097	 0.119596934831588 
1098	 0.11961150974973 
1099	 0.119599698112617 
1100	 0.119593409100609 
1101	 0.119587603583211 
1102	 0.119602943030094 
1103	 0.119623002781166 
1104	 0.119637924142761 
1105	 0.119680607306645 
1106	 0.119721470177128 
1107	 0.119739480954269 
1108	 0.119770332164541 
1109	 0.119801734873447 
1110	 0.119839122954899 
1111	 0.119858983073977 
1112	 0.119857792844037 
1113	 0.11987329467566 
1114	 0.119888797168489 
1115	 0.119902741185727 
1116	 0.119922000106198 
1117	 0.119954834807923 
1118	 0.119994634757218 
1119	 0.120019457021441 
1120	 0.120089186605754 
1121	 0.120121638577577 
1122	 0.120124402028842 
1123	 0.120147475419155 
1124	 0.120164134945361 
1125	 0.120162115704948 
1126	 0.120180034361111 
1127	 0.120222766533581 
1128	 0.120234206551366 
1129	 0.120219337937109 
1130	 0.120229844793293 
1131	 0.120246881888947 
1132	 0.120258403240265 
1133	 0.120306887943711 
1134	 0.120309613272386 
1135	 0.120276307085699 
1136	 0.120232606801082 
1137	 0.120217814416912 
1138	 0.120200151457597 
1139	 0.120191652987939 
1140	 0.120232398925613 
1141	 0.120210926903421 
1142	 0.120148080908629 
1143	 0.120110179383871 
1144	 0.120063771558611 
1145	 0.120011346131454 
1146	 0.11996793861579 
1147	 0.119914629088337 
1148	 0.119827041681492 
1149	 0.119776431322293 
1150	 0.119747822406261 
1151	 0.119717275151285 
1152	 0.119685665941697 
1153	 0.119660099807623 
1154	 0.119642244661486 
1155	 0.119614041001904 
1156	 0.11960691246857 
1157	 0.119630604473968 
1158	 0.119632577496174 
1159	 0.119627244705876 
1160	 0.119625959106924 
1161	 0.119624467640099 
1162	 0.119620446633374 
1163	 0.119607105383115 
1164	 0.119611979993755 
1165	 0.119632836949506 
1166	 0.119633502257452 
1167	 0.119661466736829 
1168	 0.119696107480343 
1169	 0.119709397912113 
1170	 0.119710933979431 
1171	 0.119722309064968 
1172	 0.119727872269577 
1173	 0.119735395103045 
1174	 0.119750217610989 
1175	 0.119758547212528 
1176	 0.119752380772067 
1177	 0.119761530539466 
1178	 0.119783972142786 
1179	 0.119799632389857 
1180	 0.119822488901387 
1181	 0.119835914594647 
1182	 0.119844095456505 
1183	 0.119836965213937 
1184	 0.119853891731725 
1185	 0.119883304706886 
1186	 0.119893983246497 
1187	 0.119908881809758 
1188	 0.119920524794616 
1189	 0.119910373275798 
1190	 0.119920270830371 
1191	 0.119950112931627 
1192	 0.119965843921422 
1193	 0.119971324748726 
1194	 0.119989012872889 
1195	 0.12001701825756 
1196	 0.120033501266678 
1197	 0.120053857363797 
1198	 0.120069999135242 
1199	 0.120080394201449 
1200	 0.120071377205662 
1201	 0.120088211993068 
1202	 0.120114379946326 
1203	 0.120138810781533 
1204	 0.120175203312166 
1205	 0.120202645102418 
1206	 0.120220574198471 
1207	 0.120251574103429 
1208	 0.120304066726505 
1209	 0.120324582950713 
1210	 0.120323233037384 
1211	 0.120342286347692 
1212	 0.120349330531678 
1213	 0.120362963754906 
1214	 0.120402793279861 
1215	 0.120432729346452 
1216	 0.120457803723947 
1217	 0.120474129135931 
1218	 0.120485867620578 
1219	 0.120492284942608 
1220	 0.120505720418381 
1221	 0.120505031974476 
1222	 0.120526316174592 
1223	 0.120573767798339 
1224	 0.120599505257815 
1225	 0.120623330704905 
1226	 0.120645887860361 
1227	 0.120651394718254 
1228	 0.120671860720448 
1229	 0.120712352222071 
1230	 0.12073487919856 
1231	 0.120739332117995 
1232	 0.1207635313939 
1233	 0.120792567515594 
1234	 0.120822726329728 
1235	 0.120844598324507 
1236	 0.120883203504408 
1237	 0.120899664150319 
1238	 0.120888653861432 
1239	 0.120895193082122 
1240	 0.120905353125643 
1241	 0.120918309281463 
1242	 0.120932816184992 
1243	 0.12094870726052 
1244	 0.120971310470029 
1245	 0.120987388836658 
1246	 0.120998098054662 
1247	 0.121015440391947 
1248	 0.121032873235467 
1249	 0.121051575102218 
1250	 0.121092840280699 
1251	 0.121110132993815 
1252	 0.121125360473664 
1253	 0.121136468573627 
1254	 0.121146413291433 
1255	 0.121146900087377 
1256	 0.121148003224866 
1257	 0.121148802070341 
1258	 0.121148102196674 
1259	 0.121135462003062 
1260	 0.121136183546042 
1261	 0.121148760613074 
1262	 0.121154661668873 
1263	 0.121162671362078 
1264	 0.121171229299815 
1265	 0.121182467530285 
1266	 0.121182695449711 
1267	 0.12117680734075 
1268	 0.121173943416115 
1269	 0.121166722366378 
1270	 0.121137338009196 
1271	 0.121153426249976 
1272	 0.12119616843454 
1273	 0.121219705599409 
1274	 0.12126784549665 
1275	 0.121286820596756 
1276	 0.121268080420975 
1277	 0.121284723970734 
1278	 0.121305469118801 
1279	 0.121337933804878 
1280	 0.121407826333036 
1281	 0.121444072359734 
1282	 0.121466482565599 
1283	 0.121493348295011 
1284	 0.121509897412428 
1285	 0.121518912849403 
1286	 0.121540856997487 
1287	 0.121563154905349 
1288	 0.12157810261878 
1289	 0.121582091659238 
1290	 0.121599567131634 
1291	 0.121636205479204 
1292	 0.121630869344384 
1293	 0.121609156811087 
1294	 0.121590270193143 
1295	 0.121539329020809 
1296	 0.121510043637029 
1297	 0.121510700485986 
1298	 0.121479344817931 
1299	 0.121425962581259 
1300	 0.121381075724303 
1301	 0.121329880628225 
1302	 0.12127425455447 
1303	 0.121220064174242 
1304	 0.12116473321334 
1305	 0.121104333217058 
1306	 0.121036476481885 
1307	 0.120956753942036 
1308	 0.12088709923283 
1309	 0.120821128385379 
1310	 0.12075971391102 
1311	 0.120674262358714 
1312	 0.120585970938471 
1313	 0.120495790468057 
1314	 0.120380152613869 
1315	 0.120283000918234 
1316	 0.1202106898612 
1317	 0.120115911541938 
1318	 0.119998382818475 
1319	 0.119899291414662 
1320	 0.119808123234959 
1321	 0.119710876502672 
1322	 0.1196221738176 
1323	 0.119527696878031 
1324	 0.11942431449219 
1325	 0.119309374646523 
1326	 0.119202007975553 
1327	 0.119106630016667 
1328	 0.118998575086728 
1329	 0.118888309828276 
1330	 0.118782120194629 
1331	 0.118668766061412 
1332	 0.118568051838129 
1333	 0.118478294599023 
1334	 0.118386004769595 
1335	 0.118304355227997 
1336	 0.118204166236445 
1337	 0.11808653755195 
1338	 0.117990864326667 
1339	 0.117896060365594 
1340	 0.117804110913039 
1341	 0.117732881684448 
1342	 0.117650839255029 
1343	 0.117557990417453 
1344	 0.117467982864139 
1345	 0.117393571523395 
1346	 0.117305275667467 
1347	 0.117203743912416 
1348	 0.117107764237572 
1349	 0.117021198175303 
1350	 0.116897822405767 
1351	 0.116780154786442 
1352	 0.116667881586975 
1353	 0.116540865239771 
1354	 0.116390704651053 
1355	 0.116260225643171 
1356	 0.116127263162624 
1357	 0.116006618731812 
1358	 0.115896232924264 
1359	 0.115784667506307 
1360	 0.115684670163366 
1361	 0.115574538931865 
1362	 0.115452748969959 
1363	 0.115347524870346 
1364	 0.115249552228797 
1365	 0.115149165026074 
1366	 0.115060064479064 
1367	 0.114971186994954 
1368	 0.114868016370256 
1369	 0.114741563170879 
1370	 0.11458232077277 
1371	 0.114415493718219 
1372	 0.114218474620983 
1373	 0.113985524404779 
1374	 0.113723399347901 
1375	 0.11343700501886 
1376	 0.113102436305441 
1377	 0.112742120075405 
1378	 0.11232133212361 
1379	 0.111840606539701 
1380	 0.111348430107394 
1381	 0.110799305062367 
1382	 0.110250445185355 
1383	 0.109696665009784 
1384	 0.109111843790524 
1385	 0.10852912572585 
1386	 0.107887899160476 
1387	 0.10722196088384 
1388	 0.106501101416679 
1389	 0.105733798105799 
1390	 0.104907838259692 
1391	 0.104035767012808 
1392	 0.103144473764985 
1393	 0.102219506275152 
1394	 0.101280655615841 
1395	 0.100335567656909 
1396	 9.93831041483696E-02 
1397	 9.84385526896236E-02 
1398	 9.74870460528778E-02 
1399	 9.65498847880891E-02 
1400	 9.56072441843169E-02 
1401	 0.094703029680875 
1402	 9.38043893713047E-02 
1403	 9.29572769142366E-02 
1404	 9.21354955355098E-02 
1405	 9.13665652813423E-02 
1406	 9.06513192897436E-02 
1407	 0.089949112748885 
1408	 8.92713058899938E-02 
1409	 0.088640679568671 
1410	 0.088027762986805 
1411	 8.74738386818056E-02 
1412	 8.69659401629046E-02 
1413	 8.65227979049544E-02 
1414	 8.61137727948302E-02 
1415	 8.57231805823063E-02 
1416	 8.53850387199335E-02 
1417	 8.50716008607858E-02 
1418	 8.47755721664466E-02 
1419	 8.45110799763095E-02 
1420	 8.42689421948715E-02 
1421	 8.40456362022965E-02 
1422	 8.38358372052144E-02 
1423	 8.36335629098226E-02 
1424	 8.34337369127648E-02 
1425	 8.32295112853509E-02 
1426	 8.30473441481348E-02 
1427	 8.28676340621083E-02 
1428	 8.27231773570932E-02 
1429	 8.26080698885142E-02 
1430	 8.24925191957234E-02 
1431	 8.24048635908427E-02 
1432	 8.23091378820636E-02 
1433	 8.22019427625959E-02 
1434	 8.21192010336298E-02 
1435	 8.20484936108704E-02 
1436	 8.19885971180583E-02 
1437	 8.19522057400502E-02 
1438	 8.19115165940856E-02 
1439	 8.18734161424473E-02 
1440	 0.081842850147423 
1441	 8.18156076212113E-02 
1442	 8.17897472690678E-02 
1443	 8.17726187881448E-02 
1444	 8.17545149952005E-02 
1445	 8.17568487604836E-02 
1446	 8.17686084349216E-02 
1447	 8.17732565367909E-02 
1448	 8.17850658489208E-02 
1449	 8.17923238224667E-02 
1450	 8.17929465468016E-02 
1451	 8.18056917945265E-02 
1452	 8.18259225539667E-02 
1453	 8.18562430855212E-02 
1454	 8.18944902174567E-02 
1455	 8.19316501500349E-02 
1456	 8.19840046202049E-02 
1457	 8.20227249093941E-02 
1458	 8.20405229381733E-02 
1459	 8.20910293325402E-02 
1460	 8.21418775940626E-02 
1461	 8.22191510713497E-02 
1462	 8.23328053702386E-02 
1463	 8.24389727638401E-02 
1464	 8.25531703885358E-02 
1465	 0.082675417380137 
1466	 8.27985976043324E-02 
1467	 0.082934894555575 
1468	 0.0830826311001 
1469	 8.32414360698159E-02 
1470	 8.34106243766363E-02 
1471	 8.35883204535489E-02 
1472	 8.37845174894445E-02 
1473	 8.39923270865308E-02 
1474	 8.41843595651543E-02 
1475	 8.43935760053025E-02 
1476	 8.46142647646576E-02 
1477	 8.48176791683334E-02 
1478	 8.50476158919009E-02 
1479	 8.52902192688263E-02 
1480	 8.55208956018161E-02 
1481	 8.57590400995698E-02 
1482	 8.59940288605124E-02 
1483	 8.62297569547917E-02 
1484	 8.64613015688553E-02 
1485	 8.66866401205505E-02 
1486	 8.69241001142545E-02 
1487	 8.71607332677619E-02 
1488	 8.74095995209108E-02 
1489	 8.76791350907709E-02 
1490	 8.79280697821005E-02 
1491	 0.088175525568847 
1492	 8.84208196391971E-02 
1493	 8.86568747375293E-02 
1494	 8.88921049497678E-02 
1495	 8.91241759905521E-02 
1496	 8.93581916142474E-02 
1497	 8.95902706509711E-02 
1498	 8.98225175407754E-02 
1499	 9.00593275605139E-02 
1500	 0.090294944101688 
1501	 0.090524498929922 
1502	 9.07535580930285E-02 
1503	 9.09844199639362E-02 
1504	 9.12151234733908E-02 
1505	 9.14413818058707E-02 
1506	 9.16743058658462E-02 
1507	 9.19097479781877E-02 
1508	 9.21398857881836E-02 
1509	 9.23606905953442E-02 
1510	 9.25796483760341E-02 
1511	 0.092787203240922 
1512	 9.29898144930897E-02 
1513	 9.32019872078565E-02 
1514	 9.34189450609684E-02 
1515	 9.36445607078659E-02 
1516	 9.38673458253311E-02 
1517	 9.40760423266702E-02 
1518	 9.42782074922962E-02 
1519	 9.44731152940244E-02 
1520	 9.46506899797158E-02 
1521	 9.48431217058558E-02 
1522	 9.50349590342654E-02 
1523	 9.52303839365643E-02 
1524	 9.54356300132032E-02 
1525	 9.56302997481803E-02 
1526	 9.58216074288105E-02 
1527	 9.60127205958009E-02 
1528	 0.096204823222116 
1529	 0.0963855045525 
1530	 0.09656056117906 
1531	 9.67353169009469E-02 
1532	 9.69027762461174E-02 
1533	 9.70664235674779E-02 
1534	 9.72301996873358E-02 
1535	 9.73865765096093E-02 
1536	 0.097525197373788 
1537	 9.76787955028253E-02 
1538	 9.78358303040837E-02 
1539	 9.79964538592473E-02 
1540	 9.81753799063363E-02 
1541	 9.83360925021445E-02 
1542	 9.84887448324868E-02 
1543	 9.86395898546315E-02 
1544	 9.87801871975145E-02 
1545	 9.89210060869515E-02 
1546	 9.90566950756365E-02 
1547	 9.92001794731496E-02 
1548	 9.93435473112415E-02 
1549	 9.94712852069632E-02 
1550	 9.96100797110984E-02 
1551	 9.97539768117362E-02 
1552	 9.98765200838715E-02 
1553	 9.99993781267153E-02 
1554	 0.100127371019212 
1555	 0.100240733449438 
1556	 0.100362959042124 
1557	 0.100500566543269 
1558	 0.100612214984929 
1559	 0.100712005844346 
1560	 0.100819004212069 
1561	 0.100917681174394 
1562	 0.101021488753371 
1563	 0.101133145760054 
1564	 0.10124052222928 
1565	 0.101344924226852 
1566	 0.101449206817137 
1567	 0.101552479950705 
1568	 0.101658521522058 
1569	 0.101774622396062 
1570	 0.101862335056567 
1571	 0.101938166453877 
1572	 0.10201699411139 
1573	 0.102071300379377 
1574	 0.102144484663686 
1575	 0.10223696539727 
1576	 0.102313886864225 
1577	 0.102380252421371 
1578	 0.102456317888516 
1579	 0.102530669987476 
1580	 0.102612736343991 
1581	 0.102710012639038 
1582	 0.102794223305186 
1583	 0.102874479396054 
1584	 0.102952565199759 
1585	 0.103025691778028 
1586	 0.103093881542503 
1587	 0.103166746719317 
1588	 0.103225734322164 
1589	 0.103261845825059 
1590	 0.103316964293745 
1591	 0.103386710427602 
1592	 0.103432981845275 
1593	 0.103464634108482 
1594	 0.103512926951168 
1595	 0.103555735353249 
1596	 0.103595141597377 
1597	 0.103657055427795 
1598	 0.10370410510763 
1599	 0.103716430050233 
1600	 0.103754731293948 
1601	 0.103809451799274 
1602	 0.103861127936036 
1603	 0.103932141516314 
1604	 0.103984909089278 
1605	 0.10402442692608 
1606	 0.104066094949573 
1607	 0.104096870453357 
1608	 0.104133761760188 
1609	 0.104172707155129 
1610	 0.104206386113608 
1611	 0.104241996747119 
1612	 0.104271456346328 
1613	 0.104304518105971 
1614	 0.104328792997931 
1615	 0.104322141255492 
1616	 0.1043370817466 
1617	 0.104369962998724 
1618	 0.104397548653578 
1619	 0.104447262332149 
1620	 0.10448794518789 
1621	 0.10451439070353 
1622	 0.104519789729013 
1623	 0.104537712339173 
1624	 0.10455141489465 
1625	 0.104577739349195 
1626	 0.10460872943773 
1627	 0.104639468114686 
1628	 0.10468328178837 
1629	 0.104708189463522 
1630	 0.104724732335635 
1631	 0.104739896931661 
1632	 0.104747052062103 
1633	 0.104756531421178 
1634	 0.10476101482145 
1635	 0.104777027937396 
1636	 0.104801076021136 
1637	 0.104809545973642 
1638	 0.104814766501073 
1639	 0.104826819148534 
1640	 0.104834098129253 
1641	 0.104838105064507 
1642	 0.104847897112352 
1643	 0.10485918980164 
1644	 0.104860483984806 
1645	 0.104867733278479 
1646	 0.104894455628468 
1647	 0.104894258108315 
1648	 0.104876706170796 
1649	 0.104863652661792 
1650	 0.104835411586748 
1651	 0.104827913821854 
1652	 0.104831082721817 
1653	 0.104827346189254 
1654	 0.104832415339493 
1655	 0.104830484845794 
1656	 0.104823895202924 
1657	 0.104811713948511 
1658	 0.104794647775647 
1659	 0.10478259866159 
1660	 0.104763061165361 
1661	 0.104751616151973 
1662	 0.104748682032152 
1663	 0.104745303603924 
1664	 0.104749693691814 
1665	 0.104737273957747 
1666	 0.10472506861025 
1667	 0.104699780607752 
1668	 0.10464612673616 
1669	 0.104618131198737 
1670	 0.104594074423961 
1671	 0.104577438452795 
1672	 0.104576693850203 
1673	 0.104569460851785 
1674	 0.104569458182345 
1675	 0.104554146400498 
1676	 0.104532609236612 
1677	 0.104509259195906 
1678	 0.104472937752701 
1679	 0.104443508921252 
1680	 0.10441617531637 
1681	 0.104389888522545 
1682	 0.104366544582696 
1683	 0.104337563799279 
1684	 0.104310776013687 
1685	 0.104275573211052 
1686	 0.104223983866281 
1687	 0.104190697946224 
1688	 0.104162218648278 
1689	 0.104135619325779 
1690	 0.104132330792964 
1691	 0.104097857642986 
1692	 0.104040293082449 
1693	 0.103999470843302 
1694	 0.103947722898485 
1695	 0.103909742123014 
1696	 0.103902186045367 
1697	 0.103856048680496 
1698	 0.103785297413166 
1699	 0.103730291325515 
1700	 0.103658539042089 
1701	 0.103610362411606 
1702	 0.103585986812342 
1703	 0.10354956437161 
1704	 0.103514139958599 
1705	 0.103476727290502 
1706	 0.103441513289128 
1707	 0.103400880559444 
1708	 0.103365434146083 
1709	 0.103307142545422 
1710	 0.103223639561582 
1711	 0.103163965203959 
1712	 0.103100885143805 
1713	 0.10304306859898 
1714	 0.103004777404871 
1715	 0.102953523320502 
1716	 0.102894692900086 
1717	 0.102833256175075 
1718	 0.102769682768032 
1719	 0.102707977233687 
1720	 0.102645336997498 
1721	 0.10257331021012 
1722	 0.102496435428466 
1723	 0.102426867940438 
1724	 0.102362025641594 
1725	 0.102271006962774 
1726	 0.102171864066187 
1727	 0.102082573105639 
1728	 0.101964946778054 
1729	 0.101874969328955 
1730	 0.10181932427962 
1731	 0.10173240594474 
1732	 0.101636190025958 
1733	 0.101542912777854 
1734	 0.101445619052258 
1735	 0.101343428068427 
1736	 0.101232324053425 
1737	 0.101135099412134 
1738	 0.101036990236554 
1739	 0.100938171748184 
1740	 0.10085688765044 
1741	 0.100755683473879 
1742	 0.100640880275854 
1743	 0.100527596502455 
1744	 0.100399276505832 
1745	 0.100301954177818 
1746	 0.100221139799221 
1747	 0.100128937879222 
1748	 0.100030086897524 
1749	 9.98973853628423E-02 
1750	 9.97760467102352E-02 
1751	 9.96670824787537E-02 
1752	 9.95455772611743E-02 
1753	 9.94118090691306E-02 
1754	 9.92851899938043E-02 
1755	 9.91687686144767E-02 
1756	 0.099051220839945 
1757	 9.89532873485283E-02 
1758	 9.88540878263073E-02 
1759	 9.87435471938343E-02 
1760	 9.86386733735762E-02 
1761	 9.85207391194839E-02 
1762	 0.098394922953267 
1763	 9.82635322699654E-02 
1764	 9.81427520844311E-02 
1765	 9.80389372020904E-02 
1766	 9.79252348506622E-02 
1767	 0.097826731839316 
1768	 9.77267819753138E-02 
1769	 9.76240001688645E-02 
1770	 0.097530807317351 
1771	 0.097424450314523 
1772	 9.73164663700952E-02 
1773	 9.72128472858523E-02 
1774	 9.71303857438957E-02 
1775	 9.70723057750447E-02 
1776	 9.70009471823937E-02 
1777	 9.69050240555857E-02 
1778	 9.68041911408139E-02 
1779	 9.67008107147375E-02 
1780	 9.66252664905053E-02 
1781	 0.0965912474088 
1782	 9.65568178025462E-02 
1783	 9.65159966740723E-02 
1784	 9.64672594117164E-02 
1785	 9.64146211683163E-02 
1786	 9.63648673759118E-02 
1787	 9.63054899432876E-02 
1788	 9.62457950352658E-02 
1789	 9.61775998390102E-02 
1790	 9.61295958848516E-02 
1791	 9.61044821346153E-02 
1792	 9.60690813420474E-02 
1793	 9.60364689762216E-02 
1794	 9.60086650706341E-02 
1795	 9.59604079527568E-02 
1796	 9.59330236746422E-02 
1797	 9.59447892303466E-02 
1798	 9.59214469105395E-02 
1799	 9.58848189810496E-02 
1800	 9.58515753550761E-02 
1801	 9.38217680862893E-02 
1802	 0.093852362791474 
1803	 9.38777591263414E-02 
1804	 9.39435527932073E-02 
1805	 9.40083203065198E-02 
1806	 9.40682573776379E-02 
1807	 9.41490980769115E-02 
1808	 9.42069388673699E-02 
1809	 9.42478870497973E-02 
1810	 9.42727034306122E-02 
1811	 9.42789247834298E-02 
1812	 9.43044113391777E-02 
1813	 9.43141956729441E-02 
1814	 9.43105430306208E-02 
1815	 0.0943005460798 
1816	 0.094274775161062 
1817	 9.42529762993165E-02 
1818	 9.42140058587791E-02 
1819	 0.094176193257071 
1820	 9.41404263083115E-02 
1821	 9.41090957616248E-02 
1822	 9.40625578646298E-02 
1823	 9.40415887802921E-02 
1824	 9.40334036932565E-02 
1825	 9.40156381089325E-02 
1826	 9.39803050215624E-02 
1827	 9.39270955203062E-02 
1828	 9.38678895768334E-02 
1829	 9.37902941015086E-02 
1830	 9.37130883402924E-02 
1831	 0.093629397323777 
1832	 9.35450200905165E-02 
1833	 9.34572819041617E-02 
1834	 9.33721367665176E-02 
1835	 0.093288627163763 
1836	 9.32173278294887E-02 
1837	 9.31482201718178E-02 
1838	 9.30609736371366E-02 
1839	 9.29691177005048E-02 
1840	 9.28770218007168E-02 
1841	 9.27668767733482E-02 
1842	 9.26540736858158E-02 
1843	 9.25489134842602E-02 
1844	 9.24274211731777E-02 
1845	 9.23035657479675E-02 
1846	 9.21752265392734E-02 
1847	 9.20407473117002E-02 
1848	 9.18988992505867E-02 
1849	 9.17245265607372E-02 
1850	 9.15328573628086E-02 
1851	 9.13160984415521E-02 
1852	 9.10797619558281E-02 
1853	 0.09083598846098 
1854	 9.05832040517709E-02 
1855	 9.02902198248776E-02 
1856	 8.99608438999926E-02 
1857	 0.08959390017754 
1858	 8.92040973043101E-02 
1859	 8.88071638473472E-02 
1860	 8.83889817480333E-02 
1861	 8.79559081281548E-02 
1862	 8.75069526029544E-02 
1863	 8.70187999366257E-02 
1864	 0.086482471973537 
1865	 8.58966933948652E-02 
1866	 8.52285089841999E-02 
1867	 8.45286166119912E-02 
1868	 8.38061979801586E-02 
1869	 8.30461711793683E-02 
1870	 8.22753532779227E-02 
1871	 8.14566009826745E-02 
1872	 8.05988948108075E-02 
1873	 7.97208421528793E-02 
1874	 7.88062990203768E-02 
1875	 7.78365179209453E-02 
1876	 7.68665600434244E-02 
1877	 7.58325807704213E-02 
1878	 7.47598401329671E-02 
1879	 7.36628918095997E-02 
1880	 7.25171938384312E-02 
1881	 7.13062332897602E-02 
1882	 7.00968267375157E-02 
1883	 6.88559556830764E-02 
1884	 6.75754422425201E-02 
1885	 6.62957470591747E-02 
1886	 6.50149501425187E-02 
1887	 6.36991053949621E-02 
1888	 6.23868888283129E-02 
1889	 6.10708764959691E-02 
1890	 5.97604545885844E-02 
1891	 5.85093986601579E-02 
1892	 0.057268221922608 
1893	 5.61007959554912E-02 
1894	 5.49957890862716E-02 
1895	 0.053929066787566 
1896	 5.28866055946437E-02 
1897	 5.19038290534808E-02 
1898	 5.09523202322397E-02 
1899	 5.00703986950143E-02 
1900	 4.92677570991665E-02 
1901	 4.85293606821839E-02 
1902	 4.78493172638723E-02 
1903	 4.72566971008555E-02 
1904	 4.66843512130794E-02 
1905	 0.046161026342498 
1906	 4.56835480563405E-02 
1907	 4.52328680100629E-02 
1908	 4.48183313238819E-02 
1909	 0.044459171873196 
1910	 4.41239806457219E-02 
1911	 4.38163447441057E-02 
1912	 4.35563392060402E-02 
1913	 4.33082527046533E-02 
1914	 4.30714919342306E-02 
1915	 4.28703919629137E-02 
1916	 4.27095102986895E-02 
1917	 4.25542420018378E-02 
1918	 4.24006119224832E-02 
1919	 4.22847438133609E-02 
1920	 4.21830256411574E-02 
1921	 4.20808584947998E-02 
1922	 4.20059999010727E-02 
1923	 4.19428727024318E-02 
1924	 4.18882958079058E-02 
1925	 4.18349839699386E-02 
1926	 4.18049589487362E-02 
1927	 4.18008213281475E-02 
1928	 4.17932736540654E-02 
1929	 4.17748420416036E-02 
1930	 4.17699309973579E-02 
1931	 4.17745165080361E-02 
1932	 4.18070069606568E-02 
1933	 4.18678251579757E-02 
1934	 4.19367244058329E-02 
1935	 4.20047254270864E-02 
1936	 0.042075203034307 
1937	 4.21453994844205E-02 
1938	 0.042212988734545 
1939	 4.22968399638902E-02 
1940	 4.23880562490768E-02 
1941	 4.24840313608083E-02 
1942	 0.042584554923765 
1943	 4.26942858221288E-02 
1944	 4.28134221170409E-02 
1945	 4.29430656187511E-02 
1946	 0.043074571868636 
1947	 4.32288770161214E-02 
1948	 4.33648664860307E-02 
1949	 4.34814979248403E-02 
1950	 4.36204297290727E-02 
1951	 4.37652180736489E-02 
1952	 4.39144728088419E-02 
1953	 4.40768677176542E-02 
1954	 4.42462414720834E-02 
1955	 4.44008096098341E-02 
1956	 4.45640081593952E-02 
1957	 4.47450059394966E-02 
1958	 0.044939103106519 
1959	 4.51333497962816E-02 
1960	 0.045353148613982 
1961	 4.55527594298339E-02 
1962	 0.045741525512074 
1963	 4.59323045480529E-02 
1964	 0.046111857800975 
1965	 0.046305406189173 
1966	 4.65064816365224E-02 
1967	 4.67078630975754E-02 
1968	 4.69061925035097E-02 
1969	 4.71038804591243E-02 
1970	 4.73085093988722E-02 
1971	 4.75073659419723E-02 
1972	 4.77220065874156E-02 
1973	 4.79554520681219E-02 
1974	 4.81844477566624E-02 
1975	 4.84200773427765E-02 
1976	 4.86453486538244E-02 
1977	 4.88975879570537E-02 
1978	 4.91340726324185E-02 
1979	 4.93614250456198E-02 
1980	 4.96077569088686E-02 
1981	 4.98351269160532E-02 
1982	 5.00423392972609E-02 
1983	 5.02600102350739E-02 
1984	 5.04702128324684E-02 
1985	 5.06944451870695E-02 
1986	 5.09305088562705E-02 
1987	 5.11631672916805E-02 
1988	 5.13955667078844E-02 
1989	 5.16428381471679E-02 
1990	 5.18902326725969E-02 
1991	 5.21180820544062E-02 
1992	 5.23585905086578E-02 
1993	 5.26038265510466E-02 
1994	 5.28498777095713E-02 
1995	 5.31085726054591E-02 
1996	 0.053348017636071 
1997	 5.35749211737207E-02 
1998	 5.38125764461572E-02 
1999	 5.40423190118676E-02 
2000	 5.42738197327235E-02 
2001	 5.45113413355047E-02 
2002	 5.47618413104869E-02 
2003	 5.49920084342873E-02 
2004	 5.52022889507244E-02 
2005	 5.54265110739149E-02 
2006	 0.05564094814613 
2007	 5.58751152753397E-02 
2008	 5.61342828054434E-02 
2009	 5.63708571127485E-02 
2010	 5.66002151827576E-02 
2011	 5.68404987500565E-02 
2012	 5.70818743894371E-02 
2013	 0.057309816648981 
2014	 5.75358965438042E-02 
2015	 5.77702320980507E-02 
2016	 5.79944649170862E-02 
2017	 5.82142208408651E-02 
2018	 5.84334094964954E-02 
2019	 0.058659222254761 
2020	 5.88827406984773E-02 
2021	 5.90951540722618E-02 
2022	 5.93169543298613E-02 
2023	 5.95563212361919E-02 
2024	 5.97802062557772E-02 
2025	 5.99923510347432E-02 
2026	 6.02086004348036E-02 
2027	 6.04247728243777E-02 
2028	 6.06378831652858E-02 
2029	 6.08444185590458E-02 
2030	 6.10468928015985E-02 
2031	 6.12562602313066E-02 
2032	 6.14632774383779E-02 
2033	 6.16679482348337E-02 
2034	 6.18797983085944E-02 
2035	 6.20835533316215E-02 
2036	 6.22808829334043E-02 
2037	 6.24741827276471E-02 
2038	 6.26567921370273E-02 
2039	 6.28517203354621E-02 
2040	 6.30579232564919E-02 
2041	 6.32412567731374E-02 
2042	 6.34347857163228E-02 
2043	 6.36460931184853E-02 
2044	 6.38355726229888E-02 
2045	 6.40045225828598E-02 
2046	 6.41940307007522E-02 
2047	 6.43909960118187E-02 
2048	 6.45790649000108E-02 
2049	 6.47695881885184E-02 
2050	 6.49632452396742E-02 
2051	 0.06515007816077 
2052	 6.53379223510202E-02 
2053	 6.55391296101654E-02 
2054	 6.57282830373313E-02 
2055	 6.58980534155893E-02 
2056	 6.60825011053315E-02 
2057	 6.62710780165323E-02 
2058	 6.64687831040371E-02 
2059	 6.66527121768127E-02 
2060	 6.68388461813934E-02 
2061	 6.70194246566626E-02 
2062	 6.71889131541637E-02 
2063	 6.73576925337696E-02 
2064	 6.75223534019307E-02 
2065	 6.76939858511511E-02 
2066	 6.78735118391533E-02 
2067	 0.068036486809962 
2068	 6.81930154885351E-02 
2069	 6.83574731344497E-02 
2070	 6.85046363663517E-02 
2071	 6.86145652143987E-02 
2072	 6.87809032300254E-02 
2073	 6.89798368976693E-02 
2074	 0.069144882931826 
2075	 6.93221501756927E-02 
2076	 6.94910025852107E-02 
2077	 6.96214093351045E-02 
2078	 6.97863325146462E-02 
2079	 6.99940093454584E-02 
2080	 0.070167070173282 
2081	 7.03401173380025E-02 
2082	 7.04940510110223E-02 
2083	 7.06137925180379E-02 
2084	 7.07459318551765E-02 
2085	 7.08757058637356E-02 
2086	 0.070993840788285 
2087	 7.11300313334693E-02 
2088	 7.12697800987692E-02 
2089	 0.071422651706633 
2090	 7.15965261089525E-02 
2091	 7.17518511621984E-02 
2092	 7.19088637336987E-02 
2093	 7.20657687864667E-02 
2094	 7.22092985271143E-02 
2095	 7.23613103853832E-02 
2096	 0.072537330188481 
2097	 7.26895301658738E-02 
2098	 7.28358409205769E-02 
2099	 7.29596082508389E-02 
2100	 7.30968897093758E-02 
2101	 7.32141530802471E-02 
2102	 7.33625316815821E-02 
2103	 7.35387750839936E-02 
2104	 7.36927071551349E-02 
2105	 7.38526895863319E-02 
2106	 7.40015314377842E-02 
2107	 7.41374491618404E-02 
2108	 7.42713554209395E-02 
2109	 0.074389623636871 
2110	 7.45300596004249E-02 
2111	 7.46763315375627E-02 
2112	 0.074821548706024 
2113	 0.074993951772838 
2114	 7.51512635842817E-02 
2115	 7.52820923336994E-02 
2116	 7.53877633508292E-02 
2117	 7.55084547034695E-02 
2118	 7.56117036600675E-02 
2119	 7.57309923894908E-02 
2120	 7.58726260774926E-02 
2121	 7.59883380575295E-02 
2122	 7.60836490332961E-02 
2123	 7.61984569143554E-02 
2124	 7.63155472767748E-02 
2125	 7.64274128757563E-02 
2126	 7.65549269063315E-02 
2127	 7.66675457908403E-02 
2128	 7.67702779873152E-02 
2129	 7.68635395028806E-02 
2130	 7.69506166657686E-02 
2131	 7.70279672277149E-02 
2132	 7.71049058222032E-02 
2133	 7.71669242773001E-02 
2134	 7.72402451470033E-02 
2135	 7.73185179281482E-02 
2136	 7.73943879886259E-02 
2137	 7.74725955007389E-02 
2138	 7.75443634878422E-02 
2139	 7.76225731660194E-02 
2140	 7.76806263235836E-02 
2141	 7.77247150402111E-02 
2142	 7.77675999466969E-02 
2143	 7.78013459830546E-02 
2144	 7.78274955045364E-02 
2145	 7.78391633250883E-02 
2146	 0.077860692650025 
2147	 7.78799262200308E-02 
2148	 7.78983231446458E-02 
2149	 0.077915040335358 
2150	 7.79448318475968E-02 
2151	 7.79532303813145E-02 
2152	 7.79432301297781E-02 
2153	 7.79445402340987E-02 
2154	 7.79516899704411E-02 
2155	 7.79400195460378E-02 
2156	 7.79223576136525E-02 
2157	 7.79005118379822E-02 
2158	 7.78599052551999E-02 
2159	 0.077825928993447 
2160	 7.77931903110328E-02 
2161	 7.77604724774065E-02 
2162	 0.077719871923601 
2163	 7.76895379042866E-02 
2164	 7.76690629837748E-02 
2165	 7.76574285950708E-02 
2166	 7.76114807983792E-02 
2167	 0.07755073956553 
2168	 7.75015517153525E-02 
2169	 7.74303667410343E-02 
2170	 7.73760310128312E-02 
2171	 7.73505771144664E-02 
2172	 7.72963184781809E-02 
2173	 7.72247469290683E-02 
2174	 7.71558276060976E-02 
2175	 7.70703660183257E-02 
2176	 0.077002734556782 
2177	 7.69413766151823E-02 
2178	 7.68815522637633E-02 
2179	 7.68382166054709E-02 
2180	 7.67846712368223E-02 
2181	 7.67392620398158E-02 
2182	 7.66695909786371E-02 
2183	 7.65798335173617E-02 
2184	 7.64912178978089E-02 
2185	 7.63969634908677E-02 
2186	 7.62811558059913E-02 
2187	 7.61843354482653E-02 
2188	 7.60929250960758E-02 
2189	 7.60067135705544E-02 
2190	 7.59223195601612E-02 
2191	 7.58456232762014E-02 
2192	 7.57751645659094E-02 
2193	 7.57142451076952E-02 
2194	 0.075654784426074 
2195	 7.56100153011899E-02 
2196	 7.55882702384852E-02 
2197	 7.55569687148461E-02 
2198	 0.075524991566207 
2199	 7.55061116583848E-02 
2200	 7.55007009642355E-02 
2201	 7.54829961214701E-02 
2202	 0.075474267288913 
2203	 7.54522546489862E-02 
2204	 7.54356979052039E-02 
2205	 7.54061159507018E-02 
2206	 0.075384803225466 
2207	 7.53650471928432E-02 
2208	 7.53628692855889E-02 
2209	 7.53643963419762E-02 
2210	 7.53716883830135E-02 
2211	 7.54075195426025E-02 
2212	 7.54210350659644E-02 
2213	 7.54196482557282E-02 
2214	 0.075427656182369 
2215	 7.54391224338364E-02 
2216	 7.54434837402282E-02 
2217	 7.54298073042605E-02 
2218	 0.075445474160215 
2219	 7.54861780599047E-02 
2220	 7.55055833463554E-02 
2221	 7.55349522015294E-02 
2222	 7.55629375379094E-02 
2223	 7.55535451188522E-02 
2224	 7.55588964302456E-02 
2225	 7.55627948149113E-02 
2226	 7.55843623809652E-02 
2227	 7.55679953415564E-02 
2228	 7.55288365010777E-02 
2229	 7.54974509447125E-02 
2230	 7.54348273572796E-02 
2231	 7.54143443014554E-02 
2232	 7.54247170965941E-02 
2233	 7.54172731588615E-02 
2234	 7.54223229155546E-02 
2235	 7.54165229666225E-02 
2236	 7.54027417545997E-02 
2237	 7.53814439325893E-02 
2238	 7.53560631394947E-02 
2239	 7.53277959101636E-02 
2240	 7.52862231209079E-02 
2241	 7.52485108880285E-02 
2242	 7.52149466744456E-02 
2243	 7.51793412983664E-02 
2244	 7.51458413767916E-02 
2245	 7.50980912608888E-02 
2246	 7.50602606387889E-02 
2247	 7.50098457066005E-02 
2248	 0.074977356838527 
2249	 7.49582658418126E-02 
2250	 7.49162064361985E-02 
2251	 7.48826509839613E-02 
2252	 7.48214362652128E-02 
2253	 7.47171136471192E-02 
2254	 7.46477577228175E-02 
2255	 7.45710503485029E-02 
2256	 7.45254533337505E-02 
2257	 7.45174420778633E-02 
2258	 7.44951660254694E-02 
2259	 7.44993189095848E-02 
2260	 7.44606217227553E-02 
2261	 7.43814004557227E-02 
2262	 7.43297130349329E-02 
2263	 0.074270473826518 
2264	 7.42215012529492E-02 
2265	 7.41939915221535E-02 
2266	 7.41592905902346E-02 
2267	 7.41343252381423E-02 
2268	 7.40864458378636E-02 
2269	 7.40300022253746E-02 
2270	 7.39712131354284E-02 
2271	 7.38856349131014E-02 
2272	 7.37775853477721E-02 
2273	 7.37199210223083E-02 
2274	 7.36754468974075E-02 
2275	 7.36225502281342E-02 
2276	 7.35865121043194E-02 
2277	 7.35446115584255E-02 
2278	 7.34998239503913E-02 
2279	 7.34440411339262E-02 
2280	 7.33893098099164E-02 
2281	 7.33327731833296E-02 
2282	 7.32589407754474E-02 
2283	 7.31889997412294E-02 
2284	 7.31438286023542E-02 
2285	 7.30674969465799E-02 
2286	 7.29490958746909E-02 
2287	 7.28624007309426E-02 
2288	 7.27799918425917E-02 
2289	 7.26933936933017E-02 
2290	 7.26164229452833E-02 
2291	 7.25514683994431E-02 
2292	 7.24892609573775E-02 
2293	 7.24230943478955E-02 
2294	 7.23777478290798E-02 
2295	 7.23158140845849E-02 
2296	 7.22371075977696E-02 
2297	 7.21567535170283E-02 
2298	 7.20843164983287E-02 
2299	 7.19874916276641E-02 
2300	 7.18988796701404E-02 
2301	 7.18201641989929E-02 
2302	 7.17603497068778E-02 
2303	 7.16825417429729E-02 
2304	 7.15894807158288E-02 
2305	 7.15106137122117E-02 
2306	 7.14250854053496E-02 
2307	 7.13411192961285E-02 
2308	 7.12384383474073E-02 
2309	 7.11262322135125E-02 
2310	 7.10097599087481E-02 
2311	 7.08628690346632E-02 
2312	 7.07330378426146E-02 
2313	 7.06275823896641E-02 
2314	 7.04969006492051E-02 
2315	 7.03166923024063E-02 
2316	 7.02154936723482E-02 
2317	 7.01582677321346E-02 
2318	 7.00670887353072E-02 
2319	 7.00344709842911E-02 
2320	 6.99540199658686E-02 
2321	 6.97972917901978E-02 
2322	 6.96948172951425E-02 
2323	 0.069609437051671 
2324	 0.06951765441583 
2325	 6.94547725234203E-02 
2326	 0.069361261653018 
2327	 6.92512102230994E-02 
2328	 6.91474530687937E-02 
2329	 6.90024991975796E-02 
2330	 6.88720644162459E-02 
2331	 6.88024858675168E-02 
2332	 6.86679282346901E-02 
2333	 6.85142709318615E-02 
2334	 6.84192023591266E-02 
2335	 0.0682705667969 
2336	 6.81490461307533E-02 
2337	 6.80750586582347E-02 
2338	 6.79291807623258E-02 
2339	 6.77837439684634E-02 
2340	 6.76614094679624E-02 
2341	 0.067517766234805 
2342	 6.74385307465347E-02 
2343	 6.73689719666621E-02 
2344	 6.72469544585913E-02 
2345	 6.71481675799771E-02 
2346	 0.067067493950766 
2347	 0.066954075722314 
2348	 6.68286256426633E-02 
2349	 6.66993993164896E-02 
2350	 6.65363430110666E-02 
2351	 6.64064189226546E-02 
2352	 6.62957340431107E-02 
2353	 6.61712185783897E-02 
2354	 6.60502734046076E-02 
2355	 6.59378244564985E-02 
2356	 6.58458032951204E-02 
2357	 6.56977588242377E-02 
2358	 6.55227346618132E-02 
2359	 0.065366689914929 
2360	 6.51642961277172E-02 
2361	 6.49762374758199E-02 
2362	 6.48061469086838E-02 
2363	 6.46703534645765E-02 
2364	 6.45568022830616E-02 
2365	 6.44223955744377E-02 
2366	 0.064322867450073 
2367	 6.42049899648123E-02 
2368	 6.40285539764385E-02 
2369	 6.38767397865509E-02 
2370	 6.37686293170187E-02 
2371	 6.36338441203424E-02 
2372	 6.34096295644652E-02 
2373	 6.32682441417207E-02 
2374	 6.31504517782741E-02 
2375	 6.30078607177317E-02 
2376	 6.29313683605223E-02 
2377	 6.28424465379842E-02 
2378	 6.26977805568356E-02 
2379	 6.25493217529603E-02 
2380	 6.23374805909232E-02 
2381	 6.21289057115347E-02 
2382	 6.20091311548557E-02 
2383	 6.18553994738194E-02 
2384	 6.17040237292197E-02 
2385	 6.16020188263137E-02 
2386	 6.14874347356802E-02 
2387	 6.13436472812252E-02 
2388	 6.11437511287998E-02 
2389	 6.09841739191401E-02 
2390	 0.060844800572216 
2391	 6.07004694471682E-02 
2392	 6.06408784665013E-02 
2393	 0.060491885458169 
2394	 6.02470502687549E-02 
2395	 0.0600498333909 
2396	 5.98418489763085E-02 
2397	 5.96183897665067E-02 
2398	 5.94295950603951E-02 
2399	 5.92009230316114E-02 
2400	 0.05895197806726 
2401	 5.88449630472625E-02 
2402	 5.87178315362728E-02 
2403	 5.85260714307345E-02 
2404	 5.83914438334167E-02 
2405	 5.82347134967923E-02 
2406	 0.058077583949507 
2407	 0.057903495602936 
2408	 0.05765128012751 
2409	 5.73857681499067E-02 
2410	 5.72217190696257E-02 
2411	 5.71303438444402E-02 
2412	 5.70337313098666E-02 
2413	 5.69376742731179E-02 
2414	 0.056751625884782 
2415	 5.64254816986844E-02 
2416	 5.61968007698707E-02 
2417	 5.60257530084517E-02 
2418	 5.58087514021446E-02 
2419	 5.55830437846699E-02 
2420	 5.54369063110454E-02 
2421	 5.52754925535042E-02 
2422	 5.51315888472111E-02 
2423	 5.51069023230923E-02 
2424	 5.49696924135351E-02 
2425	 5.47411069666475E-02 
2426	 5.46103990182572E-02 
2427	 5.45006526325832E-02 
2428	 5.43551488827082E-02 
2429	 5.42434170385038E-02 
2430	 0.054090434406854 
2431	 5.38810432698336E-02 
2432	 5.37162128869968E-02 
2433	 5.35598753433534E-02 
2434	 5.34130563846485E-02 
2435	 0.053301002453339 
2436	 5.31531466021063E-02 
2437	 5.29973134085371E-02 
2438	 5.28389483659063E-02 
2439	 0.052642880458797 
2440	 5.24268119277719E-02 
2441	 5.22222511028942E-02 
2442	 5.20426206934726E-02 
2443	 5.18403440956397E-02 
2444	 5.16443167373615E-02 
2445	 5.14861979566373E-02 
2446	 5.13358286167491E-02 
2447	 5.11799628829907E-02 
2448	 0.050984224475375 
2449	 5.07550140686197E-02 
2450	 5.05407693263911E-02 
2451	 0.050292726733132 
2452	 0.050159861084626 
2453	 5.01774213657003E-02 
2454	 5.00438376849963E-02 
2455	 4.98385052718862E-02 
2456	 0.049641051834013 
2457	 4.93848813155855E-02 
2458	 4.91983462252374E-02 
2459	 4.90322247646933E-02 
2460	 4.88555711003649E-02 
2461	 4.87393945994948E-02 
2462	 4.85229826024739E-02 
2463	 4.82438378066692E-02 
2464	 4.80748263943504E-02 
2465	 4.78306271401014E-02 
2466	 4.76520814116015E-02 
2467	 4.76693390407738E-02 
2468	 4.75758118457118E-02 
2469	 4.74415323977008E-02 
2470	 4.73594507620456E-02 
2471	 4.70980574567898E-02 
2472	 4.67761568375749E-02 
2473	 4.64888363722666E-02 
2474	 4.62843025152884E-02 
2475	 4.61994448615613E-02 
2476	 4.61595682173864E-02 
2477	 4.61428465816988E-02 
2478	 4.61926093927049E-02 
2479	 4.61250930347638E-02 
2480	 4.59358472964082E-02 
2481	 4.59055488248144E-02 
2482	 4.57711050586583E-02 
2483	 4.57246409280808E-02 
2484	 4.58930683437579E-02 
2485	 4.58214209902892E-02 
2486	 0.045671312680162 
2487	 0.045416361077917 
2488	 0.045000318194377 
2489	 4.47016183152164E-02 
2490	 4.45727667633794E-02 
2491	 4.44381910784625E-02 
2492	 4.42699876738669E-02 
2493	 0.044273650620086 
2494	 0.044163327191245 
2495	 4.39183234718483E-02 
2496	 4.37165095104431E-02 
2497	 4.34422023811808E-02 
2498	 4.32427766159951E-02 
2499	 4.32893429841555E-02 
2500	 4.36213780262496E-02 
