Wavelength	MM_3100007.asd
350	 4.28847408392108E-02 
351	 4.67546037805045E-02 
352	 0.046762533131815 
353	 4.56699103177464E-02 
354	 5.07508110781417E-02 
355	 4.67772282814251E-02 
356	 4.25298639934324E-02 
357	 4.76719179695147E-02 
358	 5.22491390430087E-02 
359	 5.05896428398601E-02 
360	 4.72771843854443E-02 
361	 5.14640087805963E-02 
362	 4.67493676851227E-02 
363	 4.48134140922397E-02 
364	 5.01884727034585E-02 
365	 5.14209222569004E-02 
366	 5.03992064977272E-02 
367	 4.92950276495951E-02 
368	 4.99666325647677E-02 
369	 5.25558273972663E-02 
370	 4.98133426761859E-02 
371	 4.62966399713904E-02 
372	 5.28150750811463E-02 
373	 5.43301524232558E-02 
374	 5.30280099662754E-02 
375	 5.23410462098467E-02 
376	 5.38683814325242E-02 
377	 5.27941836817849E-02 
378	 5.13500618152228E-02 
379	 0.052724752191824 
380	 5.50227212972514E-02 
381	 5.39928820508504E-02 
382	 0.052027703657514 
383	 0.055667415624626 
384	 5.66913327394124E-02 
385	 0.054892886351075 
386	 5.34399173769016E-02 
387	 6.02877452580946E-02 
388	 6.01631303110294E-02 
389	 0.057075219884351 
390	 5.88494885049461E-02 
391	 5.90722356258263E-02 
392	 5.96421523813279E-02 
393	 6.13736142469658E-02 
394	 6.37327806023051E-02 
395	 6.40500431468747E-02 
396	 6.36362593583739E-02 
397	 0.063660084503489 
398	 6.33785007457505E-02 
399	 6.37403301237837E-02 
400	 6.48596235315668E-02 
401	 6.62125100093978E-02 
402	 6.58516936636409E-02 
403	 6.54018077440922E-02 
404	 6.54488745801619E-02 
405	 6.53198112666924E-02 
406	 0.06519101298074 
407	 6.59986598339968E-02 
408	 6.75005607865536E-02 
409	 0.065870412253411 
410	 6.58029802565089E-02 
411	 6.75342995092604E-02 
412	 6.90979694793436E-02 
413	 0.06960821218417 
414	 6.90958939885771E-02 
415	 6.82402062372242E-02 
416	 6.83429534615764E-02 
417	 0.06851189325852 
418	 0.06880536697058 
419	 6.93082167265956E-02 
420	 6.94408629970624E-02 
421	 6.96189121682851E-02 
422	 6.98190297650977E-02 
423	 6.97471345760612E-02 
424	 6.94310799401001E-02 
425	 6.93405164710123E-02 
426	 0.069669824487306 
427	 7.01241353314863E-02 
428	 7.00355449489197E-02 
429	 6.95232670632575E-02 
430	 6.91067655985856E-02 
431	 6.97976554914168E-02 
432	 6.99548286839093E-02 
433	 6.97306986929709E-02 
434	 7.09650152869465E-02 
435	 7.07516448052496E-02 
436	 7.01319081018671E-02 
437	 7.02647767758608E-02 
438	 7.05487751735729E-02 
439	 0.070964603541583 
440	 7.13237685240475E-02 
441	 7.13981158860217E-02 
442	 7.12085668388048E-02 
443	 7.12724853674205E-02 
444	 7.16747885928455E-02 
445	 7.18115883850887E-02 
446	 0.071790219315845 
447	 7.19162153938888E-02 
448	 7.23722830432047E-02 
449	 0.072533727433156 
450	 7.27820918778407E-02 
451	 7.31809980156556E-02 
452	 7.34888784314195E-02 
453	 7.33768297687542E-02 
454	 7.33037521428722E-02 
455	 7.35583738674987E-02 
456	 7.36673158540986E-02 
457	 7.38739401336574E-02 
458	 7.40799800249086E-02 
459	 7.40948317787543E-02 
460	 7.42197663287081E-02 
461	 7.43928368149464E-02 
462	 7.45114614169157E-02 
463	 7.44547282629157E-02 
464	 7.47621214592952E-02 
465	 7.50356469786227E-02 
466	 7.49093768816826E-02 
467	 7.52856428131113E-02 
468	 0.075454491387981 
469	 0.075370176312377 
470	 7.55368418146554E-02 
471	 7.58599687715856E-02 
472	 0.076019783160432 
473	 7.59220730932383E-02 
474	 7.60810400326929E-02 
475	 7.62891777146117E-02 
476	 7.65061101951412E-02 
477	 0.076720191840365 
478	 7.66523337015323E-02 
479	 0.076641174203109 
480	 0.076818402207601 
481	 7.69573877805085E-02 
482	 7.72625168906239E-02 
483	 7.74947794427024E-02 
484	 7.74538493297745E-02 
485	 7.75793865081164E-02 
486	 7.77216920099403E-02 
487	 7.77550290191977E-02 
488	 7.76190614399899E-02 
489	 7.78232925831165E-02 
490	 7.80840085721086E-02 
491	 7.81655177619141E-02 
492	 7.83223908067303E-02 
493	 7.83050632968498E-02 
494	 7.82989643599997E-02 
495	 7.86148733964587E-02 
496	 7.88701178573688E-02 
497	 0.078924943584919 
498	 7.88648001563582E-02 
499	 7.90706394009407E-02 
500	 7.90660835159598E-02 
501	 7.90228751811366E-02 
502	 7.91984341416045E-02 
503	 7.93661686649542E-02 
504	 7.93818015628542E-02 
505	 7.93530343823093E-02 
506	 7.95876891902457E-02 
507	 7.97242095720882E-02 
508	 7.97444066432761E-02 
509	 7.97037285056525E-02 
510	 7.96328197627892E-02 
511	 7.97545955428819E-02 
512	 7.98865456689783E-02 
513	 7.97109844050606E-02 
514	 7.98424773998141E-02 
515	 7.99910261348322E-02 
516	 8.00233637083118E-02 
517	 8.02682516389505E-02 
518	 8.02922477942128E-02 
519	 8.02205642727307E-02 
520	 8.03139497781632E-02 
521	 8.05207168954711E-02 
522	 8.05875208706194E-02 
523	 8.04979921731969E-02 
524	 8.04900602290883E-02 
525	 8.05927376101629E-02 
526	 8.06343079112735E-02 
527	 8.05413748696529E-02 
528	 8.07185968720264E-02 
529	 8.08203598815941E-02 
530	 8.08350834030391E-02 
531	 8.09551425114742E-02 
532	 8.09729138590385E-02 
533	 8.10183148931393E-02 
534	 8.11346959423505E-02 
535	 8.10755395406598E-02 
536	 8.10703109584014E-02 
537	 8.11236273718003E-02 
538	 8.11638041964006E-02 
539	 8.12486334332145E-02 
540	 8.12854169707493E-02 
541	 8.12880350384243E-02 
542	 0.081427517110777 
543	 8.14230354878075E-02 
544	 8.14207738187233E-02 
545	 8.15866709641035E-02 
546	 8.16840206225266E-02 
547	 8.17112616020716E-02 
548	 8.17269240374465E-02 
549	 8.18243969956979E-02 
550	 8.18361312499561E-02 
551	 8.18490068814708E-02 
552	 8.19471660406343E-02 
553	 8.21071060825001E-02 
554	 8.21229771906726E-02 
555	 8.20907185722333E-02 
556	 8.22371293573616E-02 
557	 8.23592269612926E-02 
558	 8.24905464866358E-02 
559	 0.082627047431496 
560	 8.26426191942617E-02 
561	 8.27350540597316E-02 
562	 8.28519299953183E-02 
563	 8.28879674530701E-02 
564	 8.29772322332583E-02 
565	 8.29834784351157E-02 
566	 8.29099454443597E-02 
567	 8.29285624388723E-02 
568	 8.30551377077565E-02 
569	 8.32694840372153E-02 
570	 8.35164279586574E-02 
571	 8.36798705311508E-02 
572	 8.38465955734311E-02 
573	 8.39958788548607E-02 
574	 8.40437380026722E-02 
575	 0.084136281598493 
576	 8.42573724086581E-02 
577	 8.43638429045853E-02 
578	 8.44120427204061E-02 
579	 0.084439618405316 
580	 8.44344693619519E-02 
581	 0.084380375913951 
582	 0.084379993026458 
583	 8.43578956989687E-02 
584	 8.43269104077582E-02 
585	 8.44458535572293E-02 
586	 8.46569134344853E-02 
587	 8.48281794458184E-02 
588	 0.084880803787714 
589	 0.085075560990352 
590	 8.52472251905547E-02 
591	 8.53659767203029E-02 
592	 8.55342186968289E-02 
593	 8.56705469698087E-02 
594	 8.58154941429362E-02 
595	 8.59823260345438E-02 
596	 8.60536033014634E-02 
597	 8.60587093528487E-02 
598	 8.60378753299339E-02 
599	 8.60324922616661E-02 
600	 8.60041394516486E-02 
601	 8.59992111666785E-02 
602	 0.086028755793722 
603	 8.60199264520543E-02 
604	 8.60821776575282E-02 
605	 0.086174010004951 
606	 8.62168738037323E-02 
607	 8.62514060524701E-02 
608	 8.62854994384349E-02 
609	 8.63381641187817E-02 
610	 8.64408726121115E-02 
611	 8.65170773608669E-02 
612	 8.65500776533743E-02 
613	 8.65519045346958E-02 
614	 0.086572858368916 
615	 0.086575329724146 
616	 8.65543443825923E-02 
617	 8.65355111166996E-02 
618	 8.66289405032752E-02 
619	 8.66628865964069E-02 
620	 0.086582816400504 
621	 8.66887538878207E-02 
622	 8.67281179977012E-02 
623	 8.67042333844215E-02 
624	 8.67112285081259E-02 
625	 8.67278150498139E-02 
626	 8.67087495389409E-02 
627	 8.66769487389998E-02 
628	 8.67476921916775E-02 
629	 8.67661844227178E-02 
630	 8.67855418405113E-02 
631	 8.68657357687793E-02 
632	 8.68599722149212E-02 
633	 8.68541605170851E-02 
634	 8.68770907933357E-02 
635	 8.69043076864952E-02 
636	 0.086896494371178 
637	 8.69008214607732E-02 
638	 8.69356274717833E-02 
639	 8.69012180827816E-02 
640	 8.69329806347114E-02 
641	 8.70048073195985E-02 
642	 8.70245421018101E-02 
643	 8.70248147660704E-02 
644	 8.70621563753247E-02 
645	 8.71377827537486E-02 
646	 8.71710858311149E-02 
647	 8.71741738311972E-02 
648	 0.087157069897992 
649	 8.71459096922621E-02 
650	 8.72293483639819E-02 
651	 8.72738836870567E-02 
652	 8.72624234179499E-02 
653	 8.72826672950447E-02 
654	 8.73168118824137E-02 
655	 8.73530102720179E-02 
656	 8.73868722486819E-02 
657	 8.74316625157831E-02 
658	 8.75052900182321E-02 
659	 8.75506852137734E-02 
660	 8.75023526436339E-02 
661	 8.75224722827224E-02 
662	 8.75713809741962E-02 
663	 8.76126137448557E-02 
664	 8.76454061177449E-02 
665	 8.76397143709486E-02 
666	 8.76389552783761E-02 
667	 8.76815724864456E-02 
668	 8.76923095960126E-02 
669	 8.77050474393361E-02 
670	 8.77214142372786E-02 
671	 8.77176446934131E-02 
672	 8.77404144435474E-02 
673	 8.77993579090019E-02 
674	 8.78764678970852E-02 
675	 8.79087559279546E-02 
676	 8.79086519941471E-02 
677	 8.79217261166088E-02 
678	 8.79889519755742E-02 
679	 8.80001608276978E-02 
680	 8.79977953471748E-02 
681	 8.80124102882844E-02 
682	 8.80411519918667E-02 
683	 8.80774400437335E-02 
684	 8.81175864420548E-02 
685	 8.81568067532796E-02 
686	 0.088183551489394 
687	 8.82054015895694E-02 
688	 8.82279598926454E-02 
689	 8.82522385196959E-02 
690	 8.82451734380174E-02 
691	 8.82298166749606E-02 
692	 8.82353890459599E-02 
693	 8.82931464979003E-02 
694	 8.83116795157909E-02 
695	 8.83023508488681E-02 
696	 8.83100021995466E-02 
697	 8.83283588543106E-02 
698	 8.83399840228201E-02 
699	 8.83509741974297E-02 
700	 0.088390860404273 
701	 8.84048984844937E-02 
702	 8.84239783432427E-02 
703	 8.84618947200857E-02 
704	 8.84261821768444E-02 
705	 8.84177467224687E-02 
706	 8.84385717559473E-02 
707	 0.088440016459855 
708	 8.84212162738071E-02 
709	 0.088443470438371 
710	 8.84994044004685E-02 
711	 8.84738306243703E-02 
712	 0.08847162458868 
713	 8.84619984572263E-02 
714	 8.84141179220389E-02 
715	 8.84451154397624E-02 
716	 8.84671505637001E-02 
717	 8.84474504131005E-02 
718	 8.84040382988733E-02 
719	 8.84123225571924E-02 
720	 8.84114964683635E-02 
721	 0.088377558046892 
722	 8.84019661825192E-02 
723	 0.08837354756627 
724	 8.83415777479496E-02 
725	 0.088375652862395 
726	 8.83550912849715E-02 
727	 8.83292439467025E-02 
728	 8.83158777498928E-02 
729	 8.82966295127352E-02 
730	 8.82827063698136E-02 
731	 8.82650002125453E-02 
732	 8.82368115222843E-02 
733	 8.82044502476274E-02 
734	 8.81766453998958E-02 
735	 8.81369958923752E-02 
736	 8.80719384820841E-02 
737	 8.80537726571882E-02 
738	 8.80278150894371E-02 
739	 8.79866053322192E-02 
740	 8.79820128165138E-02 
741	 8.79560512264897E-02 
742	 0.087922682600366 
743	 0.087896202694255 
744	 8.78464778617123E-02 
745	 0.087805438911658 
746	 8.77729933033432E-02 
747	 8.77362864235499E-02 
748	 8.77135033806691E-02 
749	 8.76757283827201E-02 
750	 8.76254154739202E-02 
751	 8.76061329084858E-02 
752	 8.75628256380563E-02 
753	 8.75092272959749E-02 
754	 8.74687705333726E-02 
755	 8.74486483175016E-02 
756	 8.73960170434167E-02 
757	 8.73243577194061E-02 
758	 8.72802888406166E-02 
759	 0.08727377948556 
760	 8.72352932557143E-02 
761	 8.71531592025095E-02 
762	 8.70962707802583E-02 
763	 8.70790511821978E-02 
764	 8.70567255583322E-02 
765	 8.69986897157661E-02 
766	 8.69643931343335E-02 
767	 0.086908159540728 
768	 8.68553943838592E-02 
769	 0.086849122912985 
770	 0.086786317276127 
771	 8.67242995299523E-02 
772	 0.086692224647873 
773	 8.66675844132564E-02 
774	 8.66331687857827E-02 
775	 8.65791809116693E-02 
776	 8.65162816247405E-02 
777	 8.65089427907906E-02 
778	 8.64446956586541E-02 
779	 8.63700308069574E-02 
780	 8.63750496325299E-02 
781	 8.63192088802426E-02 
782	 8.62666758523336E-02 
783	 8.62361182658197E-02 
784	 8.61835587349023E-02 
785	 8.61305168691993E-02 
786	 8.60843555586635E-02 
787	 8.60411845856061E-02 
788	 8.59713581868741E-02 
789	 8.59454054849579E-02 
790	 8.59233991479224E-02 
791	 0.085847930434112 
792	 8.58105598174923E-02 
793	 8.57646080861825E-02 
794	 8.57091086140982E-02 
795	 8.56820526088302E-02 
796	 8.56095486141878E-02 
797	 8.55566864048821E-02 
798	 8.55500268017483E-02 
799	 0.085506101280603 
800	 8.54777333094048E-02 
801	 8.54516353746233E-02 
802	 8.54042638849979E-02 
803	 8.53497722537667E-02 
804	 8.52956870559062E-02 
805	 8.52528423431121E-02 
806	 8.52254220410783E-02 
807	 8.51504239778837E-02 
808	 8.50787222747282E-02 
809	 8.50406019093579E-02 
810	 8.50214422008184E-02 
811	 8.49849933364722E-02 
812	 8.49327958527522E-02 
813	 8.48805688749839E-02 
814	 8.48547516652565E-02 
815	 0.08482508304973 
816	 8.47763207909886E-02 
817	 8.47130428554255E-02 
818	 8.47090575228495E-02 
819	 8.46566576249557E-02 
820	 8.45584668599024E-02 
821	 8.45135648538109E-02 
822	 0.084476407618482 
823	 8.44688937370965E-02 
824	 8.44780873308357E-02 
825	 0.084422047274807 
826	 0.084360801158255 
827	 8.42982698174407E-02 
828	 8.42380373159587E-02 
829	 8.42340751820711E-02 
830	 8.42104242986188E-02 
831	 8.41633201240806E-02 
832	 0.08412465510866 
833	 8.40959410372606E-02 
834	 0.084066357094108 
835	 8.40416485275792E-02 
836	 8.40390565428236E-02 
837	 8.39984335592829E-02 
838	 8.39568913814637E-02 
839	 8.39285488025256E-02 
840	 8.38603609321558E-02 
841	 8.38056708473069E-02 
842	 8.37786557622184E-02 
843	 8.37697602850466E-02 
844	 8.37317443908746E-02 
845	 8.37262031782142E-02 
846	 8.37133725225514E-02 
847	 8.36367062075956E-02 
848	 8.36349972298977E-02 
849	 8.35961976921787E-02 
850	 8.35075342149217E-02 
851	 0.083451997171768 
852	 8.34363198128409E-02 
853	 8.34545807957152E-02 
854	 8.34733808361424E-02 
855	 8.34293723694931E-02 
856	 8.33953553745714E-02 
857	 8.33991462604296E-02 
858	 8.34164493529117E-02 
859	 8.33127662348799E-02 
860	 8.32799905927358E-02 
861	 8.32892488328142E-02 
862	 8.32536030811451E-02 
863	 8.32146141214009E-02 
864	 8.31847727023806E-02 
865	 8.31566405434076E-02 
866	 8.31186456000622E-02 
867	 0.083127804803982 
868	 8.31151002314509E-02 
869	 8.30662618693735E-02 
870	 8.30346838739343E-02 
871	 8.30467726217987E-02 
872	 8.30485702190418E-02 
873	 8.30152276421173E-02 
874	 8.29911319292947E-02 
875	 8.29671511489114E-02 
876	 8.29521937472424E-02 
877	 8.29386452684234E-02 
878	 8.28587871003509E-02 
879	 8.28519933986287E-02 
880	 0.082890816679148 
881	 0.082906774419738 
882	 8.29453361678301E-02 
883	 8.29242231443803E-02 
884	 8.28648734058435E-02 
885	 8.28394663938785E-02 
886	 8.28258595066175E-02 
887	 8.28165220502463E-02 
888	 8.28055448049002E-02 
889	 8.27868316830213E-02 
890	 8.27384403807594E-02 
891	 8.26686373870077E-02 
892	 8.26218913528097E-02 
893	 8.26692198954081E-02 
894	 8.26526330063016E-02 
895	 8.26246568839334E-02 
896	 8.26383005350422E-02 
897	 8.26696906275678E-02 
898	 8.26739413030694E-02 
899	 8.26362079949203E-02 
900	 8.25812158487998E-02 
901	 8.26095599730476E-02 
902	 0.0826171081182 
903	 8.25929171865035E-02 
904	 8.25635982131108E-02 
905	 8.25582830340507E-02 
906	 0.082591050016236 
907	 8.25914457776843E-02 
908	 0.082499482887867 
909	 8.25129480134324E-02 
910	 8.25157881063698E-02 
911	 8.24961045437151E-02 
912	 8.25084082377347E-02 
913	 0.082481431585857 
914	 8.24855966718642E-02 
915	 8.25104726482151E-02 
916	 8.24762068853414E-02 
917	 8.24519230541145E-02 
918	 8.24335068166731E-02 
919	 8.24317539658145E-02 
920	 8.24777007442311E-02 
921	 8.25125059329054E-02 
922	 8.25099866451811E-02 
923	 8.24857137618029E-02 
924	 8.24999166906486E-02 
925	 8.24423800009742E-02 
926	 8.24197100027472E-02 
927	 8.24722328212413E-02 
928	 8.24394762947686E-02 
929	 8.24049469436654E-02 
930	 8.24133723305738E-02 
931	 8.24522256476161E-02 
932	 8.24004783788821E-02 
933	 8.24202615995503E-02 
934	 8.24620309311133E-02 
935	 8.24439778636105E-02 
936	 8.23834656090302E-02 
937	 8.23088900372022E-02 
938	 8.22446014504531E-02 
939	 8.22288832040236E-02 
940	 8.23687288642788E-02 
941	 8.24087894956628E-02 
942	 8.23835264814486E-02 
943	 8.24177837953627E-02 
944	 8.24750809834893E-02 
945	 8.24831353602346E-02 
946	 8.24343753669558E-02 
947	 8.23675328331482E-02 
948	 8.23493214126669E-02 
949	 8.23887130296589E-02 
950	 8.23999227965893E-02 
951	 8.23160593672735E-02 
952	 8.24053995307977E-02 
953	 8.23482195692953E-02 
954	 8.22221893018261E-02 
955	 8.22787129350045E-02 
956	 8.23180785853868E-02 
957	 8.23317940375276E-02 
958	 8.23268908994883E-02 
959	 8.23205193983472E-02 
960	 8.23465886552366E-02 
961	 8.23161236628123E-02 
962	 8.22733361991329E-02 
963	 8.23162386924256E-02 
964	 8.22929325433051E-02 
965	 8.22786030510842E-02 
966	 8.22977807148512E-02 
967	 0.082328409220051 
968	 8.23679324780102E-02 
969	 8.23478906346644E-02 
970	 8.23103765605049E-02 
971	 8.23513202818273E-02 
972	 8.24033181852748E-02 
973	 8.23882577990888E-02 
974	 8.23383185046216E-02 
975	 8.23444325279033E-02 
976	 8.23596853407497E-02 
977	 8.24094711187867E-02 
978	 8.24248479310335E-02 
979	 8.23308450523625E-02 
980	 8.23752748223704E-02 
981	 8.23591907689723E-02 
982	 8.22848155800686E-02 
983	 0.082277995737715 
984	 8.23111755059978E-02 
985	 8.22550138997904E-02 
986	 8.21544602447699E-02 
987	 8.21388357952396E-02 
988	 8.21858750857001E-02 
989	 0.082295450121999 
990	 8.23116814732718E-02 
991	 8.21298020302995E-02 
992	 8.21953574724641E-02 
993	 8.22226207065605E-02 
994	 8.22483071061525E-02 
995	 8.23797658395952E-02 
996	 8.23452141774969E-02 
997	 8.22775894093514E-02 
998	 8.22510882895799E-02 
999	 8.22882387289053E-02 
1000	 8.23513711190016E-02 
1001	 8.08256279220247E-02 
1002	 0.080775289545721 
1003	 8.07241955328917E-02 
1004	 0.080727015909723 
1005	 8.08306376092204E-02 
1006	 8.08678581300702E-02 
1007	 8.09093998705957E-02 
1008	 8.09287279783588E-02 
1009	 8.09332186862184E-02 
1010	 0.080839645156065 
1011	 0.080806791250692 
1012	 8.08472941731855E-02 
1013	 8.08196870861358E-02 
1014	 8.07983936282301E-02 
1015	 8.08238919928367E-02 
1016	 8.08111051351789E-02 
1017	 8.08137455819836E-02 
1018	 0.080816314729173 
1019	 8.08737096326546E-02 
1020	 8.09062113765548E-02 
1021	 8.08871237429583E-02 
1022	 8.08587995346803E-02 
1023	 8.08163472809287E-02 
1024	 8.08095010683947E-02 
1025	 8.08518551150752E-02 
1026	 8.08096139048925E-02 
1027	 8.07814139639184E-02 
1028	 8.07599064287339E-02 
1029	 8.06637734110264E-02 
1030	 0.080633269575552 
1031	 8.06019195776768E-02 
1032	 8.05865366296495E-02 
1033	 8.05362041952219E-02 
1034	 8.05445449533371E-02 
1035	 8.05749298697775E-02 
1036	 8.06005063924825E-02 
1037	 8.05738460066992E-02 
1038	 8.05331732356891E-02 
1039	 8.04986559495935E-02 
1040	 8.04528308223332E-02 
1041	 8.04649766265142E-02 
1042	 8.04696206350535E-02 
1043	 8.04508703387069E-02 
1044	 8.04443592309878E-02 
1045	 0.080451670210514 
1046	 8.04257798544513E-02 
1047	 8.03771612593918E-02 
1048	 8.03714881437432E-02 
1049	 8.03589005037104E-02 
1050	 8.03413398723434E-02 
1051	 8.04061287810684E-02 
1052	 0.080434586499285 
1053	 8.04114268872224E-02 
1054	 8.04404459969476E-02 
1055	 8.04326511798048E-02 
1056	 8.04206130863317E-02 
1057	 8.04219121644233E-02 
1058	 8.04219961080891E-02 
1059	 8.04403900495418E-02 
1060	 8.04824477461927E-02 
1061	 8.05005588168581E-02 
1062	 8.05474570787252E-02 
1063	 8.05815529921798E-02 
1064	 8.05425440216519E-02 
1065	 8.05144955158835E-02 
1066	 0.080489624259424 
1067	 8.04276518041972E-02 
1068	 8.04307138945642E-02 
1069	 8.04953946050067E-02 
1070	 8.05128950287627E-02 
1071	 8.05321732005839E-02 
1072	 8.05454081483363E-02 
1073	 8.05075310298919E-02 
1074	 8.05087650618287E-02 
1075	 8.05433903040565E-02 
1076	 8.05649263637753E-02 
1077	 8.05338753122238E-02 
1078	 0.080527454617971 
1079	 8.05394510654367E-02 
1080	 8.05656409743564E-02 
1081	 8.05897759831298E-02 
1082	 0.080610977766561 
1083	 8.06014390384325E-02 
1084	 8.05109850059728E-02 
1085	 8.04774619801747E-02 
1086	 8.04655098301135E-02 
1087	 8.04650964548195E-02 
1088	 8.04869908279797E-02 
1089	 8.04862282708232E-02 
1090	 8.05031871907708E-02 
1091	 8.05173175040796E-02 
1092	 8.04596603588185E-02 
1093	 8.04319735754289E-02 
1094	 0.080411189743861 
1095	 8.03636430363915E-02 
1096	 8.03809993416254E-02 
1097	 8.04072411113438E-02 
1098	 0.080414833940772 
1099	 0.080430379720844 
1100	 0.080430789067687 
1101	 8.04033478167214E-02 
1102	 8.03966822236629E-02 
1103	 0.080401135774255 
1104	 0.080393497454166 
1105	 8.03737668399294E-02 
1106	 8.03570476224114E-02 
1107	 0.080362905216005 
1108	 8.03756059865667E-02 
1109	 8.03853380337374E-02 
1110	 8.03866145835314E-02 
1111	 8.03916796967375E-02 
1112	 8.03816176624679E-02 
1113	 8.03750885760247E-02 
1114	 8.03745613243813E-02 
1115	 8.03875205922873E-02 
1116	 8.03974597048302E-02 
1117	 8.04004826820957E-02 
1118	 8.04139300385084E-02 
1119	 8.04284215491473E-02 
1120	 8.04340232588114E-02 
1121	 8.04436177879353E-02 
1122	 0.080454547650766 
1123	 8.04723118690265E-02 
1124	 8.04990060045423E-02 
1125	 8.05353854423841E-02 
1126	 8.05505215158676E-02 
1127	 8.05770001111114E-02 
1128	 8.05824730341504E-02 
1129	 0.080539920387064 
1130	 8.05401984645118E-02 
1131	 8.05668225710853E-02 
1132	 8.05773615099688E-02 
1133	 0.080589556768422 
1134	 8.06079603083786E-02 
1135	 8.06353859227033E-02 
1136	 0.080636851274616 
1137	 8.06325579272731E-02 
1138	 0.080662511621122 
1139	 8.06712612774469E-02 
1140	 8.06701498747304E-02 
1141	 0.080657991713119 
1142	 8.06293560047384E-02 
1143	 8.06259077969985E-02 
1144	 8.06189974814495E-02 
1145	 8.06197193161972E-02 
1146	 8.06530632451014E-02 
1147	 8.06625805977861E-02 
1148	 8.06368963207207E-02 
1149	 8.06480514190311E-02 
1150	 8.06872770469518E-02 
1151	 8.07120636267737E-02 
1152	 8.07335709405758E-02 
1153	 8.07332881092475E-02 
1154	 8.07285108640626E-02 
1155	 8.06860009537859E-02 
1156	 8.06793758890418E-02 
1157	 8.06941963875308E-02 
1158	 8.06894245904375E-02 
1159	 8.06750915651081E-02 
1160	 8.06747697253408E-02 
1161	 8.06732358002143E-02 
1162	 8.06743122598462E-02 
1163	 8.06897073835884E-02 
1164	 8.06989256085953E-02 
1165	 8.06923988912377E-02 
1166	 0.08071201470804 
1167	 8.07168105132097E-02 
1168	 8.07159583580449E-02 
1169	 8.07261478456776E-02 
1170	 8.07382154980996E-02 
1171	 8.07430536498174E-02 
1172	 0.080756909743422 
1173	 0.080759578514114 
1174	 8.07312346617149E-02 
1175	 8.07442689334843E-02 
1176	 8.07888523120438E-02 
1177	 8.08090579700681E-02 
1178	 8.08435873576624E-02 
1179	 8.08626054141132E-02 
1180	 8.08544548038573E-02 
1181	 0.08085443077578 
1182	 8.08476803436914E-02 
1183	 8.08583138502225E-02 
1184	 8.08675189858824E-02 
1185	 8.08790478460495E-02 
1186	 8.08883654334054E-02 
1187	 8.09023945436402E-02 
1188	 8.09160641235701E-02 
1189	 8.09216225762617E-02 
1190	 8.09388537640834E-02 
1191	 8.09658679502837E-02 
1192	 8.09913870985919E-02 
1193	 8.10297187077603E-02 
1194	 8.10513696779459E-02 
1195	 8.10624744684997E-02 
1196	 8.10787139373851E-02 
1197	 8.10853197209744E-02 
1198	 8.10961467321796E-02 
1199	 8.11099599279056E-02 
1200	 8.11323567044418E-02 
1201	 8.11485043816221E-02 
1202	 8.11635706437596E-02 
1203	 8.11753258456257E-02 
1204	 8.11766556674161E-02 
1205	 8.11997856410439E-02 
1206	 8.12373224381883E-02 
1207	 8.12593538039209E-02 
1208	 8.12899820230762E-02 
1209	 8.13138217580824E-02 
1210	 0.081313559370597 
1211	 8.13317112490774E-02 
1212	 8.13665345984389E-02 
1213	 8.13945636439945E-02 
1214	 8.14260393169065E-02 
1215	 8.14535218212244E-02 
1216	 8.14786441076944E-02 
1217	 8.15012222572234E-02 
1218	 8.15214919169092E-02 
1219	 8.15426525767646E-02 
1220	 8.15531068475387E-02 
1221	 8.15499130203143E-02 
1222	 8.15623776091034E-02 
1223	 0.081574033676336 
1224	 8.15888248038402E-02 
1225	 8.16177418872172E-02 
1226	 8.16375758565886E-02 
1227	 8.16466517078252E-02 
1228	 8.16650408762233E-02 
1229	 8.16925896356076E-02 
1230	 8.17124519044551E-02 
1231	 8.17280162496127E-02 
1232	 8.17489743763243E-02 
1233	 8.17704642010074E-02 
1234	 8.17907946821019E-02 
1235	 8.18066837796677E-02 
1236	 8.18272373610989E-02 
1237	 8.18408534463808E-02 
1238	 8.18434180089725E-02 
1239	 8.18512426032871E-02 
1240	 8.18594070788333E-02 
1241	 8.18707015163418E-02 
1242	 8.18751926167416E-02 
1243	 8.18943609822829E-02 
1244	 8.19335842674669E-02 
1245	 8.19569211659072E-02 
1246	 0.081983323774781 
1247	 8.20025547383621E-02 
1248	 0.082015999193032 
1249	 0.082012336530049 
1250	 8.20116753230413E-02 
1251	 8.20359155139182E-02 
1252	 8.20475506175348E-02 
1253	 8.20553313957954E-02 
1254	 8.20751334904185E-02 
1255	 8.21025838987839E-02 
1256	 8.21222129887552E-02 
1257	 0.082154184398005 
1258	 8.21668383475282E-02 
1259	 8.21617032506509E-02 
1260	 8.21641433751296E-02 
1261	 8.21631581155169E-02 
1262	 8.21608389643425E-02 
1263	 8.21540395093598E-02 
1264	 8.21536510022563E-02 
1265	 0.082158794272629 
1266	 8.21569841598311E-02 
1267	 8.21512192916512E-02 
1268	 8.21536993051612E-02 
1269	 8.21572684019721E-02 
1270	 8.21500154075372E-02 
1271	 8.21659668086857E-02 
1272	 8.22029676985573E-02 
1273	 8.22241374003608E-02 
1274	 8.22474543640056E-02 
1275	 8.22721031793827E-02 
1276	 8.22885365956889E-02 
1277	 8.23175150241856E-02 
1278	 0.082353888065398 
1279	 8.23911742018231E-02 
1280	 8.24295642288849E-02 
1281	 8.24774676179518E-02 
1282	 8.25414904399019E-02 
1283	 8.25946695373296E-02 
1284	 8.26467386450367E-02 
1285	 8.27001315824406E-02 
1286	 0.082751322399808 
1287	 8.28098056280887E-02 
1288	 8.28599900595045E-02 
1289	 8.29159315663847E-02 
1290	 8.29630496694682E-02 
1291	 8.29935215457015E-02 
1292	 0.083040383295804 
1293	 8.31002737183198E-02 
1294	 8.31463869608143E-02 
1295	 8.31877940494358E-02 
1296	 0.083234516888995 
1297	 0.083287175753261 
1298	 8.33198845257125E-02 
1299	 8.33477881944539E-02 
1300	 8.33735876404982E-02 
1301	 8.33727573662612E-02 
1302	 8.33878757931824E-02 
1303	 8.34206888509313E-02 
1304	 8.34405086598992E-02 
1305	 8.34526714219404E-02 
1306	 0.083477152097681 
1307	 0.083477843433495 
1308	 8.34783841068003E-02 
1309	 8.34822698483864E-02 
1310	 0.083482039152159 
1311	 8.34812288230224E-02 
1312	 8.34794074197228E-02 
1313	 8.34853943499217E-02 
1314	 8.34897202499165E-02 
1315	 8.35029290589273E-02 
1316	 8.35412937766947E-02 
1317	 8.35494394003515E-02 
1318	 0.083541045708072 
1319	 8.35379980742492E-02 
1320	 8.35130451111447E-02 
1321	 8.35102016129699E-02 
1322	 8.35276356193992E-02 
1323	 8.35394585388155E-02 
1324	 8.35339263343459E-02 
1325	 0.08352786337702 
1326	 8.35199130437185E-02 
1327	 8.35163953027334E-02 
1328	 8.35348361952021E-02 
1329	 0.083553654347046 
1330	 8.35613852809676E-02 
1331	 8.35565259496365E-02 
1332	 8.35691495410997E-02 
1333	 8.35856233433712E-02 
1334	 8.36013729938401E-02 
1335	 8.36248208014475E-02 
1336	 8.36459023802848E-02 
1337	 8.36612377428271E-02 
1338	 8.36825111210722E-02 
1339	 0.08371056951909 
1340	 8.37388125523534E-02 
1341	 8.37702149357065E-02 
1342	 8.37978734711249E-02 
1343	 8.38237540784296E-02 
1344	 8.38534950291845E-02 
1345	 8.38852717962104E-02 
1346	 8.39036942078094E-02 
1347	 8.39194780646342E-02 
1348	 8.39379954925061E-02 
1349	 8.39654792304154E-02 
1350	 8.40052106086497E-02 
1351	 8.40370101777973E-02 
1352	 8.40761815997799E-02 
1353	 0.084115994206695 
1354	 8.41508339399317E-02 
1355	 8.41839361330895E-02 
1356	 8.42347799852958E-02 
1357	 8.42574184234789E-02 
1358	 8.42459727989654E-02 
1359	 8.42673372479731E-02 
1360	 0.084291783802538 
1361	 8.43199563680505E-02 
1362	 8.43786655859322E-02 
1363	 8.44106122731832E-02 
1364	 8.44211186554326E-02 
1365	 8.44409483684072E-02 
1366	 8.44580727748675E-02 
1367	 8.44756705076961E-02 
1368	 8.44876370955977E-02 
1369	 8.45052629548125E-02 
1370	 0.084505400422789 
1371	 8.44920951047355E-02 
1372	 8.44923973750809E-02 
1373	 8.44841022645676E-02 
1374	 0.084483937277118 
1375	 8.44914195322901E-02 
1376	 8.44969408838826E-02 
1377	 8.45085282697756E-02 
1378	 8.45049813486465E-02 
1379	 0.08449290539204 
1380	 8.44829746641974E-02 
1381	 8.44661404451883E-02 
1382	 8.44533303045958E-02 
1383	 8.44482629939338E-02 
1384	 8.44350986380689E-02 
1385	 8.44130899610929E-02 
1386	 8.43906999176397E-02 
1387	 8.43746245098602E-02 
1388	 8.43458757014698E-02 
1389	 8.43054179022389E-02 
1390	 8.42660524969677E-02 
1391	 8.42451626145018E-02 
1392	 8.41987566494756E-02 
1393	 8.41557096058779E-02 
1394	 8.41326393983338E-02 
1395	 8.40835099734263E-02 
1396	 8.40190518554994E-02 
1397	 8.39617117058584E-02 
1398	 8.39089834967632E-02 
1399	 8.38393189956667E-02 
1400	 8.37583077329015E-02 
1401	 0.08368702990521 
1402	 0.083602728615995 
1403	 8.35342324627205E-02 
1404	 8.34840723229634E-02 
1405	 8.34211706478753E-02 
1406	 8.33554603470032E-02 
1407	 8.32944209963225E-02 
1408	 8.32239384434717E-02 
1409	 8.31661592874213E-02 
1410	 8.31129239591162E-02 
1411	 8.30734665269834E-02 
1412	 8.30424233463784E-02 
1413	 8.30283158999243E-02 
1414	 8.30069658712503E-02 
1415	 8.29774254166043E-02 
1416	 8.29507341368502E-02 
1417	 8.29180762897107E-02 
1418	 8.28940999719227E-02 
1419	 8.28719045014665E-02 
1420	 8.28483454333514E-02 
1421	 8.28377234677517E-02 
1422	 0.082836511873573 
1423	 8.28487717477446E-02 
1424	 8.28594210456823E-02 
1425	 8.28794438945112E-02 
1426	 8.28858009370253E-02 
1427	 8.28845001092368E-02 
1428	 8.28994951381511E-02 
1429	 8.29136301502513E-02 
1430	 8.29324830582354E-02 
1431	 8.29706048123775E-02 
1432	 8.29883598198859E-02 
1433	 8.29934526524756E-02 
1434	 0.083007414475482 
1435	 8.30167491485563E-02 
1436	 8.30341569809826E-02 
1437	 8.30597238276395E-02 
1438	 8.30846329487643E-02 
1439	 0.083118406459266 
1440	 8.31360433926981E-02 
1441	 8.31614162747829E-02 
1442	 8.31753492114495E-02 
1443	 8.31782637832336E-02 
1444	 8.32029475471025E-02 
1445	 8.32333080648409E-02 
1446	 8.32573288105148E-02 
1447	 8.32892115164278E-02 
1448	 8.33190675958061E-02 
1449	 8.33402812102554E-02 
1450	 8.33712861656822E-02 
1451	 8.34003861417926E-02 
1452	 8.34284104461321E-02 
1453	 8.34631103132187E-02 
1454	 8.35023293669312E-02 
1455	 8.35357287806149E-02 
1456	 8.35741486092195E-02 
1457	 0.083608981152594 
1458	 8.36407990205545E-02 
1459	 0.083670556156876 
1460	 0.083697586317986 
1461	 0.08372105585218 
1462	 0.083731963673684 
1463	 8.37619169291029E-02 
1464	 8.38087530334256E-02 
1465	 8.38432217136178E-02 
1466	 8.38791382753565E-02 
1467	 8.39136050980586E-02 
1468	 8.39294057369499E-02 
1469	 8.39635332323938E-02 
1470	 8.40156101173589E-02 
1471	 8.40628109739626E-02 
1472	 8.41060941860608E-02 
1473	 8.41554260456202E-02 
1474	 8.41873641053097E-02 
1475	 8.42295165948001E-02 
1476	 8.42804889584075E-02 
1477	 8.43190592107906E-02 
1478	 8.43629990802021E-02 
1479	 8.44045730552656E-02 
1480	 0.084440154805066 
1481	 8.44857090645691E-02 
1482	 8.45255095935825E-02 
1483	 8.45660722866075E-02 
1484	 8.46062308547483E-02 
1485	 8.46415355906627E-02 
1486	 8.46795888912269E-02 
1487	 8.47202809228837E-02 
1488	 8.47594906663647E-02 
1489	 8.48010482330901E-02 
1490	 8.48390046959453E-02 
1491	 8.48739846910702E-02 
1492	 8.49129985474709E-02 
1493	 8.49499373551896E-02 
1494	 8.49871193887864E-02 
1495	 8.50278717135186E-02 
1496	 8.50688755914833E-02 
1497	 8.51136851095711E-02 
1498	 8.51497137951684E-02 
1499	 8.51811561199587E-02 
1500	 8.52128051973209E-02 
1501	 8.52360223610178E-02 
1502	 8.52646564475488E-02 
1503	 8.52949486909223E-02 
1504	 8.53303131611041E-02 
1505	 8.53707076051955E-02 
1506	 8.54094258649141E-02 
1507	 8.54536903314283E-02 
1508	 8.54944245525921E-02 
1509	 8.55256918459542E-02 
1510	 8.55505921070724E-02 
1511	 8.55723841868911E-02 
1512	 8.55956406068918E-02 
1513	 8.56242727042679E-02 
1514	 8.56558185324375E-02 
1515	 8.56806694647118E-02 
1516	 8.57116442914985E-02 
1517	 8.57404787187709E-02 
1518	 0.085761137380366 
1519	 8.57987073750009E-02 
1520	 8.58496282010659E-02 
1521	 8.58840348384377E-02 
1522	 8.59234618072224E-02 
1523	 8.59530155476456E-02 
1524	 8.59645028624809E-02 
1525	 8.59906337902114E-02 
1526	 8.60212311345292E-02 
1527	 0.086051045775155 
1528	 0.086089652975298 
1529	 8.61140354904911E-02 
1530	 0.086128521244032 
1531	 8.61517156428876E-02 
1532	 8.61731412336471E-02 
1533	 8.61930845847044E-02 
1534	 8.62139651487245E-02 
1535	 8.62390303130505E-02 
1536	 8.62663866452911E-02 
1537	 8.62845794532242E-02 
1538	 8.63002611562032E-02 
1539	 8.63243795042214E-02 
1540	 8.63433826209033E-02 
1541	 8.63643920992676E-02 
1542	 8.63992222267941E-02 
1543	 8.64261802999768E-02 
1544	 8.64402337449738E-02 
1545	 8.64638971138933E-02 
1546	 8.64888626522629E-02 
1547	 8.65283594433078E-02 
1548	 8.65593586484366E-02 
1549	 8.65680212578377E-02 
1550	 8.65636447111084E-02 
1551	 0.086556555595357 
1552	 8.65614709178867E-02 
1553	 8.65801696664628E-02 
1554	 8.66095396284176E-02 
1555	 8.66359272541146E-02 
1556	 8.66553817217535E-02 
1557	 8.66742162065781E-02 
1558	 8.66952870385935E-02 
1559	 8.67122171016481E-02 
1560	 0.086731163936341 
1561	 8.67517132319079E-02 
1562	 8.67676574004028E-02 
1563	 8.67788677416927E-02 
1564	 8.68010164176012E-02 
1565	 8.68260322154043E-02 
1566	 8.68456067811376E-02 
1567	 8.68770046475989E-02 
1568	 8.68885060811317E-02 
1569	 8.68858214187785E-02 
1570	 8.68848536751579E-02 
1571	 8.68659957653019E-02 
1572	 8.68723511328693E-02 
1573	 8.68898841989803E-02 
1574	 8.69034139415094E-02 
1575	 8.69303483013665E-02 
1576	 8.69518222394942E-02 
1577	 8.69650021767083E-02 
1578	 8.69842605218099E-02 
1579	 8.70141737789101E-02 
1580	 8.70328249376136E-02 
1581	 8.70481499431435E-02 
1582	 8.70589630952671E-02 
1583	 8.70622288710983E-02 
1584	 8.70691538704895E-02 
1585	 0.087063348721314 
1586	 8.70769564918687E-02 
1587	 8.71036532231463E-02 
1588	 8.71282148805764E-02 
1589	 8.71746420821685E-02 
1590	 8.71978541775214E-02 
1591	 8.71994481448945E-02 
1592	 8.72150238194139E-02 
1593	 8.72327131757341E-02 
1594	 8.72428170450312E-02 
1595	 8.72602693510053E-02 
1596	 8.72705874282104E-02 
1597	 8.72564531330305E-02 
1598	 8.72626865643232E-02 
1599	 8.72899890091293E-02 
1600	 8.72986709725929E-02 
1601	 8.73044718235522E-02 
1602	 8.73105643058961E-02 
1603	 8.73024242962363E-02 
1604	 8.73011307788614E-02 
1605	 8.73099757082032E-02 
1606	 8.73150971263502E-02 
1607	 8.73179683819072E-02 
1608	 8.73192931799079E-02 
1609	 8.73249968969331E-02 
1610	 8.73213173985843E-02 
1611	 0.087321550336897 
1612	 0.087328761206016 
1613	 8.73390079569434E-02 
1614	 8.73388249489684E-02 
1615	 8.73327712350447E-02 
1616	 0.087337955118264 
1617	 8.73405272006306E-02 
1618	 8.73540338928277E-02 
1619	 8.73810721258817E-02 
1620	 8.73971863863325E-02 
1621	 8.74064944216068E-02 
1622	 8.74107807627368E-02 
1623	 0.08741838675127 
1624	 8.74182998222435E-02 
1625	 8.74223535430915E-02 
1626	 8.74343538211741E-02 
1627	 8.74353509450453E-02 
1628	 0.087424487958362 
1629	 0.087430172726604 
1630	 8.74363432665354E-02 
1631	 8.74512699057053E-02 
1632	 8.74824121277045E-02 
1633	 8.75030822881413E-02 
1634	 8.75253633817213E-02 
1635	 8.75390512037665E-02 
1636	 8.75531652025423E-02 
1637	 8.75472374519836E-02 
1638	 8.75204891696945E-02 
1639	 8.75157302189222E-02 
1640	 8.75051569937644E-02 
1641	 0.087503735285565 
1642	 8.75172319155672E-02 
1643	 8.75308516457549E-02 
1644	 8.75421527000886E-02 
1645	 8.75599587207614E-02 
1646	 8.75975546078052E-02 
1647	 8.76105363164957E-02 
1648	 8.76055390097718E-02 
1649	 8.76191654471214E-02 
1650	 8.76373666308367E-02 
1651	 8.76426838133134E-02 
1652	 8.76558911672954E-02 
1653	 8.76563094912883E-02 
1654	 8.76268953293769E-02 
1655	 8.76281593440802E-02 
1656	 8.76434943410338E-02 
1657	 8.76572182666985E-02 
1658	 8.76894251289059E-02 
1659	 8.76991266682539E-02 
1660	 8.76986782567332E-02 
1661	 8.76996600924889E-02 
1662	 8.76832026824495E-02 
1663	 8.76879086710617E-02 
1664	 8.77047077801494E-02 
1665	 8.77178943164327E-02 
1666	 8.77465722529422E-02 
1667	 8.77538414942911E-02 
1668	 8.77464959432075E-02 
1669	 8.77472714125771E-02 
1670	 8.77439963935094E-02 
1671	 8.77373657666281E-02 
1672	 8.77284283382796E-02 
1673	 8.77283003148611E-02 
1674	 8.77230272192112E-02 
1675	 8.77270568748777E-02 
1676	 8.77506625192549E-02 
1677	 8.77584564640248E-02 
1678	 8.77577144133431E-02 
1679	 8.77621348354666E-02 
1680	 8.77646814836211E-02 
1681	 8.77686893737318E-02 
1682	 8.77743549900138E-02 
1683	 8.77825308154256E-02 
1684	 8.77995793273063E-02 
1685	 0.087796993529351 
1686	 8.77817759884337E-02 
1687	 8.77784350337131E-02 
1688	 8.77557780977841E-02 
1689	 8.77637114882059E-02 
1690	 8.78065134714616E-02 
1691	 8.78262549213547E-02 
1692	 8.78557493938187E-02 
1693	 8.78618897713603E-02 
1694	 8.78406459777741E-02 
1695	 8.78380725241014E-02 
1696	 8.78260756029634E-02 
1697	 8.78325230395187E-02 
1698	 8.78650016740231E-02 
1699	 0.087873762683383 
1700	 8.78765459337313E-02 
1701	 8.78855583608393E-02 
1702	 8.78876758065767E-02 
1703	 8.78898534243285E-02 
1704	 8.78991377643991E-02 
1705	 8.79016140643192E-02 
1706	 8.78985073582277E-02 
1707	 8.78903298209716E-02 
1708	 8.78748258464588E-02 
1709	 8.78716805343787E-02 
1710	 8.78640997014438E-02 
1711	 0.087864737865535 
1712	 8.78793098197424E-02 
1713	 8.78928054113366E-02 
1714	 8.79127453968129E-02 
1715	 0.087916284930964 
1716	 8.79083631846825E-02 
1717	 8.79214187422782E-02 
1718	 8.79366299659284E-02 
1719	 8.79450334608384E-02 
1720	 8.79784578385131E-02 
1721	 8.79810753634488E-02 
1722	 8.79440264653016E-02 
1723	 8.79418148712621E-02 
1724	 8.79554156445779E-02 
1725	 8.79502578317223E-02 
1726	 8.79536553483516E-02 
1727	 8.79355249372463E-02 
1728	 8.78869041583781E-02 
1729	 8.78646488867351E-02 
1730	 8.78425969865588E-02 
1731	 8.78383418048136E-02 
1732	 8.78602305597756E-02 
1733	 8.78565923099559E-02 
1734	 0.087849207096101 
1735	 8.78386790887347E-02 
1736	 8.78134263963957E-02 
1737	 8.77984711271923E-02 
1738	 8.77908427848198E-02 
1739	 8.77763296669743E-02 
1740	 8.77570664214552E-02 
1741	 8.77463086176678E-02 
1742	 8.77370577397821E-02 
1743	 8.77350983657605E-02 
1744	 8.77413362283705E-02 
1745	 8.77347020844631E-02 
1746	 8.77236792339303E-02 
1747	 8.77276614988205E-02 
1748	 8.77383697153131E-02 
1749	 8.77551004240357E-02 
1750	 8.77444167648316E-02 
1751	 0.087708175894933 
1752	 8.76670349782257E-02 
1753	 8.76256780998783E-02 
1754	 8.76023970818644E-02 
1755	 8.76133188944102E-02 
1756	 0.087612787321434 
1757	 0.087609541859811 
1758	 8.76053738081002E-02 
1759	 8.75828383808069E-02 
1760	 8.75655994289281E-02 
1761	 0.087546202165689 
1762	 8.75439146184426E-02 
1763	 8.75271107404497E-02 
1764	 8.75073035681979E-02 
1765	 8.74872167925277E-02 
1766	 8.74634930904792E-02 
1767	 8.74909276238061E-02 
1768	 8.74984516043438E-02 
1769	 8.75118743564111E-02 
1770	 8.75293025582613E-02 
1771	 0.087496065630979 
1772	 8.74808045687604E-02 
1773	 8.74590972510459E-02 
1774	 8.74310079076503E-02 
1775	 8.74231106694059E-02 
1776	 0.087397269505356 
1777	 0.087370725704231 
1778	 0.087338178427169 
1779	 0.087305932247708 
1780	 8.73056095147818E-02 
1781	 8.73234420037389E-02 
1782	 8.73590717764298E-02 
1783	 8.73770996254972E-02 
1784	 8.73781632454097E-02 
1785	 8.73691504664492E-02 
1786	 8.73538558746273E-02 
1787	 8.73107655903902E-02 
1788	 8.72957823977396E-02 
1789	 0.087279835142524 
1790	 8.72869330439368E-02 
1791	 8.73343650379749E-02 
1792	 8.73634995590612E-02 
1793	 8.74036611185053E-02 
1794	 8.74234851387114E-02 
1795	 8.74235124213632E-02 
1796	 8.74279862632651E-02 
1797	 8.74180785185984E-02 
1798	 8.74247910669283E-02 
1799	 8.74488839471879E-02 
1800	 8.74570403405746E-02 
1801	 8.35850531027459E-02 
1802	 8.35909405221325E-02 
1803	 8.36182632342478E-02 
1804	 8.36366202500097E-02 
1805	 8.36669135987827E-02 
1806	 8.36854423759467E-02 
1807	 8.37014784327776E-02 
1808	 8.37324052914707E-02 
1809	 8.37892148826436E-02 
1810	 8.38202071743289E-02 
1811	 0.083855446640989 
1812	 8.38628132801899E-02 
1813	 8.38697634810299E-02 
1814	 8.39026369322212E-02 
1815	 8.39289568482394E-02 
1816	 8.39835052704585E-02 
1817	 8.40279639938552E-02 
1818	 8.40760286981485E-02 
1819	 8.41083845906381E-02 
1820	 8.41424987597404E-02 
1821	 8.41580436418604E-02 
1822	 8.41745841319207E-02 
1823	 8.41840805757837E-02 
1824	 8.41921668161286E-02 
1825	 8.42188213787997E-02 
1826	 8.42146163876381E-02 
1827	 8.42073399402598E-02 
1828	 8.42236895211134E-02 
1829	 8.42572316889459E-02 
1830	 8.42748734284693E-02 
1831	 8.43019890391208E-02 
1832	 8.43261369853352E-02 
1833	 0.084333434486192 
1834	 8.43355056486599E-02 
1835	 8.43630801267377E-02 
1836	 8.43916490220152E-02 
1837	 8.44048886638256E-02 
1838	 8.44248120833651E-02 
1839	 8.44241919925523E-02 
1840	 8.44011610012147E-02 
1841	 8.43719866311232E-02 
1842	 8.43657815610421E-02 
1843	 8.43696906009159E-02 
1844	 8.43927246204767E-02 
1845	 8.44123753349267E-02 
1846	 8.44061518175034E-02 
1847	 8.43849259549532E-02 
1848	 8.43534692048488E-02 
1849	 8.43381183226485E-02 
1850	 8.43272925256526E-02 
1851	 0.084333664330183 
1852	 8.43313244694334E-02 
1853	 8.43259564352513E-02 
1854	 0.084310367116395 
1855	 8.43010955647385E-02 
1856	 8.43049332613688E-02 
1857	 8.42938767358645E-02 
1858	 8.42707109792425E-02 
1859	 8.42515251184241E-02 
1860	 8.42269605793533E-02 
1861	 8.41933863387133E-02 
1862	 8.41470712540115E-02 
1863	 8.40996045391546E-02 
1864	 8.40630689112819E-02 
1865	 8.40074779885125E-02 
1866	 8.39588445036386E-02 
1867	 8.39512128154881E-02 
1868	 8.38990533109306E-02 
1869	 0.083821332294599 
1870	 8.37660819269204E-02 
1871	 8.36992906799187E-02 
1872	 8.36139761804811E-02 
1873	 8.35392881713168E-02 
1874	 8.34710804511333E-02 
1875	 8.33591888117412E-02 
1876	 8.31966749326425E-02 
1877	 8.30276720429053E-02 
1878	 8.28521324336275E-02 
1879	 8.26542187798422E-02 
1880	 8.24684476171892E-02 
1881	 8.23088224789162E-02 
1882	 8.21105079645206E-02 
1883	 0.081891898440889 
1884	 0.081668134945701 
1885	 8.14407589538597E-02 
1886	 0.081179338064562 
1887	 8.09101811855111E-02 
1888	 8.06579122659086E-02 
1889	 8.03978115111457E-02 
1890	 8.01231801553716E-02 
1891	 7.98400419881336E-02 
1892	 7.95573551124929E-02 
1893	 7.92575203091686E-02 
1894	 7.89324670498537E-02 
1895	 7.86105369985661E-02 
1896	 7.83015836884348E-02 
1897	 7.79966582628898E-02 
1898	 7.76786508450793E-02 
1899	 7.73594950378029E-02 
1900	 7.70726673166335E-02 
1901	 7.67771010093785E-02 
1902	 7.64983000107946E-02 
1903	 7.62531260465539E-02 
1904	 0.076011582286802 
1905	 7.57692022208147E-02 
1906	 7.55394269287391E-02 
1907	 7.53321252972245E-02 
1908	 7.51205391605922E-02 
1909	 7.49186033180406E-02 
1910	 7.47374943671502E-02 
1911	 7.45843782979744E-02 
1912	 7.44365572587492E-02 
1913	 7.42894496854012E-02 
1914	 7.41521576539103E-02 
1915	 7.40167986808816E-02 
1916	 7.38709534511176E-02 
1917	 7.37441967274484E-02 
1918	 7.36593171093263E-02 
1919	 7.35892541452607E-02 
1920	 7.35416927910535E-02 
1921	 7.35128818450647E-02 
1922	 7.34631362823074E-02 
1923	 7.34081935698031E-02 
1924	 7.33584119133614E-02 
1925	 7.32979609561165E-02 
1926	 7.32566174256596E-02 
1927	 0.073222230149426 
1928	 7.31995224089464E-02 
1929	 7.31938352606694E-02 
1930	 0.073192377916136 
1931	 7.31920265063385E-02 
1932	 7.32007644999111E-02 
1933	 7.32091078895313E-02 
1934	 7.32360602554108E-02 
1935	 7.32658571150596E-02 
1936	 7.33115067887259E-02 
1937	 7.33459914081275E-02 
1938	 7.33867406568072E-02 
1939	 0.073416239251132 
1940	 7.34280032801757E-02 
1941	 7.34575888220851E-02 
1942	 7.34979645453304E-02 
1943	 7.35437164268304E-02 
1944	 0.073594862898402 
1945	 7.36561051045562E-02 
1946	 7.37069315044358E-02 
1947	 7.37341043410926E-02 
1948	 7.37896164900295E-02 
1949	 7.38570262750562E-02 
1950	 7.39283946111007E-02 
1951	 7.40146562528584E-02 
1952	 0.074110173446862 
1953	 7.41821284503341E-02 
1954	 7.42481174256262E-02 
1955	 7.43102125120919E-02 
1956	 7.43717252506374E-02 
1957	 7.44444971481054E-02 
1958	 7.45228946840118E-02 
1959	 0.074611132553091 
1960	 0.074704535595518 
1961	 7.48062918947625E-02 
1962	 7.49337102531115E-02 
1963	 7.50447626428283E-02 
1964	 7.51549275096473E-02 
1965	 7.52615863153608E-02 
1966	 7.53574961996073E-02 
1967	 7.54526814708512E-02 
1968	 7.55539050103416E-02 
1969	 7.56593414342853E-02 
1970	 7.57622118041545E-02 
1971	 7.58760748928456E-02 
1972	 7.59686035217818E-02 
1973	 7.60363317298681E-02 
1974	 7.61247297686347E-02 
1975	 7.62117005934891E-02 
1976	 7.63039533880549E-02 
1977	 7.64025102769692E-02 
1978	 7.65166170242761E-02 
1979	 0.076621225300121 
1980	 7.67276584717681E-02 
1981	 7.68408330822675E-02 
1982	 7.69697875549947E-02 
1983	 7.70792548873968E-02 
1984	 7.71857860288149E-02 
1985	 7.72911159262007E-02 
1986	 7.73838153798164E-02 
1987	 7.74813665127582E-02 
1988	 7.75922651758879E-02 
1989	 7.76787320595437E-02 
1990	 7.77631835932835E-02 
1991	 7.78583848526343E-02 
1992	 7.79500301172922E-02 
1993	 7.80394078337437E-02 
1994	 7.81329515855294E-02 
1995	 7.82246663768897E-02 
1996	 7.83265628298109E-02 
1997	 0.078447766769877 
1998	 7.85468741104574E-02 
1999	 7.86318036517479E-02 
2000	 7.87293043029285E-02 
2001	 7.88202739302167E-02 
2002	 7.89161812570757E-02 
2003	 7.90123945799718E-02 
2004	 7.91205112822406E-02 
2005	 7.92228779602733E-02 
2006	 7.93168315001106E-02 
2007	 7.94120778715684E-02 
2008	 7.95107084000535E-02 
2009	 7.96093100551005E-02 
2010	 7.97078360391824E-02 
2011	 7.98016990341883E-02 
2012	 7.99013554491129E-02 
2013	 7.99943553615642E-02 
2014	 8.00786320453575E-02 
2015	 0.080153614512661 
2016	 8.02421444909264E-02 
2017	 8.03299014317879E-02 
2018	 8.04214159784649E-02 
2019	 8.05175036365644E-02 
2020	 0.08061531367839 
2021	 8.07189836654582E-02 
2022	 8.08147346017336E-02 
2023	 8.09128811105227E-02 
2024	 8.10066456240027E-02 
2025	 8.10842279968741E-02 
2026	 0.081177776899201 
2027	 0.081288040527163 
2028	 8.13795723926844E-02 
2029	 8.14799650575176E-02 
2030	 8.15923196417815E-02 
2031	 8.16827258879761E-02 
2032	 8.17651721241076E-02 
2033	 8.18467442397478E-02 
2034	 8.19118015553187E-02 
2035	 8.19914803053573E-02 
2036	 8.20828175406071E-02 
2037	 8.21576485974262E-02 
2038	 8.22292844366903E-02 
2039	 8.22995535066887E-02 
2040	 8.23587860055535E-02 
2041	 8.24190462477812E-02 
2042	 8.24796314659213E-02 
2043	 8.25441611084021E-02 
2044	 8.26019791103866E-02 
2045	 0.082646213726993 
2046	 8.27098618102937E-02 
2047	 8.27817098747295E-02 
2048	 8.28510878436161E-02 
2049	 8.29350827003625E-02 
2050	 8.30068264180974E-02 
2051	 0.083079507387568 
2052	 8.31369083650488E-02 
2053	 8.31753672937105E-02 
2054	 8.32238694558649E-02 
2055	 8.32702281404136E-02 
2056	 8.33063695951342E-02 
2057	 8.33528339885016E-02 
2058	 8.34089344477732E-02 
2059	 8.34637906068391E-02 
2060	 8.35126146350647E-02 
2061	 8.35748113796336E-02 
2062	 8.36525897083932E-02 
2063	 8.37194491131252E-02 
2064	 8.37860645757605E-02 
2065	 8.38547351891726E-02 
2066	 8.39194635985036E-02 
2067	 8.39875315517376E-02 
2068	 8.40667305203594E-02 
2069	 8.41386001238862E-02 
2070	 8.41954967513009E-02 
2071	 8.42376880638157E-02 
2072	 8.42978005269691E-02 
2073	 8.43554430579829E-02 
2074	 0.084411285410753 
2075	 8.44847612230446E-02 
2076	 8.45359269595553E-02 
2077	 0.084559374616297 
2078	 8.46041878905416E-02 
2079	 8.46514988467983E-02 
2080	 8.47029236355387E-02 
2081	 8.47689810915247E-02 
2082	 8.48259680493899E-02 
2083	 8.48732373701165E-02 
2084	 8.49361013755278E-02 
2085	 8.49850355318249E-02 
2086	 8.50263485431769E-02 
2087	 8.50743231999487E-02 
2088	 8.51176875318178E-02 
2089	 8.51694142712238E-02 
2090	 8.52313346092885E-02 
2091	 8.52845695605783E-02 
2092	 8.53411744707323E-02 
2093	 8.53901538409886E-02 
2094	 8.54172192243853E-02 
2095	 8.54709421581414E-02 
2096	 0.085536364152391 
2097	 8.56005519473801E-02 
2098	 8.56954475595311E-02 
2099	 8.57670033913264E-02 
2100	 8.58242101821957E-02 
2101	 8.58612115404023E-02 
2102	 8.59137593461186E-02 
2103	 8.59603875614578E-02 
2104	 8.60062591202942E-02 
2105	 8.60575818542871E-02 
2106	 8.61077820526518E-02 
2107	 8.61497788324396E-02 
2108	 8.61949433649545E-02 
2109	 8.62432645415825E-02 
2110	 0.086295991508175 
2111	 8.63410844607824E-02 
2112	 8.63977977205515E-02 
2113	 8.64679035588695E-02 
2114	 8.65454137558255E-02 
2115	 8.66064311726987E-02 
2116	 8.66595401920159E-02 
2117	 8.67315867879432E-02 
2118	 8.68086293851241E-02 
2119	 8.68720838848999E-02 
2120	 8.69537057825941E-02 
2121	 0.087006340708919 
2122	 8.70238571772163E-02 
2123	 8.70602859897175E-02 
2124	 8.70914442959929E-02 
2125	 0.087132406281787 
2126	 8.71871280690491E-02 
2127	 8.72304977394412E-02 
2128	 8.72773894054451E-02 
2129	 8.73170201078163E-02 
2130	 8.73545788355431E-02 
2131	 8.73720729456342E-02 
2132	 8.73981445243274E-02 
2133	 8.74228727061401E-02 
2134	 8.74441663827135E-02 
2135	 8.74647444282611E-02 
2136	 8.74806986750052E-02 
2137	 8.74881972487721E-02 
2138	 8.75045585827754E-02 
2139	 8.75349532595291E-02 
2140	 0.087537665486847 
2141	 8.75310739620037E-02 
2142	 8.75211973538846E-02 
2143	 8.74831337193918E-02 
2144	 8.74581599834414E-02 
2145	 8.74508849273126E-02 
2146	 8.74278521829743E-02 
2147	 8.74029038461281E-02 
2148	 0.087362512514992 
2149	 8.73224386566137E-02 
2150	 8.72748433278449E-02 
2151	 8.72245030368601E-02 
2152	 0.087162231692112 
2153	 8.71156211406817E-02 
2154	 0.087061905953188 
2155	 8.70264356969996E-02 
2156	 8.70272921430552E-02 
2157	 8.69921222775807E-02 
2158	 0.086946529750208 
2159	 8.69013473291544E-02 
2160	 8.68303395248691E-02 
2161	 8.67744436529094E-02 
2162	 8.67368203977672E-02 
2163	 8.66875919467054E-02 
2164	 8.66377983834715E-02 
2165	 8.65763719386658E-02 
2166	 8.65222131743105E-02 
2167	 8.64634839553799E-02 
2168	 8.64111100552452E-02 
2169	 8.63729039660252E-02 
2170	 0.086309348233647 
2171	 8.62289749171228E-02 
2172	 8.61632428012605E-02 
2173	 8.60780683112404E-02 
2174	 8.60238616691009E-02 
2175	 8.60025934730268E-02 
2176	 8.59634101762667E-02 
2177	 8.59353537507197E-02 
2178	 8.58924286797842E-02 
2179	 8.58250646972682E-02 
2180	 8.57773898104367E-02 
2181	 8.57422975688899E-02 
2182	 8.56952657851601E-02 
2183	 8.56476127005684E-02 
2184	 8.55957237790639E-02 
2185	 8.55727057571495E-02 
2186	 8.55659602474189E-02 
2187	 8.55294332290022E-02 
2188	 8.55140355798517E-02 
2189	 8.54685074457627E-02 
2190	 8.53609077690069E-02 
2191	 8.53092695670493E-02 
2192	 8.52814378303483E-02 
2193	 8.52498386783864E-02 
2194	 8.52471501443894E-02 
2195	 0.085218487378506 
2196	 8.51736992904328E-02 
2197	 8.51409877844443E-02 
2198	 8.50873663367153E-02 
2199	 8.50590469150133E-02 
2200	 8.50578651666512E-02 
2201	 8.50474921120762E-02 
2202	 8.50496483436684E-02 
2203	 8.50517390755909E-02 
2204	 8.50362084394703E-02 
2205	 8.50092069436268E-02 
2206	 8.49902770941087E-02 
2207	 8.49629899823447E-02 
2208	 8.49422123629576E-02 
2209	 8.49159583918809E-02 
2210	 8.49145524058931E-02 
2211	 8.49315775951528E-02 
2212	 8.49328769502209E-02 
2213	 8.49458689962217E-02 
2214	 8.49544690640309E-02 
2215	 8.49459558969501E-02 
2216	 8.49474258075925E-02 
2217	 8.49680303161974E-02 
2218	 8.49741648912938E-02 
2219	 8.49640693564968E-02 
2220	 8.49667406706965E-02 
2221	 8.49721813230021E-02 
2222	 8.49766968538835E-02 
2223	 8.50049906083257E-02 
2224	 8.50157840617628E-02 
2225	 0.085025149708801 
2226	 0.085031828965437 
2227	 8.50383154008849E-02 
2228	 8.50300893593239E-02 
2229	 8.50457917460375E-02 
2230	 8.50749842229178E-02 
2231	 8.51025157744724E-02 
2232	 8.51454251903887E-02 
2233	 8.51755960951366E-02 
2234	 8.52012357467102E-02 
2235	 8.52214792744726E-02 
2236	 8.52400372843917E-02 
2237	 8.52536677502395E-02 
2238	 8.52560471158476E-02 
2239	 8.52676447750044E-02 
2240	 8.52785061299928E-02 
2241	 8.52876048603288E-02 
2242	 8.52974269337179E-02 
2243	 8.53099972979309E-02 
2244	 8.53344041816244E-02 
2245	 8.53448847431359E-02 
2246	 0.085313621238862 
2247	 8.53052182635888E-02 
2248	 8.53220560769604E-02 
2249	 8.53398955567047E-02 
2250	 8.53591269614592E-02 
2251	 8.54222814218227E-02 
2252	 8.54416591070619E-02 
2253	 0.085415090259852 
2254	 8.54294676646885E-02 
2255	 8.54737629364223E-02 
2256	 8.54814691629754E-02 
2257	 0.085471604463891 
2258	 8.54786039193709E-02 
2259	 8.54667771343933E-02 
2260	 0.085480642350866 
2261	 8.55289756781267E-02 
2262	 8.55618491440995E-02 
2263	 8.55800573399323E-02 
2264	 8.56174430764778E-02 
2265	 8.56835895334258E-02 
2266	 8.57206276737523E-02 
2267	 8.57568311432208E-02 
2268	 8.57854917481601E-02 
2269	 8.57825974883402E-02 
2270	 8.57855930271967E-02 
2271	 8.58122915018817E-02 
2272	 8.58720205334214E-02 
2273	 0.085912449683298 
2274	 8.59336038793549E-02 
2275	 8.59392387777399E-02 
2276	 8.59101755731936E-02 
2277	 0.085898349006619 
2278	 0.085884162483647 
2279	 8.58741135171878E-02 
2280	 8.58467947463523E-02 
2281	 8.58711887513204E-02 
2282	 8.59212656808575E-02 
2283	 8.59681608509758E-02 
2284	 8.60727215595464E-02 
2285	 8.61165817676026E-02 
2286	 8.61214278541107E-02 
2287	 0.086142074416183 
2288	 8.61505301310658E-02 
2289	 8.61542287937696E-02 
2290	 8.61422990813065E-02 
2291	 8.61587114202609E-02 
2292	 8.61729063073495E-02 
2293	 8.62065244110434E-02 
2294	 8.63102016514542E-02 
2295	 8.63539345493173E-02 
2296	 8.63819347265323E-02 
2297	 0.086363169701592 
2298	 8.63649059100111E-02 
2299	 8.63650325005233E-02 
2300	 8.63828848142761E-02 
2301	 0.086450311075683 
2302	 8.65117603405377E-02 
2303	 8.65313380482148E-02 
2304	 8.65370653215332E-02 
2305	 8.65462671973666E-02 
2306	 0.086528453012352 
2307	 8.64661187231765E-02 
2308	 8.64387035846288E-02 
2309	 8.64051517679949E-02 
2310	 0.086400525028649 
2311	 8.64224170378293E-02 
2312	 0.086433067818017 
2313	 0.086457692250646 
2314	 8.64692151779079E-02 
2315	 8.64626268068597E-02 
2316	 8.64789191811607E-02 
2317	 8.65202769955909E-02 
2318	 8.65401313890749E-02 
2319	 8.65535819697804E-02 
2320	 0.086570323895596 
2321	 8.65780840387147E-02 
2322	 8.65834028742841E-02 
2323	 8.65928638436186E-02 
2324	 8.66066407680419E-02 
2325	 8.66117593439645E-02 
2326	 8.66157867461502E-02 
2327	 8.66214517027589E-02 
2328	 8.66421690955346E-02 
2329	 8.66238069625175E-02 
2330	 8.66231016250811E-02 
2331	 8.66780943954054E-02 
2332	 8.66750212348623E-02 
2333	 8.66851707237019E-02 
2334	 8.67327056375872E-02 
2335	 8.67005688106091E-02 
2336	 8.67021103463817E-02 
2337	 8.67638209088733E-02 
2338	 8.67825831734885E-02 
2339	 0.08680892651902 
2340	 8.68390640291427E-02 
2341	 8.68235999769313E-02 
2342	 8.68355253686639E-02 
2343	 8.68477702974895E-02 
2344	 8.68428393331565E-02 
2345	 8.68441163946718E-02 
2346	 8.68509592799537E-02 
2347	 8.68264259699173E-02 
2348	 8.67900010352959E-02 
2349	 0.086748985830913 
2350	 8.66683978080433E-02 
2351	 8.66412219388591E-02 
2352	 8.66285958348935E-02 
2353	 8.66302583857378E-02 
2354	 8.66846485430502E-02 
2355	 8.66985814746108E-02 
2356	 8.66753740526256E-02 
2357	 8.66892437250307E-02 
2358	 8.67273648887823E-02 
2359	 0.086735443931524 
2360	 8.67987774379996E-02 
2361	 8.67759985249082E-02 
2362	 8.66271141461764E-02 
2363	 8.65778471741811E-02 
2364	 8.65203361003229E-02 
2365	 8.65044437054166E-02 
2366	 8.66087556029392E-02 
2367	 0.086622900873654 
2368	 8.65874541212668E-02 
2369	 8.65601253161643E-02 
2370	 8.64901411938866E-02 
2371	 8.64623694081976E-02 
2372	 8.64945290970074E-02 
2373	 8.64705420294094E-02 
2374	 8.64479301703316E-02 
2375	 8.64201985250496E-02 
2376	 0.086355930828643 
2377	 8.64062738837452E-02 
2378	 8.64498514992059E-02 
2379	 8.64242105508698E-02 
2380	 8.64333778822586E-02 
2381	 8.64006305805943E-02 
2382	 8.63226687036163E-02 
2383	 8.63009823538793E-02 
2384	 8.62813827364808E-02 
2385	 8.62203079132439E-02 
2386	 8.62461034273873E-02 
2387	 8.62673610333907E-02 
2388	 8.61930832681776E-02 
2389	 8.61281352176054E-02 
2390	 8.60684937611133E-02 
2391	 8.60245878199191E-02 
2392	 8.60047868218049E-02 
2393	 8.59709444476825E-02 
2394	 8.59305707888772E-02 
2395	 8.59201551669367E-02 
2396	 0.085948074053606 
2397	 8.58933635884933E-02 
2398	 8.57416410738022E-02 
2399	 8.56930174155756E-02 
2400	 8.56575705080462E-02 
2401	 8.55963993774371E-02 
2402	 8.56850635252606E-02 
2403	 8.57175216997327E-02 
2404	 8.56414742941658E-02 
2405	 8.56639348933836E-02 
2406	 0.085643097424166 
2407	 8.55276906103479E-02 
2408	 8.54824183506009E-02 
2409	 8.54588217292618E-02 
2410	 8.54141883442125E-02 
2411	 8.53655329716161E-02 
2412	 8.53653599358786E-02 
2413	 8.53449814072937E-02 
2414	 8.52253186038259E-02 
2415	 8.51521928903291E-02 
2416	 8.51046743540409E-02 
2417	 8.50260595763426E-02 
2418	 8.49777575487147E-02 
2419	 8.50090518739138E-02 
2420	 8.49453310375551E-02 
2421	 8.48431273394716E-02 
2422	 8.47632263012068E-02 
2423	 8.46052053193333E-02 
2424	 8.46253712996232E-02 
2425	 0.084745762352669 
2426	 8.47679189691782E-02 
2427	 8.49184292575688E-02 
2428	 8.49409614403524E-02 
2429	 8.48074552292682E-02 
2430	 8.47001249029434E-02 
2431	 8.45412317604956E-02 
2432	 8.44770934240674E-02 
2433	 8.44334604993007E-02 
2434	 8.44082639384685E-02 
2435	 8.44876281649273E-02 
2436	 8.44490116112188E-02 
2437	 8.43357743410534E-02 
2438	 8.42957045109431E-02 
2439	 8.42553933922805E-02 
2440	 8.41832099882266E-02 
2441	 8.41360134804799E-02 
2442	 8.40622279967937E-02 
2443	 8.39144886569606E-02 
2444	 8.38218174186298E-02 
2445	 8.38108111320248E-02 
2446	 8.37274553219615E-02 
2447	 8.35941490480576E-02 
2448	 8.35140162578156E-02 
2449	 8.33855849803875E-02 
2450	 8.33219626951482E-02 
2451	 8.33347948107285E-02 
2452	 8.33357394863194E-02 
2453	 8.33795797575198E-02 
2454	 8.33503930940398E-02 
2455	 0.083314644343102 
2456	 8.31816312098975E-02 
2457	 8.29279250185802E-02 
2458	 8.28275538383053E-02 
2459	 8.27276713008178E-02 
2460	 8.27235463294966E-02 
2461	 8.28673241727437E-02 
2462	 8.29141778180765E-02 
2463	 0.082943571058525 
2464	 0.082932817169774 
2465	 8.29572997606674E-02 
2466	 8.28804380806805E-02 
2467	 8.26826480451876E-02 
2468	 8.26218326243575E-02 
2469	 8.25377775700875E-02 
2470	 8.24499301671857E-02 
2471	 8.23301109023289E-02 
2472	 8.22461954278398E-02 
2473	 8.21650215755993E-02 
2474	 8.20195387268459E-02 
2475	 0.082053079788937 
2476	 8.18860037126842E-02 
2477	 8.17616451799699E-02 
2478	 8.18965951001242E-02 
2479	 8.18980614101754E-02 
2480	 8.19221615777759E-02 
2481	 8.18404537534558E-02 
2482	 8.16959316063454E-02 
2483	 8.16621649773013E-02 
2484	 8.15854147218786E-02 
2485	 8.16510958013945E-02 
2486	 8.18287653129275E-02 
2487	 8.17881544194697E-02 
2488	 8.15602556244107E-02 
2489	 8.13561780036924E-02 
2490	 8.11507222582933E-02 
2491	 8.10184724320358E-02 
2492	 8.11605438973003E-02 
2493	 8.13724272020244E-02 
2494	 8.13957825065353E-02 
2495	 8.13979719207742E-02 
2496	 8.14080757279217E-02 
2497	 8.12812284385486E-02 
2498	 8.11868873991883E-02 
2499	 8.11713602086411E-02 
2500	 8.11041867431291E-02 
