Wavelength	MM_3200000.asd
350	 3.72499684671486E-02 
351	 4.03874301329962E-02 
352	 3.90966059816504E-02 
353	 0.032285767042707 
354	 2.93696996364585E-02 
355	 3.11250008566499E-02 
356	 3.40452159680499E-02 
357	 3.45028376529162E-02 
358	 3.29685609280702E-02 
359	 3.31851698243578E-02 
360	 3.33859282183653E-02 
361	 2.95086816449458E-02 
362	 3.40857433045938E-02 
363	 0.035594354185586 
364	 2.94522755603227E-02 
365	 2.56384513922983E-02 
366	 2.75408732420172E-02 
367	 3.12613008180761E-02 
368	 3.24575754194278E-02 
369	 3.57042534535955E-02 
370	 3.11601953786707E-02 
371	 2.51230717209504E-02 
372	 3.27021474728946E-02 
373	 0.036683833933564 
374	 3.61732317276508E-02 
375	 3.39498035372193E-02 
376	 3.49717486365939E-02 
377	 3.50943926731939E-02 
378	 3.60337413719245E-02 
379	 3.94388056390838E-02 
380	 3.97431915209491E-02 
381	 3.84405301163021E-02 
382	 3.75225106018275E-02 
383	 3.88232782121205E-02 
384	 3.99579937276463E-02 
385	 3.89253135181114E-02 
386	 3.65102982344677E-02 
387	 3.85198488358021E-02 
388	 4.10450053805685E-02 
389	 4.20476951989253E-02 
390	 4.08338967988577E-02 
391	 3.99034313832736E-02 
392	 3.98813120594738E-02 
393	 4.16961249316432E-02 
394	 4.61138326724104E-02 
395	 4.55154012402701E-02 
396	 4.45034629586917E-02 
397	 4.62759052201507E-02 
398	 4.65477438937847E-02 
399	 4.76241256404039E-02 
400	 4.84518694942651E-02 
401	 0.047503871920129 
402	 4.73242440335624E-02 
403	 4.79570941748204E-02 
404	 4.87213263563925E-02 
405	 4.84805208361533E-02 
406	 0.048993649903538 
407	 0.049936094422256 
408	 5.03946458209427E-02 
409	 0.048781158883764 
410	 4.86437612632312E-02 
411	 4.97369248034416E-02 
412	 5.02407146404194E-02 
413	 5.14508573170389E-02 
414	 5.20132300704365E-02 
415	 0.051879017985421 
416	 5.29157797632894E-02 
417	 5.23951905181188E-02 
418	 5.17442821894081E-02 
419	 5.24590930248839E-02 
420	 5.27980495749846E-02 
421	 5.28817141911589E-02 
422	 5.30674598665954E-02 
423	 5.37529993553741E-02 
424	 5.42324039652161E-02 
425	 5.42205011091977E-02 
426	 5.40437744705778E-02 
427	 5.51202016395193E-02 
428	 5.52076595513421E-02 
429	 5.48037340035349E-02 
430	 5.50065291139505E-02 
431	 5.50605197423499E-02 
432	 5.53260363914388E-02 
433	 5.57986726751801E-02 
434	 5.60961783536626E-02 
435	 0.056322574141268 
436	 0.056409761077362 
437	 5.63894578932357E-02 
438	 5.66222856955942E-02 
439	 5.68115619692061E-02 
440	 5.70482527413112E-02 
441	 5.75272646480291E-02 
442	 5.76096626736658E-02 
443	 5.77676348827143E-02 
444	 5.81186371212618E-02 
445	 5.80878757798934E-02 
446	 5.79570501142742E-02 
447	 5.81553819992484E-02 
448	 5.88073000659214E-02 
449	 5.85419129683252E-02 
450	 5.87579420852886E-02 
451	 5.94666128458919E-02 
452	 5.94846991691126E-02 
453	 0.059182764234744 
454	 5.90093768087045E-02 
455	 5.92140784124223E-02 
456	 5.95691938693967E-02 
457	 5.97573121287004E-02 
458	 5.97725271058561E-02 
459	 5.97734904827756E-02 
460	 5.98409827590292E-02 
461	 5.98397037417113E-02 
462	 5.98412699199839E-02 
463	 6.02349193287995E-02 
464	 6.06273845765198E-02 
465	 6.08518612319818E-02 
466	 6.08537173457629E-02 
467	 6.06641679783188E-02 
468	 6.09710773532313E-02 
469	 0.061472117642425 
470	 6.11629393350337E-02 
471	 6.13625657717736E-02 
472	 6.15699170473707E-02 
473	 6.14172069620916E-02 
474	 6.15833515292236E-02 
475	 6.17202212288412E-02 
476	 6.17795232535186E-02 
477	 6.18430874311698E-02 
478	 0.061994660584644 
479	 6.20660462652737E-02 
480	 6.20393470742337E-02 
481	 6.21245008485147E-02 
482	 6.24669227097922E-02 
483	 6.27198989661398E-02 
484	 6.26108486046938E-02 
485	 6.27648629382296E-02 
486	 6.27772938041123E-02 
487	 6.27044396012676E-02 
488	 6.29560829535845E-02 
489	 6.28418247135481E-02 
490	 6.28000187072168E-02 
491	 6.31271510284582E-02 
492	 6.33308182098355E-02 
493	 6.32401182201734E-02 
494	 0.063129284917456 
495	 6.34048726047116E-02 
496	 6.36041311073641E-02 
497	 6.36459376639742E-02 
498	 6.36470823119884E-02 
499	 6.39707566472147E-02 
500	 6.39454315376742E-02 
501	 6.38710549561045E-02 
502	 6.41297832212343E-02 
503	 6.41282213333472E-02 
504	 6.40583397529229E-02 
505	 0.06406310509777 
506	 6.42044827732344E-02 
507	 0.064326483432026 
508	 6.44321452679559E-02 
509	 0.064530072482535 
510	 6.45542598054135E-02 
511	 6.45200935111285E-02 
512	 6.44563724727764E-02 
513	 6.44181713201575E-02 
514	 6.46264549809029E-02 
515	 6.47404214796825E-02 
516	 6.46704518351388E-02 
517	 6.48716196119739E-02 
518	 6.48831232600166E-02 
519	 6.48185020036165E-02 
520	 6.49093256248289E-02 
521	 6.49646704021165E-02 
522	 6.50006649944775E-02 
523	 6.50309757786025E-02 
524	 6.50549656420286E-02 
525	 0.065045030208542 
526	 6.50190091303767E-02 
527	 6.50161454790383E-02 
528	 6.51188783935582E-02 
529	 6.51691495324713E-02 
530	 6.51936034114595E-02 
531	 6.53231550390609E-02 
532	 6.53686865566571E-02 
533	 6.53959969378502E-02 
534	 6.54467954495136E-02 
535	 6.54270172845099E-02 
536	 6.54455748726243E-02 
537	 6.55159696643841E-02 
538	 6.56012852872125E-02 
539	 0.065614565315361 
540	 6.56002737624182E-02 
541	 6.56127132483485E-02 
542	 6.57056738048091E-02 
543	 0.06573049783209 
544	 6.57721922035526E-02 
545	 6.59080225783818E-02 
546	 0.065921293039549 
547	 6.58603649171877E-02 
548	 6.58213358671503E-02 
549	 6.59226197149101E-02 
550	 6.60591220138061E-02 
551	 6.61005542608192E-02 
552	 6.60158390397157E-02 
553	 6.60216769294568E-02 
554	 6.60895145708756E-02 
555	 6.61908119823376E-02 
556	 0.066288832281724 
557	 6.63375421707277E-02 
558	 6.63757180419601E-02 
559	 6.64348441050404E-02 
560	 6.65186265055625E-02 
561	 6.65749602047094E-02 
562	 6.66299258178116E-02 
563	 6.67191321987324E-02 
564	 6.67729332064061E-02 
565	 6.67745845151705E-02 
566	 6.67620335440414E-02 
567	 6.68271653177834E-02 
568	 6.68971024913266E-02 
569	 6.70179707114907E-02 
570	 6.71994003703188E-02 
571	 6.72357131804436E-02 
572	 6.72835628218559E-02 
573	 6.73843371889535E-02 
574	 6.74906593337188E-02 
575	 6.75538073420013E-02 
576	 6.76512289158071E-02 
577	 6.77879442616339E-02 
578	 6.77488978930125E-02 
579	 0.067771350004586 
580	 6.78494421957021E-02 
581	 6.78817694555496E-02 
582	 6.78836816183809E-02 
583	 6.79096710126686E-02 
584	 6.79723587673339E-02 
585	 6.80201836891753E-02 
586	 0.068098538053484 
587	 6.81596000129486E-02 
588	 6.81744636914813E-02 
589	 6.83210206702661E-02 
590	 0.068428754540984 
591	 6.84818130354174E-02 
592	 6.86095390437617E-02 
593	 6.86923626159737E-02 
594	 6.87992435976985E-02 
595	 6.89537832004574E-02 
596	 0.068955115295681 
597	 6.89686756001785E-02 
598	 6.90079436998559E-02 
599	 6.90128611724314E-02 
600	 6.90471554986192E-02 
601	 0.069106714507839 
602	 6.91576775018759E-02 
603	 6.91188002427431E-02 
604	 6.91541840555575E-02 
605	 0.069236439479201 
606	 6.92819126127495E-02 
607	 6.93188555476521E-02 
608	 6.93304303391109E-02 
609	 6.93489093358811E-02 
610	 6.94606715447411E-02 
611	 6.94841240083474E-02 
612	 6.94842077397406E-02 
613	 6.95335721217135E-02 
614	 6.95117021767503E-02 
615	 6.94994705801687E-02 
616	 6.95252313382728E-02 
617	 6.95756357682633E-02 
618	 6.96234428161847E-02 
619	 6.96374078686129E-02 
620	 6.96115844497786E-02 
621	 6.95802305073039E-02 
622	 6.96386761414729E-02 
623	 6.97095694683691E-02 
624	 6.96747444913182E-02 
625	 6.96860137475498E-02 
626	 6.96980584410305E-02 
627	 6.96960194447952E-02 
628	 0.069725268855565 
629	 6.97695733871173E-02 
630	 0.069806988607237 
631	 0.06981703555245 
632	 6.97863181691944E-02 
633	 6.97929012698342E-02 
634	 6.98322643664878E-02 
635	 0.06983551522615 
636	 6.98770929254539E-02 
637	 6.98803595805571E-02 
638	 6.98209823269477E-02 
639	 6.98617180170783E-02 
640	 6.99406782784247E-02 
641	 6.99970263663658E-02 
642	 6.99884474231925E-02 
643	 7.00419212173201E-02 
644	 7.00950560800237E-02 
645	 0.070106644389566 
646	 7.00907052838758E-02 
647	 7.01301099344743E-02 
648	 7.01537331308291E-02 
649	 0.070097053165586 
650	 7.01269319422482E-02 
651	 7.01769344471293E-02 
652	 7.02163100429504E-02 
653	 7.02507182453372E-02 
654	 7.02691079176229E-02 
655	 7.02574276241505E-02 
656	 7.02315130546907E-02 
657	 7.02820855572241E-02 
658	 7.03572800766942E-02 
659	 7.03972187205555E-02 
660	 7.03611052603152E-02 
661	 0.07039276313926 
662	 0.070421542896604 
663	 7.04335093903521E-02 
664	 7.05303113246278E-02 
665	 7.05420947327002E-02 
666	 7.05125632134157E-02 
667	 7.05232870428013E-02 
668	 7.05301077829083E-02 
669	 7.05589489165493E-02 
670	 7.05895142508169E-02 
671	 7.05713920661342E-02 
672	 7.06369218910512E-02 
673	 7.06866578077577E-02 
674	 7.06655415754558E-02 
675	 7.07265583578909E-02 
676	 7.07320148426427E-02 
677	 7.07102375374801E-02 
678	 7.07450862889931E-02 
679	 0.070765333930731 
680	 0.070784061183608 
681	 7.08036629299495E-02 
682	 7.08036403409398E-02 
683	 0.070826511925701 
684	 0.070856004097916 
685	 7.08766967105065E-02 
686	 7.09408015692594E-02 
687	 7.09788483887418E-02 
688	 7.09854141763162E-02 
689	 7.09997002063677E-02 
690	 7.09915621257555E-02 
691	 7.09920941674717E-02 
692	 7.10180094004238E-02 
693	 0.071042452973177 
694	 7.10663504235837E-02 
695	 0.07107559137274 
696	 7.10639797543217E-02 
697	 0.071090833442774 
698	 7.11158045059586E-02 
699	 7.11323278917751E-02 
700	 7.11738574573537E-02 
701	 7.12010071749254E-02 
702	 7.12101227551304E-02 
703	 7.12084618178493E-02 
704	 7.12065193049321E-02 
705	 7.12292696795741E-02 
706	 0.071259300231553 
707	 7.12602763528982E-02 
708	 7.12454285996085E-02 
709	 7.12449774036469E-02 
710	 0.071266868985361 
711	 0.071285318982199 
712	 7.12907031645079E-02 
713	 7.12819529714432E-02 
714	 7.12715150583526E-02 
715	 7.13098122857629E-02 
716	 7.13351421336034E-02 
717	 0.071324586515705 
718	 7.12913650924888E-02 
719	 7.12874646610483E-02 
720	 7.13161892723187E-02 
721	 7.13521239726622E-02 
722	 7.13290691206097E-02 
723	 7.13231877074498E-02 
724	 7.13354696591238E-02 
725	 7.13384720353536E-02 
726	 7.12965210465327E-02 
727	 7.13101516074881E-02 
728	 7.13654320969484E-02 
729	 7.13436128984263E-02 
730	 7.13264807083621E-02 
731	 7.13110344982756E-02 
732	 7.12930919944902E-02 
733	 7.13038032545981E-02 
734	 7.13083907598153E-02 
735	 7.12983751276624E-02 
736	 7.12798388070768E-02 
737	 7.12745946728782E-02 
738	 7.12540272307073E-02 
739	 7.12242850239983E-02 
740	 7.12312052948732E-02 
741	 7.12378471636999E-02 
742	 7.12179339376101E-02 
743	 7.11707955585936E-02 
744	 7.11561451749123E-02 
745	 7.11442015832508E-02 
746	 0.071126569705767 
747	 7.11071065943358E-02 
748	 7.11034913563816E-02 
749	 7.10963933727185E-02 
750	 7.10724784071111E-02 
751	 7.10305196006969E-02 
752	 7.10070233969367E-02 
753	 7.10015173009199E-02 
754	 7.10001390958297E-02 
755	 7.09788126440304E-02 
756	 7.09663487889325E-02 
757	 7.09646301781234E-02 
758	 7.09585961887467E-02 
759	 7.09251232620231E-02 
760	 7.08772495713284E-02 
761	 7.08370723954988E-02 
762	 7.08315740936827E-02 
763	 7.08256850957855E-02 
764	 7.08165845125415E-02 
765	 7.08064848903154E-02 
766	 7.07914345788911E-02 
767	 7.07413046972575E-02 
768	 7.06950019537583E-02 
769	 7.07069492374978E-02 
770	 7.06706961642172E-02 
771	 7.06371003593931E-02 
772	 7.06314370349269E-02 
773	 7.06310529161936E-02 
774	 7.06246043655494E-02 
775	 7.05989678430727E-02 
776	 7.05533471351207E-02 
777	 7.05148138650268E-02 
778	 7.04910150134265E-02 
779	 7.04823920245782E-02 
780	 7.04795689721623E-02 
781	 7.04437968367893E-02 
782	 7.04291658725923E-02 
783	 7.04284249977287E-02 
784	 7.03674610554803E-02 
785	 7.03299066917294E-02 
786	 7.02999850924807E-02 
787	 7.02622172148172E-02 
788	 7.02501991700032E-02 
789	 0.070243739914608 
790	 7.02248664514869E-02 
791	 0.070183217592127 
792	 7.01421600887015E-02 
793	 7.01047329113633E-02 
794	 7.00831330806485E-02 
795	 7.00921731457915E-02 
796	 7.00688868221917E-02 
797	 7.00388227421683E-02 
798	 7.00225653951164E-02 
799	 7.00057207535604E-02 
800	 6.99610009912271E-02 
801	 6.99118640928793E-02 
802	 6.98901873823002E-02 
803	 6.98930646103049E-02 
804	 6.98971409432141E-02 
805	 6.98867607618001E-02 
806	 6.98542369366062E-02 
807	 6.98009249502137E-02 
808	 6.97524312872777E-02 
809	 6.97213866587278E-02 
810	 6.97001419025904E-02 
811	 6.97261778379122E-02 
812	 6.97266914832921E-02 
813	 6.96600377350839E-02 
814	 6.96334283639322E-02 
815	 6.96025033825699E-02 
816	 6.95784662434145E-02 
817	 6.95835737524819E-02 
818	 0.069581779368466 
819	 6.95793662912491E-02 
820	 6.95566848266632E-02 
821	 6.94825467219111E-02 
822	 6.94761436813691E-02 
823	 6.94774554148026E-02 
824	 6.94464235816513E-02 
825	 6.94218280171861E-02 
826	 6.94135357838185E-02 
827	 6.93960724540251E-02 
828	 6.93564298904877E-02 
829	 6.93568640156675E-02 
830	 6.93474352745953E-02 
831	 6.93201143441542E-02 
832	 6.92915822910889E-02 
833	 6.92853553039806E-02 
834	 6.92905797913794E-02 
835	 6.92833304403701E-02 
836	 6.92386727417507E-02 
837	 6.92480650990397E-02 
838	 6.92446173036386E-02 
839	 6.91957904388266E-02 
840	 6.91718535234847E-02 
841	 6.91364487918626E-02 
842	 0.069118433690195 
843	 6.91336906082314E-02 
844	 6.90999557306129E-02 
845	 6.91190659395185E-02 
846	 6.91422559297623E-02 
847	 6.90865904660097E-02 
848	 6.91143438543257E-02 
849	 6.90841433656729E-02 
850	 6.90038557568034E-02 
851	 6.90103995075721E-02 
852	 6.90273667538969E-02 
853	 6.90383793014648E-02 
854	 6.90342146920713E-02 
855	 6.90065968475869E-02 
856	 6.90094224690812E-02 
857	 6.90558006445228E-02 
858	 6.91096216830845E-02 
859	 6.90361481400866E-02 
860	 0.068986604989491 
861	 6.89665627002779E-02 
862	 6.89407912080185E-02 
863	 6.89459942056884E-02 
864	 6.89447144683835E-02 
865	 6.89410897855341E-02 
866	 6.89578639615049E-02 
867	 6.89450455750179E-02 
868	 6.89316621267702E-02 
869	 6.89208349016752E-02 
870	 6.88873975780393E-02 
871	 6.88968894295417E-02 
872	 0.068894582748145 
873	 6.88718951445406E-02 
874	 6.89237149270285E-02 
875	 6.89272791218573E-02 
876	 6.88925137078049E-02 
877	 6.88598430910411E-02 
878	 6.88511254375471E-02 
879	 6.88909833403249E-02 
880	 6.89354374979459E-02 
881	 6.89313560067138E-02 
882	 6.88968788295361E-02 
883	 6.89008635987669E-02 
884	 6.89047958739861E-02 
885	 6.88416058091487E-02 
886	 6.88720571860225E-02 
887	 0.068893295112873 
888	 6.88761794639983E-02 
889	 6.88714668142491E-02 
890	 6.88985999959436E-02 
891	 6.88794236310493E-02 
892	 6.88253345959054E-02 
893	 6.88629419361699E-02 
894	 6.88498216364388E-02 
895	 6.88289944543163E-02 
896	 6.88419615302026E-02 
897	 6.88620893149717E-02 
898	 6.88514251010769E-02 
899	 0.068841495062511 
900	 6.88577552986898E-02 
901	 6.88541660378712E-02 
902	 6.88804786185926E-02 
903	 6.88951456215849E-02 
904	 0.068856847051962 
905	 6.88420901275434E-02 
906	 0.068849082469356 
907	 6.88764504309824E-02 
908	 6.89173844103236E-02 
909	 6.89581710110113E-02 
910	 6.89025602369107E-02 
911	 6.88360775634514E-02 
912	 6.89178239455291E-02 
913	 6.89304334869826E-02 
914	 6.89217304591767E-02 
915	 6.89085614970046E-02 
916	 6.88667337770526E-02 
917	 6.88320548210067E-02 
918	 0.068865108563499 
919	 6.89443099554971E-02 
920	 6.89621315321568E-02 
921	 6.89905920019502E-02 
922	 6.89912812782819E-02 
923	 6.89571142560787E-02 
924	 6.89488885719695E-02 
925	 6.89618512486761E-02 
926	 6.89793704941114E-02 
927	 6.89726500195495E-02 
928	 6.88997658728456E-02 
929	 6.89440162995262E-02 
930	 6.90222606097572E-02 
931	 0.069040670695988 
932	 6.90499853617575E-02 
933	 6.90824546866289E-02 
934	 6.91070021649814E-02 
935	 6.90972684336782E-02 
936	 6.90999538302785E-02 
937	 6.91085202851187E-02 
938	 6.90879862251598E-02 
939	 6.90385451061849E-02 
940	 6.91143100554012E-02 
941	 6.91311900635658E-02 
942	 6.91453549033876E-02 
943	 6.92296736538052E-02 
944	 6.91116893461557E-02 
945	 6.91015269366455E-02 
946	 6.91479667209268E-02 
947	 6.90869165402596E-02 
948	 6.90766791325997E-02 
949	 6.90991680853224E-02 
950	 6.91081911367829E-02 
951	 6.90743048359634E-02 
952	 0.069107287605112 
953	 0.069152256408377 
954	 0.06918616299858 
955	 6.92107875434408E-02 
956	 6.92245713389709E-02 
957	 0.069281138822893 
958	 6.93114477531361E-02 
959	 6.92312125295381E-02 
960	 0.069316380362725 
961	 6.93259654060784E-02 
962	 0.069284102698125 
963	 6.93535569858132E-02 
964	 0.069297712535267 
965	 0.069293018523298 
966	 6.93503210517012E-02 
967	 6.93689393076968E-02 
968	 6.94240134138638E-02 
969	 6.94619904943308E-02 
970	 6.94571091325899E-02 
971	 0.069427714232893 
972	 6.94823418097006E-02 
973	 6.95196026274955E-02 
974	 6.94847870442992E-02 
975	 6.93989397310344E-02 
976	 6.94292319371618E-02 
977	 6.94544590983626E-02 
978	 0.06940529418637 
979	 6.93038480050329E-02 
980	 6.93643338829737E-02 
981	 6.93931613880201E-02 
982	 6.93998412958579E-02 
983	 6.95013538900912E-02 
984	 6.95844670716487E-02 
985	 6.95834099637302E-02 
986	 0.069500170275106 
987	 6.94043576758882E-02 
988	 6.94590520509165E-02 
989	 0.069522304027707 
990	 6.95578188130297E-02 
991	 6.95852200774386E-02 
992	 6.95642945087714E-02 
993	 6.94736604790302E-02 
994	 6.95330410728711E-02 
995	 6.98466255322938E-02 
996	 6.96629890952028E-02 
997	 6.96058532640896E-02 
998	 6.96884727555185E-02 
999	 6.97278545150568E-02 
1000	 6.98609245621117E-02 
1001	 6.90090453589119E-02 
1002	 6.89349216913708E-02 
1003	 6.89178506376485E-02 
1004	 6.89063559178034E-02 
1005	 0.068924070906979 
1006	 6.89474850794557E-02 
1007	 6.90051843280686E-02 
1008	 6.90048983841819E-02 
1009	 0.069018677036988 
1010	 6.90720745689229E-02 
1011	 6.91049626752682E-02 
1012	 6.91056553677778E-02 
1013	 6.90912192031944E-02 
1014	 6.91136523495996E-02 
1015	 6.92094378288998E-02 
1016	 6.93061996320565E-02 
1017	 6.93351397433939E-02 
1018	 6.93611553331428E-02 
1019	 0.069356190415856 
1020	 6.92924180468155E-02 
1021	 6.92098437691308E-02 
1022	 6.91750318444848E-02 
1023	 6.91457187778481E-02 
1024	 6.90892766270265E-02 
1025	 6.90489140319327E-02 
1026	 6.90775639125409E-02 
1027	 6.90949078188084E-02 
1028	 6.91250713869989E-02 
1029	 6.91632994535147E-02 
1030	 6.91101527141502E-02 
1031	 6.91063206594302E-02 
1032	 0.069118795293142 
1033	 0.06911676851379 
1034	 6.90804399792774E-02 
1035	 0.06910838066221 
1036	 6.90896474745449E-02 
1037	 6.90505918315265E-02 
1038	 6.90420312882541E-02 
1039	 6.90682368878188E-02 
1040	 6.91294266476596E-02 
1041	 6.90955352591787E-02 
1042	 0.069015152696343 
1043	 6.90006441174055E-02 
1044	 0.068982491040801 
1045	 6.89240892413237E-02 
1046	 6.89379655015956E-02 
1047	 6.90050926344959E-02 
1048	 0.068965978635898 
1049	 6.89330362914916E-02 
1050	 6.89451832720224E-02 
1051	 0.068953273456822 
1052	 6.89830962862265E-02 
1053	 6.90202977158586E-02 
1054	 6.90604878815447E-02 
1055	 6.90516119073869E-02 
1056	 6.90345621935789E-02 
1057	 6.90640751832997E-02 
1058	 0.06909743257488 
1059	 6.91264534337918E-02 
1060	 6.91826911307915E-02 
1061	 6.92837078548678E-02 
1062	 0.069310836769894 
1063	 6.93114910420386E-02 
1064	 6.93187410636052E-02 
1065	 0.069302165960699 
1066	 6.93072887147734E-02 
1067	 6.93373065615746E-02 
1068	 6.93705353035151E-02 
1069	 6.94327987611053E-02 
1070	 6.94636435938182E-02 
1071	 6.94733512720417E-02 
1072	 0.069481631672855 
1073	 6.94719694586623E-02 
1074	 6.94744217056875E-02 
1075	 6.94710089778358E-02 
1076	 6.94869387958847E-02 
1077	 6.95177936941177E-02 
1078	 6.95478935441641E-02 
1079	 6.95977930454934E-02 
1080	 6.96537993039336E-02 
1081	 6.96587019957577E-02 
1082	 6.96497833671817E-02 
1083	 6.96480415086014E-02 
1084	 6.95982840662838E-02 
1085	 6.96106895964393E-02 
1086	 6.96765777239592E-02 
1087	 6.96963662003962E-02 
1088	 6.97031199795943E-02 
1089	 0.069748055445125 
1090	 6.97601750146954E-02 
1091	 6.97725105966103E-02 
1092	 6.98298285785749E-02 
1093	 6.98484663007821E-02 
1094	 6.98265093346672E-02 
1095	 6.98327947927258E-02 
1096	 6.98414310105638E-02 
1097	 0.06983096171524 
1098	 6.98353442214511E-02 
1099	 6.98679184193661E-02 
1100	 6.98685537625604E-02 
1101	 0.069822492272027 
1102	 6.98386490777937E-02 
1103	 6.98828744391486E-02 
1104	 6.99242481701635E-02 
1105	 6.99399228585055E-02 
1106	 6.99664231699617E-02 
1107	 6.99392670717933E-02 
1108	 6.98906055955652E-02 
1109	 6.98929413843386E-02 
1110	 6.99103316299248E-02 
1111	 6.99202089642686E-02 
1112	 6.99399081907994E-02 
1113	 6.99409452762676E-02 
1114	 6.99409652460933E-02 
1115	 6.99307056045872E-02 
1116	 6.98895599351948E-02 
1117	 0.069880232134798 
1118	 6.98763591057364E-02 
1119	 6.98816886117539E-02 
1120	 6.99076156786239E-02 
1121	 6.99327195471865E-02 
1122	 0.069970295787367 
1123	 7.00076413863597E-02 
1124	 7.00207123170545E-02 
1125	 7.00216542563184E-02 
1126	 7.00291338640894E-02 
1127	 7.00299642005623E-02 
1128	 7.00179606189672E-02 
1129	 6.99921272929561E-02 
1130	 6.99969155068018E-02 
1131	 7.00089251509836E-02 
1132	 6.99989618777359E-02 
1133	 7.00040382211689E-02 
1134	 7.00042420387969E-02 
1135	 6.99752330078973E-02 
1136	 6.99558018943525E-02 
1137	 6.99735239458474E-02 
1138	 6.99732615989059E-02 
1139	 6.99628016589563E-02 
1140	 6.99320963946949E-02 
1141	 6.99317787006681E-02 
1142	 6.99403847420922E-02 
1143	 6.99419634384835E-02 
1144	 6.99563046801196E-02 
1145	 6.99682872148659E-02 
1146	 6.99780637882486E-02 
1147	 0.069973008494819 
1148	 6.99635887172936E-02 
1149	 6.99608292468654E-02 
1150	 6.99488090123798E-02 
1151	 6.99389070956993E-02 
1152	 6.99090433152902E-02 
1153	 6.98952505176164E-02 
1154	 6.98913068269696E-02 
1155	 6.98712244077766E-02 
1156	 6.98775792653039E-02 
1157	 6.99251992356764E-02 
1158	 0.069943119540806 
1159	 6.99570208403007E-02 
1160	 6.99628217157836E-02 
1161	 6.99634745336017E-02 
1162	 6.99570910078508E-02 
1163	 6.99354493312404E-02 
1164	 6.99208546721615E-02 
1165	 6.98945788159713E-02 
1166	 6.98856159876714E-02 
1167	 6.98880766776123E-02 
1168	 6.98940172154061E-02 
1169	 6.99171365871435E-02 
1170	 6.99720429770826E-02 
1171	 6.99859125943385E-02 
1172	 6.99963245621511E-02 
1173	 0.070000365383633 
1174	 6.99658157706037E-02 
1175	 6.99699298601457E-02 
1176	 7.00009095522725E-02 
1177	 7.00151000006883E-02 
1178	 7.00388069574573E-02 
1179	 7.00528817930334E-02 
1180	 7.00501222826242E-02 
1181	 7.00551318971467E-02 
1182	 7.00597076845559E-02 
1183	 7.00676970283203E-02 
1184	 7.00829794099378E-02 
1185	 7.00977267759737E-02 
1186	 7.01285406443369E-02 
1187	 7.01812269949088E-02 
1188	 7.02113096413633E-02 
1189	 7.02427143922439E-02 
1190	 7.02715719998231E-02 
1191	 7.02938045644262E-02 
1192	 7.03055590422191E-02 
1193	 7.03089752061346E-02 
1194	 7.03199689503878E-02 
1195	 7.03160015394373E-02 
1196	 7.03249837717208E-02 
1197	 7.03504555671776E-02 
1198	 7.03750942009783E-02 
1199	 7.04012589973705E-02 
1200	 0.070431495057341 
1201	 7.04484078379761E-02 
1202	 7.04643656386122E-02 
1203	 7.04761178760945E-02 
1204	 7.04657679534912E-02 
1205	 7.04846630701471E-02 
1206	 7.05214388685904E-02 
1207	 7.05478036227756E-02 
1208	 7.05859696972668E-02 
1209	 7.06137625836235E-02 
1210	 7.06345547840559E-02 
1211	 0.070651404589086 
1212	 7.06543572509395E-02 
1213	 7.06732324812096E-02 
1214	 7.06987168371339E-02 
1215	 7.07196338109872E-02 
1216	 7.07433512906954E-02 
1217	 7.07810851052466E-02 
1218	 7.08044187839917E-02 
1219	 7.08150407669335E-02 
1220	 7.08350787800448E-02 
1221	 7.08605941491345E-02 
1222	 7.08793648351716E-02 
1223	 7.08921291309789E-02 
1224	 7.09133493716552E-02 
1225	 7.09286564072169E-02 
1226	 7.09579747799021E-02 
1227	 7.10197683796683E-02 
1228	 7.10459292052354E-02 
1229	 0.071063419633872 
1230	 0.071073840367828 
1231	 7.10355929070883E-02 
1232	 7.10338456026679E-02 
1233	 7.10464270463068E-02 
1234	 7.10762757926232E-02 
1235	 0.071099294090777 
1236	 0.071144502437198 
1237	 7.11686632880982E-02 
1238	 7.11851933298387E-02 
1239	 7.11923603442577E-02 
1240	 7.11831450578614E-02 
1241	 7.11917174427524E-02 
1242	 7.11968080993143E-02 
1243	 7.12075296371382E-02 
1244	 7.12447205173854E-02 
1245	 0.071257657081549 
1246	 7.12393543905642E-02 
1247	 7.12482162417537E-02 
1248	 7.12635870968408E-02 
1249	 7.12856462570547E-02 
1250	 0.071298647832156 
1251	 7.13167619070526E-02 
1252	 7.13336155558439E-02 
1253	 7.13314869774492E-02 
1254	 7.13482834698901E-02 
1255	 0.071396791382164 
1256	 7.14069652621478E-02 
1257	 7.13912196060729E-02 
1258	 7.13976121857003E-02 
1259	 7.13995906581955E-02 
1260	 7.14002614609049E-02 
1261	 7.14171712946467E-02 
1262	 7.14216897875121E-02 
1263	 7.14049639175701E-02 
1264	 7.14022618007574E-02 
1265	 7.14148596793996E-02 
1266	 0.071416091728166 
1267	 7.14120653185547E-02 
1268	 7.14076878445523E-02 
1269	 7.14095288396712E-02 
1270	 7.14033563847606E-02 
1271	 0.071411471714727 
1272	 7.14346699368013E-02 
1273	 7.14502600344663E-02 
1274	 7.14679877278586E-02 
1275	 0.071485113606069 
1276	 7.14931348682352E-02 
1277	 7.15203942712625E-02 
1278	 0.071562139254843 
1279	 7.15934064562326E-02 
1280	 7.16326842441849E-02 
1281	 7.16700182542672E-02 
1282	 0.071694135754581 
1283	 0.07172912544603 
1284	 7.17723136605654E-02 
1285	 7.18204923383403E-02 
1286	 7.18621477863258E-02 
1287	 7.19010449633831E-02 
1288	 7.19567898992905E-02 
1289	 7.20207223104278E-02 
1290	 7.20828950248697E-02 
1291	 7.21613852978364E-02 
1292	 7.22223674385721E-02 
1293	 7.22749714296069E-02 
1294	 0.072323172121809 
1295	 7.23636193001277E-02 
1296	 7.24081765253371E-02 
1297	 0.072454075200863 
1298	 7.24907883304033E-02 
1299	 7.25180429208609E-02 
1300	 7.25554004703209E-02 
1301	 7.25955140191464E-02 
1302	 7.26257197054207E-02 
1303	 7.26559197962437E-02 
1304	 7.26876065766488E-02 
1305	 7.27137996780873E-02 
1306	 7.27415593034165E-02 
1307	 7.27849424583002E-02 
1308	 7.28184170088125E-02 
1309	 7.28357240977844E-02 
1310	 7.28315562654654E-02 
1311	 7.28471328438307E-02 
1312	 7.28570484121771E-02 
1313	 7.28737283587458E-02 
1314	 0.072907774156265 
1315	 7.29271299385612E-02 
1316	 7.29446719448846E-02 
1317	 7.29531013404283E-02 
1318	 0.072953138101353 
1319	 7.29502854105123E-02 
1320	 7.29313178748994E-02 
1321	 7.29256990318088E-02 
1322	 7.29266964227114E-02 
1323	 7.29257793443335E-02 
1324	 7.29261316611939E-02 
1325	 7.29231168902958E-02 
1326	 7.29192997970336E-02 
1327	 7.29171460286179E-02 
1328	 7.29245859735447E-02 
1329	 7.29104054964305E-02 
1330	 7.28886380055446E-02 
1331	 0.072846237842814 
1332	 7.28324659031341E-02 
1333	 7.28154965506037E-02 
1334	 7.28097325674326E-02 
1335	 7.28352860045791E-02 
1336	 0.072827682685705 
1337	 7.28027805843791E-02 
1338	 7.27920492739322E-02 
1339	 7.27661358937589E-02 
1340	 7.27586049057314E-02 
1341	 7.27786008360757E-02 
1342	 7.27786946042291E-02 
1343	 7.27778723517114E-02 
1344	 7.27732098500606E-02 
1345	 7.27548159937274E-02 
1346	 7.27231334425914E-02 
1347	 0.072694531494981 
1348	 7.26862571358446E-02 
1349	 7.26769962793864E-02 
1350	 7.26680685958311E-02 
1351	 0.072666826026697 
1352	 7.26682850198505E-02 
1353	 7.26733447335992E-02 
1354	 7.26890173379045E-02 
1355	 7.26970405161801E-02 
1356	 7.27125667301261E-02 
1357	 7.27113083896245E-02 
1358	 7.26976976458014E-02 
1359	 7.26900677877164E-02 
1360	 7.26741656367388E-02 
1361	 0.072660660165998 
1362	 7.26491973824331E-02 
1363	 7.26385516888319E-02 
1364	 7.26320857355263E-02 
1365	 7.26145249741389E-02 
1366	 7.25933445835311E-02 
1367	 7.25761836848193E-02 
1368	 7.25372652929563E-02 
1369	 7.25078802440479E-02 
1370	 7.24816568953004E-02 
1371	 7.24518006130314E-02 
1372	 7.24349617664052E-02 
1373	 7.24067291477152E-02 
1374	 0.072368084101252 
1375	 7.23242239470135E-02 
1376	 7.22763472709708E-02 
1377	 7.22197400418475E-02 
1378	 7.21522608843613E-02 
1379	 7.20763740800838E-02 
1380	 7.20019359146052E-02 
1381	 7.19148539803825E-02 
1382	 7.18317704141645E-02 
1383	 7.17607564369102E-02 
1384	 7.16721585135054E-02 
1385	 7.15676017451656E-02 
1386	 7.14709811858104E-02 
1387	 7.13798070368868E-02 
1388	 7.12734595021789E-02 
1389	 7.11729629293532E-02 
1390	 7.10466772751837E-02 
1391	 7.08981373242948E-02 
1392	 7.07508548625722E-02 
1393	 0.070595784025116 
1394	 7.04374471243831E-02 
1395	 7.02712238849553E-02 
1396	 7.01067964160775E-02 
1397	 6.99398953079377E-02 
1398	 6.97689233260762E-02 
1399	 6.95923829190207E-02 
1400	 6.94152598170035E-02 
1401	 6.92317373479191E-02 
1402	 6.90332424596496E-02 
1403	 6.88535660385344E-02 
1404	 6.86768961667629E-02 
1405	 0.068507352309395 
1406	 6.83499282448364E-02 
1407	 6.81877965415396E-02 
1408	 6.80188358211882E-02 
1409	 6.78686909671709E-02 
1410	 6.77242690296215E-02 
1411	 6.75919542382603E-02 
1412	 6.74720427940682E-02 
1413	 6.73659220984086E-02 
1414	 6.72667695985447E-02 
1415	 6.71675529916378E-02 
1416	 6.70923126421273E-02 
1417	 6.70202767967987E-02 
1418	 6.69340714597104E-02 
1419	 6.68730579368413E-02 
1420	 6.68056776572681E-02 
1421	 6.67434303485017E-02 
1422	 6.67189243416682E-02 
1423	 6.66903012227114E-02 
1424	 0.066665117587011 
1425	 6.66590136834279E-02 
1426	 6.66294226609435E-02 
1427	 0.066578773872194 
1428	 6.65535028241661E-02 
1429	 6.65276193823057E-02 
1430	 6.65119916615492E-02 
1431	 6.65221044645413E-02 
1432	 6.65174253241337E-02 
1433	 6.64992972525872E-02 
1434	 6.64954726119722E-02 
1435	 6.64964154306145E-02 
1436	 6.65011015398657E-02 
1437	 6.65119413432307E-02 
1438	 6.65312500887205E-02 
1439	 6.65602471609473E-02 
1440	 6.65846208109316E-02 
1441	 6.66094342645316E-02 
1442	 6.66314701109263E-02 
1443	 6.66371920589771E-02 
1444	 0.066643592436013 
1445	 6.66665556029563E-02 
1446	 6.66870736585365E-02 
1447	 6.67238723505399E-02 
1448	 6.67595002052377E-02 
1449	 6.67701315885004E-02 
1450	 6.67851664019698E-02 
1451	 6.68049697157068E-02 
1452	 6.68156037466096E-02 
1453	 6.68384403307525E-02 
1454	 6.68792591124244E-02 
1455	 6.69095824573743E-02 
1456	 6.69363852381128E-02 
1457	 6.69568487979862E-02 
1458	 6.69680525044973E-02 
1459	 6.69928890580235E-02 
1460	 6.70196200480009E-02 
1461	 6.70487277360786E-02 
1462	 6.70856219377144E-02 
1463	 0.067124981421869 
1464	 0.067163403083195 
1465	 6.72068957144726E-02 
1466	 6.72612547278625E-02 
1467	 6.73153423421079E-02 
1468	 6.73638267198659E-02 
1469	 6.74192344765802E-02 
1470	 6.74889912668127E-02 
1471	 6.75455893081659E-02 
1472	 6.75986756001492E-02 
1473	 6.76532030830854E-02 
1474	 6.76999580697893E-02 
1475	 6.77539640813784E-02 
1476	 6.78100918615992E-02 
1477	 6.78773966378711E-02 
1478	 6.79458222369801E-02 
1479	 6.80064256697591E-02 
1480	 0.068081725355227 
1481	 6.81498663493998E-02 
1482	 6.82165143633491E-02 
1483	 6.82859650953375E-02 
1484	 6.83507589115316E-02 
1485	 6.84065891509116E-02 
1486	 6.84732875092958E-02 
1487	 6.85474549805588E-02 
1488	 6.86111454635949E-02 
1489	 6.86703560337712E-02 
1490	 6.87363933149788E-02 
1491	 0.068798104614782 
1492	 6.88634025396916E-02 
1493	 6.89382283981104E-02 
1494	 6.90092861758428E-02 
1495	 6.90799407988851E-02 
1496	 6.91440265705251E-02 
1497	 6.92146679511753E-02 
1498	 6.92709516209238E-02 
1499	 6.93037669500017E-02 
1500	 0.069355013475553 
1501	 6.93989719582723E-02 
1502	 6.94598325916561E-02 
1503	 6.95443162064678E-02 
1504	 6.96201224625279E-02 
1505	 6.96911061625016E-02 
1506	 6.97584689153924E-02 
1507	 6.98044413167307E-02 
1508	 6.98622531150164E-02 
1509	 6.99212158994652E-02 
1510	 0.069971692369466 
1511	 7.00258651585799E-02 
1512	 7.00739299703108E-02 
1513	 7.01360966380763E-02 
1514	 7.01988650981534E-02 
1515	 7.02620335429399E-02 
1516	 7.03337364122491E-02 
1517	 7.03881135463332E-02 
1518	 7.04300562753757E-02 
1519	 7.04768558948402E-02 
1520	 7.05147342393501E-02 
1521	 7.05598099100219E-02 
1522	 7.06102562141991E-02 
1523	 7.06558772427127E-02 
1524	 7.07041763587936E-02 
1525	 7.07472802905939E-02 
1526	 7.07850656297621E-02 
1527	 7.08252574480973E-02 
1528	 7.08571226374256E-02 
1529	 7.08987275002066E-02 
1530	 7.09549338938581E-02 
1531	 7.09941205817259E-02 
1532	 7.10280499706424E-02 
1533	 7.10673012125529E-02 
1534	 7.10922973986209E-02 
1535	 7.11291539844152E-02 
1536	 7.11799732593134E-02 
1537	 7.12251865797348E-02 
1538	 7.12728748794008E-02 
1539	 7.13156717923135E-02 
1540	 7.13637474598055E-02 
1541	 7.14007430241919E-02 
1542	 7.14184527743781E-02 
1543	 7.14517260114145E-02 
1544	 7.14879174500957E-02 
1545	 7.15188249844904E-02 
1546	 7.15535415122639E-02 
1547	 7.15943000767314E-02 
1548	 7.16282459008897E-02 
1549	 7.16589779583193E-02 
1550	 0.071700652049102 
1551	 7.17439837785281E-02 
1552	 7.17671462419251E-02 
1553	 7.17940303507021E-02 
1554	 7.18253225121043E-02 
1555	 7.18573173414643E-02 
1556	 7.18943786566231E-02 
1557	 7.19231778877357E-02 
1558	 7.19474652959391E-02 
1559	 7.19620041581727E-02 
1560	 7.19857142035651E-02 
1561	 7.20153573159379E-02 
1562	 7.20406397576759E-02 
1563	 7.20646891164371E-02 
1564	 7.20888710956219E-02 
1565	 7.21079296145442E-02 
1566	 7.21377421555726E-02 
1567	 7.21773116688999E-02 
1568	 7.22074162020168E-02 
1569	 7.22386255889526E-02 
1570	 7.22643310229697E-02 
1571	 7.22836695337516E-02 
1572	 7.23035407909951E-02 
1573	 7.23205098941331E-02 
1574	 7.23447222341426E-02 
1575	 7.23693945338627E-02 
1576	 7.23883166797987E-02 
1577	 7.24143697263984E-02 
1578	 0.072432111415579 
1579	 0.072432626333793 
1580	 7.24536907896536E-02 
1581	 7.24889117872027E-02 
1582	 7.25098319004793E-02 
1583	 7.25365642198078E-02 
1584	 0.072553634568792 
1585	 7.25524544432752E-02 
1586	 7.25618396240027E-02 
1587	 7.25664119309552E-02 
1588	 7.25857992237054E-02 
1589	 7.26157443062298E-02 
1590	 7.26464604136231E-02 
1591	 7.27005287478965E-02 
1592	 7.27293547720353E-02 
1593	 7.27450023449172E-02 
1594	 7.27595374665513E-02 
1595	 7.27560755161208E-02 
1596	 7.27623876255487E-02 
1597	 7.27700878531429E-02 
1598	 7.27832731926953E-02 
1599	 7.28075705738877E-02 
1600	 0.072820800249378 
1601	 7.28293896315652E-02 
1602	 7.28420557406683E-02 
1603	 7.28520885193299E-02 
1604	 7.28578613477657E-02 
1605	 0.072856376395899 
1606	 7.28706679592163E-02 
1607	 7.28935112167113E-02 
1608	 0.072911452931358 
1609	 7.29338219280042E-02 
1610	 7.29478025343556E-02 
1611	 7.29344834119114E-02 
1612	 7.29252627150932E-02 
1613	 7.29353837310681E-02 
1614	 7.29536964048542E-02 
1615	 7.29860874216011E-02 
1616	 7.30101089156817E-02 
1617	 7.30252751624286E-02 
1618	 7.30312063256369E-02 
1619	 7.30127094815303E-02 
1620	 7.30135343522004E-02 
1621	 7.30129915879538E-02 
1622	 7.30092192341812E-02 
1623	 7.30142487502085E-02 
1624	 7.30272502984193E-02 
1625	 0.073042379616411 
1626	 7.30640875553397E-02 
1627	 7.30800423133913E-02 
1628	 7.31023636013834E-02 
1629	 7.31107541697445E-02 
1630	 7.31073461327048E-02 
1631	 7.31093283946164E-02 
1632	 7.31048059504176E-02 
1633	 7.31133588362955E-02 
1634	 7.31309341139215E-02 
1635	 7.31393499731653E-02 
1636	 7.31501462438832E-02 
1637	 7.31589559601237E-02 
1638	 7.31651142740963E-02 
1639	 7.31629895838765E-02 
1640	 0.073156082831767 
1641	 7.31563714147804E-02 
1642	 7.31478763501557E-02 
1643	 7.31505367612174E-02 
1644	 7.31654300400133E-02 
1645	 7.31787105760608E-02 
1646	 0.07320100143024 
1647	 7.32002999516957E-02 
1648	 7.31915509006423E-02 
1649	 7.31881582591717E-02 
1650	 7.31625301615892E-02 
1651	 7.31616489593453E-02 
1652	 7.31853007462496E-02 
1653	 7.31909844255154E-02 
1654	 0.073195567977326 
1655	 7.31962381003645E-02 
1656	 0.073190993269456 
1657	 7.31860189970267E-02 
1658	 7.31756003508717E-02 
1659	 0.073173908707814 
1660	 7.31716932329876E-02 
1661	 7.31763632018682E-02 
1662	 7.31937217589502E-02 
1663	 7.32007427414709E-02 
1664	 7.32057575118592E-02 
1665	 7.32112996354784E-02 
1666	 7.32094177886337E-02 
1667	 7.32179643514479E-02 
1668	 7.32454661015956E-02 
1669	 7.32419246144153E-02 
1670	 7.32209393646172E-02 
1671	 7.32142246434564E-02 
1672	 7.31925059142342E-02 
1673	 7.31824388981278E-02 
1674	 7.31925611018422E-02 
1675	 7.31921622372339E-02 
1676	 7.31755950329569E-02 
1677	 7.31804443471998E-02 
1678	 7.32069152796864E-02 
1679	 7.32129869141628E-02 
1680	 7.32248434878762E-02 
1681	 7.32197288576225E-02 
1682	 7.31875875149696E-02 
1683	 0.073174876570987 
1684	 7.31684472567291E-02 
1685	 7.31542691861968E-02 
1686	 7.31325744326637E-02 
1687	 0.073131251920555 
1688	 7.31421619188341E-02 
1689	 7.31366355603311E-02 
1690	 7.31399576775627E-02 
1691	 7.31396618060734E-02 
1692	 7.31145755048282E-02 
1693	 7.31123397999378E-02 
1694	 7.31339758804521E-02 
1695	 7.31393457088332E-02 
1696	 7.31481607835844E-02 
1697	 7.31388070474859E-02 
1698	 7.31116222214114E-02 
1699	 7.30985996624366E-02 
1700	 7.30742067309185E-02 
1701	 7.30682036849642E-02 
1702	 7.30905494032763E-02 
1703	 7.30832319060879E-02 
1704	 7.30655764080792E-02 
1705	 0.073049638008882 
1706	 7.30089878912195E-02 
1707	 7.30001238619139E-02 
1708	 7.30174592333276E-02 
1709	 7.30179010742888E-02 
1710	 7.30214408486816E-02 
1711	 7.30260820945955E-02 
1712	 7.30243469855211E-02 
1713	 0.073021140251512 
1714	 7.30258016532104E-02 
1715	 7.30240937713948E-02 
1716	 7.30164269795934E-02 
1717	 7.30032213901657E-02 
1718	 7.29918379784934E-02 
1719	 0.072969298534447 
1720	 7.29269537569797E-02 
1721	 7.29003464510141E-02 
1722	 7.28686566119435E-02 
1723	 7.28549319794807E-02 
1724	 0.072860645074995 
1725	 7.28509229730104E-02 
1726	 7.28470052847434E-02 
1727	 7.28400052754464E-02 
1728	 7.28241625559472E-02 
1729	 0.072813084012107 
1730	 7.28047828579199E-02 
1731	 7.27934320622184E-02 
1732	 7.27816147912522E-02 
1733	 0.072762165813738 
1734	 7.27438937887307E-02 
1735	 7.27213329694409E-02 
1736	 7.26907886849872E-02 
1737	 7.26566861280855E-02 
1738	 7.26146027574537E-02 
1739	 7.25834612882826E-02 
1740	 7.25549934822758E-02 
1741	 7.25185134047707E-02 
1742	 0.072477971560253 
1743	 7.24568308606862E-02 
1744	 7.24351257534637E-02 
1745	 7.24216949122896E-02 
1746	 7.24439423576989E-02 
1747	 7.24118205921091E-02 
1748	 7.23594783623224E-02 
1749	 0.072306799083382 
1750	 7.22684285044478E-02 
1751	 7.22570189148637E-02 
1752	 7.22494358256766E-02 
1753	 7.22577112414078E-02 
1754	 7.22588256820042E-02 
1755	 7.22143914406799E-02 
1756	 7.21797115981248E-02 
1757	 7.21313661594878E-02 
1758	 7.20634997170505E-02 
1759	 7.20380551754816E-02 
1760	 7.20175152426773E-02 
1761	 7.20049714328201E-02 
1762	 7.20012630098108E-02 
1763	 7.19829516550203E-02 
1764	 7.19568309235736E-02 
1765	 7.19109253338358E-02 
1766	 7.18662882634765E-02 
1767	 7.18326408583295E-02 
1768	 0.071812974848007 
1769	 7.18065710829871E-02 
1770	 7.17880797612943E-02 
1771	 7.17676490404054E-02 
1772	 7.17230942924616E-02 
1773	 7.16647803024063E-02 
1774	 7.16500775947962E-02 
1775	 7.16372225040129E-02 
1776	 7.16221253861366E-02 
1777	 7.16292627051847E-02 
1778	 7.16249849327628E-02 
1779	 7.16063240345105E-02 
1780	 7.16088406490954E-02 
1781	 7.16155804144458E-02 
1782	 7.15866285077797E-02 
1783	 7.15811672305548E-02 
1784	 7.15528011630153E-02 
1785	 7.14888253980846E-02 
1786	 7.14612291032393E-02 
1787	 7.14413146454642E-02 
1788	 7.14233526348401E-02 
1789	 7.14330140572766E-02 
1790	 7.14206670732644E-02 
1791	 7.13855245182184E-02 
1792	 7.13624416585473E-02 
1793	 7.13498289539465E-02 
1794	 7.13407024259165E-02 
1795	 7.13263089517145E-02 
1796	 7.13237388887866E-02 
1797	 7.13283882045669E-02 
1798	 7.13266311562532E-02 
1799	 7.13307468028586E-02 
1800	 7.13435775992523E-02 
1801	 0.06821625604618 
1802	 6.82315249850765E-02 
1803	 6.82439748847284E-02 
1804	 6.82662345107202E-02 
1805	 6.83005056618003E-02 
1806	 6.83355971014733E-02 
1807	 6.83621909189103E-02 
1808	 6.83873085781531E-02 
1809	 6.84177786569766E-02 
1810	 6.84420644298114E-02 
1811	 6.84596314074621E-02 
1812	 6.84750567258806E-02 
1813	 6.84881616365543E-02 
1814	 6.84853473830556E-02 
1815	 6.84990236795699E-02 
1816	 6.85185101200838E-02 
1817	 6.85290314545883E-02 
1818	 6.85426735570762E-02 
1819	 6.85560799657566E-02 
1820	 6.85642949118487E-02 
1821	 0.068566416070653 
1822	 6.85774490043189E-02 
1823	 6.85920254325027E-02 
1824	 6.86044640071595E-02 
1825	 6.86152458673084E-02 
1826	 6.86366299398123E-02 
1827	 6.86605406550939E-02 
1828	 6.86544249863251E-02 
1829	 6.86187213782805E-02 
1830	 6.86058755750241E-02 
1831	 6.85829877571473E-02 
1832	 6.85534094735491E-02 
1833	 6.85668060543292E-02 
1834	 6.85856129565603E-02 
1835	 6.85817056288501E-02 
1836	 6.85627867660586E-02 
1837	 6.85531624123586E-02 
1838	 6.85416399756234E-02 
1839	 6.85341786241093E-02 
1840	 6.85316832540149E-02 
1841	 6.85524278417783E-02 
1842	 6.85444867542321E-02 
1843	 6.85160692351063E-02 
1844	 0.068498852175231 
1845	 6.84582899272689E-02 
1846	 6.84310928822457E-02 
1847	 6.84193957233719E-02 
1848	 6.83777645614267E-02 
1849	 6.83331851537132E-02 
1850	 6.82904903559991E-02 
1851	 6.82370719055244E-02 
1852	 6.81875497890735E-02 
1853	 6.81597239211004E-02 
1854	 6.81383810402308E-02 
1855	 6.81318252961234E-02 
1856	 6.81042719462408E-02 
1857	 6.80395507017862E-02 
1858	 6.79629874454029E-02 
1859	 6.78711200447216E-02 
1860	 6.77814326172636E-02 
1861	 6.76846422182634E-02 
1862	 6.75889030029381E-02 
1863	 0.067473885726323 
1864	 0.067347835946746 
1865	 6.72133883401932E-02 
1866	 6.70805483883677E-02 
1867	 6.69510225396395E-02 
1868	 6.68163549593757E-02 
1869	 6.66630806699985E-02 
1870	 6.64878297705139E-02 
1871	 6.62875115670228E-02 
1872	 6.60679052485348E-02 
1873	 6.58337322292196E-02 
1874	 6.55636337621801E-02 
1875	 6.52639406232439E-02 
1876	 6.49752679255078E-02 
1877	 6.46685508966783E-02 
1878	 6.43339900489455E-02 
1879	 6.39876693335285E-02 
1880	 6.36356031694684E-02 
1881	 6.32614458452556E-02 
1882	 6.28772206227018E-02 
1883	 6.24935976304795E-02 
1884	 6.20933524920819E-02 
1885	 6.16444698902761E-02 
1886	 6.11651115977181E-02 
1887	 6.06829490059204E-02 
1888	 6.01869978324335E-02 
1889	 0.059671965355545 
1890	 5.91844260997675E-02 
1891	 5.86694238458712E-02 
1892	 5.81021450431452E-02 
1893	 5.75750863886291E-02 
1894	 5.70658414891117E-02 
1895	 5.65391509060468E-02 
1896	 5.60167040779871E-02 
1897	 5.55341477281991E-02 
1898	 5.50468595256369E-02 
1899	 5.45836269568354E-02 
1900	 5.41476768312223E-02 
1901	 0.053738893042459 
1902	 5.33276045996081E-02 
1903	 5.29145481225673E-02 
1904	 5.25273294238124E-02 
1905	 0.052142896504835 
1906	 5.17941616927291E-02 
1907	 5.14950707269331E-02 
1908	 5.12234632441978E-02 
1909	 5.09743532219055E-02 
1910	 5.07286193387278E-02 
1911	 5.04840674646555E-02 
1912	 5.02608428514718E-02 
1913	 0.05006261531456 
1914	 4.98952780953026E-02 
1915	 4.97345297131776E-02 
1916	 0.049597994121467 
1917	 4.94624443883337E-02 
1918	 4.93275487565714E-02 
1919	 4.91866473140889E-02 
1920	 4.90664233741474E-02 
1921	 4.89671521674972E-02 
1922	 4.89008695582467E-02 
1923	 0.048846554092291 
1924	 4.87896847450879E-02 
1925	 4.87393901972715E-02 
1926	 4.86993987346439E-02 
1927	 4.86593343469494E-02 
1928	 4.86334837645437E-02 
1929	 4.86207911161052E-02 
1930	 0.048614723632116 
1931	 0.048615816455742 
1932	 4.86399903358428E-02 
1933	 4.86617193280597E-02 
1934	 4.86836863115037E-02 
1935	 0.048718113248896 
1936	 0.04876381854115 
1937	 4.87995514381259E-02 
1938	 4.88324969627113E-02 
1939	 0.048879248392107 
1940	 4.89253633279797E-02 
1941	 4.89738115564751E-02 
1942	 4.90427926360151E-02 
1943	 4.91406894231604E-02 
1944	 4.92106926125262E-02 
1945	 4.92547388640266E-02 
1946	 4.93124815789913E-02 
1947	 4.93387611016951E-02 
1948	 4.94091291263179E-02 
1949	 4.95188618459712E-02 
1950	 4.96089671290144E-02 
1951	 4.97001648394473E-02 
1952	 4.98178541633693E-02 
1953	 4.98996211752141E-02 
1954	 4.99801738868442E-02 
1955	 5.00846671502813E-02 
1956	 5.01795279341663E-02 
1957	 5.02815690488425E-02 
1958	 0.050394192693164 
1959	 5.05029739024419E-02 
1960	 0.050605009630732 
1961	 5.07208378717778E-02 
1962	 5.08435294367031E-02 
1963	 5.09696607955079E-02 
1964	 5.11132010442445E-02 
1965	 0.051239324186231 
1966	 5.13762855301402E-02 
1967	 5.15101750202825E-02 
1968	 5.16295194852317E-02 
1969	 5.17383890230781E-02 
1970	 0.051855745258496 
1971	 5.19460000867081E-02 
1972	 5.20754811913754E-02 
1973	 5.22388083405176E-02 
1974	 5.23871837834338E-02 
1975	 5.25454844964485E-02 
1976	 5.27095900792958E-02 
1977	 5.28610168581247E-02 
1978	 5.29775270226717E-02 
1979	 5.30954278414812E-02 
1980	 5.32406480423417E-02 
1981	 5.33775869935732E-02 
1982	 5.35171295972523E-02 
1983	 5.36543459484689E-02 
1984	 5.37973189609542E-02 
1985	 5.39270383108965E-02 
1986	 5.40499436497752E-02 
1987	 5.41710844357494E-02 
1988	 5.42848305497265E-02 
1989	 5.43982212764906E-02 
1990	 5.45100250591566E-02 
1991	 5.46230307870551E-02 
1992	 5.47491067014825E-02 
1993	 5.48794540503545E-02 
1994	 5.50228951172702E-02 
1995	 5.51889967639906E-02 
1996	 5.53404341710067E-02 
1997	 5.55082348905652E-02 
1998	 5.56448833752374E-02 
1999	 0.055750410330592 
2000	 0.0558729241121 
2001	 5.59854185266564E-02 
2002	 5.61017643932866E-02 
2003	 5.62320967303414E-02 
2004	 5.63739561648284E-02 
2005	 5.65103795681443E-02 
2006	 5.66504580244905E-02 
2007	 5.67816571863037E-02 
2008	 5.69079365498469E-02 
2009	 5.70357438146683E-02 
2010	 5.71753873469614E-02 
2011	 5.72865384392452E-02 
2012	 0.057371001741452 
2013	 5.74789761762252E-02 
2014	 5.75728854863599E-02 
2015	 5.76689321847534E-02 
2016	 5.78249953486787E-02 
2017	 0.057971261919914 
2018	 0.058090601842325 
2019	 5.81951558967683E-02 
2020	 5.83091390101291E-02 
2021	 5.83956084078572E-02 
2022	 0.058510514074572 
2023	 0.058656040599482 
2024	 5.87824476218537E-02 
2025	 5.89094904235581E-02 
2026	 5.90285577086673E-02 
2027	 5.91347932794566E-02 
2028	 5.92465355688728E-02 
2029	 5.93633719079644E-02 
2030	 5.94840403591433E-02 
2031	 5.95927444982966E-02 
2032	 5.97060746987902E-02 
2033	 5.98085242855765E-02 
2034	 5.98952251213892E-02 
2035	 5.99861773193946E-02 
2036	 6.00733003710795E-02 
2037	 6.01656898194533E-02 
2038	 6.02505293793138E-02 
2039	 6.03447835512311E-02 
2040	 6.04478358394375E-02 
2041	 0.060555543348164 
2042	 6.06554412269579E-02 
2043	 6.07709160307645E-02 
2044	 6.08665280636161E-02 
2045	 6.09573779938753E-02 
2046	 6.10366914113975E-02 
2047	 6.10959242995452E-02 
2048	 6.11713305827771E-02 
2049	 6.12405823819696E-02 
2050	 6.13222847106438E-02 
2051	 6.14221269985519E-02 
2052	 6.15102994049587E-02 
2053	 0.061593772776127 
2054	 6.16844100879324E-02 
2055	 6.17716698655059E-02 
2056	 6.18723819798298E-02 
2057	 6.19550639899433E-02 
2058	 6.20387257957322E-02 
2059	 6.21134474448352E-02 
2060	 6.21655364563924E-02 
2061	 6.22369078163529E-02 
2062	 0.062316967800561 
2063	 0.062395325903556 
2064	 6.24800947180059E-02 
2065	 6.25603090377599E-02 
2066	 6.26400033564651E-02 
2067	 6.27170596374158E-02 
2068	 6.27953498181412E-02 
2069	 6.28612179469932E-02 
2070	 6.29436436554712E-02 
2071	 6.30343516933354E-02 
2072	 6.31135795138517E-02 
2073	 6.31967792148941E-02 
2074	 6.32772753467822E-02 
2075	 6.33435250801875E-02 
2076	 6.34192221888848E-02 
2077	 6.35103541690158E-02 
2078	 0.06358517091552 
2079	 6.36511574073501E-02 
2080	 6.37213857029582E-02 
2081	 6.37839497369809E-02 
2082	 6.38484552923308E-02 
2083	 6.39233411238834E-02 
2084	 0.063979065757695 
2085	 6.40520681885673E-02 
2086	 6.41280295100125E-02 
2087	 6.42059663644098E-02 
2088	 6.43022579661368E-02 
2089	 6.43719924293851E-02 
2090	 6.44289442266501E-02 
2091	 6.44865412149124E-02 
2092	 6.45228738346473E-02 
2093	 6.45772187194273E-02 
2094	 6.46374400894912E-02 
2095	 6.47022921257435E-02 
2096	 6.47805356455316E-02 
2097	 6.48513982230549E-02 
2098	 6.49179232709922E-02 
2099	 0.064991869215566 
2100	 0.065065722618302 
2101	 6.51423348549437E-02 
2102	 0.065209972092487 
2103	 0.065275704781641 
2104	 6.53445484563732E-02 
2105	 6.53998378509804E-02 
2106	 6.54723201828921E-02 
2107	 6.55859372080468E-02 
2108	 0.06564414336258 
2109	 0.065670498078304 
2110	 6.57103611860431E-02 
2111	 6.56944138148354E-02 
2112	 6.57314682555723E-02 
2113	 6.57881062594695E-02 
2114	 6.58951144997402E-02 
2115	 6.59836476387553E-02 
2116	 6.61029675711679E-02 
2117	 6.61845379711966E-02 
2118	 6.62630970658575E-02 
2119	 6.63168768974071E-02 
2120	 6.63330383354191E-02 
2121	 6.63815442201802E-02 
2122	 6.64259249401754E-02 
2123	 6.64757137562533E-02 
2124	 6.65526033027715E-02 
2125	 6.66079539271239E-02 
2126	 6.66564472673035E-02 
2127	 6.66938071561528E-02 
2128	 0.066705717461906 
2129	 6.67365457457979E-02 
2130	 6.67760008378876E-02 
2131	 6.67987372647781E-02 
2132	 6.68354737445346E-02 
2133	 6.68942277154608E-02 
2134	 6.69301493247896E-02 
2135	 6.69597539664087E-02 
2136	 0.066978105143678 
2137	 6.69895065996605E-02 
2138	 6.69921583537331E-02 
2139	 6.69661710863798E-02 
2140	 6.69665593292541E-02 
2141	 6.69707606546206E-02 
2142	 6.69809718281126E-02 
2143	 6.70190590593589E-02 
2144	 6.70383203796694E-02 
2145	 6.70582143552445E-02 
2146	 0.067061379839579 
2147	 6.70576729649606E-02 
2148	 6.70236422402841E-02 
2149	 6.70091106715003E-02 
2150	 0.066990914042551 
2151	 6.69689752234049E-02 
2152	 6.69530419150782E-02 
2153	 6.69269769262869E-02 
2154	 6.68803898094638E-02 
2155	 6.68541605516886E-02 
2156	 6.68405471654808E-02 
2157	 6.68174491035248E-02 
2158	 6.68097099066071E-02 
2159	 6.67773152311162E-02 
2160	 6.67088959112671E-02 
2161	 6.66707895411049E-02 
2162	 6.66479343867157E-02 
2163	 6.66070298774016E-02 
2164	 6.65707634813418E-02 
2165	 6.65390196418237E-02 
2166	 6.64942348544482E-02 
2167	 6.64224458789697E-02 
2168	 6.63742517003556E-02 
2169	 6.63340312114037E-02 
2170	 6.62980420059758E-02 
2171	 6.62799237591654E-02 
2172	 6.62324561983293E-02 
2173	 6.61759169070252E-02 
2174	 6.61219499891687E-02 
2175	 0.066038215472946 
2176	 0.065978840776298 
2177	 6.59398439494172E-02 
2178	 6.58975697143999E-02 
2179	 6.58565233822786E-02 
2180	 6.58224620990832E-02 
2181	 6.58146247959368E-02 
2182	 6.57753628421425E-02 
2183	 6.57257489222111E-02 
2184	 6.56619404564237E-02 
2185	 6.56042811046352E-02 
2186	 6.55156199779174E-02 
2187	 6.54665255561138E-02 
2188	 6.54395419222866E-02 
2189	 6.54130983986279E-02 
2190	 0.065408380561305 
2191	 6.53857473981593E-02 
2192	 6.53793503137681E-02 
2193	 6.53353544708309E-02 
2194	 6.52411144647473E-02 
2195	 6.51874574353608E-02 
2196	 0.065124512271805 
2197	 6.50833408052797E-02 
2198	 6.50937835566202E-02 
2199	 6.50748951819038E-02 
2200	 6.50581296948302E-02 
2201	 6.50203411125656E-02 
2202	 6.49439966183952E-02 
2203	 6.48808334892561E-02 
2204	 6.48557508282857E-02 
2205	 6.48367446792274E-02 
2206	 6.48322853800335E-02 
2207	 6.48802350155848E-02 
2208	 6.48866599692516E-02 
2209	 0.064878317044962 
2210	 6.48673009070128E-02 
2211	 6.48325931003637E-02 
2212	 6.48363521998644E-02 
2213	 6.48603305137246E-02 
2214	 6.48671751677957E-02 
2215	 6.48913642810192E-02 
2216	 6.49088512044317E-02 
2217	 6.49031390215485E-02 
2218	 6.49069196629729E-02 
2219	 6.49324475806421E-02 
2220	 6.49437834452252E-02 
2221	 6.49413848367863E-02 
2222	 6.49384533619221E-02 
2223	 6.49501354567164E-02 
2224	 6.49503248757639E-02 
2225	 6.49750977332593E-02 
2226	 6.50216753614282E-02 
2227	 6.50474045209315E-02 
2228	 6.50806836005107E-02 
2229	 6.50990088418908E-02 
2230	 6.50990207586821E-02 
2231	 6.51052222744542E-02 
2232	 6.51128109186173E-02 
2233	 6.51167020389921E-02 
2234	 6.51230014300421E-02 
2235	 6.51139774575873E-02 
2236	 6.50831006454897E-02 
2237	 6.50725304355448E-02 
2238	 6.50444420386126E-02 
2239	 6.50511885392278E-02 
2240	 6.51103248296188E-02 
2241	 6.51373462716704E-02 
2242	 6.51719291086969E-02 
2243	 6.51887376216854E-02 
2244	 0.065189662010936 
2245	 0.065165695044885 
2246	 6.51405549969027E-02 
2247	 6.51388180467482E-02 
2248	 6.51581130291409E-02 
2249	 0.065200638216566 
2250	 6.52152455628223E-02 
2251	 6.52479714202411E-02 
2252	 6.52630790993556E-02 
2253	 6.52473444900957E-02 
2254	 6.52473536582613E-02 
2255	 6.52604214716085E-02 
2256	 6.52580575029399E-02 
2257	 6.52406587801771E-02 
2258	 6.52353678866537E-02 
2259	 6.52309038636471E-02 
2260	 6.52312971011397E-02 
2261	 6.52457390311554E-02 
2262	 6.52392432695845E-02 
2263	 6.52070030736276E-02 
2264	 6.52061954326214E-02 
2265	 6.52057693778926E-02 
2266	 6.52182723277125E-02 
2267	 6.52860852794691E-02 
2268	 6.53135425606206E-02 
2269	 6.53203485245447E-02 
2270	 6.53247326411847E-02 
2271	 6.53003985550756E-02 
2272	 6.52769220612461E-02 
2273	 0.065261438578791 
2274	 6.52446860619441E-02 
2275	 6.52361363542659E-02 
2276	 6.52316192781035E-02 
2277	 6.52415141991124E-02 
2278	 6.52692965378828E-02 
2279	 6.52697895405738E-02 
2280	 6.52695691965237E-02 
2281	 6.52651295822954E-02 
2282	 6.52308878633992E-02 
2283	 6.52385573794022E-02 
2284	 6.52879540712819E-02 
2285	 6.52913736429259E-02 
2286	 6.52794984528334E-02 
2287	 6.52744488129872E-02 
2288	 0.065239466196849 
2289	 6.52340558129625E-02 
2290	 6.52900234611678E-02 
2291	 6.52831430606931E-02 
2292	 6.52240054568791E-02 
2293	 6.52006935767105E-02 
2294	 6.51292420515583E-02 
2295	 6.51160394494165E-02 
2296	 6.51932398850316E-02 
2297	 6.52206515929361E-02 
2298	 6.52164195993031E-02 
2299	 6.52436713777832E-02 
2300	 6.51629923104129E-02 
2301	 6.50983958217681E-02 
2302	 6.51020557621232E-02 
2303	 6.50750301407532E-02 
2304	 0.06506679250635 
2305	 0.065100291687622 
2306	 6.50925151502174E-02 
2307	 0.065061132930595 
2308	 6.50273720365396E-02 
2309	 6.49552546516553E-02 
2310	 6.49535426251248E-02 
2311	 6.49947633909557E-02 
2312	 6.49944099470738E-02 
2313	 6.50317394216973E-02 
2314	 6.50232165602481E-02 
2315	 6.49364875397247E-02 
2316	 6.49040476812257E-02 
2317	 6.49133507652742E-02 
2318	 6.48790773568746E-02 
2319	 6.48310294385821E-02 
2320	 6.47900280865322E-02 
2321	 6.47009788670733E-02 
2322	 6.46713812824353E-02 
2323	 6.47071074435427E-02 
2324	 6.46919001395237E-02 
2325	 6.46900522036415E-02 
2326	 6.46679196340167E-02 
2327	 6.45956572508927E-02 
2328	 6.45417774086828E-02 
2329	 6.45484732810382E-02 
2330	 6.45041344656452E-02 
2331	 6.44816010115375E-02 
2332	 6.44777110328959E-02 
2333	 6.44806785635267E-02 
2334	 6.45069901409957E-02 
2335	 6.45242464265683E-02 
2336	 0.0645242951726 
2337	 6.44427289789109E-02 
2338	 6.43529458879096E-02 
2339	 0.064286657138701 
2340	 6.42086643420171E-02 
2341	 0.064153566322602 
2342	 6.41300906336626E-02 
2343	 6.41633000312711E-02 
2344	 6.41716261518569E-02 
2345	 6.42065550333391E-02 
2346	 6.43272126082323E-02 
2347	 0.064328203660954 
2348	 6.42786440865461E-02 
2349	 6.42445245595456E-02 
2350	 6.41504663375326E-02 
2351	 6.40708228945498E-02 
2352	 6.39841016498412E-02 
2353	 6.39161201816218E-02 
2354	 6.38348492162522E-02 
2355	 6.37907811479878E-02 
2356	 6.38134619951458E-02 
2357	 6.37727056789078E-02 
2358	 6.37161128087887E-02 
2359	 6.36528721878186E-02 
2360	 6.35502042182931E-02 
2361	 6.34839911940281E-02 
2362	 6.34337520149166E-02 
2363	 6.33684322331872E-02 
2364	 6.32925694854208E-02 
2365	 6.32304449580485E-02 
2366	 6.31317183936391E-02 
2367	 6.31078450513618E-02 
2368	 6.32177694782311E-02 
2369	 6.31801614222654E-02 
2370	 6.30883015104338E-02 
2371	 6.30555277826576E-02 
2372	 6.28259771182079E-02 
2373	 0.062644586804385 
2374	 6.25852852969557E-02 
2375	 6.25137567939397E-02 
2376	 6.25031097559573E-02 
2377	 6.24945348104479E-02 
2378	 6.24520399702472E-02 
2379	 6.23751252679498E-02 
2380	 6.23261078122446E-02 
2381	 6.22615084669443E-02 
2382	 6.21125731570145E-02 
2383	 6.20469792138893E-02 
2384	 6.20214147830262E-02 
2385	 6.19639260286796E-02 
2386	 6.19862849114236E-02 
2387	 0.061993639614358 
2388	 0.061898444430782 
2389	 6.17901374278789E-02 
2390	 6.17441983787109E-02 
2391	 6.16286133150993E-02 
2392	 6.14743943589226E-02 
2393	 6.13981678021977E-02 
2394	 6.12622602173961E-02 
2395	 6.11532321278257E-02 
2396	 6.10431117262841E-02 
2397	 6.09624166357494E-02 
2398	 6.10329644830891E-02 
2399	 6.10484762509435E-02 
2400	 6.12047156789212E-02 
2401	 6.13475653696365E-02 
2402	 6.11421917321835E-02 
2403	 6.10183311463542E-02 
2404	 6.09582993686053E-02 
2405	 6.07856222371389E-02 
2406	 6.07497108050564E-02 
2407	 6.07271644259936E-02 
2408	 6.06213538632125E-02 
2409	 6.05410583253783E-02 
2410	 6.05149426404044E-02 
2411	 6.04725858836011E-02 
2412	 6.02657644359109E-02 
2413	 6.00297629898058E-02 
2414	 5.98590461215221E-02 
2415	 5.97768082588261E-02 
2416	 5.97213730350559E-02 
2417	 5.97991337402234E-02 
2418	 5.97984590363905E-02 
2419	 5.97933200211507E-02 
2420	 5.97096860156825E-02 
2421	 5.96268241039186E-02 
2422	 5.95235332195471E-02 
2423	 5.93388464066189E-02 
2424	 5.91862794262616E-02 
2425	 5.89612720697748E-02 
2426	 0.058879144810449 
2427	 5.89023348908622E-02 
2428	 5.88340280926712E-02 
2429	 5.88938790704864E-02 
2430	 5.87988473693801E-02 
2431	 5.84688361825143E-02 
2432	 5.83104850962121E-02 
2433	 5.81711333084391E-02 
2434	 5.80818282521096E-02 
2435	 5.81532424790689E-02 
2436	 5.81029745678043E-02 
2437	 5.80033480407013E-02 
2438	 5.79450949038671E-02 
2439	 5.78308742997183E-02 
2440	 5.77132629963167E-02 
2441	 5.76224820145531E-02 
2442	 5.75536641302664E-02 
2443	 0.057465620735877 
2444	 5.74045870475405E-02 
2445	 5.74215447087685E-02 
2446	 5.73621944763573E-02 
2447	 5.72680776952652E-02 
2448	 5.71639818553599E-02 
2449	 5.70369768031511E-02 
2450	 5.68874822715377E-02 
2451	 5.67112190914455E-02 
2452	 5.65717892482091E-02 
2453	 5.63560931874258E-02 
2454	 5.63010835413404E-02 
2455	 0.056386613611991 
2456	 5.62947537752858E-02 
2457	 5.62476875195262E-02 
2458	 5.61566072336867E-02 
2459	 0.055890007266362 
2460	 5.57776260920348E-02 
2461	 5.57846050038627E-02 
2462	 5.57397886126712E-02 
2463	 5.56441369063031E-02 
2464	 5.56028007021173E-02 
2465	 5.56541659605959E-02 
2466	 5.56200971553781E-02 
2467	 5.55988165358082E-02 
2468	 5.55104143113244E-02 
2469	 0.055254933864643 
2470	 5.50926378750832E-02 
2471	 5.50990204083511E-02 
2472	 5.50717021646099E-02 
2473	 5.49885362577313E-02 
2474	 5.49917299804211E-02 
2475	 5.49613191361096E-02 
2476	 5.48502988698548E-02 
2477	 5.48065017026212E-02 
2478	 5.45974624577045E-02 
2479	 0.054292322578799 
2480	 5.41846838129453E-02 
2481	 5.40265377264173E-02 
2482	 5.39116290691087E-02 
2483	 5.39171448275136E-02 
2484	 5.37762652597747E-02 
2485	 5.36279864287914E-02 
2486	 5.35777583759783E-02 
2487	 0.053603639791726 
2488	 0.05354752014918 
2489	 5.34246282696337E-02 
2490	 5.34077649907096E-02 
2491	 5.33182725514863E-02 
2492	 5.32640726166208E-02 
2493	 5.33306587052169E-02 
2494	 5.33959590818252E-02 
2495	 5.34864724083862E-02 
2496	 5.34883300396536E-02 
2497	 5.34616073609044E-02 
2498	 5.34302435960773E-02 
2499	 5.31546257720409E-02 
2500	 0.052891496320198 
