Wavelength	lmw-9-300005.asd
350	 6.16307505691892E-02 
351	 6.22961388170442E-02 
352	 4.95380888532246E-02 
353	 3.61717283577778E-02 
354	 4.03553851942153E-02 
355	 4.37470596952904E-02 
356	 0.045483844421143 
357	 4.81078658322876E-02 
358	 4.80731165884475E-02 
359	 4.38628001901843E-02 
360	 3.95841883372971E-02 
361	 4.15565179645646E-02 
362	 3.93119389320025E-02 
363	 3.80792859342166E-02 
364	 4.01854906911098E-02 
365	 4.07509342989002E-02 
366	 3.84003354670635E-02 
367	 3.67432823230367E-02 
368	 3.85462346106016E-02 
369	 3.76114296341999E-02 
370	 3.70150974364633E-02 
371	 3.73251277693221E-02 
372	 3.73535690871373E-02 
373	 3.88961807050068E-02 
374	 3.83543345615853E-02 
375	 3.57115888179805E-02 
376	 3.84403378394667E-02 
377	 3.68923009841256E-02 
378	 3.63285582821883E-02 
379	 4.19725364092246E-02 
380	 3.94121616395617E-02 
381	 3.64797235424202E-02 
382	 3.71083981326109E-02 
383	 4.10195797477206E-02 
384	 4.23287268505798E-02 
385	 4.20262658789615E-02 
386	 4.18432898624928E-02 
387	 4.26846522227275E-02 
388	 4.48359476504933E-02 
389	 4.64432029191109E-02 
390	 4.58559477992087E-02 
391	 4.57279242373241E-02 
392	 4.60834857280468E-02 
393	 4.73618015980806E-02 
394	 5.01746892908865E-02 
395	 5.03582701415583E-02 
396	 5.14716399319878E-02 
397	 0.055249956685127 
398	 5.68871784298992E-02 
399	 5.85351400311697E-02 
400	 6.03961012711985E-02 
401	 6.20365406246021E-02 
402	 6.32602999798857E-02 
403	 6.45557156353049E-02 
404	 6.63341638840853E-02 
405	 6.88607011104464E-02 
406	 7.07942816182481E-02 
407	 7.28118598226339E-02 
408	 7.52513460254798E-02 
409	 7.65359265405834E-02 
410	 7.70375875787294E-02 
411	 7.81166400455365E-02 
412	 8.08975458592237E-02 
413	 8.13880676574872E-02 
414	 0.082097028883862 
415	 8.37338000778314E-02 
416	 8.40079089557268E-02 
417	 8.42434491163563E-02 
418	 8.49860246719715E-02 
419	 8.60834820011798E-02 
420	 8.57662245036546E-02 
421	 8.50293133918791E-02 
422	 8.47812383328509E-02 
423	 8.55899006081931E-02 
424	 8.54195983529098E-02 
425	 8.49855282776009E-02 
426	 8.49229426788096E-02 
427	 8.50202716781913E-02 
428	 8.56688668674595E-02 
429	 8.62881559411226E-02 
430	 8.64979549613613E-02 
431	 8.85384436517904E-02 
432	 9.05770173135417E-02 
433	 9.23173901599171E-02 
434	 9.50768116986844E-02 
435	 9.87763788592009E-02 
436	 0.102872860844988 
437	 0.106979894089299 
438	 0.111364419571759 
439	 0.115785765440305 
440	 0.120153788677578 
441	 0.124442075525352 
442	 0.128583294557847 
443	 0.132700119955672 
444	 0.1368132856296 
445	 0.14075810115675 
446	 0.144671864576776 
447	 0.148579036434055 
448	 0.152471331142495 
449	 0.156401667559896 
450	 0.160060225210034 
451	 0.163541312466102 
452	 0.167253208076855 
453	 0.170380944101959 
454	 0.173425174668288 
455	 0.176797642038905 
456	 0.180157155345676 
457	 0.183243831774417 
458	 0.186208846823294 
459	 0.189345502692681 
460	 0.192380000273456 
461	 0.195392669070609 
462	 0.198404694857168 
463	 0.201304001010021 
464	 0.20420888903392 
465	 0.207038459664122 
466	 0.209728459886408 
467	 0.212494054607567 
468	 0.215252257986096 
469	 0.217871240272799 
470	 0.220232563946355 
471	 0.223005673758855 
472	 0.225775327844376 
473	 0.228203270926018 
474	 0.230555160926716 
475	 0.232789265255927 
476	 0.235105570728983 
477	 0.23767753199571 
478	 0.239771730332841 
479	 0.241650759581808 
480	 0.243545656452378 
481	 0.245519809022782 
482	 0.24749214348086 
483	 0.249348812849877 
484	 0.251011134996213 
485	 0.252571335207489 
486	 0.254129383499841 
487	 0.255600761844098 
488	 0.256777566426461 
489	 0.257998626878554 
490	 0.25922977796883 
491	 0.260394014820459 
492	 0.261512831117558 
493	 0.262297114286811 
494	 0.262884912106128 
495	 0.263609026340581 
496	 0.264554147773292 
497	 0.265245234948226 
498	 0.265576815131647 
499	 0.266062979499924 
500	 0.266438669984713 
501	 0.266596657957423 
502	 0.266578585155645 
503	 0.266877935674223 
504	 0.267078910236981 
505	 0.26712534742726 
506	 0.267300006022114 
507	 0.267296355508955 
508	 0.267285305426896 
509	 0.267355756511865 
510	 0.267134303855693 
511	 0.266780534014357 
512	 0.266476523453652 
513	 0.266371188380361 
514	 0.266156100941591 
515	 0.266006640410271 
516	 0.265962397618448 
517	 0.265744216322998 
518	 0.265451502587808 
519	 0.265076273803753 
520	 0.264651120641509 
521	 0.264565969835698 
522	 0.264401823343757 
523	 0.264074495367394 
524	 0.263890000000988 
525	 0.263658404643398 
526	 0.263404516073503 
527	 0.26317470875535 
528	 0.262925007109778 
529	 0.262752096138503 
530	 0.26261486098696 
531	 0.262398471124405 
532	 0.262272950293864 
533	 0.262178348824845 
534	 0.262065893412239 
535	 0.261987428113729 
536	 0.26183919092402 
537	 0.261710771886804 
538	 0.261722236702299 
539	 0.2616359907853 
540	 0.261591078454677 
541	 0.261625149641238 
542	 0.261600971288844 
543	 0.261692367014464 
544	 0.261844074823743 
545	 0.261959141741289 
546	 0.262044725903631 
547	 0.262119584109666 
548	 0.262247137545817 
549	 0.262514268050653 
550	 0.262729621655522 
551	 0.26292233035513 
552	 0.263156384559699 
553	 0.263479874475122 
554	 0.263777978601999 
555	 0.264075630018491 
556	 0.264457073659117 
557	 0.264801128073651 
558	 0.265232377726073 
559	 0.265765182520934 
560	 0.266163807283127 
561	 0.266729373544389 
562	 0.267371729276408 
563	 0.267904211206435 
564	 0.268416150854571 
565	 0.268925073289259 
566	 0.26942716661046 
567	 0.269899736977764 
568	 0.270460661995635 
569	 0.271055328691391 
570	 0.271649180657868 
571	 0.272428555130395 
572	 0.27327139795914 
573	 0.274087897695444 
574	 0.274827941168261 
575	 0.27559209188357 
576	 0.276543239524952 
577	 0.277691625677069 
578	 0.27869566257785 
579	 0.279756969036318 
580	 0.280972814138683 
581	 0.282355464709725 
582	 0.283641869919566 
583	 0.284767803872827 
584	 0.285761111180883 
585	 0.286751500163113 
586	 0.287667436307394 
587	 0.288625873162456 
588	 0.289740079858997 
589	 0.290881473077505 
590	 0.292068568007129 
591	 0.293267036546461 
592	 0.294402927941772 
593	 0.295599474466769 
594	 0.296795986543789 
595	 0.297973002748153 
596	 0.299339906484209 
597	 0.3006486534702 
598	 0.301930172555838 
599	 0.303338773693988 
600	 0.304627553130669 
601	 0.305813464677212 
602	 0.307007940121519 
603	 0.308455923020379 
604	 0.309817503178186 
605	 0.311076130873854 
606	 0.312344740885312 
607	 0.313746003370381 
608	 0.315179373643112 
609	 0.316524693234127 
610	 0.317665335126024 
611	 0.318844345327461 
612	 0.320010510043592 
613	 0.321080567589359 
614	 0.322125035695984 
615	 0.323228660077348 
616	 0.324334443592398 
617	 0.325300088805793 
618	 0.326322293955528 
619	 0.327385316653879 
620	 0.328433528353314 
621	 0.329395386975341 
622	 0.330264079164546 
623	 0.331117221604415 
624	 0.332041601542704 
625	 0.332901329474902 
626	 0.333713648171915 
627	 0.334515436477745 
628	 0.335351042705966 
629	 0.336121529469616 
630	 0.336852376342502 
631	 0.337584394054331 
632	 0.338265928935375 
633	 0.338914139818532 
634	 0.339527631705483 
635	 0.340094227470486 
636	 0.340682374542411 
637	 0.341257084217235 
638	 0.341779792650584 
639	 0.342238362823863 
640	 0.342782756920913 
641	 0.343301294235836 
642	 0.343617258269311 
643	 0.344100151936856 
644	 0.344518070222564 
645	 0.344789166447034 
646	 0.345129555122205 
647	 0.345453928700993 
648	 0.345712987946519 
649	 0.345890989460334 
650	 0.346073356024595 
651	 0.346252303571 
652	 0.346426768765755 
653	 0.346599501099878 
654	 0.346689416829883 
655	 0.34676872008965 
656	 0.346877966700379 
657	 0.346902857737135 
658	 0.34692282096458 
659	 0.34693852050658 
660	 0.346911336964415 
661	 0.346808084553329 
662	 0.346661086397958 
663	 0.346509688180551 
664	 0.346391960554842 
665	 0.346325447928692 
666	 0.346182117221621 
667	 0.34587828322364 
668	 0.345683866300945 
669	 0.345486528650796 
670	 0.345222285976365 
671	 0.344882212241041 
672	 0.344523070748446 
673	 0.344166860501925 
674	 0.343817979903071 
675	 0.343462643229335 
676	 0.343078955251722 
677	 0.342638309640551 
678	 0.342133671535881 
679	 0.341712965487959 
680	 0.341259830355979 
681	 0.340726110401756 
682	 0.340181262801908 
683	 0.339694217003543 
684	 0.339199004056814 
685	 0.338622378552353 
686	 0.338002757060267 
687	 0.337391055884007 
688	 0.336793310221899 
689	 0.336177852325641 
690	 0.335466614698479 
691	 0.334800367845592 
692	 0.334242188154197 
693	 0.333650677025575 
694	 0.332929754416332 
695	 0.332168530946151 
696	 0.331484846173158 
697	 0.330702427352954 
698	 0.329934907255088 
699	 0.329219243984673 
700	 0.328495178083391 
701	 0.327727495205389 
702	 0.326919840290773 
703	 0.326086130596793 
704	 0.325225035360284 
705	 0.324430299718347 
706	 0.323663028168895 
707	 0.32282505905703 
708	 0.321964005621273 
709	 0.321115981570684 
710	 0.320291744466678 
711	 0.319466416177344 
712	 0.318594473678558 
713	 0.317679076024088 
714	 0.316763212540425 
715	 0.315989420544832 
716	 0.315135894747597 
717	 0.314184092254683 
718	 0.313273412804366 
719	 0.312483188786728 
720	 0.311631653320325 
721	 0.310652736868427 
722	 0.309781087789097 
723	 0.308773376693456 
724	 0.307761669153405 
725	 0.306931411754014 
726	 0.30607085224635 
727	 0.305132463798343 
728	 0.304160478473751 
729	 0.303269456782747 
730	 0.30238494522876 
731	 0.301449604176672 
732	 0.300447718507971 
733	 0.299428906936745 
734	 0.298592764982755 
735	 0.297783012905731 
736	 0.296763119018128 
737	 0.295825249414357 
738	 0.294911313332657 
739	 0.293984490963517 
740	 0.293059210559286 
741	 0.292171120568483 
742	 0.291271024639601 
743	 0.290340010529778 
744	 0.289501503306051 
745	 0.288590418771926 
746	 0.287656360478936 
747	 0.286820165461168 
748	 0.285914169408554 
749	 0.285029604157545 
750	 0.284209261938664 
751	 0.283407965028099 
752	 0.282502368150025 
753	 0.281614187838718 
754	 0.280837199658875 
755	 0.280000894590783 
756	 0.279251876887812 
757	 0.278512734701128 
758	 0.277630551220484 
759	 0.276795057088966 
760	 0.276003304140009 
761	 0.275239029549738 
762	 0.274492868965014 
763	 0.273805004403942 
764	 0.273073810559945 
765	 0.272259604118784 
766	 0.27159468519616 
767	 0.270959769615701 
768	 0.27027281067955 
769	 0.269500332513513 
770	 0.268797922214573 
771	 0.268162055069596 
772	 0.267558722716738 
773	 0.266939283879137 
774	 0.266343700695289 
775	 0.265753250824977 
776	 0.265146520373004 
777	 0.264523230784351 
778	 0.263943341941316 
779	 0.263403394467388 
780	 0.262868313454924 
781	 0.262316834361483 
782	 0.261828634108309 
783	 0.261370053143721 
784	 0.260794997032771 
785	 0.260322965013818 
786	 0.259918839186318 
787	 0.259514991174552 
788	 0.259089845125817 
789	 0.25870658732298 
790	 0.258293765376437 
791	 0.257783693987253 
792	 0.257390863193119 
793	 0.257075384268755 
794	 0.256786783175244 
795	 0.256475057704307 
796	 0.256065884445981 
797	 0.255658161664357 
798	 0.255340667180181 
799	 0.2551356101192 
800	 0.254904441016222 
801	 0.254609621686837 
802	 0.254283848821998 
803	 0.254071569228027 
804	 0.253905463004181 
805	 0.253721268016626 
806	 0.253475215874269 
807	 0.253238837737824 
808	 0.253051865257966 
809	 0.25289488221097 
810	 0.252681083855931 
811	 0.252516468160957 
812	 0.252371931999008 
813	 0.252217660591829 
814	 0.252098409631682 
815	 0.252095953907659 
816	 0.252090922003448 
817	 0.251929639592167 
818	 0.251756361560907 
819	 0.251721884327855 
820	 0.251749093839639 
821	 0.251602082240098 
822	 0.25160632157561 
823	 0.251620511595931 
824	 0.251567058188128 
825	 0.251588359633689 
826	 0.251563009928171 
827	 0.251544503669453 
828	 0.251594177165268 
829	 0.251652791593621 
830	 0.251642806281148 
831	 0.251622002706229 
832	 0.251697861450958 
833	 0.251827362153048 
834	 0.251905610069607 
835	 0.251931384055154 
836	 0.252004447487342 
837	 0.25214408743392 
838	 0.25227158471254 
839	 0.252350212534313 
840	 0.252444041173086 
841	 0.252550341497369 
842	 0.25266597462129 
843	 0.252785660497965 
844	 0.252890358687688 
845	 0.253115659984514 
846	 0.253400410354573 
847	 0.253612869331425 
848	 0.253820182497554 
849	 0.25402572714749 
850	 0.254213690582769 
851	 0.254358359474018 
852	 0.254454128778065 
853	 0.254682871114483 
854	 0.255033130353681 
855	 0.255190754277946 
856	 0.255487192378071 
857	 0.255813396326729 
858	 0.256054038310228 
859	 0.256356719664968 
860	 0.25658086214702 
861	 0.256794486263221 
862	 0.257093129111305 
863	 0.257336853928881 
864	 0.257688341973499 
865	 0.258083963035553 
866	 0.258347559687523 
867	 0.258597490372665 
868	 0.258944467230112 
869	 0.259361160955322 
870	 0.25969090026871 
871	 0.259976778107268 
872	 0.260315699571074 
873	 0.26073263681491 
874	 0.261123100664467 
875	 0.261478604275387 
876	 0.261832915027411 
877	 0.262210333596161 
878	 0.262561527415894 
879	 0.263052834966035 
880	 0.263586789093417 
881	 0.264016987709838 
882	 0.264427360487279 
883	 0.264830645853276 
884	 0.265219564233852 
885	 0.265598480553677 
886	 0.266120702872064 
887	 0.26662282279553 
888	 0.267052078097558 
889	 0.267478660801253 
890	 0.26797730138618 
891	 0.268470382968181 
892	 0.268934080320666 
893	 0.269434877569308 
894	 0.269935891613795 
895	 0.270414052394627 
896	 0.270900175039949 
897	 0.27151239472424 
898	 0.27216143474725 
899	 0.272691778983506 
900	 0.273062939088172 
901	 0.27355975484352 
902	 0.274147558380653 
903	 0.274765244278975 
904	 0.275366439214036 
905	 0.276032655948571 
906	 0.276739780887802 
907	 0.277344555739806 
908	 0.277745929002792 
909	 0.278304912903348 
910	 0.278961951722039 
911	 0.279655086661956 
912	 0.280326471825159 
913	 0.280879885327338 
914	 0.281506822406396 
915	 0.282235367027529 
916	 0.282924866581316 
917	 0.283518525476693 
918	 0.284085885222793 
919	 0.284693610132154 
920	 0.285374104066996 
921	 0.286144139927358 
922	 0.286858698004258 
923	 0.287475864483238 
924	 0.288140374910605 
925	 0.288780978965662 
926	 0.289474228357434 
927	 0.290225220726794 
928	 0.290860012411055 
929	 0.291683123347755 
930	 0.292539490916759 
931	 0.293239478630413 
932	 0.29379674796311 
933	 0.294499192848158 
934	 0.295292881381062 
935	 0.296078890118151 
936	 0.296978281574677 
937	 0.297745171997135 
938	 0.29838578847587 
939	 0.29903991335382 
940	 0.299958416231413 
941	 0.300766334761498 
942	 0.301536054475712 
943	 0.30242124266846 
944	 0.303129677524693 
945	 0.303743645108263 
946	 0.304431937499209 
947	 0.305301013831083 
948	 0.306057224483105 
949	 0.306695186554156 
950	 0.307363656612576 
951	 0.30819986984161 
952	 0.308907740652415 
953	 0.309548927114475 
954	 0.310228893344304 
955	 0.311016985334311 
956	 0.311721030446592 
957	 0.312402179065599 
958	 0.313040024777 
959	 0.313610695817049 
960	 0.314387715881629 
961	 0.315159220728744 
962	 0.315919722928386 
963	 0.316763948289157 
964	 0.31741184251783 
965	 0.318208586872422 
966	 0.319113877847161 
967	 0.319877264445477 
968	 0.320827016320238 
969	 0.321832820937776 
970	 0.322800994556776 
971	 0.323717504356772 
972	 0.324748808044409 
973	 0.32571832573324 
974	 0.326627927960473 
975	 0.327601186058035 
976	 0.3286135174453 
977	 0.329601811939302 
978	 0.330539295279506 
979	 0.331443172886048 
980	 0.33240321648322 
981	 0.333294373811241 
982	 0.33416347129131 
983	 0.335119921911477 
984	 0.335947793783662 
985	 0.336863152038192 
986	 0.337901204028622 
987	 0.338989117947069 
988	 0.34020785617784 
989	 0.341196544116455 
990	 0.342046482263853 
991	 0.3430250878959 
992	 0.343949017273961 
993	 0.344923999292445 
994	 0.345970932262103 
995	 0.347052299147077 
996	 0.348114362510814 
997	 0.349140269559454 
998	 0.35016999622069 
999	 0.351251625195438 
1000	 0.35236920971622 
1001	 0.358033915502655 
1002	 0.359044210670886 
1003	 0.360115526451009 
1004	 0.361157225100603 
1005	 0.362230950849013 
1006	 0.363273718447278 
1007	 0.364316666929096 
1008	 0.365261002045562 
1009	 0.366250231700007 
1010	 0.367262289669302 
1011	 0.368235936015875 
1012	 0.369258919182336 
1013	 0.370305983130621 
1014	 0.371317755402237 
1015	 0.372339960194587 
1016	 0.373357202512415 
1017	 0.374373911527066 
1018	 0.375373268045368 
1019	 0.376359886849766 
1020	 0.377345414797391 
1021	 0.378359072654088 
1022	 0.379343057990902 
1023	 0.380292240826127 
1024	 0.381216922029859 
1025	 0.382124484267511 
1026	 0.383071281224151 
1027	 0.383994223228057 
1028	 0.38489174590671 
1029	 0.38582819522881 
1030	 0.386722183007092 
1031	 0.387594310781817 
1032	 0.388437367992679 
1033	 0.389317299498742 
1034	 0.390209715153535 
1035	 0.391106854630938 
1036	 0.392032413832518 
1037	 0.393002305355291 
1038	 0.393920133827512 
1039	 0.394791439622731 
1040	 0.39561905870906 
1041	 0.396412519339788 
1042	 0.397257494508323 
1043	 0.398091664409062 
1044	 0.398920412871123 
1045	 0.399767464947659 
1046	 0.400635896101306 
1047	 0.40143214708891 
1048	 0.402214439067876 
1049	 0.40302370898305 
1050	 0.403802402535994 
1051	 0.404583880074601 
1052	 0.405388656523481 
1053	 0.406219179813297 
1054	 0.407051920807248 
1055	 0.407852377790631 
1056	 0.408648924569457 
1057	 0.409420170880622 
1058	 0.410096245583255 
1059	 0.410877732149147 
1060	 0.411699697911351 
1061	 0.412527839490419 
1062	 0.413380990972783 
1063	 0.414226234336934 
1064	 0.415019205728376 
1065	 0.415787766534 
1066	 0.416566633800709 
1067	 0.417378843701414 
1068	 0.418211225467139 
1069	 0.41904177780091 
1070	 0.419853143236687 
1071	 0.420668995183283 
1072	 0.421463127087562 
1073	 0.422217073785676 
1074	 0.422980539716934 
1075	 0.423737843862336 
1076	 0.424476090082546 
1077	 0.425260148171445 
1078	 0.426047090433537 
1079	 0.426813456689542 
1080	 0.427600888560656 
1081	 0.428285063812174 
1082	 0.428965984013642 
1083	 0.429656366562713 
1084	 0.430308413670163 
1085	 0.430979765201549 
1086	 0.431681790933794 
1087	 0.432353312608595 
1088	 0.432998965867358 
1089	 0.433704981581143 
1090	 0.434338226232193 
1091	 0.434880115754188 
1092	 0.43538775246143 
1093	 0.4358710135237 
1094	 0.436390180909961 
1095	 0.436934239895972 
1096	 0.437436431950656 
1097	 0.437906378070079 
1098	 0.438362876671966 
1099	 0.438768637589803 
1100	 0.439176855608207 
1101	 0.439595092349909 
1102	 0.439988707889659 
1103	 0.440372511895511 
1104	 0.440711581368747 
1105	 0.441036594221736 
1106	 0.44131626765695 
1107	 0.441556710392705 
1108	 0.441810582293329 
1109	 0.442004931075121 
1110	 0.442205742581638 
1111	 0.442415690529245 
1112	 0.44262016313065 
1113	 0.442785732634845 
1114	 0.442971837896222 
1115	 0.443109862901699 
1116	 0.443184352529783 
1117	 0.443279004961989 
1118	 0.443387682486235 
1119	 0.443445904611632 
1120	 0.443497453909359 
1121	 0.443534530353242 
1122	 0.44355034191192 
1123	 0.443567915310077 
1124	 0.443539291376163 
1125	 0.443492352951618 
1126	 0.443413629911477 
1127	 0.443303838615447 
1128	 0.443159437852667 
1129	 0.442998072668244 
1130	 0.442799478083105 
1131	 0.442587335724931 
1132	 0.442301498252704 
1133	 0.441981286403445 
1134	 0.441608042201449 
1135	 0.44118751331329 
1136	 0.440701227789717 
1137	 0.440164379823918 
1138	 0.43955665978995 
1139	 0.438857306631048 
1140	 0.438094088026276 
1141	 0.437206024284889 
1142	 0.436257414877023 
1143	 0.435161262893412 
1144	 0.433925785448118 
1145	 0.432627821541077 
1146	 0.431181405368753 
1147	 0.429750927112041 
1148	 0.428230659440015 
1149	 0.426741496598298 
1150	 0.425217710212231 
1151	 0.42372008580944 
1152	 0.422254279234222 
1153	 0.420908025841903 
1154	 0.419721452659987 
1155	 0.418587078005706 
1156	 0.417735855673608 
1157	 0.417054575069263 
1158	 0.416551853955946 
1159	 0.416297224512836 
1160	 0.416103050376716 
1161	 0.416090234529703 
1162	 0.416090388918847 
1163	 0.416239769989851 
1164	 0.416340509692121 
1165	 0.416477739462036 
1166	 0.416601879056692 
1167	 0.416702569275852 
1168	 0.416750788494443 
1169	 0.416765391101158 
1170	 0.416733760582801 
1171	 0.41670042480011 
1172	 0.416635518974336 
1173	 0.416562632194938 
1174	 0.416469057003143 
1175	 0.416381702888907 
1176	 0.416273799242215 
1177	 0.416177114096025 
1178	 0.416090460664815 
1179	 0.415999560808144 
1180	 0.415919663056584 
1181	 0.415815860060506 
1182	 0.415699392476926 
1183	 0.415582447968019 
1184	 0.415448788565509 
1185	 0.415288228314698 
1186	 0.415142936658783 
1187	 0.41500256589241 
1188	 0.414847249871405 
1189	 0.414681472176245 
1190	 0.414523743270257 
1191	 0.414360831504035 
1192	 0.414198328977729 
1193	 0.414040071894204 
1194	 0.413881155620825 
1195	 0.413714154535249 
1196	 0.413554318648809 
1197	 0.413397998024821 
1198	 0.413247258881553 
1199	 0.413100535793186 
1200	 0.412953977311831 
1201	 0.412819718326359 
1202	 0.412694766163769 
1203	 0.412571466931113 
1204	 0.412448197742962 
1205	 0.412343573534924 
1206	 0.412240034229904 
1207	 0.412161142070476 
1208	 0.412125349946587 
1209	 0.412056135347634 
1210	 0.411994469559669 
1211	 0.411915448381197 
1212	 0.41179311202338 
1213	 0.411702927486298 
1214	 0.4116279523428 
1215	 0.411548903165583 
1216	 0.411474882730874 
1217	 0.411417391865865 
1218	 0.411346985006881 
1219	 0.411266483480751 
1220	 0.411195872385648 
1221	 0.411120376447551 
1222	 0.411066732793685 
1223	 0.411037559234096 
1224	 0.410982898394518 
1225	 0.410944827163828 
1226	 0.410877036230945 
1227	 0.410766288501597 
1228	 0.410678255855259 
1229	 0.410597087517969 
1230	 0.410503582534203 
1231	 0.41040000795361 
1232	 0.410309715694233 
1233	 0.410221495561992 
1234	 0.410119737051102 
1235	 0.410046012811565 
1236	 0.410002986924291 
1237	 0.409933402867832 
1238	 0.409866385922387 
1239	 0.409787710125433 
1240	 0.409686023032983 
1241	 0.409604793959818 
1242	 0.409532483850854 
1243	 0.40945295843011 
1244	 0.409385847301083 
1245	 0.409303233393929 
1246	 0.409194650040593 
1247	 0.409106175522244 
1248	 0.409030176816582 
1249	 0.408944414607723 
1250	 0.408867335258486 
1251	 0.408769163018274 
1252	 0.408650812009547 
1253	 0.408506506414672 
1254	 0.408359154838329 
1255	 0.408188945122104 
1256	 0.408034369088192 
1257	 0.407874297869483 
1258	 0.407716149053853 
1259	 0.407571159165087 
1260	 0.407410330746403 
1261	 0.407232567962253 
1262	 0.407063593468712 
1263	 0.406882273977351 
1264	 0.406721283202498 
1265	 0.406572165314918 
1266	 0.406430026951116 
1267	 0.40633270297134 
1268	 0.406189229556176 
1269	 0.406026382939757 
1270	 0.405846132796094 
1271	 0.405667741602993 
1272	 0.405449520448719 
1273	 0.405273435766259 
1274	 0.405130974445522 
1275	 0.404956052988292 
1276	 0.404783534152271 
1277	 0.404593811783497 
1278	 0.404394998432349 
1279	 0.40417365163386 
1280	 0.403937739888641 
1281	 0.403690634380793 
1282	 0.403417198082943 
1283	 0.403137000825293 
1284	 0.402851087605624 
1285	 0.402558371098239 
1286	 0.402215333614416 
1287	 0.401891594171202 
1288	 0.401561421025036 
1289	 0.401212365532337 
1290	 0.400876602233443 
1291	 0.400558715225274 
1292	 0.40021630353216 
1293	 0.399870348232162 
1294	 0.399507216713187 
1295	 0.399129150041419 
1296	 0.39874641359616 
1297	 0.398353878773202 
1298	 0.39794977463906 
1299	 0.397544599421421 
1300	 0.397115226412868 
1301	 0.396663874780457 
1302	 0.396206791911791 
1303	 0.39573788338167 
1304	 0.395258353825015 
1305	 0.394776768960867 
1306	 0.394270646857536 
1307	 0.39370227414062 
1308	 0.393098107990457 
1309	 0.392489444942274 
1310	 0.391856312522497 
1311	 0.391176588898386 
1312	 0.390498424868039 
1313	 0.389754269137866 
1314	 0.388938489234296 
1315	 0.388110844326096 
1316	 0.387265905006652 
1317	 0.386368495838888 
1318	 0.385435938466698 
1319	 0.384467167523129 
1320	 0.383463827360121 
1321	 0.382423893782224 
1322	 0.381368626738831 
1323	 0.380243304766883 
1324	 0.379066492910887 
1325	 0.37783892989563 
1326	 0.376584179898981 
1327	 0.375289908522611 
1328	 0.373947589077463 
1329	 0.37259553699974 
1330	 0.371197056694299 
1331	 0.369752525441447 
1332	 0.368275094368706 
1333	 0.36676613345824 
1334	 0.365239479698776 
1335	 0.363671065094598 
1336	 0.362102350640043 
1337	 0.360506643975866 
1338	 0.358935610634013 
1339	 0.357362103949387 
1340	 0.355785202015005 
1341	 0.354208784221975 
1342	 0.352653022077962 
1343	 0.351087330044441 
1344	 0.349546681175571 
1345	 0.348017457458727 
1346	 0.346548161250339 
1347	 0.345112933284579 
1348	 0.343698704361669 
1349	 0.342330809770473 
1350	 0.340962414087157 
1351	 0.339611685427317 
1352	 0.338263457527532 
1353	 0.336942908179935 
1354	 0.335638277405476 
1355	 0.33436590500778 
1356	 0.333122524291869 
1357	 0.331866160521281 
1358	 0.330620417670046 
1359	 0.329394018176025 
1360	 0.328170057960739 
1361	 0.326961391679467 
1362	 0.325804914162557 
1363	 0.324609860010207 
1364	 0.323395469689209 
1365	 0.322184294800504 
1366	 0.320978420573263 
1367	 0.319746516929502 
1368	 0.318510351606857 
1369	 0.317291546925889 
1370	 0.316007860916367 
1371	 0.31467483238745 
1372	 0.313310892750221 
1373	 0.311861100553514 
1374	 0.310331067117976 
1375	 0.308744059374151 
1376	 0.307046295578826 
1377	 0.305257913386095 
1378	 0.303363255472366 
1379	 0.301367668409373 
1380	 0.299293581214892 
1381	 0.297141524164134 
1382	 0.294850813159368 
1383	 0.292491955339841 
1384	 0.289976613825409 
1385	 0.287353809123192 
1386	 0.28457774588452 
1387	 0.28170194588056 
1388	 0.278648446066125 
1389	 0.275466112572399 
1390	 0.272064250445313 
1391	 0.268483882881456 
1392	 0.264699052220663 
1393	 0.260762358058662 
1394	 0.256712175244806 
1395	 0.252468191891057 
1396	 0.248163608991692 
1397	 0.243790881797224 
1398	 0.239244235589479 
1399	 0.234764953318144 
1400	 0.230203448227916 
1401	 0.225793233605061 
1402	 0.22134601353434 
1403	 0.217136265459589 
1404	 0.212994977149167 
1405	 0.209155104862828 
1406	 0.205444823379739 
1407	 0.202051525538513 
1408	 0.198885583121205 
1409	 0.196046799369029 
1410	 0.193497886895803 
1411	 0.191222894085201 
1412	 0.189259731359348 
1413	 0.18756417078043 
1414	 0.186081306220556 
1415	 0.184739493607238 
1416	 0.18354867075634 
1417	 0.18244355489093 
1418	 0.181380499815463 
1419	 0.180366557795305 
1420	 0.179345706515197 
1421	 0.178353788725062 
1422	 0.177356012434143 
1423	 0.176342030581206 
1424	 0.17533201683284 
1425	 0.174306744260639 
1426	 0.17331365718537 
1427	 0.172326078851547 
1428	 0.171361187235365 
1429	 0.170421178580202 
1430	 0.169496788873682 
1431	 0.168576225080683 
1432	 0.167686034457796 
1433	 0.166821441805715 
1434	 0.165972554234121 
1435	 0.1651557801989 
1436	 0.16434143383705 
1437	 0.163540994466163 
1438	 0.162751164230698 
1439	 0.161982799613679 
1440	 0.161191742091165 
1441	 0.160408615382878 
1442	 0.159620779730588 
1443	 0.158830354094378 
1444	 0.158066328665081 
1445	 0.157309038158472 
1446	 0.156573332889346 
1447	 0.155846958571898 
1448	 0.155122152890568 
1449	 0.154435094372279 
1450	 0.153769891580906 
1451	 0.153137406965729 
1452	 0.152536460070115 
1453	 0.151958878884705 
1454	 0.151416054846641 
1455	 0.15087879410111 
1456	 0.150370044124072 
1457	 0.149852564814537 
1458	 0.149342680003825 
1459	 0.148832132376667 
1460	 0.148328004566882 
1461	 0.14781901115576 
1462	 0.147303926277051 
1463	 0.146798908803562 
1464	 0.146293077477546 
1465	 0.145790766799425 
1466	 0.145289274698503 
1467	 0.144803802887009 
1468	 0.144303418630841 
1469	 0.143849354491314 
1470	 0.143416981510921 
1471	 0.143020569248745 
1472	 0.142662895163834 
1473	 0.142331535516458 
1474	 0.142032177663644 
1475	 0.141774389079197 
1476	 0.141552936135167 
1477	 0.141367272685887 
1478	 0.141214499181195 
1479	 0.141103712635232 
1480	 0.141024624494925 
1481	 0.140979242061037 
1482	 0.140955584033191 
1483	 0.140971404439844 
1484	 0.140981548574255 
1485	 0.141004100986529 
1486	 0.141048066303155 
1487	 0.141105071904855 
1488	 0.141183945620907 
1489	 0.141300661782815 
1490	 0.141397345696773 
1491	 0.141500665887382 
1492	 0.141596350444184 
1493	 0.141686472413339 
1494	 0.141776429442208 
1495	 0.141872725330072 
1496	 0.141957588936756 
1497	 0.142029774682384 
1498	 0.14210550175636 
1499	 0.142174118301443 
1500	 0.142246765839406 
1501	 0.142329071292927 
1502	 0.142400225084283 
1503	 0.142469608400483 
1504	 0.142531097450273 
1505	 0.14258045704486 
1506	 0.142621229710789 
1507	 0.142666849755894 
1508	 0.14270493157131 
1509	 0.142721302660225 
1510	 0.142731575537546 
1511	 0.142726833168961 
1512	 0.14271251109421 
1513	 0.142718972033736 
1514	 0.142737763007802 
1515	 0.142748824732865 
1516	 0.142754563911213 
1517	 0.142757297046568 
1518	 0.142749450684152 
1519	 0.142748871892928 
1520	 0.142756686394395 
1521	 0.142750697413934 
1522	 0.142748200387983 
1523	 0.142721733174789 
1524	 0.14267028674148 
1525	 0.142629806384138 
1526	 0.142579064116329 
1527	 0.142532847667731 
1528	 0.14250152981574 
1529	 0.142447763767683 
1530	 0.142376928214855 
1531	 0.142311806212494 
1532	 0.142239028684465 
1533	 0.142165982249129 
1534	 0.142099511570648 
1535	 0.142022600857926 
1536	 0.14193587708433 
1537	 0.141847673270365 
1538	 0.141757265071486 
1539	 0.141660579900186 
1540	 0.141553772865508 
1541	 0.141452203836703 
1542	 0.14135510659972 
1543	 0.141246320337818 
1544	 0.141134171592812 
1545	 0.141018967589663 
1546	 0.14089724347616 
1547	 0.140762834821927 
1548	 0.14063895148577 
1549	 0.14052080379342 
1550	 0.140385819536617 
1551	 0.140255691123354 
1552	 0.140125988656978 
1553	 0.139990965142176 
1554	 0.13988106786933 
1555	 0.139769188836151 
1556	 0.139632753203623 
1557	 0.139488586074941 
1558	 0.139335330281131 
1559	 0.139178748941191 
1560	 0.139031347614194 
1561	 0.13889855156959 
1562	 0.138751049588171 
1563	 0.13859500509001 
1564	 0.138446764021769 
1565	 0.138301327255897 
1566	 0.138145014823762 
1567	 0.137992844686811 
1568	 0.137825459166638 
1569	 0.137632668164845 
1570	 0.137469290011414 
1571	 0.137312253982444 
1572	 0.137154017723931 
1573	 0.137012227298693 
1574	 0.136858816138774 
1575	 0.136697464748791 
1576	 0.1365414813195 
1577	 0.136385566786396 
1578	 0.136231810850635 
1579	 0.136078483921643 
1580	 0.135924588824717 
1581	 0.135787253438639 
1582	 0.135622744835032 
1583	 0.135438765183939 
1584	 0.13526021900591 
1585	 0.135058988807537 
1586	 0.134877562256891 
1587	 0.134712833329184 
1588	 0.134543255100746 
1589	 0.134380494857516 
1590	 0.134211475497272 
1591	 0.134036124061983 
1592	 0.1338646071279 
1593	 0.133693932014406 
1594	 0.133520590989731 
1595	 0.13335017974885 
1596	 0.133175660410165 
1597	 0.132989800086991 
1598	 0.132816880923094 
1599	 0.132663628255881 
1600	 0.132484869909635 
1601	 0.13229446392416 
1602	 0.132112206380435 
1603	 0.131914833039067 
1604	 0.131719256871777 
1605	 0.13152890013061 
1606	 0.131343221347393 
1607	 0.131146992915284 
1608	 0.130969027536239 
1609	 0.130800051239611 
1610	 0.130635147396699 
1611	 0.130444416705565 
1612	 0.130257237677391 
1613	 0.130084298514521 
1614	 0.129890975037919 
1615	 0.129711134268985 
1616	 0.129531123876926 
1617	 0.129327392512742 
1618	 0.129150554474985 
1619	 0.128963661470925 
1620	 0.128765137666958 
1621	 0.128575376090226 
1622	 0.128382562390715 
1623	 0.128190201246656 
1624	 0.128004248142565 
1625	 0.127810142622208 
1626	 0.127613682227032 
1627	 0.127409973556279 
1628	 0.127198631861793 
1629	 0.126995671230497 
1630	 0.126787737890058 
1631	 0.126584090954812 
1632	 0.126391862224057 
1633	 0.126184944076385 
1634	 0.125969542954652 
1635	 0.12575756107731 
1636	 0.125547397139336 
1637	 0.125322128331074 
1638	 0.125086615864086 
1639	 0.124859738468868 
1640	 0.124626049759719 
1641	 0.124393847954742 
1642	 0.124168356174262 
1643	 0.123941959619809 
1644	 0.123707158587998 
1645	 0.123480713696728 
1646	 0.123265717421585 
1647	 0.123041966874822 
1648	 0.12281799125931 
1649	 0.122584814044224 
1650	 0.122344420978937 
1651	 0.122108706626502 
1652	 0.121867947561557 
1653	 0.121628010029809 
1654	 0.121391755212903 
1655	 0.121154012198983 
1656	 0.1209179094011 
1657	 0.120668056386266 
1658	 0.1204135913028 
1659	 0.120156905469586 
1660	 0.119879320042109 
1661	 0.11962389762307 
1662	 0.11938435573395 
1663	 0.119133144600509 
1664	 0.118882212680323 
1665	 0.118633996192534 
1666	 0.118375849135679 
1667	 0.118134623055625 
1668	 0.117917913991642 
1669	 0.117673017484786 
1670	 0.117414536857486 
1671	 0.117172584163209 
1672	 0.116920932309499 
1673	 0.116681263622468 
1674	 0.116475490575685 
1675	 0.116233201183128 
1676	 0.115972270837543 
1677	 0.115712564889645 
1678	 0.115435021844963 
1679	 0.115168502521856 
1680	 0.114897417391546 
1681	 0.114643839985164 
1682	 0.114401080334555 
1683	 0.114157256437777 
1684	 0.113920107467654 
1685	 0.113691410885479 
1686	 0.11346623104633 
1687	 0.113244657796842 
1688	 0.113048501157847 
1689	 0.112821237422977 
1690	 0.112578168161751 
1691	 0.112335240975501 
1692	 0.112069566782114 
1693	 0.111826946342377 
1694	 0.111599024365519 
1695	 0.111359407357342 
1696	 0.111117345293922 
1697	 0.110886341711851 
1698	 0.110654688060018 
1699	 0.110425821191924 
1700	 0.110213496890515 
1701	 0.109988768245131 
1702	 0.109749127233802 
1703	 0.109525064262246 
1704	 0.1093064057655 
1705	 0.109090676617363 
1706	 0.108892488874098 
1707	 0.108671457958138 
1708	 0.108435472231782 
1709	 0.108215085153613 
1710	 0.107982639442069 
1711	 0.107771303837437 
1712	 0.107579381224146 
1713	 0.10738712118403 
1714	 0.107205823775262 
1715	 0.10701416588057 
1716	 0.106824556157949 
1717	 0.106633746571591 
1718	 0.106430054414654 
1719	 0.106248000766263 
1720	 0.106081340389802 
1721	 0.105906939321123 
1722	 0.105745294570749 
1723	 0.105563133787859 
1724	 0.105362221244708 
1725	 0.105178844505538 
1726	 0.104994634981904 
1727	 0.104811109484676 
1728	 0.104634099162121 
1729	 0.104459362464182 
1730	 0.104279163812816 
1731	 0.104116077826675 
1732	 0.103966015045016 
1733	 0.10381797277693 
1734	 0.103680112520677 
1735	 0.103536430910216 
1736	 0.103397877775733 
1737	 0.10325226007618 
1738	 0.103099627708339 
1739	 0.102949004125548 
1740	 0.102794869905647 
1741	 0.102652395097964 
1742	 0.102508453286942 
1743	 0.10238323657657 
1744	 0.102287137955006 
1745	 0.102147996129689 
1746	 0.101989447452721 
1747	 0.101849213872085 
1748	 0.101708748494119 
1749	 0.101581140717074 
1750	 0.101504959168744 
1751	 0.101412469071889 
1752	 0.101295303418331 
1753	 0.101198771259568 
1754	 0.101105935178881 
1755	 0.101004294369628 
1756	 0.100893253604903 
1757	 0.100781357733441 
1758	 0.100673217923065 
1759	 0.100576048401278 
1760	 0.100466239651405 
1761	 0.100345365081151 
1762	 0.100226140740006 
1763	 0.100087356146884 
1764	 9.99799623385094E-02 
1765	 9.98972943300378E-02 
1766	 9.97860396177405E-02 
1767	 9.96876902187918E-02 
1768	 9.95949014733358E-02 
1769	 9.94789608647262E-02 
1770	 9.93937055076358E-02 
1771	 9.93434415790102E-02 
1772	 9.92442864838223E-02 
1773	 9.91209965804768E-02 
1774	 9.90295904874322E-02 
1775	 9.89085085862225E-02 
1776	 9.87795012967409E-02 
1777	 9.87245766222149E-02 
1778	 9.86465576861894E-02 
1779	 9.85078878378448E-02 
1780	 9.84258961393961E-02 
1781	 9.83267279128997E-02 
1782	 9.82034426947475E-02 
1783	 9.81354553730938E-02 
1784	 9.80531221516219E-02 
1785	 9.79641201061062E-02 
1786	 9.78874527281119E-02 
1787	 9.78250121211692E-02 
1788	 0.097749184851959 
1789	 9.76726788783727E-02 
1790	 9.75975060688991E-02 
1791	 9.75030073797067E-02 
1792	 0.097434604310978 
1793	 9.73846562918256E-02 
1794	 9.73265491681026E-02 
1795	 9.72776078966537E-02 
1796	 9.72313686871744E-02 
1797	 9.71951931910522E-02 
1798	 9.71400611919182E-02 
1799	 9.70779438176846E-02 
1800	 9.70155681092236E-02 
1801	 9.62292524463677E-02 
1802	 9.62425256452112E-02 
1803	 9.62502574359477E-02 
1804	 9.62519195385147E-02 
1805	 9.62669549216708E-02 
1806	 9.62835322548091E-02 
1807	 9.62779323648255E-02 
1808	 9.62562263773768E-02 
1809	 9.61917114730313E-02 
1810	 9.61650439050421E-02 
1811	 9.61394851554163E-02 
1812	 9.61273097145068E-02 
1813	 9.61191749584536E-02 
1814	 9.60966122168656E-02 
1815	 9.60477275763072E-02 
1816	 9.60014198357412E-02 
1817	 9.59645024670636E-02 
1818	 9.59334585738545E-02 
1819	 9.59025216692525E-02 
1820	 9.58734528846271E-02 
1821	 9.58448605079032E-02 
1822	 0.095836982291632 
1823	 9.58260782955099E-02 
1824	 9.58225022501676E-02 
1825	 9.58196709405511E-02 
1826	 9.57997740174578E-02 
1827	 9.57645899715766E-02 
1828	 9.57284948165286E-02 
1829	 0.095681221881778 
1830	 9.56481553143238E-02 
1831	 0.095620914380081 
1832	 9.55844676452072E-02 
1833	 9.55366406276545E-02 
1834	 9.54750517883812E-02 
1835	 9.54170536787361E-02 
1836	 9.53840615148933E-02 
1837	 9.53741793783522E-02 
1838	 9.53677113828273E-02 
1839	 0.09534729894954 
1840	 9.53258872329169E-02 
1841	 9.52827828446463E-02 
1842	 9.52119393224186E-02 
1843	 9.51526797302396E-02 
1844	 9.50847112946964E-02 
1845	 9.49898114592431E-02 
1846	 9.49075284946889E-02 
1847	 9.48081045187457E-02 
1848	 9.47001726567542E-02 
1849	 9.45915369844481E-02 
1850	 0.094484710697232 
1851	 9.43835718129872E-02 
1852	 9.42853688203067E-02 
1853	 0.094155276972216 
1854	 9.40162401231132E-02 
1855	 9.38575838470528E-02 
1856	 9.36718995907172E-02 
1857	 9.34954643385752E-02 
1858	 9.33194098502342E-02 
1859	 9.31238258377282E-02 
1860	 9.29169533257331E-02 
1861	 0.092698926244066 
1862	 9.24792300271379E-02 
1863	 9.22336346661011E-02 
1864	 9.19662866826274E-02 
1865	 0.091701459370235 
1866	 0.091382060192799 
1867	 9.10388827735015E-02 
1868	 9.06943653860355E-02 
1869	 0.090332529473241 
1870	 8.99735619763618E-02 
1871	 8.95688614602389E-02 
1872	 8.91359530219086E-02 
1873	 0.088686304298964 
1874	 0.088226136455319 
1875	 8.77200968266579E-02 
1876	 8.72300130732631E-02 
1877	 8.67352527251352E-02 
1878	 8.61626006453972E-02 
1879	 8.55602760247553E-02 
1880	 8.49264638027757E-02 
1881	 0.08424555336973 
1882	 8.35362133999742E-02 
1883	 8.28056720660553E-02 
1884	 8.20228395626972E-02 
1885	 8.12072062912163E-02 
1886	 8.03503004514183E-02 
1887	 7.94304633097672E-02 
1888	 7.84730278286368E-02 
1889	 7.74574685978798E-02 
1890	 7.63987552503865E-02 
1891	 7.53180162485636E-02 
1892	 7.42066828288609E-02 
1893	 7.30530530744957E-02 
1894	 7.18625347335451E-02 
1895	 7.06396051844606E-02 
1896	 6.93770181561437E-02 
1897	 6.80956930993953E-02 
1898	 6.68233506333017E-02 
1899	 6.55550413739187E-02 
1900	 6.43315002578608E-02 
1901	 6.31638858532979E-02 
1902	 6.20820817823033E-02 
1903	 6.10704704105631E-02 
1904	 6.01465041238947E-02 
1905	 5.92929754712165E-02 
1906	 5.85353891824681E-02 
1907	 5.78707275101797E-02 
1908	 5.72920602216462E-02 
1909	 0.056792700394177 
1910	 5.63533340777585E-02 
1911	 5.59584467130036E-02 
1912	 5.55950711597359E-02 
1913	 5.52575105346963E-02 
1914	 5.49684086286538E-02 
1915	 0.054680791514274 
1916	 5.44208923939316E-02 
1917	 5.41587651372288E-02 
1918	 5.39163092051033E-02 
1919	 5.36652626568407E-02 
1920	 5.34209316115403E-02 
1921	 5.31966878568687E-02 
1922	 5.29549901868711E-02 
1923	 5.27124367311698E-02 
1924	 5.24948168839933E-02 
1925	 5.22965183737999E-02 
1926	 5.20910936398461E-02 
1927	 5.18935193125845E-02 
1928	 5.17091682051436E-02 
1929	 5.15210418250657E-02 
1930	 5.13415609272349E-02 
1931	 5.11780274109708E-02 
1932	 5.10297234341204E-02 
1933	 5.08893151733048E-02 
1934	 5.07277519868661E-02 
1935	 5.05897164352543E-02 
1936	 5.04607244320386E-02 
1937	 5.03456979701373E-02 
1938	 5.02512708127043E-02 
1939	 5.01593085064561E-02 
1940	 5.00805047839776E-02 
1941	 4.99975679837961E-02 
1942	 4.99225590146153E-02 
1943	 0.049834899160178 
1944	 4.97441594792381E-02 
1945	 4.96768125075857E-02 
1946	 4.96213287773963E-02 
1947	 4.95745009341514E-02 
1948	 4.95369898797171E-02 
1949	 4.95276912868072E-02 
1950	 4.95044058967809E-02 
1951	 4.94796809720677E-02 
1952	 4.94617742035248E-02 
1953	 4.94372233415625E-02 
1954	 4.94003448393333E-02 
1955	 4.93614060894111E-02 
1956	 4.93217559399601E-02 
1957	 4.92906916301061E-02 
1958	 4.92691758914955E-02 
1959	 4.92411780230123E-02 
1960	 4.92068220446277E-02 
1961	 4.91842497779851E-02 
1962	 4.91613657927426E-02 
1963	 4.91435240303239E-02 
1964	 4.91324249443861E-02 
1965	 4.91401974201809E-02 
1966	 4.91289437796993E-02 
1967	 4.91168066261202E-02 
1968	 4.91182383324657E-02 
1969	 4.91128318695648E-02 
1970	 4.91367895548431E-02 
1971	 4.91918738234562E-02 
1972	 4.92291550204782E-02 
1973	 4.92762588565508E-02 
1974	 4.93227706081766E-02 
1975	 0.049359657730091 
1976	 4.93975572112945E-02 
1977	 0.049472156097632 
1978	 4.95506559817731E-02 
1979	 4.96348878704927E-02 
1980	 0.049737291690164 
1981	 4.98326629818628E-02 
1982	 4.99127178780956E-02 
1983	 5.00312611822846E-02 
1984	 5.01818579686364E-02 
1985	 5.03080484832625E-02 
1986	 5.04525659221724E-02 
1987	 5.05826424477897E-02 
1988	 5.06865052586785E-02 
1989	 5.08002517836463E-02 
1990	 5.09240339833679E-02 
1991	 5.10494918824201E-02 
1992	 5.11726656372052E-02 
1993	 5.12904360237836E-02 
1994	 5.14181094487275E-02 
1995	 0.051555469472808 
1996	 5.16799150387353E-02 
1997	 5.17961356876812E-02 
1998	 5.19268821684831E-02 
1999	 0.052060530705966 
2000	 5.21937985422391E-02 
2001	 5.23441605178758E-02 
2002	 0.052484796981878 
2003	 5.26130077360149E-02 
2004	 5.27153942520988E-02 
2005	 5.28332030110346E-02 
2006	 5.29466692290682E-02 
2007	 5.30651982190173E-02 
2008	 5.31905364502042E-02 
2009	 5.33143070131218E-02 
2010	 5.34377799277471E-02 
2011	 5.35590235584405E-02 
2012	 5.36851413325042E-02 
2013	 5.38025995267265E-02 
2014	 5.39163819212303E-02 
2015	 5.40167578657116E-02 
2016	 5.41407788119905E-02 
2017	 5.42579273927623E-02 
2018	 5.43688739098366E-02 
2019	 5.44899185793667E-02 
2020	 5.45961429898951E-02 
2021	 5.46685136186451E-02 
2022	 5.47768430582798E-02 
2023	 0.054901675434958 
2024	 5.50212676251511E-02 
2025	 5.51546703521191E-02 
2026	 5.52859705616503E-02 
2027	 5.54225697812028E-02 
2028	 5.55441250804127E-02 
2029	 0.055666270462365 
2030	 5.57956890865714E-02 
2031	 5.59118798392787E-02 
2032	 5.60147634882345E-02 
2033	 5.61171047424562E-02 
2034	 5.62043080839528E-02 
2035	 5.63130531322502E-02 
2036	 5.64333713215704E-02 
2037	 5.65430811902828E-02 
2038	 5.66713235581084E-02 
2039	 5.67795279015735E-02 
2040	 5.68642952244587E-02 
2041	 5.69485596516713E-02 
2042	 0.057050773796943 
2043	 5.71446825804601E-02 
2044	 5.72418535148258E-02 
2045	 5.73410730627944E-02 
2046	 5.74481605330409E-02 
2047	 5.75673878476168E-02 
2048	 5.76650749487117E-02 
2049	 5.77571138070601E-02 
2050	 5.78542452486018E-02 
2051	 5.79304444937934E-02 
2052	 5.80218879954641E-02 
2053	 5.81384068803467E-02 
2054	 5.82399651793991E-02 
2055	 5.83410404136281E-02 
2056	 5.84296929675264E-02 
2057	 5.85167575205552E-02 
2058	 5.85938868559383E-02 
2059	 5.86814848734334E-02 
2060	 5.87591844718651E-02 
2061	 5.88577997624799E-02 
2062	 5.89706400244525E-02 
2063	 5.90828752069436E-02 
2064	 5.92207598742786E-02 
2065	 5.93328890502022E-02 
2066	 5.94344773655508E-02 
2067	 5.95336781956209E-02 
2068	 5.96180153655241E-02 
2069	 0.0597022282258 
2070	 5.97875488235473E-02 
2071	 5.98794856297299E-02 
2072	 5.99523212102094E-02 
2073	 5.99972586687859E-02 
2074	 6.00866791662582E-02 
2075	 6.01842870922998E-02 
2076	 0.060287817731943 
2077	 6.04451246002824E-02 
2078	 6.05504548023203E-02 
2079	 6.06155013892181E-02 
2080	 6.07034413575153E-02 
2081	 0.060775222780421 
2082	 6.08628925412966E-02 
2083	 6.09639500581526E-02 
2084	 6.10827398821905E-02 
2085	 6.11838230625238E-02 
2086	 6.12853512479171E-02 
2087	 0.061379300534016 
2088	 6.14623735139928E-02 
2089	 6.15539179434735E-02 
2090	 0.06164957750199 
2091	 6.17352083151571E-02 
2092	 6.18108764928027E-02 
2093	 6.19007195973038E-02 
2094	 6.19800212697239E-02 
2095	 0.06208106471616 
2096	 6.22217217104861E-02 
2097	 6.23347471065573E-02 
2098	 6.24438239535254E-02 
2099	 6.25473376678996E-02 
2100	 6.26478267165633E-02 
2101	 6.27228866584234E-02 
2102	 6.28303984250052E-02 
2103	 6.29620630930219E-02 
2104	 6.30686903754692E-02 
2105	 6.31808231162173E-02 
2106	 6.32801777652841E-02 
2107	 6.33468997989445E-02 
2108	 0.063443876155352 
2109	 6.35407846393722E-02 
2110	 6.36590110531257E-02 
2111	 6.38113482558735E-02 
2112	 6.39477539929155E-02 
2113	 6.40937116963694E-02 
2114	 6.42389745730577E-02 
2115	 0.064360855349097 
2116	 6.44569026077607E-02 
2117	 6.45811574453269E-02 
2118	 6.47069806058094E-02 
2119	 6.48293715504988E-02 
2120	 6.49686213724733E-02 
2121	 6.50909313955936E-02 
2122	 6.51838203662853E-02 
2123	 6.53060381230771E-02 
2124	 6.54432337535898E-02 
2125	 6.55767847567915E-02 
2126	 6.57317983293953E-02 
2127	 6.58681167814972E-02 
2128	 6.60009637647962E-02 
2129	 6.61185242792992E-02 
2130	 6.62252638015871E-02 
2131	 6.63126300564499E-02 
2132	 6.64136470723555E-02 
2133	 6.65119259133968E-02 
2134	 6.66018376566863E-02 
2135	 6.66921020258281E-02 
2136	 6.67818752402942E-02 
2137	 6.68501191456081E-02 
2138	 6.69428873257762E-02 
2139	 6.70669806464705E-02 
2140	 6.71601431216203E-02 
2141	 6.72475861577239E-02 
2142	 0.067329715331225 
2143	 6.74009398484816E-02 
2144	 6.74592340384492E-02 
2145	 0.067504462285274 
2146	 0.067556333778757 
2147	 6.75827350656674E-02 
2148	 6.76271862273799E-02 
2149	 6.76913975179903E-02 
2150	 6.77902873477251E-02 
2151	 6.78456451508839E-02 
2152	 6.78976796077726E-02 
2153	 6.79460304298384E-02 
2154	 6.79665907821204E-02 
2155	 6.80026071626912E-02 
2156	 6.80564021876084E-02 
2157	 6.80953110894665E-02 
2158	 6.81173621703322E-02 
2159	 6.81509483852287E-02 
2160	 6.81964100048216E-02 
2161	 6.82266042114905E-02 
2162	 6.82446615744974E-02 
2163	 6.82729012979816E-02 
2164	 6.82964773059574E-02 
2165	 6.83248709522671E-02 
2166	 6.83463481873869E-02 
2167	 6.83810451350546E-02 
2168	 6.83932441152392E-02 
2169	 6.83841212261146E-02 
2170	 0.068384456605068 
2171	 6.83824157266403E-02 
2172	 6.83813511383323E-02 
2173	 6.83837489901691E-02 
2174	 6.83776975087144E-02 
2175	 6.83604450656003E-02 
2176	 6.83547190328215E-02 
2177	 6.83545132966175E-02 
2178	 6.83457512198351E-02 
2179	 6.83279280052662E-02 
2180	 6.83283729926917E-02 
2181	 6.83321857880048E-02 
2182	 6.83377494587745E-02 
2183	 6.83655778234681E-02 
2184	 6.83918351824774E-02 
2185	 0.068397442138694 
2186	 6.83807766852891E-02 
2187	 6.83844414406998E-02 
2188	 0.068392855821402 
2189	 6.83881008932427E-02 
2190	 0.068378946991814 
2191	 6.83806740465204E-02 
2192	 6.83677427417601E-02 
2193	 6.83724318978448E-02 
2194	 6.84174567737137E-02 
2195	 6.84259221429644E-02 
2196	 6.84183117664532E-02 
2197	 6.84101418006554E-02 
2198	 6.83717308151922E-02 
2199	 6.83568753229268E-02 
2200	 6.83558571460643E-02 
2201	 6.83536890118936E-02 
2202	 0.068358866634109 
2203	 6.83660522301691E-02 
2204	 6.83834441610746E-02 
2205	 6.84059248761947E-02 
2206	 6.84235151481158E-02 
2207	 0.068464892138453 
2208	 6.84633347495831E-02 
2209	 6.84196183208963E-02 
2210	 6.84204548258026E-02 
2211	 6.84301609333033E-02 
2212	 6.84236977965644E-02 
2213	 6.84125483061162E-02 
2214	 6.84379764364497E-02 
2215	 6.84771752079136E-02 
2216	 6.84965954687625E-02 
2217	 6.85609152032192E-02 
2218	 6.85860185024484E-02 
2219	 6.85406695292149E-02 
2220	 6.85352950981387E-02 
2221	 6.85381180692043E-02 
2222	 6.85567665192457E-02 
2223	 6.85909522229667E-02 
2224	 6.86418915553171E-02 
2225	 6.86701176460525E-02 
2226	 6.86965095208247E-02 
2227	 6.87307788667964E-02 
2228	 6.87569416036675E-02 
2229	 6.87835477528005E-02 
2230	 0.068827616566115 
2231	 6.88505055423806E-02 
2232	 6.88528978592582E-02 
2233	 6.88634472815084E-02 
2234	 6.88735386766286E-02 
2235	 6.88834227382601E-02 
2236	 6.88799667242241E-02 
2237	 6.89012584398127E-02 
2238	 6.89553093285907E-02 
2239	 6.89692902787174E-02 
2240	 6.89755058429278E-02 
2241	 6.89806880235042E-02 
2242	 6.89573780369837E-02 
2243	 6.89394459243509E-02 
2244	 6.89314336472264E-02 
2245	 6.89121573477816E-02 
2246	 6.88931513846774E-02 
2247	 6.89205304056281E-02 
2248	 6.89326649608046E-02 
2249	 6.89751537948766E-02 
2250	 6.89770162869371E-02 
2251	 6.89578210508086E-02 
2252	 6.89412356480701E-02 
2253	 6.89182977280985E-02 
2254	 0.068888038451829 
2255	 6.88358032592027E-02 
2256	 6.88129668972658E-02 
2257	 6.87905304428639E-02 
2258	 6.87789122989998E-02 
2259	 6.88135851923653E-02 
2260	 6.88006818098641E-02 
2261	 6.87620045976736E-02 
2262	 6.87293755817237E-02 
2263	 6.86675439893946E-02 
2264	 6.86313037470616E-02 
2265	 6.86071978559427E-02 
2266	 0.068589851089776 
2267	 6.85963247622948E-02 
2268	 6.85800358896309E-02 
2269	 6.85640821941276E-02 
2270	 6.85446824697341E-02 
2271	 6.84810962783444E-02 
2272	 6.84055894849031E-02 
2273	 6.83092168289289E-02 
2274	 6.82090658283692E-02 
2275	 6.81374836967243E-02 
2276	 6.80907936477751E-02 
2277	 6.80049992059278E-02 
2278	 0.067925384391317 
2279	 6.78231346525763E-02 
2280	 6.76782225889322E-02 
2281	 6.75640277070621E-02 
2282	 6.74498272423179E-02 
2283	 6.73569574649001E-02 
2284	 6.72853131569593E-02 
2285	 6.71964554296958E-02 
2286	 6.71202296796102E-02 
2287	 6.70291242320755E-02 
2288	 6.69177162175291E-02 
2289	 6.68121419752207E-02 
2290	 6.67151002360266E-02 
2291	 6.66079023725416E-02 
2292	 6.65028977152641E-02 
2293	 6.63750254388713E-02 
2294	 6.62156939131748E-02 
2295	 6.60709821519808E-02 
2296	 6.59145780341758E-02 
2297	 6.57604545255679E-02 
2298	 6.56423530268848E-02 
2299	 6.55525850887946E-02 
2300	 6.54778907564376E-02 
2301	 6.54136469719515E-02 
2302	 6.52576025564461E-02 
2303	 6.50986203112852E-02 
2304	 6.49448755849875E-02 
2305	 6.47507657124928E-02 
2306	 6.46077585017327E-02 
2307	 6.45153347023191E-02 
2308	 6.43975027482539E-02 
2309	 6.42814679951627E-02 
2310	 6.41601371081008E-02 
2311	 6.40480267961802E-02 
2312	 6.39163222177786E-02 
2313	 6.37657564121252E-02 
2314	 6.36180862156979E-02 
2315	 6.34690414861434E-02 
2316	 6.33075103404544E-02 
2317	 6.31259603959152E-02 
2318	 6.29778112037994E-02 
2319	 6.28194003407407E-02 
2320	 6.26900744369586E-02 
2321	 6.26360800548383E-02 
2322	 6.25053980445107E-02 
2323	 6.23456514449822E-02 
2324	 6.21851741355662E-02 
2325	 6.19457300850354E-02 
2326	 6.17736769053753E-02 
2327	 6.16372741790399E-02 
2328	 6.15259833745094E-02 
2329	 6.13902930836404E-02 
2330	 6.12785211614195E-02 
2331	 6.11546259006155E-02 
2332	 6.09860801282352E-02 
2333	 6.08211424462412E-02 
2334	 6.06588617157322E-02 
2335	 0.060467313226254 
2336	 6.02676601511527E-02 
2337	 6.00836563865747E-02 
2338	 5.98903063355311E-02 
2339	 5.97472736639436E-02 
2340	 5.96363971027232E-02 
2341	 5.95090624346018E-02 
2342	 5.93820237661784E-02 
2343	 5.91887534410809E-02 
2344	 5.89681388623991E-02 
2345	 5.87678591013236E-02 
2346	 5.85518834380688E-02 
2347	 5.83610683780006E-02 
2348	 5.82032138616639E-02 
2349	 5.80170660158727E-02 
2350	 5.78143078519709E-02 
2351	 5.76363260777078E-02 
2352	 5.74740363210329E-02 
2353	 5.72767883828826E-02 
2354	 5.70771881663657E-02 
2355	 5.68780622109578E-02 
2356	 5.66478777637498E-02 
2357	 5.64304611803424E-02 
2358	 5.62338432306598E-02 
2359	 5.60258049587657E-02 
2360	 5.57943395561665E-02 
2361	 0.055588717636946 
2362	 5.53984637885934E-02 
2363	 5.52032458240663E-02 
2364	 5.50333660591198E-02 
2365	 0.054831111951619 
2366	 5.46192411060776E-02 
2367	 5.43861113705202E-02 
2368	 0.054096152970908 
2369	 5.38608981936962E-02 
2370	 5.36161594595884E-02 
2371	 5.34300366845515E-02 
2372	 5.33059620172313E-02 
2373	 5.31098120461741E-02 
2374	 5.29064184590341E-02 
2375	 5.26596845893395E-02 
2376	 5.23541970498181E-02 
2377	 5.21159342707154E-02 
2378	 5.18765730952503E-02 
2379	 5.16560345754421E-02 
2380	 5.14636681728474E-02 
2381	 5.12750820520948E-02 
2382	 5.11202035765165E-02 
2383	 5.09626475845777E-02 
2384	 0.050759478944984 
2385	 5.05100645880693E-02 
2386	 5.02599158399913E-02 
2387	 5.00103877154042E-02 
2388	 4.98147366842952E-02 
2389	 4.96913894798662E-02 
2390	 4.95643918041525E-02 
2391	 4.94058865090837E-02 
2392	 4.91899628422503E-02 
2393	 0.048934493943619 
2394	 4.86939740813918E-02 
2395	 4.84922233556771E-02 
2396	 4.82815149916607E-02 
2397	 4.80875732969678E-02 
2398	 4.79272709407374E-02 
2399	 4.77018102130399E-02 
2400	 4.75011735813481E-02 
2401	 0.047392193127498 
2402	 4.72736668907119E-02 
2403	 4.71129340405955E-02 
2404	 4.69612891415467E-02 
2405	 4.67707571561426E-02 
2406	 4.65639947687927E-02 
2407	 0.046414765977921 
2408	 4.62449201419299E-02 
2409	 4.60793502251047E-02 
2410	 4.59092280792792E-02 
2411	 4.57148260437549E-02 
2412	 4.54822974619164E-02 
2413	 4.52804111805802E-02 
2414	 4.51539120373115E-02 
2415	 0.044998877287542 
2416	 4.48754437322954E-02 
2417	 4.48551590827352E-02 
2418	 4.47522997020657E-02 
2419	 4.45988599717124E-02 
2420	 4.44461640323858E-02 
2421	 0.044271115870239 
2422	 0.044096469553729 
2423	 4.38803288285557E-02 
2424	 4.37681957667658E-02 
2425	 4.36991589643098E-02 
2426	 4.36231456964838E-02 
2427	 4.36795935185466E-02 
2428	 4.35498399988226E-02 
2429	 4.33197453959044E-02 
2430	 4.30845249706559E-02 
2431	 4.27176070009024E-02 
2432	 4.24917910294801E-02 
2433	 4.22905201601321E-02 
2434	 4.21397205924099E-02 
2435	 4.21065778824582E-02 
2436	 4.19514716321611E-02 
2437	 4.17819012862863E-02 
2438	 4.16283069766791E-02 
2439	 4.13892688819058E-02 
2440	 0.041226500182223 
2441	 4.11256491722818E-02 
2442	 4.09945226977009E-02 
2443	 4.09273227329046E-02 
2444	 4.07994712598431E-02 
2445	 4.05898241757728E-02 
2446	 4.04114396753062E-02 
2447	 4.01586251980329E-02 
2448	 4.00229453783297E-02 
2449	 4.00327241578348E-02 
2450	 0.039994691253902 
2451	 4.00019969458096E-02 
2452	 3.99404130534238E-02 
2453	 3.98389277098266E-02 
2454	 3.96497436603969E-02 
2455	 3.93500945588455E-02 
2456	 3.91928490951273E-02 
2457	 3.90403396237935E-02 
2458	 3.89193802591542E-02 
2459	 3.89172679044509E-02 
2460	 3.88552171792115E-02 
2461	 3.86956735659877E-02 
2462	 3.85813402268811E-02 
2463	 3.85589658108903E-02 
2464	 3.84890212887222E-02 
2465	 3.84030847908021E-02 
2466	 3.83654350156178E-02 
2467	 3.83304902427788E-02 
2468	 3.82946560564323E-02 
2469	 3.82858984741471E-02 
2470	 0.038097605189644 
2471	 0.037926552637515 
2472	 3.77129403885476E-02 
2473	 3.75832603528332E-02 
2474	 3.76272820254115E-02 
2475	 0.037650496872497 
2476	 3.75057189940099E-02 
2477	 3.74099641150798E-02 
2478	 3.72759273203925E-02 
2479	 3.70638709643406E-02 
2480	 3.69242576571484E-02 
2481	 3.68987113548586E-02 
2482	 0.036853527820426 
2483	 3.67885455354818E-02 
2484	 3.69402463428308E-02 
2485	 0.037021116240697 
2486	 3.69976412549017E-02 
2487	 3.69432910567289E-02 
2488	 3.66814494313927E-02 
2489	 3.65140227548165E-02 
2490	 3.64196890106474E-02 
2491	 3.63220357849346E-02 
2492	 3.63395499269532E-02 
2493	 0.036146723639545 
2494	 3.60052265063202E-02 
2495	 3.60243843520888E-02 
2496	 0.035942804822915 
2497	 3.60992979030479E-02 
2498	 3.60102860907224E-02 
2499	 3.57140813209952E-02 
2500	 3.56339475220815E-02 
