Wavelength	lmw-9-300008.asd
350	 0.054273711787551 
351	 5.84871742337045E-02 
352	 5.13572510598586E-02 
353	 4.17032857458892E-02 
354	 5.89822876871129E-02 
355	 5.81910258690251E-02 
356	 5.01809415548783E-02 
357	 5.26164090398072E-02 
358	 0.049799776694938 
359	 4.60090610744358E-02 
360	 4.44263606815532E-02 
361	 4.63108294518905E-02 
362	 4.39963178758851E-02 
363	 3.98403719038246E-02 
364	 0.037637203853206 
365	 4.16700491593673E-02 
366	 4.18889209690808E-02 
367	 3.97960713693494E-02 
368	 3.93216466565908E-02 
369	 4.00086330816396E-02 
370	 3.86538105547426E-02 
371	 3.77863236292529E-02 
372	 4.24887546175362E-02 
373	 3.92933448920822E-02 
374	 3.64661763009725E-02 
375	 3.90158085272567E-02 
376	 4.19689946844253E-02 
377	 3.96584726728907E-02 
378	 3.80714787340795E-02 
379	 4.29096325343201E-02 
380	 4.23826983333805E-02 
381	 4.09524578427859E-02 
382	 4.10711403857244E-02 
383	 4.28970836185661E-02 
384	 4.35089715116487E-02 
385	 4.23237159949311E-02 
386	 4.07860013131061E-02 
387	 4.35687715448649E-02 
388	 4.51792852310555E-02 
389	 4.48755685488424E-02 
390	 4.39078114455778E-02 
391	 4.48795104051006E-02 
392	 4.59099480061982E-02 
393	 4.69890216449632E-02 
394	 4.96212658434494E-02 
395	 5.07679616600282E-02 
396	 5.12230074902029E-02 
397	 0.052363827831615 
398	 5.57716099021595E-02 
399	 5.70043239081658E-02 
400	 5.78410565507305E-02 
401	 6.13455117281077E-02 
402	 6.40451163218627E-02 
403	 6.45005835155011E-02 
404	 6.40731379245306E-02 
405	 6.65323710266142E-02 
406	 6.91134219706006E-02 
407	 7.14382216944084E-02 
408	 0.073283975547512 
409	 7.33740657572531E-02 
410	 7.37937642652504E-02 
411	 7.51859588777596E-02 
412	 7.73443633771059E-02 
413	 7.99270011664036E-02 
414	 8.12545158271427E-02 
415	 0.081164071486909 
416	 0.081452788001608 
417	 0.081679779290456 
418	 8.24519334875989E-02 
419	 8.39198928965633E-02 
420	 8.41823707823083E-02 
421	 8.33998754890212E-02 
422	 8.27098993228879E-02 
423	 8.35525279013235E-02 
424	 8.37648893620558E-02 
425	 8.36293484699421E-02 
426	 8.35704513646744E-02 
427	 8.36212261997204E-02 
428	 8.40761517969713E-02 
429	 8.46447362705799E-02 
430	 8.51338725857993E-02 
431	 8.68701014942591E-02 
432	 8.86891297091898E-02 
433	 9.04620781834809E-02 
434	 0.09312551416935 
435	 9.64031698314024E-02 
436	 0.100089638231828 
437	 0.104050962466801 
438	 0.108295601854876 
439	 0.112714642719448 
440	 0.117201861069186 
441	 0.121619529610776 
442	 0.125638051611322 
443	 0.129806765142469 
444	 0.134174727411884 
445	 0.137904672390111 
446	 0.14182460130026 
447	 0.145801915786096 
448	 0.149545609234848 
449	 0.153327692291311 
450	 0.157203806720607 
451	 0.160985712653857 
452	 0.164349209120206 
453	 0.167970054615497 
454	 0.171388529798875 
455	 0.174356890734764 
456	 0.177619328615477 
457	 0.180861618901988 
458	 0.183875174850475 
459	 0.186612610032143 
460	 0.18995245402102 
461	 0.193161640127422 
462	 0.196007571829394 
463	 0.199156170390337 
464	 0.201965502682812 
465	 0.204675566642065 
466	 0.207604523512493 
467	 0.210377369539323 
468	 0.213020145596784 
469	 0.215634956044903 
470	 0.218360317755921 
471	 0.221020572517703 
472	 0.22359714908775 
473	 0.226131152967538 
474	 0.228752995848971 
475	 0.231090996068382 
476	 0.233296069003085 
477	 0.235668365531348 
478	 0.237713342918339 
479	 0.239770672136419 
480	 0.241951605947546 
481	 0.243965465382255 
482	 0.245937926601822 
483	 0.247860252633503 
484	 0.249658954440801 
485	 0.251146748954351 
486	 0.252548668932486 
487	 0.25397957012886 
488	 0.255440373393087 
489	 0.256739455121249 
490	 0.25797210743223 
491	 0.259175446719295 
492	 0.260092513807888 
493	 0.261021111087618 
494	 0.26185656630317 
495	 0.262404524055822 
496	 0.263358802654011 
497	 0.264027204583509 
498	 0.264260541778996 
499	 0.264910769568061 
500	 0.265242942575401 
501	 0.265463700247694 
502	 0.265890346033526 
503	 0.266074508227912 
504	 0.266221663165076 
505	 0.266412364533337 
506	 0.266586064589036 
507	 0.266534989357404 
508	 0.26649287215213 
509	 0.266573173369744 
510	 0.266319542887745 
511	 0.266056993432938 
512	 0.265949592672001 
513	 0.266018513133998 
514	 0.265844887203947 
515	 0.265614813277957 
516	 0.265448954977662 
517	 0.265235078732146 
518	 0.264987487911332 
519	 0.264709935549309 
520	 0.264409644913048 
521	 0.264097340498188 
522	 0.263856852694528 
523	 0.263686509534571 
524	 0.263493994480975 
525	 0.263280892932415 
526	 0.263011227571619 
527	 0.262711165644495 
528	 0.262618370870039 
529	 0.262546988977515 
530	 0.26242483232263 
531	 0.262261671758889 
532	 0.262071461569967 
533	 0.261861824914547 
534	 0.261676064182101 
535	 0.261647266695469 
536	 0.261604734109746 
537	 0.261585591533225 
538	 0.261663131052203 
539	 0.261573117034515 
540	 0.261467921710282 
541	 0.261454725810753 
542	 0.261537611594252 
543	 0.261614852216259 
544	 0.261741567132707 
545	 0.261958866506157 
546	 0.262071178756731 
547	 0.262178519830722 
548	 0.262327371174411 
549	 0.262509066905674 
550	 0.262683427497313 
551	 0.262893324253233 
552	 0.263163253393478 
553	 0.263432947660473 
554	 0.263699124651492 
555	 0.264004198456253 
556	 0.264400400945489 
557	 0.264773864099573 
558	 0.265206665560691 
559	 0.265720399762772 
560	 0.266191023833669 
561	 0.266714368216056 
562	 0.267268147371698 
563	 0.267807878361432 
564	 0.268405579147628 
565	 0.268953585432849 
566	 0.269423842977623 
567	 0.269888243411644 
568	 0.270434533143813 
569	 0.271002198444062 
570	 0.271560744227686 
571	 0.272320470359164 
572	 0.273131174872338 
573	 0.273923308576194 
574	 0.274691880766442 
575	 0.275426631130151 
576	 0.276351116378199 
577	 0.27753120701721 
578	 0.278626588971183 
579	 0.279693054935157 
580	 0.280833172431383 
581	 0.282146489819123 
582	 0.28349573329273 
583	 0.284627905569313 
584	 0.285534359536813 
585	 0.286563680062396 
586	 0.287471917508145 
587	 0.288370602698067 
588	 0.28943184598002 
589	 0.290649765314261 
590	 0.29185904075922 
591	 0.293017265281611 
592	 0.29420176571741 
593	 0.295337392678645 
594	 0.296488677296364 
595	 0.297724177150054 
596	 0.299066532478704 
597	 0.300419747173793 
598	 0.301748644512018 
599	 0.30305842313747 
600	 0.304342467286188 
601	 0.305548004694252 
602	 0.306733237497147 
603	 0.308185112842697 
604	 0.309564816313201 
605	 0.310836837808402 
606	 0.312099215052013 
607	 0.3135341558607 
608	 0.314976582149127 
609	 0.3162951129527 
610	 0.317429651767683 
611	 0.318574107897811 
612	 0.319751328822616 
613	 0.320915973645734 
614	 0.321964545783613 
615	 0.323032401743689 
616	 0.324130677450723 
617	 0.325179128949719 
618	 0.326198785063128 
619	 0.32725813389178 
620	 0.32835522403148 
621	 0.329321662193447 
622	 0.330168282428536 
623	 0.331024750228329 
624	 0.332017787224176 
625	 0.332845900381629 
626	 0.333666711164624 
627	 0.334542047769443 
628	 0.335358528037453 
629	 0.336116806311889 
630	 0.336849857168404 
631	 0.337592325059223 
632	 0.33833379775681 
633	 0.339024595765193 
634	 0.339641601764231 
635	 0.340190728557153 
636	 0.34072572046557 
637	 0.341297555988857 
638	 0.341897325465649 
639	 0.34237222329912 
640	 0.342896818728784 
641	 0.34340345767956 
642	 0.343756905503942 
643	 0.344242606608549 
644	 0.344622611075493 
645	 0.344854208563628 
646	 0.345248350858639 
647	 0.345554446344148 
648	 0.345791631877555 
649	 0.346029639499508 
650	 0.346200749276893 
651	 0.34639878365374 
652	 0.346599082212285 
653	 0.346683768634984 
654	 0.346827150536506 
655	 0.346985185171364 
656	 0.347085911461173 
657	 0.347081895134652 
658	 0.347090824382602 
659	 0.34710535710984 
660	 0.347061903125851 
661	 0.346979499713036 
662	 0.346871732161021 
663	 0.346729132966734 
664	 0.346504979141833 
665	 0.346391812455449 
666	 0.346254001167944 
667	 0.345958216443874 
668	 0.34580359090224 
669	 0.345612328163526 
670	 0.345322055395854 
671	 0.344979984048377 
672	 0.344597988451605 
673	 0.344251724495315 
674	 0.343939909218898 
675	 0.343446035261416 
676	 0.343025573621785 
677	 0.342641236985314 
678	 0.34216036313635 
679	 0.341769247591919 
680	 0.341285967177863 
681	 0.340683969350548 
682	 0.340174677371572 
683	 0.339694325780618 
684	 0.339180234429719 
685	 0.338592209816832 
686	 0.337977682799479 
687	 0.337347126848993 
688	 0.336710479421801 
689	 0.336074171645206 
690	 0.33539400798951 
691	 0.334769222585721 
692	 0.334215530796186 
693	 0.333551260745007 
694	 0.332746277429817 
695	 0.331952880736835 
696	 0.331316971653692 
697	 0.330520204724671 
698	 0.329731779742973 
699	 0.329006434051518 
700	 0.328251197075711 
701	 0.327481144511095 
702	 0.326688736223377 
703	 0.325856286616894 
704	 0.324926749888763 
705	 0.324088950181851 
706	 0.323324498908002 
707	 0.322511235892751 
708	 0.32168085172939 
709	 0.32081779404726 
710	 0.319947465672052 
711	 0.319159247220273 
712	 0.318262869451302 
713	 0.317300523495423 
714	 0.316380073583575 
715	 0.315600555424462 
716	 0.314736451760154 
717	 0.313770412430804 
718	 0.312844400770752 
719	 0.312000951469505 
720	 0.311155107644392 
721	 0.310245758094716 
722	 0.309292081448451 
723	 0.308293647569131 
724	 0.307311633604114 
725	 0.306410300563545 
726	 0.305577550268518 
727	 0.304673958510599 
728	 0.303693905861056 
729	 0.302758815137376 
730	 0.301860663940789 
731	 0.300930444769826 
732	 0.299927339821522 
733	 0.29887906423817 
734	 0.298036335091841 
735	 0.297235886236899 
736	 0.296211696829879 
737	 0.295255307507661 
738	 0.294324490627425 
739	 0.293395685996801 
740	 0.292490270471272 
741	 0.291589305685256 
742	 0.290691999361667 
743	 0.289802198377608 
744	 0.288932888198483 
745	 0.287992419646732 
746	 0.287054052291161 
747	 0.286233376574481 
748	 0.285334146238581 
749	 0.284468161273577 
750	 0.283664237857832 
751	 0.282818848758877 
752	 0.28191467662933 
753	 0.28103071971923 
754	 0.280225529018075 
755	 0.279428330022842 
756	 0.278671043658707 
757	 0.277907407504077 
758	 0.277070096688998 
759	 0.276229864224124 
760	 0.275447074684353 
761	 0.274715495222606 
762	 0.273950215415366 
763	 0.273251305991985 
764	 0.272530852721176 
765	 0.271738842668896 
766	 0.271059926742846 
767	 0.270413057630764 
768	 0.269738685653396 
769	 0.26900503048386 
770	 0.268292006765864 
771	 0.267635636236798 
772	 0.267033846960239 
773	 0.266445600247203 
774	 0.265862819554972 
775	 0.265256161956323 
776	 0.264614635473238 
777	 0.263970682565343 
778	 0.263426551394808 
779	 0.262931186932837 
780	 0.262378568720364 
781	 0.261825302989093 
782	 0.261344299044939 
783	 0.260893933471796 
784	 0.260325938830445 
785	 0.259876731608716 
786	 0.259470852504389 
787	 0.259024159562093 
788	 0.258573743418279 
789	 0.258221924107405 
790	 0.257849783811521 
791	 0.257326636323002 
792	 0.256925763393184 
793	 0.256619541855966 
794	 0.256347089280808 
795	 0.2560319707503 
796	 0.255609139202275 
797	 0.255205987016528 
798	 0.254915054015436 
799	 0.254713852320646 
800	 0.254456701988198 
801	 0.254147311980285 
802	 0.25385187314222 
803	 0.253657190555849 
804	 0.253500458358471 
805	 0.253305154152289 
806	 0.253016351919005 
807	 0.252786625713646 
808	 0.252624113901766 
809	 0.252481174714071 
810	 0.252265790837047 
811	 0.25209961255717 
812	 0.251962886430948 
813	 0.251823439239262 
814	 0.251697937293933 
815	 0.25168496440358 
816	 0.251672389243776 
817	 0.251510163810434 
818	 0.251349645794945 
819	 0.251313410559377 
820	 0.251328580154549 
821	 0.2511882365244 
822	 0.251167517528553 
823	 0.251187021470903 
824	 0.251180030535511 
825	 0.251190823128382 
826	 0.251170775417016 
827	 0.251171248444689 
828	 0.25122572785398 
829	 0.251223948899303 
830	 0.251218516137078 
831	 0.251228674588791 
832	 0.251262607044327 
833	 0.251369708319149 
834	 0.251446816717088 
835	 0.251489493685185 
836	 0.251592356447289 
837	 0.251739563651088 
838	 0.251872084299973 
839	 0.251972958604063 
840	 0.252111200330464 
841	 0.252182977677269 
842	 0.252271942604017 
843	 0.252448179470673 
844	 0.252566846601864 
845	 0.252731147392289 
846	 0.252947069935738 
847	 0.253177156152614 
848	 0.253438510128614 
849	 0.25363479617766 
850	 0.253771525447008 
851	 0.253939247955188 
852	 0.254067598745588 
853	 0.254302720106318 
854	 0.254642728064563 
855	 0.254840365334793 
856	 0.255134641723011 
857	 0.255429137293326 
858	 0.255650916351697 
859	 0.256001176658031 
860	 0.256260193596277 
861	 0.256463397420069 
862	 0.256710813542041 
863	 0.256928345964782 
864	 0.25730156863098 
865	 0.257742031382579 
866	 0.258027994668133 
867	 0.258321497565693 
868	 0.258663008178345 
869	 0.259022811593424 
870	 0.25931955935866 
871	 0.259623561763405 
872	 0.259989028103124 
873	 0.260402883085268 
874	 0.260753501372924 
875	 0.261112254103152 
876	 0.261478794523259 
877	 0.261847294168922 
878	 0.262237547826449 
879	 0.262687035483939 
880	 0.263187990891782 
881	 0.263691920800935 
882	 0.264077402345774 
883	 0.264460606454945 
884	 0.264859292846584 
885	 0.26525200581826 
886	 0.265769233422699 
887	 0.26629181575922 
888	 0.266742436292072 
889	 0.267124357879885 
890	 0.267661266325026 
891	 0.268223901772906 
892	 0.26871090177586 
893	 0.269128980045906 
894	 0.269655518001142 
895	 0.270170776988236 
896	 0.270631460748037 
897	 0.271237649612064 
898	 0.271825147706613 
899	 0.27234556793772 
900	 0.272810621621664 
901	 0.273292801046747 
902	 0.273854046617469 
903	 0.274444563713168 
904	 0.275017139040064 
905	 0.275713872934906 
906	 0.276380449577454 
907	 0.276953476140144 
908	 0.277452289923497 
909	 0.278014724037188 
910	 0.278635075312127 
911	 0.279301042868768 
912	 0.279984050871622 
913	 0.280565363713023 
914	 0.281186292493477 
915	 0.281889386321648 
916	 0.282600715196751 
917	 0.283241135865928 
918	 0.28381964259487 
919	 0.284398966174279 
920	 0.285072134309753 
921	 0.285781181356169 
922	 0.286507159299221 
923	 0.287212632613198 
924	 0.287836243208391 
925	 0.288465264980367 
926	 0.28914282219382 
927	 0.289861578203212 
928	 0.290543094265277 
929	 0.291363124172178 
930	 0.292196388662736 
931	 0.292914898047423 
932	 0.293576614575729 
933	 0.294178212842413 
934	 0.294854208150415 
935	 0.295698811407995 
936	 0.296608262365622 
937	 0.297345085470211 
938	 0.297985552804786 
939	 0.298699563073023 
940	 0.299538969495846 
941	 0.300345750664466 
942	 0.301157630339726 
943	 0.302024400316085 
944	 0.302708415436255 
945	 0.303366242069125 
946	 0.304096424115341 
947	 0.304907871224532 
948	 0.305600086380124 
949	 0.306241340835133 
950	 0.306930414239699 
951	 0.307723996487635 
952	 0.308440051004126 
953	 0.309093183380006 
954	 0.309775597477357 
955	 0.310569295926984 
956	 0.311307697876068 
957	 0.311942866533374 
958	 0.312520941892482 
959	 0.313147899481401 
960	 0.313918322902058 
961	 0.314670581732214 
962	 0.31540156481816 
963	 0.316194028560478 
964	 0.316909273163886 
965	 0.317732573375901 
966	 0.318642702383865 
967	 0.319493227722846 
968	 0.32036734501943 
969	 0.321335970907399 
970	 0.322338408884756 
971	 0.323252900618665 
972	 0.324169370481974 
973	 0.32520889567954 
974	 0.326221185335815 
975	 0.326976851464043 
976	 0.327894675918974 
977	 0.328846795940759 
978	 0.329771943884757 
979	 0.33069298709389 
980	 0.331699888363417 
981	 0.332701904435754 
982	 0.3336209377393 
983	 0.334442642477512 
984	 0.335350076700926 
985	 0.336266425548429 
986	 0.337292685293208 
987	 0.338515049830616 
988	 0.339456864893245 
989	 0.340262188937728 
990	 0.341180672503743 
991	 0.342359776386581 
992	 0.343366393284047 
993	 0.344248207502448 
994	 0.345217539844169 
995	 0.346415777926423 
996	 0.347449803565772 
997	 0.348501461460979 
998	 0.349621194003363 
999	 0.350778976980035 
1000	 0.35190329499256 
1001	 0.357414335797158 
1002	 0.358460985709045 
1003	 0.35944186570621 
1004	 0.36045460621082 
1005	 0.361528574628865 
1006	 0.362574312720449 
1007	 0.363591741204017 
1008	 0.364640598328302 
1009	 0.365658964656798 
1010	 0.366661284865797 
1011	 0.36766811547321 
1012	 0.368594932480003 
1013	 0.36961082833125 
1014	 0.370685532961715 
1015	 0.371680878388751 
1016	 0.372748145749577 
1017	 0.37380435772484 
1018	 0.374879574572476 
1019	 0.375801464042602 
1020	 0.376802940409639 
1021	 0.377853835506807 
1022	 0.378778243253365 
1023	 0.379744866658183 
1024	 0.380711918367311 
1025	 0.381573082872845 
1026	 0.382501605513372 
1027	 0.383470571821355 
1028	 0.384373733882781 
1029	 0.385259577940806 
1030	 0.386154040372697 
1031	 0.387039250244755 
1032	 0.38789289772557 
1033	 0.388756663200509 
1034	 0.389670113631614 
1035	 0.3905373595536 
1036	 0.391385536931127 
1037	 0.392245216138209 
1038	 0.393085306725996 
1039	 0.393957382921284 
1040	 0.394804399639012 
1041	 0.395650219793751 
1042	 0.396530079805654 
1043	 0.397378211174477 
1044	 0.398212315748567 
1045	 0.39903428437905 
1046	 0.399881547489954 
1047	 0.400696432774117 
1048	 0.401472799705325 
1049	 0.40226381249882 
1050	 0.403058094554315 
1051	 0.403867354650955 
1052	 0.404675659547574 
1053	 0.405451985638116 
1054	 0.406247910473047 
1055	 0.407084866577809 
1056	 0.407900303766805 
1057	 0.408722150763529 
1058	 0.409617787884144 
1059	 0.41044679097384 
1060	 0.411222461143109 
1061	 0.411991830593026 
1062	 0.412780188359415 
1063	 0.413525324736016 
1064	 0.414324189349881 
1065	 0.415144201363072 
1066	 0.415928676234801 
1067	 0.416729199167106 
1068	 0.417539299771058 
1069	 0.418340004068857 
1070	 0.419149696828447 
1071	 0.420015025667009 
1072	 0.420843506655477 
1073	 0.421602947052531 
1074	 0.422420861881278 
1075	 0.423284620402418 
1076	 0.424099678641684 
1077	 0.424906689315707 
1078	 0.425711472969341 
1079	 0.426447316721694 
1080	 0.427144927630999 
1081	 0.427851288794016 
1082	 0.42859326372085 
1083	 0.4293338125178 
1084	 0.430106650036452 
1085	 0.430832195051839 
1086	 0.431554529995481 
1087	 0.432233387809109 
1088	 0.432862296110484 
1089	 0.433513676264021 
1090	 0.434151501905192 
1091	 0.434742789908797 
1092	 0.43535498812638 
1093	 0.435942888755761 
1094	 0.43649565185285 
1095	 0.437053500590339 
1096	 0.437574363483156 
1097	 0.438032422816549 
1098	 0.438481169520796 
1099	 0.438903722062182 
1100	 0.439309471118087 
1101	 0.439681045614978 
1102	 0.440060703215152 
1103	 0.440446325643629 
1104	 0.440791232401813 
1105	 0.441115377617984 
1106	 0.441430671315379 
1107	 0.441690882185161 
1108	 0.441941109271567 
1109	 0.442204026441918 
1110	 0.442438637122474 
1111	 0.442648553913709 
1112	 0.442854627107204 
1113	 0.443014579725174 
1114	 0.443127380713339 
1115	 0.443246553258244 
1116	 0.443339159004215 
1117	 0.443434876380354 
1118	 0.443540220505102 
1119	 0.443617052531301 
1120	 0.443647183253247 
1121	 0.44369415246277 
1122	 0.443682265978321 
1123	 0.443632659884059 
1124	 0.443603981391479 
1125	 0.443590018860495 
1126	 0.443512526264988 
1127	 0.443432865720383 
1128	 0.443296841644129 
1129	 0.443099661983964 
1130	 0.442899121916529 
1131	 0.442703543669215 
1132	 0.442430210006858 
1133	 0.442131090254008 
1134	 0.441768525226735 
1135	 0.441341282968019 
1136	 0.440891439810448 
1137	 0.440371254470194 
1138	 0.439775385970095 
1139	 0.439059408164441 
1140	 0.438251510722453 
1141	 0.437343541950451 
1142	 0.436349476962983 
1143	 0.435247527857246 
1144	 0.434059191559131 
1145	 0.432770909599186 
1146	 0.43132227361501 
1147	 0.429892418404303 
1148	 0.428348211046539 
1149	 0.426860550430241 
1150	 0.425340293726202 
1151	 0.423886646695269 
1152	 0.422455584953831 
1153	 0.421137757105697 
1154	 0.419982671084396 
1155	 0.418886317819623 
1156	 0.418049914810499 
1157	 0.417379930552729 
1158	 0.416878366592021 
1159	 0.41659162188723 
1160	 0.416396682422478 
1161	 0.416392064713945 
1162	 0.416403920054681 
1163	 0.416572522655908 
1164	 0.416698774162669 
1165	 0.416857535988689 
1166	 0.41703052197735 
1167	 0.41715858027831 
1168	 0.417261801960191 
1169	 0.417319976015878 
1170	 0.417334085174555 
1171	 0.417326363650235 
1172	 0.417285096055077 
1173	 0.41722992970242 
1174	 0.417123351489517 
1175	 0.41705552149942 
1176	 0.416998406087962 
1177	 0.416919307571737 
1178	 0.416846301356835 
1179	 0.41676412945798 
1180	 0.416646664179654 
1181	 0.416549048664005 
1182	 0.416464435067198 
1183	 0.41638897906154 
1184	 0.41628523189733 
1185	 0.416171434027683 
1186	 0.416060422944734 
1187	 0.415938981092218 
1188	 0.415808809183578 
1189	 0.41568440428522 
1190	 0.415542843245401 
1191	 0.415365251085886 
1192	 0.415218770363303 
1193	 0.41508216483936 
1194	 0.414944945384312 
1195	 0.414826886606976 
1196	 0.41469302813333 
1197	 0.414528166391112 
1198	 0.414398014171356 
1199	 0.414280871463283 
1200	 0.414172069562695 
1201	 0.414066022320497 
1202	 0.413985648009901 
1203	 0.413889723978201 
1204	 0.413773243524385 
1205	 0.413688352966759 
1206	 0.413621047894508 
1207	 0.413553554832368 
1208	 0.413512308943608 
1209	 0.41344570418925 
1210	 0.413365205818272 
1211	 0.413291760025342 
1212	 0.413196773465844 
1213	 0.413126531770737 
1214	 0.413073688324651 
1215	 0.413023921072311 
1216	 0.41298222859899 
1217	 0.41296374055628 
1218	 0.412912354897553 
1219	 0.412849832761053 
1220	 0.412794614580631 
1221	 0.412722743056436 
1222	 0.412666547130295 
1223	 0.412628287487933 
1224	 0.412576710776885 
1225	 0.412521157700818 
1226	 0.412464397902273 
1227	 0.412411566574301 
1228	 0.41234582108939 
1229	 0.412267748819851 
1230	 0.412194085131545 
1231	 0.412109171972678 
1232	 0.412030054647742 
1233	 0.411954457025207 
1234	 0.411890932368469 
1235	 0.411808852605936 
1236	 0.411714256434097 
1237	 0.411639192241041 
1238	 0.411562352863355 
1239	 0.411490594600046 
1240	 0.411431367615748 
1241	 0.411372510857361 
1242	 0.411323521006013 
1243	 0.411256437084734 
1244	 0.411191158386797 
1245	 0.411117549290379 
1246	 0.411005122474472 
1247	 0.410923198143635 
1248	 0.410855677560335 
1249	 0.410806983689555 
1250	 0.410719445476545 
1251	 0.410635601485845 
1252	 0.410520369416435 
1253	 0.410358070779926 
1254	 0.410224794644414 
1255	 0.410100572633732 
1256	 0.409954624736243 
1257	 0.40980311331376 
1258	 0.409644585437557 
1259	 0.409459010896114 
1260	 0.409291397302461 
1261	 0.40912864806196 
1262	 0.408967915682366 
1263	 0.408820577990887 
1264	 0.408660907794092 
1265	 0.408482030075197 
1266	 0.408325106076688 
1267	 0.408183729292041 
1268	 0.40802474927896 
1269	 0.407873198860577 
1270	 0.407739980676087 
1271	 0.40759029713933 
1272	 0.407431720625966 
1273	 0.407264940918418 
1274	 0.407102799917616 
1275	 0.406916332481808 
1276	 0.406700625664143 
1277	 0.406500900077056 
1278	 0.406307651886514 
1279	 0.406093860051438 
1280	 0.405892833594162 
1281	 0.40565043610587 
1282	 0.405378791274501 
1283	 0.405087350293913 
1284	 0.404764130035697 
1285	 0.404429421584803 
1286	 0.40407491359571 
1287	 0.403728876776657 
1288	 0.403403398925646 
1289	 0.403090798496579 
1290	 0.402774641449939 
1291	 0.402479690153256 
1292	 0.402156914615848 
1293	 0.401830150706646 
1294	 0.401483663761005 
1295	 0.40111675631361 
1296	 0.400751548351658 
1297	 0.400377017309291 
1298	 0.399991602490885 
1299	 0.39961623561136 
1300	 0.399206875937133 
1301	 0.398783009803929 
1302	 0.398330202064808 
1303	 0.397834459576999 
1304	 0.397344070462443 
1305	 0.396868990055152 
1306	 0.396347531173506 
1307	 0.395812234386337 
1308	 0.395254066781746 
1309	 0.394657934559127 
1310	 0.394017412962362 
1311	 0.393358113601077 
1312	 0.392689425218991 
1313	 0.391966369044169 
1314	 0.3912132237753 
1315	 0.39040422128643 
1316	 0.389546676896566 
1317	 0.388657680380118 
1318	 0.387727381158837 
1319	 0.386762863147079 
1320	 0.385782385905047 
1321	 0.384744072485917 
1322	 0.383674185227269 
1323	 0.382537044238137 
1324	 0.381343696263033 
1325	 0.380103626924406 
1326	 0.378837954709426 
1327	 0.377529597898253 
1328	 0.376176170711285 
1329	 0.374809823141667 
1330	 0.373377518525532 
1331	 0.371877155729706 
1332	 0.370375228787769 
1333	 0.368831700402222 
1334	 0.367291118351157 
1335	 0.365747863293166 
1336	 0.364177971788359 
1337	 0.362580328043547 
1338	 0.360996401226825 
1339	 0.359402788088121 
1340	 0.357799500715822 
1341	 0.356171266081376 
1342	 0.354583302076001 
1343	 0.352981566705782 
1344	 0.351428724622738 
1345	 0.34990600840099 
1346	 0.348435626905518 
1347	 0.346971929645814 
1348	 0.345505156082025 
1349	 0.344097329801912 
1350	 0.342695739071523 
1351	 0.341321075409696 
1352	 0.339984824496193 
1353	 0.338644260127711 
1354	 0.337303030207729 
1355	 0.335996950876557 
1356	 0.334700857642617 
1357	 0.333428733484389 
1358	 0.332193734404382 
1359	 0.330946422954683 
1360	 0.329712260048485 
1361	 0.328480995675193 
1362	 0.327260220725953 
1363	 0.326036333736012 
1364	 0.32482525529404 
1365	 0.323595205309486 
1366	 0.322363287492573 
1367	 0.32111057441565 
1368	 0.319864270598331 
1369	 0.318614740902505 
1370	 0.317301455191919 
1371	 0.315950439962088 
1372	 0.314556461679938 
1373	 0.313071278255044 
1374	 0.311511992155347 
1375	 0.309904952766415 
1376	 0.308185094028704 
1377	 0.306371357395008 
1378	 0.304456456650231 
1379	 0.30245239154435 
1380	 0.3003450591122 
1381	 0.298140251120235 
1382	 0.295816421845917 
1383	 0.293418457293881 
1384	 0.290880790965408 
1385	 0.288265599630609 
1386	 0.285473882979986 
1387	 0.282573542135735 
1388	 0.27949332111761 
1389	 0.27627236097251 
1390	 0.272836140154746 
1391	 0.269231596207047 
1392	 0.265437515847326 
1393	 0.261483168161927 
1394	 0.257408752130735 
1395	 0.253151471846787 
1396	 0.248822786175835 
1397	 0.244431747955974 
1398	 0.239872240655267 
1399	 0.235394250339625 
1400	 0.230838522125053 
1401	 0.226429087658877 
1402	 0.222004373054588 
1403	 0.217784188925193 
1404	 0.213594328487956 
1405	 0.20974666244183 
1406	 0.206034537355616 
1407	 0.202644847068468 
1408	 0.199529446336813 
1409	 0.196691914639436 
1410	 0.19410619370633 
1411	 0.191815947719862 
1412	 0.189829536120567 
1413	 0.188101703858011 
1414	 0.186621066945285 
1415	 0.185284849975944 
1416	 0.184100621384065 
1417	 0.183007952475204 
1418	 0.181942577595082 
1419	 0.18093679885816 
1420	 0.179904761466289 
1421	 0.17888824212501 
1422	 0.177903204312458 
1423	 0.176903587541859 
1424	 0.175916176780049 
1425	 0.174942602147992 
1426	 0.17397973122848 
1427	 0.173013752041844 
1428	 0.172069161412459 
1429	 0.171139882262132 
1430	 0.170236161817751 
1431	 0.16934343168125 
1432	 0.168473235102237 
1433	 0.167630602381537 
1434	 0.166798812496029 
1435	 0.165985266605627 
1436	 0.16518413213402 
1437	 0.164402751916016 
1438	 0.163632898781246 
1439	 0.162886510130496 
1440	 0.162116821864499 
1441	 0.161370354368078 
1442	 0.160630430568501 
1443	 0.159867360370272 
1444	 0.159124463013996 
1445	 0.158378753927418 
1446	 0.157639612658174 
1447	 0.156936458915214 
1448	 0.156243096392155 
1449	 0.15556215663915 
1450	 0.15489769562234 
1451	 0.154274038217215 
1452	 0.15366933263447 
1453	 0.15310277527701 
1454	 0.152589648103 
1455	 0.152073637511381 
1456	 0.151585236015846 
1457	 0.151078579972965 
1458	 0.150583785843727 
1459	 0.150072647718976 
1460	 0.149542841220407 
1461	 0.149029018519968 
1462	 0.148517191971393 
1463	 0.148009239495921 
1464	 0.147497073570092 
1465	 0.147000069275592 
1466	 0.146499182795943 
1467	 0.146024867205767 
1468	 0.145566353360568 
1469	 0.145134276958208 
1470	 0.144717822281608 
1471	 0.144333322422626 
1472	 0.143980360932301 
1473	 0.143650880266096 
1474	 0.143352226660883 
1475	 0.143085644900746 
1476	 0.142853059700219 
1477	 0.142673705590946 
1478	 0.142539066456361 
1479	 0.142428433772823 
1480	 0.14235779704839 
1481	 0.142309628947433 
1482	 0.142289484639299 
1483	 0.142304895313368 
1484	 0.142333461031776 
1485	 0.142387647714136 
1486	 0.142454418681732 
1487	 0.142549372846852 
1488	 0.142639508129482 
1489	 0.142747824859063 
1490	 0.142841147652034 
1491	 0.142927309083773 
1492	 0.143021874755849 
1493	 0.143117047119564 
1494	 0.143213779562243 
1495	 0.143320771020329 
1496	 0.14341655418947 
1497	 0.143513802024964 
1498	 0.143594996976945 
1499	 0.143664659808718 
1500	 0.143731404053464 
1501	 0.143778244140521 
1502	 0.143837914109829 
1503	 0.143907286615851 
1504	 0.143964631821672 
1505	 0.14402803728878 
1506	 0.144077620462192 
1507	 0.144115743078028 
1508	 0.144161670555693 
1509	 0.14420022840035 
1510	 0.144228298688216 
1511	 0.144249708058165 
1512	 0.144253287912711 
1513	 0.144246499837801 
1514	 0.14424805096315 
1515	 0.144246813119037 
1516	 0.144244352951677 
1517	 0.144249128990507 
1518	 0.144267774088513 
1519	 0.14425890650523 
1520	 0.144246829414582 
1521	 0.144220500510679 
1522	 0.144163531410581 
1523	 0.144126425095726 
1524	 0.144095295336775 
1525	 0.144059860629231 
1526	 0.144025903599666 
1527	 0.143990428845079 
1528	 0.143956966820634 
1529	 0.143907525473672 
1530	 0.143853650886893 
1531	 0.143796235960611 
1532	 0.143724500330872 
1533	 0.143655242037888 
1534	 0.143595433191214 
1535	 0.143512130340505 
1536	 0.143406146884284 
1537	 0.143313991635403 
1538	 0.143215032873991 
1539	 0.143116187395831 
1540	 0.143029920240464 
1541	 0.142930930117355 
1542	 0.142821510157564 
1543	 0.142713372066248 
1544	 0.142599489585313 
1545	 0.142489091438077 
1546	 0.142386052870134 
1547	 0.142266099411652 
1548	 0.142141408590407 
1549	 0.142005820428615 
1550	 0.141876681303986 
1551	 0.141749008222332 
1552	 0.141610569433466 
1553	 0.141490537250702 
1554	 0.141364011456128 
1555	 0.141220438958445 
1556	 0.141092734554268 
1557	 0.140968896298806 
1558	 0.140829569718994 
1559	 0.140682865474132 
1560	 0.140528243731841 
1561	 0.14036132310891 
1562	 0.14020237580229 
1563	 0.140039711126885 
1564	 0.139879497944961 
1565	 0.139728021312503 
1566	 0.139565845740917 
1567	 0.139390622135483 
1568	 0.13922682379781 
1569	 0.139065720465069 
1570	 0.13890604634612 
1571	 0.138753043802795 
1572	 0.138594148233707 
1573	 0.138427648946616 
1574	 0.138274977471829 
1575	 0.138139475134502 
1576	 0.13797768822068 
1577	 0.137807012158821 
1578	 0.137639106204055 
1579	 0.137450495423637 
1580	 0.137278177374892 
1581	 0.137125150910775 
1582	 0.136962781295729 
1583	 0.136795281000587 
1584	 0.136625538992179 
1585	 0.136452416114482 
1586	 0.136284808013924 
1587	 0.136126784937551 
1588	 0.135950906192925 
1589	 0.13576069817122 
1590	 0.13558623708855 
1591	 0.135403153032622 
1592	 0.135229661707158 
1593	 0.1350792614743 
1594	 0.134918021306631 
1595	 0.134754545909463 
1596	 0.134584515912384 
1597	 0.134410459507374 
1598	 0.134236244683298 
1599	 0.13406706397213 
1600	 0.13387623153736 
1601	 0.133657904415328 
1602	 0.133465174636433 
1603	 0.13326807546329 
1604	 0.1330758218318 
1605	 0.132910586089657 
1606	 0.132737901393534 
1607	 0.132561310671177 
1608	 0.132376649480199 
1609	 0.132191816040364 
1610	 0.132008650996789 
1611	 0.131822555230302 
1612	 0.131636840590272 
1613	 0.131438270912337 
1614	 0.131242660550139 
1615	 0.131072919144844 
1616	 0.130887063596003 
1617	 0.130699401019188 
1618	 0.130528122324067 
1619	 0.130326456440461 
1620	 0.130115578668791 
1621	 0.129921856511002 
1622	 0.129742177800246 
1623	 0.129553210555143 
1624	 0.129368743319086 
1625	 0.129166408577122 
1626	 0.128957165305512 
1627	 0.128745473938215 
1628	 0.128517119745943 
1629	 0.128305168861952 
1630	 0.128098174204329 
1631	 0.127892972734588 
1632	 0.127692653725073 
1633	 0.1274917419878 
1634	 0.127294469749632 
1635	 0.12709125660966 
1636	 0.126897044367924 
1637	 0.126670051124283 
1638	 0.126418229207573 
1639	 0.12618979013379 
1640	 0.125946820954008 
1641	 0.125722062276172 
1642	 0.125531458231043 
1643	 0.125300935098447 
1644	 0.125048431917497 
1645	 0.124810273737061 
1646	 0.124559424867589 
1647	 0.12432236181419 
1648	 0.124098613812267 
1649	 0.123870960702927 
1650	 0.123653848918956 
1651	 0.123412191610252 
1652	 0.123154696697354 
1653	 0.122913542835921 
1654	 0.122660330897964 
1655	 0.1224188309876 
1656	 0.122207553730789 
1657	 0.12196200960863 
1658	 0.121695308394748 
1659	 0.12143586454956 
1660	 0.121162175540244 
1661	 0.120902826151606 
1662	 0.120650993771633 
1663	 0.120397781286928 
1664	 0.120152423405531 
1665	 0.119897236427842 
1666	 0.11963300750504 
1667	 0.119380559655572 
1668	 0.119121271243668 
1669	 0.118882851295551 
1670	 0.118674613450448 
1671	 0.118437284834412 
1672	 0.118202740444829 
1673	 0.117953024565362 
1674	 0.117671799679754 
1675	 0.117416589444693 
1676	 0.117172360777698 
1677	 0.116920299027588 
1678	 0.116674529158798 
1679	 0.116423323787268 
1680	 0.116163719777228 
1681	 0.115906650703357 
1682	 0.11564393344388 
1683	 0.115397735008644 
1684	 0.115155958427468 
1685	 0.114919794076952 
1686	 0.114700978648756 
1687	 0.114474687996724 
1688	 0.114256746545093 
1689	 0.114014968244912 
1690	 0.113756110974143 
1691	 0.113511581814818 
1692	 0.113252067732128 
1693	 0.113009903293809 
1694	 0.112783247236929 
1695	 0.112564282933123 
1696	 0.11236247642762 
1697	 0.112135280557818 
1698	 0.111910560425837 
1699	 0.111678471116058 
1700	 0.111414237593335 
1701	 0.111178851749474 
1702	 0.110963331155981 
1703	 0.110737860182251 
1704	 0.110512531961926 
1705	 0.110294283648604 
1706	 0.110080927829786 
1707	 0.109861151936746 
1708	 0.109636873827931 
1709	 0.109428494899242 
1710	 0.109231940294931 
1711	 0.109019335663923 
1712	 0.108812161213321 
1713	 0.108597618937094 
1714	 0.10835608745578 
1715	 0.108139589623964 
1716	 0.107931032266848 
1717	 0.107742342565426 
1718	 0.107569721647482 
1719	 0.107397652725748 
1720	 0.107251940503746 
1721	 0.107081350301737 
1722	 0.106902258028049 
1723	 0.106719025550925 
1724	 0.106524451577854 
1725	 0.106334865519552 
1726	 0.106143833094435 
1727	 0.10595128485982 
1728	 0.105746769610656 
1729	 0.105568336451807 
1730	 0.10540333207859 
1731	 0.105230736589505 
1732	 0.105077551872439 
1733	 0.104910423149161 
1734	 0.104717123249888 
1735	 0.104562955268735 
1736	 0.104425905506784 
1737	 0.104290946723439 
1738	 0.104183930953326 
1739	 0.104048588200851 
1740	 0.103896493794624 
1741	 0.103762190834202 
1742	 0.103626135924646 
1743	 0.103498218793373 
1744	 0.103391656749639 
1745	 0.103260110032385 
1746	 0.103109971503849 
1747	 0.102966400121738 
1748	 0.102836368056362 
1749	 0.102703023465549 
1750	 0.102586270250402 
1751	 0.102478170661976 
1752	 0.102351143241679 
1753	 0.102231739676526 
1754	 0.102137959857417 
1755	 0.102032268887788 
1756	 0.101918762793178 
1757	 0.101804238745365 
1758	 0.101672723932871 
1759	 0.101572920599739 
1760	 0.10148984999645 
1761	 0.101377816426934 
1762	 0.101271989434073 
1763	 0.101140056903641 
1764	 0.100993267453493 
1765	 0.100890147528394 
1766	 0.100797190517539 
1767	 0.100681905850251 
1768	 0.100562787915074 
1769	 0.100443220728067 
1770	 0.100319974375121 
1771	 0.100237859347422 
1772	 0.100184816944628 
1773	 0.100132550411831 
1774	 0.100062663903519 
1775	 9.99592083908118E-02 
1776	 9.98444441688073E-02 
1777	 9.97316876919915E-02 
1778	 9.96363436065021E-02 
1779	 9.95390233028452E-02 
1780	 9.94338812909131E-02 
1781	 9.93188280269817E-02 
1782	 9.92092496371165E-02 
1783	 9.91615673909797E-02 
1784	 9.90961020624887E-02 
1785	 0.099049285108843 
1786	 9.89819750303492E-02 
1787	 9.88884919979533E-02 
1788	 9.88088319773827E-02 
1789	 9.87357071764253E-02 
1790	 9.86588592252853E-02 
1791	 0.098568682905118 
1792	 9.84965313734894E-02 
1793	 9.84367285608455E-02 
1794	 9.83669020223735E-02 
1795	 9.83119216044191E-02 
1796	 9.82573722673087E-02 
1797	 9.81969710242123E-02 
1798	 9.81201451584022E-02 
1799	 9.80263208693788E-02 
1800	 9.79521654685112E-02 
1801	 0.097234951355017 
1802	 9.72258121766043E-02 
1803	 9.72384695031522E-02 
1804	 9.72678711293685E-02 
1805	 9.72800440023286E-02 
1806	 9.72611195912828E-02 
1807	 9.72457831188571E-02 
1808	 9.72242990875835E-02 
1809	 9.71824576324493E-02 
1810	 9.71629567143072E-02 
1811	 9.71616772447888E-02 
1812	 9.71361862875818E-02 
1813	 9.71174930650184E-02 
1814	 9.70840054959629E-02 
1815	 9.70175739388918E-02 
1816	 9.69608739377121E-02 
1817	 9.69199861944049E-02 
1818	 9.68764611781203E-02 
1819	 9.68505963150874E-02 
1820	 0.09684428113929 
1821	 9.68360019122705E-02 
1822	 9.68439942505769E-02 
1823	 9.68575076475369E-02 
1824	 9.68579103159874E-02 
1825	 9.68605868725491E-02 
1826	 9.68551536611596E-02 
1827	 9.68026288000885E-02 
1828	 9.67656472860707E-02 
1829	 9.67475876708219E-02 
1830	 9.67055897999938E-02 
1831	 9.66447397837951E-02 
1832	 9.65809041054253E-02 
1833	 9.65237367627958E-02 
1834	 9.64449690166014E-02 
1835	 9.63970854894903E-02 
1836	 9.63691044361126E-02 
1837	 9.63252738719729E-02 
1838	 9.62762095273175E-02 
1839	 0.096221724833417 
1840	 9.61495809386806E-02 
1841	 9.60844970337412E-02 
1842	 9.60402661683746E-02 
1843	 0.095985793942573 
1844	 9.59272691372151E-02 
1845	 9.58683734769149E-02 
1846	 9.58037542286922E-02 
1847	 9.57276366507434E-02 
1848	 9.56243566822343E-02 
1849	 9.55114726442528E-02 
1850	 9.53969455372618E-02 
1851	 9.52678876814782E-02 
1852	 9.51330401883568E-02 
1853	 9.50144187550944E-02 
1854	 9.48817881162454E-02 
1855	 9.47210831831765E-02 
1856	 9.45430938837809E-02 
1857	 9.43563450282096E-02 
1858	 0.094175493972201 
1859	 0.093975520358777 
1860	 9.37651577140546E-02 
1861	 9.35526056455292E-02 
1862	 9.33282742456624E-02 
1863	 9.30474925819465E-02 
1864	 9.27664386570305E-02 
1865	 9.24807998805371E-02 
1866	 9.21446022378198E-02 
1867	 9.18102428936508E-02 
1868	 9.14549673407401E-02 
1869	 9.10594673072025E-02 
1870	 9.06625040762876E-02 
1871	 9.02494619815086E-02 
1872	 8.98200841964565E-02 
1873	 8.93850845106023E-02 
1874	 0.088949845258057 
1875	 8.84741566042094E-02 
1876	 8.79620076399038E-02 
1877	 0.087417912808322 
1878	 8.68428632439308E-02 
1879	 8.62339433029643E-02 
1880	 8.55869473850921E-02 
1881	 8.49195078406743E-02 
1882	 8.42129108701361E-02 
1883	 8.34728603195404E-02 
1884	 8.26554363809771E-02 
1885	 8.18275394220422E-02 
1886	 8.09440138530516E-02 
1887	 7.99841114911932E-02 
1888	 7.90145476518004E-02 
1889	 7.80051603740244E-02 
1890	 7.69368136163316E-02 
1891	 7.58339450012273E-02 
1892	 7.46712756042798E-02 
1893	 7.34988972322474E-02 
1894	 0.07229570305971 
1895	 7.10622627919418E-02 
1896	 6.97852759594075E-02 
1897	 6.85283789238347E-02 
1898	 6.72510945682852E-02 
1899	 6.59735249067078E-02 
1900	 6.47555866642718E-02 
1901	 6.35636750479888E-02 
1902	 6.24750891766864E-02 
1903	 6.14485823509513E-02 
1904	 6.05248327627322E-02 
1905	 5.96845129316941E-02 
1906	 5.89538067749678E-02 
1907	 5.83142010501785E-02 
1908	 0.057725407164749 
1909	 5.71922474747435E-02 
1910	 5.67387118689277E-02 
1911	 5.63324660438048E-02 
1912	 5.59663034456161E-02 
1913	 5.56269638815651E-02 
1914	 5.53472333408423E-02 
1915	 5.50651897490659E-02 
1916	 5.48126003581116E-02 
1917	 5.45618539098895E-02 
1918	 5.42853864706839E-02 
1919	 5.40319921477052E-02 
1920	 5.37755980683221E-02 
1921	 5.35082564253624E-02 
1922	 5.32801928805263E-02 
1923	 5.30595271321015E-02 
1924	 0.05285033865545 
1925	 5.26513877809999E-02 
1926	 5.24578081048304E-02 
1927	 5.22742317121265E-02 
1928	 0.052106387442297 
1929	 5.19260661736555E-02 
1930	 5.17531897936685E-02 
1931	 5.15962625735351E-02 
1932	 5.14296221660164E-02 
1933	 5.12835116256375E-02 
1934	 5.11676178944627E-02 
1935	 5.10452048709317E-02 
1936	 5.09358607988222E-02 
1937	 5.08238641905993E-02 
1938	 5.07030063334354E-02 
1939	 5.05945330836034E-02 
1940	 5.04865633111439E-02 
1941	 5.03999036009864E-02 
1942	 5.03178941300079E-02 
1943	 5.02617130682779E-02 
1944	 5.02021790439992E-02 
1945	 5.01420130173523E-02 
1946	 5.00874032648904E-02 
1947	 5.00217050029735E-02 
1948	 4.99895492640024E-02 
1949	 4.99882704016891E-02 
1950	 4.99685786319447E-02 
1951	 4.99677270593012E-02 
1952	 4.99543854599423E-02 
1953	 4.99084892719445E-02 
1954	 4.98742866559924E-02 
1955	 4.98476148040962E-02 
1956	 4.98280741333048E-02 
1957	 4.98062937163623E-02 
1958	 4.97967814462201E-02 
1959	 4.97685014212936E-02 
1960	 4.97202497952639E-02 
1961	 4.96895544419645E-02 
1962	 4.96527915271326E-02 
1963	 4.96329284900759E-02 
1964	 4.96242792251619E-02 
1965	 4.96325563466421E-02 
1966	 4.96546414205307E-02 
1967	 4.96501424988404E-02 
1968	 0.049645896926429 
1969	 4.96293629621013E-02 
1970	 0.049638620622548 
1971	 4.96436179743155E-02 
1972	 4.96704786755137E-02 
1973	 4.97197129080816E-02 
1974	 4.97736436193841E-02 
1975	 4.98314237049397E-02 
1976	 4.99078491959055E-02 
1977	 4.99957667605168E-02 
1978	 5.00842771118355E-02 
1979	 5.01912913579648E-02 
1980	 5.02870292341655E-02 
1981	 5.03961999574869E-02 
1982	 5.05183768547285E-02 
1983	 5.06418058154504E-02 
1984	 5.07754854257024E-02 
1985	 5.09031804912018E-02 
1986	 5.10350832892141E-02 
1987	 5.11593110681915E-02 
1988	 0.05128193819315 
1989	 5.13912426052187E-02 
1990	 5.15001291399774E-02 
1991	 0.051618207903494 
1992	 0.051741005633523 
1993	 5.18628341550989E-02 
1994	 5.19955035280836E-02 
1995	 5.21488191495769E-02 
1996	 5.22825768404062E-02 
1997	 5.24172806503517E-02 
1998	 5.25480903645797E-02 
1999	 5.26544808538051E-02 
2000	 5.27818350344197E-02 
2001	 5.29232719840673E-02 
2002	 5.30607273472073E-02 
2003	 0.053200895757488 
2004	 0.053340079872874 
2005	 5.34754147271636E-02 
2006	 0.053606861380044 
2007	 5.37316303752095E-02 
2008	 5.38525706401511E-02 
2009	 5.39727422680596E-02 
2010	 5.40829273179582E-02 
2011	 5.41969399562802E-02 
2012	 5.43170640177652E-02 
2013	 5.44315102589421E-02 
2014	 0.054539842846189 
2015	 5.46453451211514E-02 
2016	 5.47661694561523E-02 
2017	 5.48941004052258E-02 
2018	 5.50098089884656E-02 
2019	 5.51270923480901E-02 
2020	 5.52453819157005E-02 
2021	 0.055352962244989 
2022	 5.54658100173115E-02 
2023	 5.55913278778716E-02 
2024	 5.57116069095528E-02 
2025	 5.58231785649709E-02 
2026	 5.59375607344133E-02 
2027	 5.60643734306035E-02 
2028	 5.61688766997628E-02 
2029	 5.62860825550257E-02 
2030	 0.056409252959478 
2031	 5.65195318286405E-02 
2032	 5.66190595496861E-02 
2033	 5.67382247270866E-02 
2034	 5.68594063039537E-02 
2035	 5.69756922020184E-02 
2036	 5.71109154723488E-02 
2037	 5.72316026416559E-02 
2038	 5.73297538404073E-02 
2039	 5.74400571103008E-02 
2040	 5.75669881552142E-02 
2041	 5.76737590287269E-02 
2042	 5.77658596762619E-02 
2043	 5.78820888671088E-02 
2044	 5.79808179913298E-02 
2045	 5.80631924410505E-02 
2046	 5.81623811353171E-02 
2047	 5.82627483408987E-02 
2048	 5.83706988466252E-02 
2049	 5.85092210135894E-02 
2050	 5.86070562030898E-02 
2051	 5.86739301135624E-02 
2052	 5.87651076090515E-02 
2053	 5.88396033017986E-02 
2054	 5.89262514998952E-02 
2055	 5.90309906470788E-02 
2056	 5.91568540619138E-02 
2057	 5.92599311740142E-02 
2058	 5.93498167836959E-02 
2059	 5.94498398260274E-02 
2060	 5.95529354936822E-02 
2061	 5.96514044384213E-02 
2062	 5.97502146231738E-02 
2063	 5.98462967961246E-02 
2064	 5.99315058935165E-02 
2065	 6.00290954970427E-02 
2066	 6.01334454441235E-02 
2067	 6.02367558078156E-02 
2068	 6.03415395926577E-02 
2069	 0.060459232465861 
2070	 6.05616415742897E-02 
2071	 6.06610128576533E-02 
2072	 0.060751704106122 
2073	 6.08349831948427E-02 
2074	 0.060917119569814 
2075	 6.09847128994949E-02 
2076	 6.10681622705128E-02 
2077	 6.11584916497632E-02 
2078	 6.12440653446433E-02 
2079	 6.13315642860651E-02 
2080	 6.14249207819542E-02 
2081	 6.15192859198017E-02 
2082	 6.16126698000872E-02 
2083	 6.17089538625561E-02 
2084	 6.18133745959345E-02 
2085	 6.19082411276065E-02 
2086	 6.19966167287386E-02 
2087	 0.062087083940105 
2088	 6.21715102742221E-02 
2089	 6.22700602761828E-02 
2090	 6.23766452813756E-02 
2091	 6.24768514051049E-02 
2092	 6.25801462201112E-02 
2093	 6.26867029743009E-02 
2094	 6.27986818624401E-02 
2095	 0.062897134314045 
2096	 6.29869866236887E-02 
2097	 6.30897871949511E-02 
2098	 6.31915645259015E-02 
2099	 6.32868377543868E-02 
2100	 6.33844073535426E-02 
2101	 0.063495950432993 
2102	 6.35976061234905E-02 
2103	 6.36784857262025E-02 
2104	 6.37862061732827E-02 
2105	 6.39114351129858E-02 
2106	 6.40329050212237E-02 
2107	 6.41704885551226E-02 
2108	 6.42891127224242E-02 
2109	 6.43970752926427E-02 
2110	 6.45107828127164E-02 
2111	 6.46096606273452E-02 
2112	 6.47244404919748E-02 
2113	 6.48595688418657E-02 
2114	 6.49837447559764E-02 
2115	 0.065105456692747 
2116	 6.52311780139712E-02 
2117	 6.53469238536921E-02 
2118	 6.54479768350468E-02 
2119	 6.55642966772983E-02 
2120	 6.56791311006842E-02 
2121	 6.58047854465493E-02 
2122	 6.59460264617153E-02 
2123	 6.60780666630418E-02 
2124	 6.62274000444688E-02 
2125	 6.63471369364135E-02 
2126	 6.64316752909259E-02 
2127	 6.65418821050045E-02 
2128	 6.66530312489547E-02 
2129	 6.67601320025397E-02 
2130	 6.68760640009246E-02 
2131	 6.70060697899589E-02 
2132	 6.71121996090924E-02 
2133	 0.067194705441606 
2134	 6.72934948684262E-02 
2135	 6.73964328772292E-02 
2136	 6.74929364056452E-02 
2137	 6.75895709722252E-02 
2138	 6.76832843477865E-02 
2139	 6.77725608384652E-02 
2140	 6.78603781482342E-02 
2141	 6.79486898575837E-02 
2142	 0.068031998727386 
2143	 6.81142997265745E-02 
2144	 6.81876382150193E-02 
2145	 6.82529849582241E-02 
2146	 6.83172759834897E-02 
2147	 6.83713106136361E-02 
2148	 0.068429569153869 
2149	 6.84849835901006E-02 
2150	 0.068547552633492 
2151	 0.068588901858498 
2152	 6.86085207697794E-02 
2153	 6.86531671987586E-02 
2154	 6.86920046357617E-02 
2155	 6.87425418674569E-02 
2156	 6.88352888135272E-02 
2157	 6.88826098717577E-02 
2158	 6.89163873021871E-02 
2159	 6.89340846856365E-02 
2160	 0.068898866203789 
2161	 6.89026931740322E-02 
2162	 6.89248645269952E-02 
2163	 6.89347018940061E-02 
2164	 6.89490325889493E-02 
2165	 6.89764210704028E-02 
2166	 6.89975153680774E-02 
2167	 6.90054681396566E-02 
2168	 6.90195576225392E-02 
2169	 6.90451293721946E-02 
2170	 6.90656315827617E-02 
2171	 6.90822544432176E-02 
2172	 6.90906170085454E-02 
2173	 6.91040693595135E-02 
2174	 6.91051354141177E-02 
2175	 0.069085176044409 
2176	 0.069073999048622 
2177	 6.90590533537417E-02 
2178	 0.069052362357568 
2179	 6.90416117718188E-02 
2180	 6.90450969552603E-02 
2181	 6.90771096483811E-02 
2182	 6.90857820948052E-02 
2183	 6.90843674499022E-02 
2184	 6.90928177072283E-02 
2185	 6.90912616710901E-02 
2186	 0.069071230726763 
2187	 6.90671339929466E-02 
2188	 6.90714662526078E-02 
2189	 6.90732313582755E-02 
2190	 0.069077826110735 
2191	 6.90731378631066E-02 
2192	 6.90606907167547E-02 
2193	 6.90596491629488E-02 
2194	 6.90581356798235E-02 
2195	 6.90595049154473E-02 
2196	 6.90807483856004E-02 
2197	 6.90828940605536E-02 
2198	 6.90810322274373E-02 
2199	 6.90622209965068E-02 
2200	 6.90117546683956E-02 
2201	 6.89848427829743E-02 
2202	 6.89370974080541E-02 
2203	 6.89229540438805E-02 
2204	 6.89336002122285E-02 
2205	 6.89797051392506E-02 
2206	 6.90072499713267E-02 
2207	 6.90518423953082E-02 
2208	 6.90873892558215E-02 
2209	 6.91190591269677E-02 
2210	 6.91495665072069E-02 
2211	 6.91994203894459E-02 
2212	 6.92088975285189E-02 
2213	 6.91824417668342E-02 
2214	 0.069181465991946 
2215	 6.91696849020436E-02 
2216	 6.91627569079355E-02 
2217	 6.91652143488528E-02 
2218	 6.91731793115311E-02 
2219	 6.91684335433812E-02 
2220	 6.91852000952712E-02 
2221	 6.92418562291288E-02 
2222	 6.92744459943575E-02 
2223	 6.92987299068659E-02 
2224	 6.93163529410306E-02 
2225	 6.93382833763837E-02 
2226	 6.93508230585783E-02 
2227	 6.93639611089233E-02 
2228	 6.93924742710908E-02 
2229	 6.93892075966468E-02 
2230	 6.93466675813097E-02 
2231	 6.93506085143815E-02 
2232	 6.93585313248664E-02 
2233	 6.93771235374097E-02 
2234	 6.94421319252887E-02 
2235	 6.94649396512038E-02 
2236	 6.94499483502516E-02 
2237	 6.94735468347976E-02 
2238	 6.95181881655351E-02 
2239	 6.95362270087069E-02 
2240	 6.95744051608528E-02 
2241	 6.95834226077487E-02 
2242	 6.95287972984361E-02 
2243	 6.95154369028026E-02 
2244	 6.94940863207211E-02 
2245	 6.95295960215778E-02 
2246	 6.95620308658411E-02 
2247	 6.95642718286228E-02 
2248	 6.95750688887711E-02 
2249	 6.95779205938327E-02 
2250	 6.95752127765438E-02 
2251	 6.95734141210728E-02 
2252	 6.95697136443713E-02 
2253	 6.95603954710543E-02 
2254	 6.95415344808012E-02 
2255	 6.95214932091069E-02 
2256	 6.94944741977321E-02 
2257	 6.94452691450376E-02 
2258	 6.94142206540989E-02 
2259	 6.93941434231582E-02 
2260	 6.93627596774775E-02 
2261	 6.93387835243462E-02 
2262	 6.93024849517359E-02 
2263	 0.069238385136106 
2264	 6.92053569920475E-02 
2265	 6.91856625925104E-02 
2266	 6.91558155824959E-02 
2267	 6.91468697524577E-02 
2268	 6.91222942855976E-02 
2269	 6.90676359696863E-02 
2270	 6.90417806619404E-02 
2271	 6.90375519725275E-02 
2272	 0.068983073223175 
2273	 6.89158624920529E-02 
2274	 0.068845702050173 
2275	 6.87610284041314E-02 
2276	 0.068644413352365 
2277	 6.85520689743358E-02 
2278	 6.84649654996444E-02 
2279	 0.068370977794492 
2280	 6.82784395576126E-02 
2281	 6.81748651920581E-02 
2282	 6.80661243005146E-02 
2283	 6.79602846742345E-02 
2284	 6.78380306462152E-02 
2285	 6.77304839959789E-02 
2286	 6.76366096339713E-02 
2287	 6.75322471993119E-02 
2288	 6.74307568876231E-02 
2289	 6.73312946025279E-02 
2290	 0.067240395774041 
2291	 6.71218705430336E-02 
2292	 6.69658754334354E-02 
2293	 6.68522410280722E-02 
2294	 6.67599631512789E-02 
2295	 6.66441297928408E-02 
2296	 6.65410768752861E-02 
2297	 6.64408882496239E-02 
2298	 6.63148648097602E-02 
2299	 6.61840430071336E-02 
2300	 6.60692633679768E-02 
2301	 6.59281380989187E-02 
2302	 6.57558576314359E-02 
2303	 6.55551977364471E-02 
2304	 6.53880835092634E-02 
2305	 6.52688079189952E-02 
2306	 6.51297745875731E-02 
2307	 6.50050252092203E-02 
2308	 6.48884065844376E-02 
2309	 0.064776679386553 
2310	 6.46545575809092E-02 
2311	 0.064562048903946 
2312	 0.06441895999229 
2313	 6.42219850950199E-02 
2314	 6.40584804166125E-02 
2315	 6.38816038654121E-02 
2316	 0.063737375969101 
2317	 6.36296443271276E-02 
2318	 0.06349596954758 
2319	 0.063376161746722 
2320	 6.32286357242008E-02 
2321	 6.30399753306893E-02 
2322	 6.28879866265075E-02 
2323	 6.27420247087795E-02 
2324	 0.062592375326181 
2325	 6.24718871336661E-02 
2326	 6.23345209869154E-02 
2327	 6.21782336266154E-02 
2328	 0.062022171615303 
2329	 0.061891629689729 
2330	 6.17358026286904E-02 
2331	 6.16000934920913E-02 
2332	 6.14514850413205E-02 
2333	 6.12608920567946E-02 
2334	 6.10624750435015E-02 
2335	 6.08659809072152E-02 
2336	 6.07116044353149E-02 
2337	 6.05729985711414E-02 
2338	 0.060439118447721 
2339	 6.03207240658461E-02 
2340	 0.060168932846569 
2341	 5.99724366733728E-02 
2342	 5.97666287528597E-02 
2343	 5.95570110800149E-02 
2344	 5.93669230994087E-02 
2345	 5.91871813075186E-02 
2346	 5.90613161705755E-02 
2347	 5.88777560347965E-02 
2348	 5.86482275667765E-02 
2349	 5.84730148315011E-02 
2350	 5.83158016786451E-02 
2351	 5.81410163790091E-02 
2352	 5.80045418631172E-02 
2353	 5.78131035669583E-02 
2354	 5.75850279144383E-02 
2355	 5.73548936422131E-02 
2356	 5.70865584725674E-02 
2357	 5.68515728111139E-02 
2358	 5.65884480277492E-02 
2359	 5.63843769846159E-02 
2360	 0.05625768044777 
2361	 5.60766456641818E-02 
2362	 5.59016645053066E-02 
2363	 5.57053996933142E-02 
2364	 5.54854409250983E-02 
2365	 5.52667517345215E-02 
2366	 5.50583213151391E-02 
2367	 5.48167568592096E-02 
2368	 5.44901933502846E-02 
2369	 5.42377038098031E-02 
2370	 5.40037865521273E-02 
2371	 5.37891926108905E-02 
2372	 5.36341019647176E-02 
2373	 5.35350209032878E-02 
2374	 5.33456225367143E-02 
2375	 0.053123072488756 
2376	 5.29282265427887E-02 
2377	 5.26983476546556E-02 
2378	 0.052474345784014 
2379	 5.22959721173524E-02 
2380	 5.20939800058626E-02 
2381	 5.18412096252411E-02 
2382	 5.16594459770459E-02 
2383	 5.15198650073325E-02 
2384	 5.12661011820866E-02 
2385	 5.10275145842589E-02 
2386	 5.07581227582867E-02 
2387	 5.04211051991918E-02 
2388	 5.01993149026407E-02 
2389	 5.00307536554481E-02 
2390	 4.98561543874355E-02 
2391	 4.96787408991769E-02 
2392	 4.94952927717804E-02 
2393	 4.93423792601767E-02 
2394	 4.92012803621909E-02 
2395	 4.90355535180716E-02 
2396	 0.048869108047679 
2397	 0.048629479189446 
2398	 4.83781873547081E-02 
2399	 4.81880071239829E-02 
2400	 4.80029616881741E-02 
2401	 4.78641918854124E-02 
2402	 4.76817243233243E-02 
2403	 4.74983703784756E-02 
2404	 4.73449248708734E-02 
2405	 4.71619846183675E-02 
2406	 4.69705614019735E-02 
2407	 4.67509067746335E-02 
2408	 4.65196408327222E-02 
2409	 4.63584716553132E-02 
2410	 4.62744175949849E-02 
2411	 4.61900540305895E-02 
2412	 4.61212773194697E-02 
2413	 4.59821698304127E-02 
2414	 4.57953994683118E-02 
2415	 4.56215610913457E-02 
2416	 4.54558754557957E-02 
2417	 4.52964825119055E-02 
2418	 4.51527114491953E-02 
2419	 4.50216059688576E-02 
2420	 4.48849159955114E-02 
2421	 0.044741012332369 
2422	 4.45816148382783E-02 
2423	 4.44225282847891E-02 
2424	 4.42718636825431E-02 
2425	 4.41306905458544E-02 
2426	 4.39481464266278E-02 
2427	 4.37717089236094E-02 
2428	 4.36023091159643E-02 
2429	 4.33418357148273E-02 
2430	 4.31995818739912E-02 
2431	 4.31286472074154E-02 
2432	 4.29899537300475E-02 
2433	 4.29098114937835E-02 
2434	 4.28091621050394E-02 
2435	 4.26627315998951E-02 
2436	 4.25645272050305E-02 
2437	 4.25120345557684E-02 
2438	 4.23943312092656E-02 
2439	 4.22307051831225E-02 
2440	 0.042046889444367 
2441	 4.18384330237711E-02 
2442	 4.16570421548832E-02 
2443	 4.14885549350527E-02 
2444	 4.13451853470389E-02 
2445	 4.11672589540792E-02 
2446	 4.10468889247021E-02 
2447	 0.040955932628387 
2448	 4.09047596055983E-02 
2449	 4.09340153005552E-02 
2450	 4.09140144063279E-02 
2451	 4.09495819698206E-02 
2452	 4.08886118756811E-02 
2453	 4.07972171584919E-02 
2454	 4.06742232915507E-02 
2455	 4.04483620161147E-02 
2456	 4.02145690576402E-02 
2457	 3.98652648953859E-02 
2458	 3.96211806726213E-02 
2459	 3.94590282910134E-02 
2460	 3.93142256325712E-02 
2461	 0.039280985815056 
2462	 3.92239928639275E-02 
2463	 0.039079640055027 
2464	 3.89592478000126E-02 
2465	 3.89077822450412E-02 
2466	 3.87788242126633E-02 
2467	 3.85936405746208E-02 
2468	 3.85104149650377E-02 
2469	 0.038397564698216 
2470	 3.83510615701102E-02 
2471	 3.84255957084951E-02 
2472	 3.84347307409854E-02 
2473	 0.038484943162341 
2474	 3.83973399629946E-02 
2475	 3.82411635005969E-02 
2476	 3.81690145146945E-02 
2477	 3.80210745894487E-02 
2478	 3.78978955792325E-02 
2479	 3.76569125470117E-02 
2480	 3.73544459894595E-02 
2481	 0.037348049372713 
2482	 3.73643848037822E-02 
2483	 3.73883940465338E-02 
2484	 3.75046075004301E-02 
2485	 3.74351116805894E-02 
2486	 3.73260196553631E-02 
2487	 3.73037177666765E-02 
2488	 3.72993834015767E-02 
2489	 3.72762818389149E-02 
2490	 3.72008001927445E-02 
2491	 3.71667951079601E-02 
2492	 3.71253610153137E-02 
2493	 3.71086299999957E-02 
2494	 3.71568054305115E-02 
2495	 3.71695598456333E-02 
2496	 3.73095617974549E-02 
2497	 3.73264829099921E-02 
2498	 3.70620034305583E-02 
2499	 3.66961141906367E-02 
2500	 3.62074236063179E-02 
