Wavelength	lmw-9-200006.asd
350	 6.30426156353196E-02 
351	 7.22124219093779E-02 
352	 6.63532351581215E-02 
353	 4.54013348378544E-02 
354	 5.06469258119921E-02 
355	 5.87593669781256E-02 
356	 6.10435909687806E-02 
357	 5.66620745629871E-02 
358	 5.65625717377957E-02 
359	 5.80983360575803E-02 
360	 5.97976384259718E-02 
361	 6.08274929410636E-02 
362	 5.53143134878194E-02 
363	 5.24644629238598E-02 
364	 5.47718252363896E-02 
365	 5.16129803314368E-02 
366	 0.049465380654666 
367	 5.15272904583835E-02 
368	 0.057124496725043 
369	 5.51364858056399E-02 
370	 5.31457228483518E-02 
371	 5.27189079996958E-02 
372	 5.13148432226628E-02 
373	 0.053441292780214 
374	 5.61359683972185E-02 
375	 5.69201125369432E-02 
376	 5.57160255877316E-02 
377	 0.053655136705618 
378	 5.30909699032156E-02 
379	 5.54659287095092E-02 
380	 0.057852193561468 
381	 5.53190740202595E-02 
382	 5.12293643945317E-02 
383	 5.40710823180091E-02 
384	 5.49853397151363E-02 
385	 5.48461609782623E-02 
386	 5.52281144952216E-02 
387	 5.63927744262701E-02 
388	 5.63731735374349E-02 
389	 5.57949702346949E-02 
390	 5.58529273395262E-02 
391	 5.59377319321872E-02 
392	 5.66988777640866E-02 
393	 0.057663670238639 
394	 0.057478810193015 
395	 5.65823460541037E-02 
396	 5.66945167236889E-02 
397	 5.81283049929868E-02 
398	 5.78872125600359E-02 
399	 5.66463350898045E-02 
400	 5.75080583698352E-02 
401	 6.22237251598256E-02 
402	 6.02029355139541E-02 
403	 5.82014407434214E-02 
404	 5.83012854949282E-02 
405	 5.69161724638548E-02 
406	 5.83206923793505E-02 
407	 6.03105999926889E-02 
408	 6.07519944847648E-02 
409	 6.08941495767165E-02 
410	 6.09335662938199E-02 
411	 6.07744496185319E-02 
412	 6.03654763490695E-02 
413	 6.12682652440826E-02 
414	 6.16016651179734E-02 
415	 6.11105658039256E-02 
416	 6.19615750182947E-02 
417	 6.22690914707054E-02 
418	 6.19926315409512E-02 
419	 6.16369526984129E-02 
420	 6.20145429993405E-02 
421	 6.14124630655496E-02 
422	 6.07418380179901E-02 
423	 6.21966991639528E-02 
424	 6.22669942142697E-02 
425	 6.16454972748112E-02 
426	 6.11835809917211E-02 
427	 6.09559540934035E-02 
428	 0.061041011047712 
429	 6.10688852082354E-02 
430	 6.07287182386289E-02 
431	 6.07557856832702E-02 
432	 6.08232597273143E-02 
433	 6.09413387150244E-02 
434	 6.14682952408923E-02 
435	 6.19907562572785E-02 
436	 6.26086510782742E-02 
437	 6.32691221472489E-02 
438	 6.31556059520412E-02 
439	 6.34354654640796E-02 
440	 6.41326254672508E-02 
441	 6.46959934501017E-02 
442	 6.50564131852984E-02 
443	 6.54869856449317E-02 
444	 6.60547204547614E-02 
445	 6.64768173595941E-02 
446	 6.66351141964044E-02 
447	 6.68036492573411E-02 
448	 6.72263222830382E-02 
449	 6.74527668090531E-02 
450	 0.067959004501165 
451	 6.86345260457778E-02 
452	 6.88811286289906E-02 
453	 6.88506122212914E-02 
454	 6.89236278601079E-02 
455	 6.93221160084022E-02 
456	 6.98521604317967E-02 
457	 6.99882860269165E-02 
458	 7.00239315491983E-02 
459	 7.05019551434207E-02 
460	 7.06794512961096E-02 
461	 7.06179611428866E-02 
462	 7.05695909755581E-02 
463	 7.09429609896196E-02 
464	 7.12650106147109E-02 
465	 7.14826537632089E-02 
466	 7.16491742240248E-02 
467	 7.17067880221609E-02 
468	 7.19665508684701E-02 
469	 7.22398601306597E-02 
470	 7.20068434537222E-02 
471	 0.072301623032039 
472	 7.24778029215128E-02 
473	 7.21672861425571E-02 
474	 7.23206362439245E-02 
475	 7.25666628588083E-02 
476	 7.26868487563414E-02 
477	 7.26019159037361E-02 
478	 7.28641561360835E-02 
479	 7.30056846370914E-02 
480	 7.29296007444026E-02 
481	 7.31699435732226E-02 
482	 7.33721329318023E-02 
483	 7.34943999839161E-02 
484	 7.35749896563527E-02 
485	 7.36351838921698E-02 
486	 7.35474023615113E-02 
487	 7.34614350186826E-02 
488	 7.37120140656901E-02 
489	 7.36905309918426E-02 
490	 7.35536020419398E-02 
491	 7.35060128320322E-02 
492	 7.35343739476345E-02 
493	 7.34916580931424E-02 
494	 7.34824118983415E-02 
495	 7.36733533686046E-02 
496	 7.37289447253236E-02 
497	 7.36477340442312E-02 
498	 7.35709606073178E-02 
499	 7.38111624222569E-02 
500	 7.37508178497278E-02 
501	 7.36400327986029E-02 
502	 7.37983057483843E-02 
503	 7.36271825950397E-02 
504	 7.35435297284732E-02 
505	 7.36389989580347E-02 
506	 7.36812880304005E-02 
507	 7.36455868092234E-02 
508	 7.36011268233303E-02 
509	 7.35944019845256E-02 
510	 7.35414322324765E-02 
511	 7.35536433527177E-02 
512	 7.35476081975784E-02 
513	 7.33820311452704E-02 
514	 7.34051926388225E-02 
515	 7.33985118199343E-02 
516	 7.33014954322283E-02 
517	 0.073450411058958 
518	 7.34061995559021E-02 
519	 7.32425715452785E-02 
520	 7.31728618332626E-02 
521	 7.31744051924959E-02 
522	 7.31688404669255E-02 
523	 0.073174079174252 
524	 7.33070081900248E-02 
525	 0.073210401000081 
526	 7.31319181127068E-02 
527	 7.32673942511851E-02 
528	 7.32048168398671E-02 
529	 7.31240187335365E-02 
530	 7.31215562147945E-02 
531	 7.32146427874511E-02 
532	 0.073166030952812 
533	 7.31805648408835E-02 
534	 7.33260758328964E-02 
535	 7.32412723250317E-02 
536	 7.32094748884286E-02 
537	 7.32303087243744E-02 
538	 7.32164660017814E-02 
539	 0.073283228491704 
540	 7.33087773027473E-02 
541	 7.32751316471382E-02 
542	 7.33232571479226E-02 
543	 7.33746976376931E-02 
544	 7.34308738937851E-02 
545	 7.35098562232393E-02 
546	 7.36261379660232E-02 
547	 7.36612351619797E-02 
548	 7.36552037182248E-02 
549	 7.37731905207233E-02 
550	 7.38629422333921E-02 
551	 7.39039797880096E-02 
552	 7.39348904575386E-02 
553	 7.40989262806974E-02 
554	 7.41409370646191E-02 
555	 7.41495071859908E-02 
556	 0.074353336231779 
557	 7.44581733269599E-02 
558	 7.45648108050037E-02 
559	 7.47486877351212E-02 
560	 7.49701694281592E-02 
561	 7.51431230021703E-02 
562	 7.52737976386583E-02 
563	 7.54152187022432E-02 
564	 7.56618883197952E-02 
565	 7.58429895862074E-02 
566	 7.59902140087776E-02 
567	 7.63703097270227E-02 
568	 7.66852696436503E-02 
569	 7.69553401156447E-02 
570	 7.72500969262769E-02 
571	 7.75239189446293E-02 
572	 7.78789453300943E-02 
573	 7.82951468899698E-02 
574	 7.86641394173185E-02 
575	 7.89430572045285E-02 
576	 7.92823838361537E-02 
577	 7.97596686807105E-02 
578	 8.02329654584406E-02 
579	 8.06932153608249E-02 
580	 8.11929105825095E-02 
581	 8.17967718538188E-02 
582	 8.24184318819806E-02 
583	 8.29910350431851E-02 
584	 8.34996355323457E-02 
585	 8.39966029373887E-02 
586	 8.45825704017784E-02 
587	 8.51697372964791E-02 
588	 8.56774257977486E-02 
589	 8.63345594706264E-02 
590	 8.69617707182006E-02 
591	 8.75292330111832E-02 
592	 8.81540792058634E-02 
593	 8.87940893128861E-02 
594	 8.94017935793412E-02 
595	 8.99699332333201E-02 
596	 9.05991599022817E-02 
597	 9.12715064438019E-02 
598	 9.19781327949284E-02 
599	 9.27107189058869E-02 
600	 9.34283498418193E-02 
601	 9.41081884867392E-02 
602	 9.47464671231291E-02 
603	 9.53729203131722E-02 
604	 9.59254072350714E-02 
605	 9.64850936036934E-02 
606	 9.71400529821599E-02 
607	 9.77177602373298E-02 
608	 9.82835431048126E-02 
609	 9.88654203972647E-02 
610	 9.94337959532539E-02 
611	 9.99518784974452E-02 
612	 0.100451489834362 
613	 0.100956463500371 
614	 0.101408063386319 
615	 0.101827736565529 
616	 0.102230911126744 
617	 0.102629778766044 
618	 0.103092855377234 
619	 0.103474470174729 
620	 0.103725600039037 
621	 0.104071781507731 
622	 0.104380187510506 
623	 0.104665539984298 
624	 0.104988615578235 
625	 0.105325251542668 
626	 0.105614163668877 
627	 0.105836304617047 
628	 0.106028185746828 
629	 0.106328030106094 
630	 0.106629401202718 
631	 0.106813199735045 
632	 0.106988914278738 
633	 0.107218141334977 
634	 0.107498828496398 
635	 0.107772873577065 
636	 0.107968054239376 
637	 0.108168910924016 
638	 0.108421051738439 
639	 0.108602891207247 
640	 0.108784678312024 
641	 0.108974152729075 
642	 0.10915773494463 
643	 0.109379971299132 
644	 0.109609790108729 
645	 0.109816720620268 
646	 0.109980018816141 
647	 0.110168589498251 
648	 0.110389335481528 
649	 0.110622392692634 
650	 0.110825674411075 
651	 0.111041415939561 
652	 0.111268949103103 
653	 0.111472843277106 
654	 0.111723079035302 
655	 0.111939329305729 
656	 0.112100779724917 
657	 0.112410920161458 
658	 0.112682777317047 
659	 0.112888643073642 
660	 0.113084464077805 
661	 0.113336789799489 
662	 0.113598420358939 
663	 0.113837361687521 
664	 0.11405864468396 
665	 0.114354174707587 
666	 0.114646802383781 
667	 0.11486537699107 
668	 0.115181944353983 
669	 0.115498413215166 
670	 0.115799555945208 
671	 0.116136554406978 
672	 0.116383587674905 
673	 0.116654663121936 
674	 0.117015364549395 
675	 0.117321276720888 
676	 0.117603553937379 
677	 0.117922952428235 
678	 0.118327264558327 
679	 0.118652276804697 
680	 0.118981526320449 
681	 0.11935220952653 
682	 0.119712673460801 
683	 0.120124241047456 
684	 0.120521584964682 
685	 0.120858966976576 
686	 0.121285941623571 
687	 0.121692493251228 
688	 0.122060253232369 
689	 0.12244081666166 
690	 0.12286885131935 
691	 0.123290977740988 
692	 0.123693938010486 
693	 0.124181845692634 
694	 0.124591342206348 
695	 0.124998288947013 
696	 0.125518567069962 
697	 0.125968210602036 
698	 0.126414379580009 
699	 0.126891271131252 
700	 0.127380305676567 
701	 0.127806074462858 
702	 0.128234372617326 
703	 0.128727695786385 
704	 0.129256199617612 
705	 0.129766092022073 
706	 0.130247057543054 
707	 0.130715493957175 
708	 0.131181294744155 
709	 0.131672017586704 
710	 0.132184241939083 
711	 0.132670700552069 
712	 0.133145215502146 
713	 0.133613842262017 
714	 0.134085795122035 
715	 0.134588513667446 
716	 0.135058397314252 
717	 0.135488766231903 
718	 0.135916180907155 
719	 0.13633423821425 
720	 0.136764013856589 
721	 0.137202109074946 
722	 0.137594480787997 
723	 0.137979555984287 
724	 0.13835154116031 
725	 0.138699205936853 
726	 0.139059503805283 
727	 0.139399669635114 
728	 0.139718082843626 
729	 0.140041532271343 
730	 0.140311647195324 
731	 0.140541709305207 
732	 0.140759446498648 
733	 0.140993413339887 
734	 0.141230125006525 
735	 0.141424600398676 
736	 0.14153801206759 
737	 0.141652082559547 
738	 0.1417659320073 
739	 0.141873814501407 
740	 0.141970093400545 
741	 0.141989227436338 
742	 0.141983946958623 
743	 0.141997860541967 
744	 0.141981369362074 
745	 0.141903899411036 
746	 0.141807135572322 
747	 0.141751361116161 
748	 0.141657887160931 
749	 0.141499257888567 
750	 0.14130243884697 
751	 0.141150647918856 
752	 0.140964084049559 
753	 0.140736780484421 
754	 0.140485253248495 
755	 0.140237515040896 
756	 0.139990009461095 
757	 0.139720060884568 
758	 0.139404311252227 
759	 0.139089961378551 
760	 0.138770335667947 
761	 0.138444063114418 
762	 0.13812239159579 
763	 0.137751332911105 
764	 0.137372633261777 
765	 0.137021575440805 
766	 0.136643270812738 
767	 0.136251990165296 
768	 0.135858466182097 
769	 0.135466636302662 
770	 0.135038605979701 
771	 0.1346346697558 
772	 0.134252906363342 
773	 0.133810589812267 
774	 0.133403641284762 
775	 0.132996258618967 
776	 0.132557290988861 
777	 0.132149424280228 
778	 0.131759475757009 
779	 0.13135207231257 
780	 0.130896677152911 
781	 0.130464017292135 
782	 0.130049989097817 
783	 0.129643043206146 
784	 0.129232262061022 
785	 0.128826049168489 
786	 0.128434455750045 
787	 0.128051895774966 
788	 0.127629676372339 
789	 0.127253051801928 
790	 0.126887623242083 
791	 0.126476491052859 
792	 0.126100339221091 
793	 0.125732940444475 
794	 0.125374441595085 
795	 0.125045676212078 
796	 0.124663791383114 
797	 0.124304050488151 
798	 0.123997938414095 
799	 0.12365201079868 
800	 0.123318589048784 
801	 0.122990036237052 
802	 0.122652509842115 
803	 0.122335284353639 
804	 0.122040358844226 
805	 0.121758428315646 
806	 0.121475767423886 
807	 0.121207666096785 
808	 0.120924143326637 
809	 0.120619652865701 
810	 0.120325284313403 
811	 0.120070858099732 
812	 0.119817863263674 
813	 0.119547905275716 
814	 0.119346454629317 
815	 0.119129674104469 
816	 0.118883659500907 
817	 0.118629314628344 
818	 0.118390627973652 
819	 0.118196665473507 
820	 0.118034906840114 
821	 0.117858297154954 
822	 0.117653812383277 
823	 0.117433661241399 
824	 0.117229543441545 
825	 0.117094646908541 
826	 0.116951449363241 
827	 0.116795490273447 
828	 0.116645684493183 
829	 0.116530702867948 
830	 0.11635578981725 
831	 0.116167215120603 
832	 0.116060919478519 
833	 0.115969733531697 
834	 0.11587332927977 
835	 0.115760607842278 
836	 0.115633795454668 
837	 0.115583307371023 
838	 0.115502897028839 
839	 0.115361934760388 
840	 0.115312985545547 
841	 0.115213133296694 
842	 0.11510558145285 
843	 0.11505020630143 
844	 0.11498873580061 
845	 0.114991962607154 
846	 0.11497300228888 
847	 0.114833702323974 
848	 0.114846168865302 
849	 0.114870054326964 
850	 0.114845858565355 
851	 0.114809100090045 
852	 0.114784600496375 
853	 0.11477425293488 
854	 0.114771583286392 
855	 0.114765148210495 
856	 0.114793602252266 
857	 0.114837172602469 
858	 0.114870526900332 
859	 0.114889725810635 
860	 0.114932414172332 
861	 0.114979469538098 
862	 0.115001669484786 
863	 0.115016503148664 
864	 0.115103625811422 
865	 0.115209741733374 
866	 0.115227441118265 
867	 0.115300373426912 
868	 0.115393162511834 
869	 0.115475609775966 
870	 0.115543737196545 
871	 0.115643930549428 
872	 0.115754720616828 
873	 0.115857494652262 
874	 0.11595771399999 
875	 0.116066214566659 
876	 0.11616831551161 
877	 0.116265272410317 
878	 0.116416669376729 
879	 0.116578846973482 
880	 0.116767130116121 
881	 0.116977383544169 
882	 0.117042329509165 
883	 0.117158420625098 
884	 0.117331944437631 
885	 0.11747369963265 
886	 0.117659994293599 
887	 0.117888666881132 
888	 0.118091698219533 
889	 0.118184100915455 
890	 0.118413783575508 
891	 0.118655903877915 
892	 0.118856251318322 
893	 0.119105381999461 
894	 0.119314172817115 
895	 0.11950607639758 
896	 0.119724651120029 
897	 0.120007741776662 
898	 0.120249512379795 
899	 0.120498493354153 
900	 0.120787965648855 
901	 0.12099039039382 
902	 0.121264365935512 
903	 0.121580650779141 
904	 0.121863563563478 
905	 0.122128192564449 
906	 0.122437673012274 
907	 0.122762123858807 
908	 0.123053135117241 
909	 0.123431345052722 
910	 0.123724979038656 
911	 0.123965574747317 
912	 0.124308437469499 
913	 0.124697260407006 
914	 0.125088879463214 
915	 0.125472957398424 
916	 0.125866673879464 
917	 0.126241218587896 
918	 0.126587634771947 
919	 0.126917312120421 
920	 0.127262205921075 
921	 0.127683354717122 
922	 0.128156995423908 
923	 0.128628596829757 
924	 0.129033497865877 
925	 0.129432923872403 
926	 0.129862233951696 
927	 0.130322994313325 
928	 0.130766862574799 
929	 0.131223837380916 
930	 0.13172914097339 
931	 0.132278620446049 
932	 0.132782890522968 
933	 0.133289632155174 
934	 0.133828405190876 
935	 0.134398051971561 
936	 0.134933127574312 
937	 0.135381479637652 
938	 0.135876962140277 
939	 0.136532890636508 
940	 0.137178970794541 
941	 0.137739321930713 
942	 0.138300005847305 
943	 0.138950057572827 
944	 0.139493219437571 
945	 0.140114614741118 
946	 0.140761773848981 
947	 0.141323062757168 
948	 0.141959732983587 
949	 0.142591331794078 
950	 0.143222002116037 
951	 0.143895358049224 
952	 0.144606311383127 
953	 0.145238834266251 
954	 0.145864479319523 
955	 0.146625884219173 
956	 0.14741269976994 
957	 0.14826564402783 
958	 0.149058920659712 
959	 0.149661063548771 
960	 0.150494900077123 
961	 0.15124214058769 
962	 0.151933957998387 
963	 0.152789346714931 
964	 0.153527469317827 
965	 0.154394130945191 
966	 0.155336286971054 
967	 0.156128428551433 
968	 0.156925285705252 
969	 0.157806654595244 
970	 0.158732793246129 
971	 0.159604235455948 
972	 0.160493284936089 
973	 0.161440809341589 
974	 0.16238099475258 
975	 0.16322464281114 
976	 0.164163867762391 
977	 0.165202876039795 
978	 0.166221014461744 
979	 0.167089169458074 
980	 0.168029441108811 
981	 0.16908584085857 
982	 0.170165797254333 
983	 0.171124996439532 
984	 0.171959909207835 
985	 0.173051392385231 
986	 0.174223813858917 
987	 0.175125573033025 
988	 0.176315525741602 
989	 0.177292783238428 
990	 0.178156510349672 
991	 0.179261103440701 
992	 0.180483498708956 
993	 0.181456459827624 
994	 0.182385484861151 
995	 0.183568152875299 
996	 0.18449734242382 
997	 0.185635685791958 
998	 0.186880055961009 
999	 0.187977543132982 
1000	 0.189024617758019 
1001	 0.196386996388544 
1002	 0.197490703277019 
1003	 0.198574324197606 
1004	 0.199639877445333 
1005	 0.200677563318831 
1006	 0.201782601538672 
1007	 0.202907238368163 
1008	 0.203997711715614 
1009	 0.205114277551634 
1010	 0.206293116159475 
1011	 0.207423207968801 
1012	 0.208537285898711 
1013	 0.209657526304084 
1014	 0.210755786522442 
1015	 0.211824912644275 
1016	 0.212871841717933 
1017	 0.21396526511272 
1018	 0.215083261730656 
1019	 0.216199649792819 
1020	 0.217284440515225 
1021	 0.21833121500604 
1022	 0.219321456150504 
1023	 0.220299094745673 
1024	 0.221314384691554 
1025	 0.222409303156913 
1026	 0.223520781470709 
1027	 0.224615123401509 
1028	 0.225685348164228 
1029	 0.226690753158659 
1030	 0.227656594920717 
1031	 0.228597683613587 
1032	 0.229492945420134 
1033	 0.230388548474477 
1034	 0.231317970887248 
1035	 0.232256614018366 
1036	 0.233243283601705 
1037	 0.234282116966512 
1038	 0.235282436872004 
1039	 0.236233588264965 
1040	 0.237162077912343 
1041	 0.23802398011205 
1042	 0.238942283487304 
1043	 0.239912815080489 
1044	 0.24084236426819 
1045	 0.241768336633196 
1046	 0.242736034027259 
1047	 0.243674037646098 
1048	 0.244622640609386 
1049	 0.245587196894416 
1050	 0.246522549067073 
1051	 0.247518943339237 
1052	 0.248459338477586 
1053	 0.249416772559266 
1054	 0.250461151558919 
1055	 0.251410561148701 
1056	 0.252354875503448 
1057	 0.253340952740152 
1058	 0.254355237460362 
1059	 0.255342430772357 
1060	 0.256334575300589 
1061	 0.25735545937376 
1062	 0.258326913252316 
1063	 0.259306789759618 
1064	 0.260335676280251 
1065	 0.261309412049052 
1066	 0.262297067766992 
1067	 0.263329710595419 
1068	 0.264364963516497 
1069	 0.265408647182602 
1070	 0.266442458786235 
1071	 0.267467501476075 
1072	 0.26851234218115 
1073	 0.269548267365583 
1074	 0.27061042871087 
1075	 0.271707612399559 
1076	 0.272774105321598 
1077	 0.273838764896189 
1078	 0.274848749281456 
1079	 0.275830967876736 
1080	 0.276830437887574 
1081	 0.277839750916943 
1082	 0.27890013848526 
1083	 0.27996076383975 
1084	 0.281067580181407 
1085	 0.282114246424648 
1086	 0.283126125493948 
1087	 0.284153057152389 
1088	 0.285141397158797 
1089	 0.28619264247398 
1090	 0.287250615650098 
1091	 0.288283022037333 
1092	 0.289303195291063 
1093	 0.290276169667243 
1094	 0.291243499919014 
1095	 0.292247546100557 
1096	 0.293276011281684 
1097	 0.294283313257131 
1098	 0.295291506062115 
1099	 0.29632148512973 
1100	 0.297318531194837 
1101	 0.298266922978988 
1102	 0.299262005041226 
1103	 0.300283133393341 
1104	 0.301266992386414 
1105	 0.302269152105434 
1106	 0.30332858610482 
1107	 0.304356251122983 
1108	 0.305362372158196 
1109	 0.306372910775943 
1110	 0.307373085085684 
1111	 0.308371434489385 
1112	 0.309374327473053 
1113	 0.310356024230859 
1114	 0.311317826350924 
1115	 0.312288856734738 
1116	 0.313224429757627 
1117	 0.314206180764531 
1118	 0.315213006591217 
1119	 0.316242681013323 
1120	 0.317244028776398 
1121	 0.318232123858638 
1122	 0.319215726521572 
1123	 0.320201135182812 
1124	 0.321203879230557 
1125	 0.322251486846803 
1126	 0.323244490205858 
1127	 0.324195687640077 
1128	 0.325185546816491 
1129	 0.32618655543159 
1130	 0.327163807090711 
1131	 0.328158924831742 
1132	 0.329137456964879 
1133	 0.330070107922075 
1134	 0.331025825230827 
1135	 0.331999609647898 
1136	 0.332964985984629 
1137	 0.333928166973661 
1138	 0.334878378341302 
1139	 0.335800009744617 
1140	 0.336693075265147 
1141	 0.337599028615946 
1142	 0.338525384089003 
1143	 0.339370951985577 
1144	 0.340184839752119 
1145	 0.340991076141025 
1146	 0.341718364553252 
1147	 0.342480967619664 
1148	 0.343277642099843 
1149	 0.344046048103358 
1150	 0.344773529844027 
1151	 0.345537952106468 
1152	 0.346317691009282 
1153	 0.34708817107486 
1154	 0.347906238672909 
1155	 0.348753706572084 
1156	 0.349627485901454 
1157	 0.350529691492362 
1158	 0.351450735256552 
1159	 0.352412452282371 
1160	 0.353364941179276 
1161	 0.354327985636233 
1162	 0.355297264530251 
1163	 0.356287971295455 
1164	 0.357260890701224 
1165	 0.358230945667 
1166	 0.359208271122034 
1167	 0.360167393780035 
1168	 0.361116298379552 
1169	 0.362060350567118 
1170	 0.363019573384563 
1171	 0.363920571152549 
1172	 0.364793784866281 
1173	 0.365658521004972 
1174	 0.366462813663914 
1175	 0.367320528768737 
1176	 0.368218073754573 
1177	 0.36907186830597 
1178	 0.369918890857171 
1179	 0.370768980086327 
1180	 0.371615172881354 
1181	 0.372432169694849 
1182	 0.373258173713279 
1183	 0.374059494764653 
1184	 0.37482095219895 
1185	 0.375520885887214 
1186	 0.376259041581837 
1187	 0.376986029308351 
1188	 0.377724761022562 
1189	 0.378495411733685 
1190	 0.379214596826474 
1191	 0.379918435644075 
1192	 0.380607475546675 
1193	 0.381259793683368 
1194	 0.381917915795269 
1195	 0.382583927872047 
1196	 0.383222101107336 
1197	 0.383833224125143 
1198	 0.384450685010916 
1199	 0.38506149991955 
1200	 0.3856597634281 
1201	 0.386251236450984 
1202	 0.386843045265632 
1203	 0.387426431534936 
1204	 0.387984035781232 
1205	 0.388567300036559 
1206	 0.389180679309133 
1207	 0.389751757156984 
1208	 0.39032896105921 
1209	 0.390867697669683 
1210	 0.391356599627634 
1211	 0.391857790198369 
1212	 0.392341171213721 
1213	 0.392828837302317 
1214	 0.393324936750715 
1215	 0.393807656592878 
1216	 0.39428331981563 
1217	 0.394758478605408 
1218	 0.395212156990076 
1219	 0.395643893955485 
1220	 0.396089878314586 
1221	 0.396541855994764 
1222	 0.396964486240415 
1223	 0.397385601536754 
1224	 0.397789611161406 
1225	 0.398162846433884 
1226	 0.398536791822175 
1227	 0.398910260771089 
1228	 0.399272756658923 
1229	 0.399613742413955 
1230	 0.399961322494549 
1231	 0.400312984443022 
1232	 0.400654900816952 
1233	 0.400992292528125 
1234	 0.401335381151585 
1235	 0.40164974905152 
1236	 0.401945168181061 
1237	 0.402244501281015 
1238	 0.402532191746149 
1239	 0.402813725825429 
1240	 0.403093563486812 
1241	 0.40336743153538 
1242	 0.403624328192962 
1243	 0.4038886862231 
1244	 0.404162381197993 
1245	 0.404423011438434 
1246	 0.404676687470886 
1247	 0.404928431328674 
1248	 0.405181171338769 
1249	 0.405419829202698 
1250	 0.405647991987124 
1251	 0.405865374619613 
1252	 0.406072434492476 
1253	 0.406258625792408 
1254	 0.406450327304235 
1255	 0.406644476762764 
1256	 0.406819198728969 
1257	 0.406990282487565 
1258	 0.407138975856352 
1259	 0.407246448079172 
1260	 0.407389588149464 
1261	 0.407538325146669 
1262	 0.407680324431905 
1263	 0.407848557201561 
1264	 0.407995164184244 
1265	 0.408111211100321 
1266	 0.408241340314998 
1267	 0.40838029545574 
1268	 0.408508808276987 
1269	 0.408634274616304 
1270	 0.408749906145816 
1271	 0.408891633470982 
1272	 0.409046323585438 
1273	 0.40918222701534 
1274	 0.409331932603266 
1275	 0.409467253054159 
1276	 0.40956609959682 
1277	 0.409697219769002 
1278	 0.40984961441762 
1279	 0.409993886040531 
1280	 0.410155714590216 
1281	 0.410293571563894 
1282	 0.410416292456475 
1283	 0.410539482789537 
1284	 0.410653492043626 
1285	 0.410760594757231 
1286	 0.410865396389893 
1287	 0.410969063258365 
1288	 0.411068323030978 
1289	 0.411154848368627 
1290	 0.411255817223693 
1291	 0.411359663493488 
1292	 0.411470397420811 
1293	 0.411600349556782 
1294	 0.411699915235569 
1295	 0.411805427284738 
1296	 0.411875796851772 
1297	 0.411911985493236 
1298	 0.411950183503013 
1299	 0.411964739074956 
1300	 0.411985017450138 
1301	 0.412015009444126 
1302	 0.412022123295709 
1303	 0.412013625605809 
1304	 0.412000992565385 
1305	 0.411998090377067 
1306	 0.411952047458064 
1307	 0.411912783580155 
1308	 0.411883590822849 
1309	 0.411818056071873 
1310	 0.411731634454955 
1311	 0.411628569876973 
1312	 0.41149780451913 
1313	 0.411368859138907 
1314	 0.41123598671925 
1315	 0.411078075154453 
1316	 0.410905903712995 
1317	 0.41072657378204 
1318	 0.410535757261949 
1319	 0.410318955809274 
1320	 0.410089179293332 
1321	 0.409852733304298 
1322	 0.4096068240791 
1323	 0.409317813841138 
1324	 0.40905261285864 
1325	 0.408763919425796 
1326	 0.40843403451747 
1327	 0.408086378028811 
1328	 0.407705670611892 
1329	 0.407327757943579 
1330	 0.406943561088686 
1331	 0.406564593583399 
1332	 0.40614749452869 
1333	 0.405704923342362 
1334	 0.405268754452172 
1335	 0.404785222850026 
1336	 0.404355254545118 
1337	 0.403976888584803 
1338	 0.403559936332401 
1339	 0.40314733494936 
1340	 0.402726637357775 
1341	 0.402270546808609 
1342	 0.401837520394984 
1343	 0.401404351036202 
1344	 0.400998793463052 
1345	 0.400605001525346 
1346	 0.400203240779048 
1347	 0.399813399726416 
1348	 0.399424705309054 
1349	 0.398993338625801 
1350	 0.398566447783677 
1351	 0.398172035935872 
1352	 0.397783349065785 
1353	 0.397398742702403 
1354	 0.397045982565385 
1355	 0.396678140213997 
1356	 0.396296082680513 
1357	 0.395922659057685 
1358	 0.395562354958092 
1359	 0.395193405394936 
1360	 0.394815634070128 
1361	 0.394444167297163 
1362	 0.394075261593408 
1363	 0.393705576715887 
1364	 0.393342262876164 
1365	 0.392973028454821 
1366	 0.392598299855961 
1367	 0.392234335704305 
1368	 0.391862361799227 
1369	 0.391462313325159 
1370	 0.391042818999416 
1371	 0.390618305730106 
1372	 0.39018777011019 
1373	 0.389731782463614 
1374	 0.389233728963932 
1375	 0.388720746101441 
1376	 0.388144279102613 
1377	 0.387522724772746 
1378	 0.386846835064996 
1379	 0.386113849464802 
1380	 0.385357626675511 
1381	 0.384573212743031 
1382	 0.383715254829519 
1383	 0.382818080702442 
1384	 0.381864467359768 
1385	 0.380856112084367 
1386	 0.379786533445028 
1387	 0.378688785569745 
1388	 0.377508406468322 
1389	 0.376267283828655 
1390	 0.37492674226934 
1391	 0.373530054591464 
1392	 0.37205482886454 
1393	 0.370487079717397 
1394	 0.368850557148316 
1395	 0.367102188704936 
1396	 0.365318115175103 
1397	 0.363525213187314 
1398	 0.361681869127888 
1399	 0.359823554723767 
1400	 0.357934659563511 
1401	 0.356064011554818 
1402	 0.354138256830868 
1403	 0.352297414502524 
1404	 0.350475551216087 
1405	 0.34873396129956 
1406	 0.347023467322158 
1407	 0.345397298133329 
1408	 0.343808554352937 
1409	 0.342356521602268 
1410	 0.340989080331123 
1411	 0.339730852587529 
1412	 0.338594985191038 
1413	 0.337554770529134 
1414	 0.336584946117039 
1415	 0.335674530490794 
1416	 0.334835031692551 
1417	 0.334036840306664 
1418	 0.33326467412941 
1419	 0.332529041281556 
1420	 0.331807536609683 
1421	 0.331129299391482 
1422	 0.330477995295873 
1423	 0.329834902861755 
1424	 0.32921004503527 
1425	 0.328590554810108 
1426	 0.328018403044857 
1427	 0.327470395561299 
1428	 0.326956717534362 
1429	 0.326491248232591 
1430	 0.326032820019261 
1431	 0.325592984455013 
1432	 0.325171181246082 
1433	 0.324773937174832 
1434	 0.32438976596652 
1435	 0.324003910446483 
1436	 0.323666028084568 
1437	 0.32337423543251 
1438	 0.323077579060831 
1439	 0.322802450755847 
1440	 0.322549102983294 
1441	 0.322295118414548 
1442	 0.32202408274008 
1443	 0.321768203504827 
1444	 0.321544648400345 
1445	 0.321308886669183 
1446	 0.321080971619874 
1447	 0.320877219367101 
1448	 0.320665350846813 
1449	 0.320463867251422 
1450	 0.320269165745281 
1451	 0.320078780471237 
1452	 0.31989126533899 
1453	 0.319717667528142 
1454	 0.3195539370342 
1455	 0.319392396531475 
1456	 0.319239440653025 
1457	 0.319087264235473 
1458	 0.31893527148992 
1459	 0.318792519360203 
1460	 0.318658463901066 
1461	 0.318522960409944 
1462	 0.318393729110228 
1463	 0.318266186875096 
1464	 0.318135280833545 
1465	 0.318014306076921 
1466	 0.317878745403179 
1467	 0.317780777643812 
1468	 0.317696583636985 
1469	 0.317642411415278 
1470	 0.317620629639031 
1471	 0.317625727106811 
1472	 0.317634222243751 
1473	 0.317670194485432 
1474	 0.31772059107686 
1475	 0.317780482536159 
1476	 0.317863405067596 
1477	 0.31795258221633 
1478	 0.318038281260337 
1479	 0.318150202230008 
1480	 0.318283608440707 
1481	 0.318416332243205 
1482	 0.318572779530812 
1483	 0.318758543547618 
1484	 0.318939391074991 
1485	 0.319129018933503 
1486	 0.319324944663181 
1487	 0.319535008258497 
1488	 0.319734147705931 
1489	 0.3199333608794 
1490	 0.320137502010882 
1491	 0.320338157977908 
1492	 0.320542537707131 
1493	 0.320758016843744 
1494	 0.320962539157607 
1495	 0.321161229070816 
1496	 0.32135917175479 
1497	 0.32155247469138 
1498	 0.321746383469223 
1499	 0.321950915701516 
1500	 0.322139099380341 
1501	 0.322315857503105 
1502	 0.322492697991578 
1503	 0.322663182922805 
1504	 0.322819014870792 
1505	 0.322988734750262 
1506	 0.323151443001103 
1507	 0.323313473893017 
1508	 0.323467073548199 
1509	 0.323599693399574 
1510	 0.323731383881049 
1511	 0.323865560784112 
1512	 0.323986200678873 
1513	 0.324099404303479 
1514	 0.32423497378577 
1515	 0.324363198400402 
1516	 0.324483990578399 
1517	 0.324614779394368 
1518	 0.324758978796834 
1519	 0.324887908247194 
1520	 0.325024909880569 
1521	 0.325128160233678 
1522	 0.325207215059937 
1523	 0.325295420660301 
1524	 0.325357252682319 
1525	 0.325441263893178 
1526	 0.325542433869168 
1527	 0.325637352590448 
1528	 0.325741830545817 
1529	 0.325828722697554 
1530	 0.325916729335562 
1531	 0.325985884924235 
1532	 0.326028317338222 
1533	 0.326079011836611 
1534	 0.326119339680572 
1535	 0.326170874764256 
1536	 0.32622618162105 
1537	 0.326283601471676 
1538	 0.32635288465626 
1539	 0.326406611350991 
1540	 0.326448676410597 
1541	 0.326504068309105 
1542	 0.326560880681882 
1543	 0.326614587608382 
1544	 0.326684882353074 
1545	 0.326736245920059 
1546	 0.326784221345913 
1547	 0.326809034608871 
1548	 0.326810686668292 
1549	 0.326790150759193 
1550	 0.326761320556755 
1551	 0.326742619855716 
1552	 0.326721146362298 
1553	 0.326742708031598 
1554	 0.326784266638257 
1555	 0.32680329585027 
1556	 0.32683151767815 
1557	 0.326837399313727 
1558	 0.326810937836241 
1559	 0.326784148783447 
1560	 0.326773449299725 
1561	 0.326773070995611 
1562	 0.326766317664617 
1563	 0.326766535721694 
1564	 0.326760362554858 
1565	 0.326742899735659 
1566	 0.326732756726911 
1567	 0.32672953292206 
1568	 0.326721326355155 
1569	 0.326714835859874 
1570	 0.326702492504146 
1571	 0.326687887784809 
1572	 0.326665541292683 
1573	 0.326634208410386 
1574	 0.326606646042148 
1575	 0.326579275839719 
1576	 0.326545144797928 
1577	 0.326508511353577 
1578	 0.326468905746728 
1579	 0.326402052640613 
1580	 0.326379531036101 
1581	 0.326380458143515 
1582	 0.326380034336276 
1583	 0.326426053997374 
1584	 0.326424479560639 
1585	 0.326400953375345 
1586	 0.326369757845251 
1587	 0.326310367343533 
1588	 0.326258777239017 
1589	 0.326199021913977 
1590	 0.326144700025079 
1591	 0.326095518419401 
1592	 0.326041591966628 
1593	 0.325977244280925 
1594	 0.325930479054252 
1595	 0.325903768405324 
1596	 0.325850397048799 
1597	 0.325797695861229 
1598	 0.325738618545192 
1599	 0.325651579977963 
1600	 0.325576538879867 
1601	 0.325503286893078 
1602	 0.325436644931552 
1603	 0.325364385990292 
1604	 0.325306508953352 
1605	 0.32527963622835 
1606	 0.325235871268092 
1607	 0.325193079420828 
1608	 0.325138752593876 
1609	 0.325100189624773 
1610	 0.325043099993896 
1611	 0.324973837004987 
1612	 0.324925148723646 
1613	 0.324850373374159 
1614	 0.324752860542212 
1615	 0.324677906775696 
1616	 0.324605244048186 
1617	 0.324535957861579 
1618	 0.324468416050909 
1619	 0.324390779801862 
1620	 0.324315577554812 
1621	 0.324241713033233 
1622	 0.324171636056619 
1623	 0.32407768509346 
1624	 0.323978091030024 
1625	 0.323875290321307 
1626	 0.32374501649481 
1627	 0.323644351548017 
1628	 0.323558822945154 
1629	 0.323470295776582 
1630	 0.323381769319467 
1631	 0.323310102582938 
1632	 0.323255241605748 
1633	 0.323181415686065 
1634	 0.323114717191844 
1635	 0.323036655030563 
1636	 0.322940884903899 
1637	 0.322850123885506 
1638	 0.322762399207234 
1639	 0.322669674625862 
1640	 0.322568313693681 
1641	 0.32247276082749 
1642	 0.322377580979928 
1643	 0.322286858686086 
1644	 0.322202154292891 
1645	 0.322106984723489 
1646	 0.32201230291612 
1647	 0.32191246843961 
1648	 0.321802746653516 
1649	 0.321695879227736 
1650	 0.321591404946962 
1651	 0.321481671964246 
1652	 0.321371157529257 
1653	 0.321248112392759 
1654	 0.321114287600145 
1655	 0.320987535565188 
1656	 0.320856753765016 
1657	 0.320722092279525 
1658	 0.320589035186667 
1659	 0.320455608898842 
1660	 0.320322747562731 
1661	 0.320171474144415 
1662	 0.320001747838053 
1663	 0.319861861009059 
1664	 0.319714706266473 
1665	 0.319583948313328 
1666	 0.319489215011371 
1667	 0.319378072256014 
1668	 0.31926128599567 
1669	 0.319142398533456 
1670	 0.31904283419025 
1671	 0.318903590616911 
1672	 0.318728871033319 
1673	 0.318576835727913 
1674	 0.318409289914386 
1675	 0.318258261068112 
1676	 0.3181283053948 
1677	 0.317989870574696 
1678	 0.317845526666653 
1679	 0.317711182914909 
1680	 0.317580703609215 
1681	 0.317457979099583 
1682	 0.317351741199602 
1683	 0.317225912737555 
1684	 0.317101383500089 
1685	 0.316965707613094 
1686	 0.316816007906347 
1687	 0.316661385655477 
1688	 0.316488458500754 
1689	 0.316341021563006 
1690	 0.316196944986066 
1691	 0.316054275000986 
1692	 0.315936978535241 
1693	 0.315799720579383 
1694	 0.315641033366224 
1695	 0.31550275889071 
1696	 0.315377084070937 
1697	 0.315238887335953 
1698	 0.315110080530826 
1699	 0.314959673375694 
1700	 0.314786830022104 
1701	 0.314623040180867 
1702	 0.314452294618467 
1703	 0.314287266163737 
1704	 0.314131579487641 
1705	 0.313962398605474 
1706	 0.313781869604592 
1707	 0.313612261433322 
1708	 0.313429158053028 
1709	 0.313280110604112 
1710	 0.313162345667352 
1711	 0.313024812786117 
1712	 0.312904665629898 
1713	 0.312756789235817 
1714	 0.312582102583359 
1715	 0.312420753579079 
1716	 0.312245224154937 
1717	 0.312101860186068 
1718	 0.311976895001823 
1719	 0.311846280561756 
1720	 0.311735862823524 
1721	 0.311606016889071 
1722	 0.311464845018639 
1723	 0.311331297259489 
1724	 0.31120712936665 
1725	 0.311057529343178 
1726	 0.310898371955145 
1727	 0.310728724094033 
1728	 0.310529390346719 
1729	 0.310354053868578 
1730	 0.3101930113617 
1731	 0.310014346647894 
1732	 0.309833759975239 
1733	 0.30965033616752 
1734	 0.309450778003105 
1735	 0.309263223849343 
1736	 0.309084142579866 
1737	 0.308900321885824 
1738	 0.30870581455688 
1739	 0.308538981167934 
1740	 0.308368867701285 
1741	 0.308249990438835 
1742	 0.308188716956308 
1743	 0.308076337859246 
1744	 0.307986589167221 
1745	 0.307836993569682 
1746	 0.30762621653363 
1747	 0.307437528903486 
1748	 0.307262410629386 
1749	 0.3071161153558 
1750	 0.306981450487029 
1751	 0.306837819106771 
1752	 0.306709771432909 
1753	 0.306575895203288 
1754	 0.306436183858004 
1755	 0.306325600998504 
1756	 0.306176911803174 
1757	 0.305982616447353 
1758	 0.305816980536502 
1759	 0.305634170612737 
1760	 0.305476004146746 
1761	 0.305392586638027 
1762	 0.305277591182756 
1763	 0.305126287191955 
1764	 0.304981964502121 
1765	 0.304808312769371 
1766	 0.304603476485857 
1767	 0.304411589955937 
1768	 0.304238487312086 
1769	 0.304068679786246 
1770	 0.303937738066401 
1771	 0.303841051459382 
1772	 0.303710441500427 
1773	 0.303569617783353 
1774	 0.303460403979548 
1775	 0.303368441847734 
1776	 0.303272179346468 
1777	 0.303175881774803 
1778	 0.303072474414118 
1779	 0.302925689643067 
1780	 0.302806574951814 
1781	 0.302710404472671 
1782	 0.302582291840153 
1783	 0.302484132317275 
1784	 0.302382793182811 
1785	 0.302287070816935 
1786	 0.302188658780937 
1787	 0.302099393897563 
1788	 0.301991431269592 
1789	 0.301865298218417 
1790	 0.301755806703242 
1791	 0.301621816757225 
1792	 0.30152252073357 
1793	 0.301458911756545 
1794	 0.301386919059595 
1795	 0.30132506809539 
1796	 0.301267661034105 
1797	 0.301219296763599 
1798	 0.301154125794922 
1799	 0.301077935282717 
1800	 0.301028402904966 
1801	 0.305432873918281 
1802	 0.305410639584342 
1803	 0.305412761023248 
1804	 0.305400349976538 
1805	 0.305387987957866 
1806	 0.305396869734117 
1807	 0.305403054460506 
1808	 0.305399961570765 
1809	 0.305417577449583 
1810	 0.305394122659258 
1811	 0.305344835866167 
1812	 0.30528559339402 
1813	 0.305236030131949 
1814	 0.305138654429526 
1815	 0.305055007552418 
1816	 0.305027728306595 
1817	 0.304969467498388 
1818	 0.304895204283974 
1819	 0.304846330971343 
1820	 0.304821837695106 
1821	 0.304740676541562 
1822	 0.304705202379178 
1823	 0.304667524819615 
1824	 0.304584648305603 
1825	 0.304523285401075 
1826	 0.304475839860808 
1827	 0.304411492055965 
1828	 0.304321041318883 
1829	 0.304228475159455 
1830	 0.30412024525169 
1831	 0.303974079643963 
1832	 0.303828082603871 
1833	 0.303701690638009 
1834	 0.303594434687044 
1835	 0.303494161706933 
1836	 0.30339400483672 
1837	 0.30330789169164 
1838	 0.303197725168623 
1839	 0.303090071420911 
1840	 0.302972645820387 
1841	 0.302869820184234 
1842	 0.302756761100781 
1843	 0.302658019532767 
1844	 0.302574999584337 
1845	 0.30243813959336 
1846	 0.30228845555027 
1847	 0.302145592401885 
1848	 0.301959989394852 
1849	 0.301801880220884 
1850	 0.301640512399902 
1851	 0.301491131527337 
1852	 0.301313815921807 
1853	 0.30114092234782 
1854	 0.300902978220746 
1855	 0.3006309647415 
1856	 0.300356898362033 
1857	 0.300041663314941 
1858	 0.299738511026781 
1859	 0.299413944170276 
1860	 0.299033196423995 
1861	 0.298603151903863 
1862	 0.298158423224817 
1863	 0.297680692763392 
1864	 0.297169878888759 
1865	 0.296641989178596 
1866	 0.296067625488933 
1867	 0.295441607869476 
1868	 0.29476094088923 
1869	 0.294038261531891 
1870	 0.293286545861803 
1871	 0.292482928800357 
1872	 0.291634024803145 
1873	 0.290752887367611 
1874	 0.289824802946355 
1875	 0.288822203285063 
1876	 0.287785053163331 
1877	 0.286685228800437 
1878	 0.285482412318949 
1879	 0.284221805496522 
1880	 0.282851877294735 
1881	 0.281360743940933 
1882	 0.279814332809259 
1883	 0.278212285815893 
1884	 0.276451345993083 
1885	 0.274626659903884 
1886	 0.272713665880729 
1887	 0.270660754750111 
1888	 0.268568368071949 
1889	 0.26640351657448 
1890	 0.264157036191905 
1891	 0.261871580189787 
1892	 0.259510982030517 
1893	 0.257122907047263 
1894	 0.254683386493714 
1895	 0.252209793975887 
1896	 0.249693773552245 
1897	 0.247165810916135 
1898	 0.244609901213852 
1899	 0.242081482023868 
1900	 0.239633771021813 
1901	 0.237228373050939 
1902	 0.234930841059915 
1903	 0.232734655809992 
1904	 0.230624340708994 
1905	 0.228576783191715 
1906	 0.226670440402922 
1907	 0.224873880287727 
1908	 0.223176769802589 
1909	 0.22159447483335 
1910	 0.220093763069793 
1911	 0.218699558171849 
1912	 0.217416034691457 
1913	 0.216194578321472 
1914	 0.215072996819963 
1915	 0.214006310317432 
1916	 0.213010761936595 
1917	 0.21206709644378 
1918	 0.211193544973044 
1919	 0.210384734788165 
1920	 0.209666511054378 
1921	 0.208976383612279 
1922	 0.208324169925195 
1923	 0.207759664841858 
1924	 0.207242426703974 
1925	 0.206765145875789 
1926	 0.206358669918501 
1927	 0.206032457716478 
1928	 0.2057368715653 
1929	 0.205482710668598 
1930	 0.205282882248302 
1931	 0.205130326281751 
1932	 0.205001675353676 
1933	 0.204927375218789 
1934	 0.204884891691315 
1935	 0.204853314505932 
1936	 0.204837966618953 
1937	 0.204869003349166 
1938	 0.204921319607484 
1939	 0.205006554217057 
1940	 0.205132527089527 
1941	 0.20529466715019 
1942	 0.20547561076763 
1943	 0.205661531352295 
1944	 0.205876003383201 
1945	 0.206132044836735 
1946	 0.206387067080353 
1947	 0.206660274126314 
1948	 0.206943363240328 
1949	 0.207231366567114 
1950	 0.207533996321108 
1951	 0.207853195092934 
1952	 0.208184033962482 
1953	 0.208502858214624 
1954	 0.208882659525648 
1955	 0.209252832010171 
1956	 0.209614145810672 
1957	 0.209978527498617 
1958	 0.210346097642621 
1959	 0.210705838237035 
1960	 0.21106464862042 
1961	 0.211420696880961 
1962	 0.211762436529545 
1963	 0.212131765167524 
1964	 0.212495986766734 
1965	 0.212885243624471 
1966	 0.213315299583195 
1967	 0.213757457293653 
1968	 0.214184939623605 
1969	 0.214616492309485 
1970	 0.215052482415902 
1971	 0.215478164892925 
1972	 0.215916845563566 
1973	 0.216379264749792 
1974	 0.216831338694501 
1975	 0.217264924992298 
1976	 0.217720388852001 
1977	 0.218222855466383 
1978	 0.218716565690857 
1979	 0.219220991453673 
1980	 0.219748712186818 
1981	 0.220254315866447 
1982	 0.220726045562662 
1983	 0.221236183096711 
1984	 0.221758394046561 
1985	 0.222289257996247 
1986	 0.222857630879286 
1987	 0.223394746217693 
1988	 0.223918696340993 
1989	 0.224451998455751 
1990	 0.22497352239908 
1991	 0.225493164676253 
1992	 0.226017236249082 
1993	 0.226548433253828 
1994	 0.227078726178715 
1995	 0.227617682901796 
1996	 0.228131253621012 
1997	 0.228630861353353 
1998	 0.229147451411839 
1999	 0.229658042396813 
2000	 0.23016350732512 
2001	 0.23069213582813 
2002	 0.231197341245439 
2003	 0.231675826733403 
2004	 0.232145166094552 
2005	 0.232620560780819 
2006	 0.233097793463039 
2007	 0.233563024603202 
2008	 0.23401837789126 
2009	 0.234479577335356 
2010	 0.234931224424883 
2011	 0.235390710257754 
2012	 0.23587370681511 
2013	 0.236328783857285 
2014	 0.236767424554626 
2015	 0.237206842722001 
2016	 0.237627254739477 
2017	 0.238064218296715 
2018	 0.238507332149765 
2019	 0.238968668870758 
2020	 0.2394160452244 
2021	 0.239864006292359 
2022	 0.240307247426566 
2023	 0.240742786254695 
2024	 0.241183433075134 
2025	 0.241629831199963 
2026	 0.242066038709886 
2027	 0.242504527436761 
2028	 0.242931416149891 
2029	 0.243354518251195 
2030	 0.243770833549826 
2031	 0.244184945233388 
2032	 0.24459711469287 
2033	 0.244999429992148 
2034	 0.245397695381431 
2035	 0.245782166880526 
2036	 0.246151235473489 
2037	 0.246524152190192 
2038	 0.246886302306298 
2039	 0.247249409213505 
2040	 0.247622341509999 
2041	 0.247979808025179 
2042	 0.248323140655322 
2043	 0.248655153744715 
2044	 0.248998418729816 
2045	 0.249336775174569 
2046	 0.249677786399728 
2047	 0.250035373760392 
2048	 0.250372131497871 
2049	 0.250698364180813 
2050	 0.251017250266909 
2051	 0.251325626766341 
2052	 0.251628790683056 
2053	 0.251923226588517 
2054	 0.252214439498689 
2055	 0.252480443125879 
2056	 0.252772418208462 
2057	 0.253075493485908 
2058	 0.253394817780924 
2059	 0.253693237803097 
2060	 0.254001164276324 
2061	 0.254301589020355 
2062	 0.254589022363273 
2063	 0.254869832830099 
2064	 0.255165106067317 
2065	 0.255433441047139 
2066	 0.255661608613604 
2067	 0.255908148088848 
2068	 0.256155028483671 
2069	 0.25639068209247 
2070	 0.256652549914105 
2071	 0.256928656859031 
2072	 0.257205412365244 
2073	 0.257496021891131 
2074	 0.257783698112888 
2075	 0.258076317676128 
2076	 0.258364629081963 
2077	 0.258661998437696 
2078	 0.258942297173593 
2079	 0.259216050075712 
2080	 0.259480448470984 
2081	 0.259722466554527 
2082	 0.259979106077815 
2083	 0.260228372452129 
2084	 0.260487193415234 
2085	 0.260764781521944 
2086	 0.261074650989031 
2087	 0.261337844872282 
2088	 0.261588071800328 
2089	 0.261853494195569 
2090	 0.262105157119582 
2091	 0.262351671932744 
2092	 0.262613549531464 
2093	 0.262866274307756 
2094	 0.263087066136995 
2095	 0.263328385793242 
2096	 0.263602029117075 
2097	 0.263850780046007 
2098	 0.264082810966583 
2099	 0.264318788254108 
2100	 0.264555406681653 
2101	 0.264788178314893 
2102	 0.265008660877478 
2103	 0.265220570421388 
2104	 0.26544936074968 
2105	 0.265660754494736 
2106	 0.265902856570016 
2107	 0.266179911191126 
2108	 0.266443856171803 
2109	 0.266717758434501 
2110	 0.266981799760033 
2111	 0.267240604227339 
2112	 0.267501822703167 
2113	 0.267751101663138 
2114	 0.268015706863037 
2115	 0.268282578795608 
2116	 0.268547329497817 
2117	 0.268837090259357 
2118	 0.269149533343898 
2119	 0.269446112324157 
2120	 0.269775058911877 
2121	 0.270052028261328 
2122	 0.270295352975579 
2123	 0.270538794406492 
2124	 0.270755126383153 
2125	 0.270976703020063 
2126	 0.271202045033234 
2127	 0.271413719766292 
2128	 0.271624084909234 
2129	 0.271812461545975 
2130	 0.271971350725212 
2131	 0.272135800948065 
2132	 0.272306336981015 
2133	 0.272475358487602 
2134	 0.272627123681564 
2135	 0.272794382059565 
2136	 0.272922156579695 
2137	 0.273002360891749 
2138	 0.273107901646566 
2139	 0.273221672553036 
2140	 0.273309162498185 
2141	 0.273398319678335 
2142	 0.27346274004898 
2143	 0.273493291681498 
2144	 0.273523375135471 
2145	 0.273541986835948 
2146	 0.273555090417909 
2147	 0.273552836360219 
2148	 0.273552197818498 
2149	 0.273552190841817 
2150	 0.27355515784741 
2151	 0.273540155569667 
2152	 0.273527862249127 
2153	 0.273489274707748 
2154	 0.273426346364187 
2155	 0.27336095918023 
2156	 0.273303648397282 
2157	 0.273198393456842 
2158	 0.273051456532912 
2159	 0.272916898153956 
2160	 0.272746267518365 
2161	 0.272586771836654 
2162	 0.272438464102613 
2163	 0.27229170565446 
2164	 0.272133447991457 
2165	 0.271990783751849 
2166	 0.271840205341377 
2167	 0.271701015768766 
2168	 0.271543772094473 
2169	 0.271372356439714 
2170	 0.271208227729942 
2171	 0.271028125602248 
2172	 0.270880241797618 
2173	 0.270749615349015 
2174	 0.270615625155772 
2175	 0.270507495630384 
2176	 0.270381078861885 
2177	 0.270236853874595 
2178	 0.270104352140472 
2179	 0.269976704702449 
2180	 0.269846954909163 
2181	 0.269715285432219 
2182	 0.269591625803922 
2183	 0.269456766237765 
2184	 0.269347576156236 
2185	 0.269244481064198 
2186	 0.26916214673678 
2187	 0.269061034533542 
2188	 0.268962165947385 
2189	 0.268860873048432 
2190	 0.268738369326805 
2191	 0.268649488262812 
2192	 0.268572536334539 
2193	 0.268509087827967 
2194	 0.268496576850529 
2195	 0.268426824933075 
2196	 0.268347605038852 
2197	 0.268252563716071 
2198	 0.268086555267575 
2199	 0.267973475960122 
2200	 0.267887591926943 
2201	 0.267796778922318 
2202	 0.267727119363097 
2203	 0.267660161761258 
2204	 0.267580462686489 
2205	 0.267475022763095 
2206	 0.267416639656849 
2207	 0.267378070022987 
2208	 0.26733283930083 
2209	 0.267309726517696 
2210	 0.267284891288741 
2211	 0.267262941965937 
2212	 0.267225160801493 
2213	 0.267196969415189 
2214	 0.267153014943652 
2215	 0.267075412806858 
2216	 0.267019698602634 
2217	 0.266979603112099 
2218	 0.266925665227109 
2219	 0.266855193711877 
2220	 0.266805318097001 
2221	 0.266764747054229 
2222	 0.266718312340027 
2223	 0.266680140327758 
2224	 0.266665882063424 
2225	 0.266641297869868 
2226	 0.2666154671712 
2227	 0.266583615457382 
2228	 0.266557198266862 
2229	 0.266519595852055 
2230	 0.266458335007852 
2231	 0.266428542083154 
2232	 0.26641737874396 
2233	 0.266389746636665 
2234	 0.266375567089446 
2235	 0.266342272450703 
2236	 0.266294736279237 
2237	 0.266240620920469 
2238	 0.266170254201656 
2239	 0.266112204621319 
2240	 0.266043822514749 
2241	 0.265982930680438 
2242	 0.26593403337452 
2243	 0.26588661314569 
2244	 0.265835267714478 
2245	 0.265805036130457 
2246	 0.265754570498619 
2247	 0.265689008947676 
2248	 0.265625768974321 
2249	 0.265544558836777 
2250	 0.265477611459137 
2251	 0.265420727926613 
2252	 0.265356472890594 
2253	 0.265283006760005 
2254	 0.265218415154894 
2255	 0.265158465921865 
2256	 0.265098476890856 
2257	 0.265038309385053 
2258	 0.264990496717648 
2259	 0.264950699306278 
2260	 0.264907761311192 
2261	 0.2648900871266 
2262	 0.264835789877007 
2263	 0.264765982662858 
2264	 0.264682529486838 
2265	 0.264555837763571 
2266	 0.264458544886972 
2267	 0.264359026833509 
2268	 0.264270658265479 
2269	 0.264194607241002 
2270	 0.264136790842436 
2271	 0.264063241861035 
2272	 0.264013913661798 
2273	 0.263999565406051 
2274	 0.263912684516101 
2275	 0.263810035708414 
2276	 0.263684707256878 
2277	 0.26356194013995 
2278	 0.263377965293345 
2279	 0.263273150242666 
2280	 0.263209525485524 
2281	 0.263134474138173 
2282	 0.263117640693212 
2283	 0.263026012905317 
2284	 0.26287734809319 
2285	 0.262769266319569 
2286	 0.262637821078791 
2287	 0.262529420598231 
2288	 0.262472296639765 
2289	 0.262381573974887 
2290	 0.262275548055346 
2291	 0.26215709290299 
2292	 0.262032681902577 
2293	 0.261892455996859 
2294	 0.261720828574859 
2295	 0.261566934433626 
2296	 0.261402638271353 
2297	 0.26125692029805 
2298	 0.261113091176707 
2299	 0.260994203457965 
2300	 0.26085580158326 
2301	 0.260713753185416 
2302	 0.260578535059028 
2303	 0.260430858919276 
2304	 0.260331231123403 
2305	 0.260194033926678 
2306	 0.260033145287848 
2307	 0.259871253637295 
2308	 0.259666856063879 
2309	 0.259386916999929 
2310	 0.259191441409222 
2311	 0.259013858545241 
2312	 0.258833565002051 
2313	 0.258692163521229 
2314	 0.258523165887672 
2315	 0.258356369927009 
2316	 0.258138255289802 
2317	 0.257903218043817 
2318	 0.257651918875145 
2319	 0.257310836233614 
2320	 0.257056016034806 
2321	 0.256861274145801 
2322	 0.256628838615478 
2323	 0.256400992953106 
2324	 0.25618330983026 
2325	 0.255963463077055 
2326	 0.25573031017176 
2327	 0.255494381013421 
2328	 0.255282595877142 
2329	 0.255081047222694 
2330	 0.254795534295763 
2331	 0.254585142319375 
2332	 0.254418098328652 
2333	 0.254243060694217 
2334	 0.254114311150136 
2335	 0.253944907152831 
2336	 0.25373764902722 
2337	 0.253483041244617 
2338	 0.253170920254015 
2339	 0.252907775371169 
2340	 0.2526458462039 
2341	 0.252371858788828 
2342	 0.252138300593926 
2343	 0.251843227228237 
2344	 0.251567638155669 
2345	 0.251270211242457 
2346	 0.250967799684472 
2347	 0.250614719287183 
2348	 0.250209847049606 
2349	 0.249842073953415 
2350	 0.249447050733493 
2351	 0.249101355740739 
2352	 0.248799344608721 
2353	 0.248481914592943 
2354	 0.248200881872013 
2355	 0.247864941811805 
2356	 0.247533724927002 
2357	 0.247144939790004 
2358	 0.246617445128028 
2359	 0.246209421905869 
2360	 0.245855372368424 
2361	 0.245499939975928 
2362	 0.245223396570532 
2363	 0.244931452544124 
2364	 0.2446101370133 
2365	 0.244246884347054 
2366	 0.243894270531483 
2367	 0.243516249377585 
2368	 0.243099007281532 
2369	 0.242682303583915 
2370	 0.242264482243119 
2371	 0.241818561351081 
2372	 0.241371402325703 
2373	 0.240912781624129 
2374	 0.240462624907015 
2375	 0.240021509729808 
2376	 0.239654609468624 
2377	 0.239304269891547 
2378	 0.23890033640651 
2379	 0.238495109356296 
2380	 0.23800844474421 
2381	 0.237470455795922 
2382	 0.237002757108428 
2383	 0.236608524081989 
2384	 0.236182683086894 
2385	 0.23572049399367 
2386	 0.23528262602438 
2387	 0.234766535516983 
2388	 0.234284140472948 
2389	 0.233886499307872 
2390	 0.233508258937795 
2391	 0.233166782490884 
2392	 0.23274915990396 
2393	 0.232225244752635 
2394	 0.231644715033199 
2395	 0.231118477947709 
2396	 0.230665216013248 
2397	 0.230310838039056 
2398	 0.229973899318259 
2399	 0.229559007823277 
2400	 0.229192411682789 
2401	 0.228728160183474 
2402	 0.228193321481023 
2403	 0.227741709132845 
2404	 0.227331804924932 
2405	 0.226950918437171 
2406	 0.226553255431001 
2407	 0.226153130565448 
2408	 0.22572996792415 
2409	 0.225304830479738 
2410	 0.22491700938862 
2411	 0.224537601787302 
2412	 0.224116167601395 
2413	 0.223659158658086 
2414	 0.223245595144797 
2415	 0.222885624378513 
2416	 0.222468081199539 
2417	 0.221988272358541 
2418	 0.221556612306408 
2419	 0.221143952252774 
2420	 0.220686346911755 
2421	 0.220228547595132 
2422	 0.219874894080456 
2423	 0.219536063399543 
2424	 0.219144840475123 
2425	 0.218831633445752 
2426	 0.21838818740055 
2427	 0.21782979048201 
2428	 0.217318533861612 
2429	 0.216777122078668 
2430	 0.216268008989463 
2431	 0.215735808840902 
2432	 0.215297599542968 
2433	 0.214984655756064 
2434	 0.214583899856799 
2435	 0.214134545036654 
2436	 0.213705525328323 
2437	 0.213263109294555 
2438	 0.212800969895322 
2439	 0.212398214948195 
2440	 0.212009131889261 
2441	 0.211503534841342 
2442	 0.211095310931353 
2443	 0.210829316043785 
2444	 0.210446452625192 
2445	 0.210071108891254 
2446	 0.209596198208258 
2447	 0.20897057304063 
2448	 0.208467085593607 
2449	 0.207925895220513 
2450	 0.207628019098587 
2451	 0.207541117148583 
2452	 0.207289143273347 
2453	 0.207149104746334 
2454	 0.206791431358552 
2455	 0.206257497484738 
2456	 0.205807589877466 
2457	 0.20525225297065 
2458	 0.204744808808655 
2459	 0.204262390741271 
2460	 0.203822873111573 
2461	 0.203474602716766 
2462	 0.203080719121649 
2463	 0.20260810403584 
2464	 0.202237020153169 
2465	 0.201886294463415 
2466	 0.201588643275732 
2467	 0.201516202057276 
2468	 0.201158807669966 
2469	 0.200640844303201 
2470	 0.199978654792453 
2471	 0.199412519885334 
2472	 0.19894775953081 
2473	 0.198526156515403 
2474	 0.198120347064906 
2475	 0.197686244289772 
2476	 0.197319209042103 
2477	 0.196954343127552 
2478	 0.196465644745846 
2479	 0.196112796356948 
2480	 0.195755824782108 
2481	 0.195324640787071 
2482	 0.195136331588658 
2483	 0.194834265770981 
2484	 0.194393326264773 
2485	 0.194151188469682 
2486	 0.193955975521972 
2487	 0.193678083762805 
2488	 0.193419534495482 
2489	 0.19308623461854 
2490	 0.192437048246855 
2491	 0.191984335603657 
2492	 0.19162716258302 
2493	 0.191233604739542 
2494	 0.191232968886228 
2495	 0.190940258238947 
2496	 0.190751910571977 
2497	 0.190805105942637 
2498	 0.190518881909201 
2499	 0.190480048407081 
2500	 0.190295093892405 
