Wavelength	lmw-9-200000.asd
350	 5.92508881907155E-02 
351	 6.08485965977724E-02 
352	 5.68781443482453E-02 
353	 5.29779097859754E-02 
354	 5.53690360286937E-02 
355	 5.67929725831176E-02 
356	 5.56006895074068E-02 
357	 5.35132966701857E-02 
358	 0.059487067164387 
359	 5.52004838165271E-02 
360	 4.62451968483257E-02 
361	 5.11647295791462E-02 
362	 4.74505723275089E-02 
363	 4.79272435220615E-02 
364	 0.053766857222178 
365	 4.05639814658494E-02 
366	 4.10032050656557E-02 
367	 4.61247565690208E-02 
368	 4.20927038610428E-02 
369	 4.41923138518764E-02 
370	 4.62935600753244E-02 
371	 4.72709985990213E-02 
372	 0.049619176860963 
373	 5.26349486465846E-02 
374	 5.21159123483131E-02 
375	 4.80817029103787E-02 
376	 4.83832637743963E-02 
377	 0.047897303438492 
378	 0.048352437174586 
379	 5.14691512910672E-02 
380	 5.06159804090762E-02 
381	 4.95886885127152E-02 
382	 0.049961281045057 
383	 5.11053055557914E-02 
384	 5.05243506023034E-02 
385	 4.94050295137659E-02 
386	 4.93044682428718E-02 
387	 5.16547607905388E-02 
388	 5.17353649027097E-02 
389	 0.050802426504192 
390	 5.12783258905547E-02 
391	 5.08446987322753E-02 
392	 0.051598183432105 
393	 5.37837708991635E-02 
394	 5.57657282034992E-02 
395	 5.33908290482905E-02 
396	 5.16506513949365E-02 
397	 5.34609921851291E-02 
398	 0.054252535053806 
399	 0.054561246773902 
400	 5.50591857368646E-02 
401	 5.61996046490251E-02 
402	 5.63304248351234E-02 
403	 0.05639835962242 
404	 5.61685182574725E-02 
405	 5.41994130296578E-02 
406	 0.054171914541892 
407	 5.59143563961918E-02 
408	 5.77441370941434E-02 
409	 5.62133760368719E-02 
410	 0.054728689242809 
411	 5.46432726135345E-02 
412	 5.59585549430693E-02 
413	 5.71013697876944E-02 
414	 5.73508287584654E-02 
415	 5.69964706744764E-02 
416	 5.74341089697448E-02 
417	 5.71027615578807E-02 
418	 5.70775513334438E-02 
419	 5.81986567904611E-02 
420	 5.85148215927112E-02 
421	 5.78922513628212E-02 
422	 5.72762611133704E-02 
423	 5.80033821663234E-02 
424	 0.057827400621615 
425	 5.76041899152534E-02 
426	 5.77960454080785E-02 
427	 5.73550146835313E-02 
428	 0.057538047681852 
429	 5.80885771874741E-02 
430	 5.83135533111167E-02 
431	 5.79703787199306E-02 
432	 5.77212084732657E-02 
433	 5.78887091658118E-02 
434	 5.84149932293258E-02 
435	 5.92383649122792E-02 
436	 5.97069361558415E-02 
437	 5.95718250332855E-02 
438	 5.98136653265469E-02 
439	 6.02915222042048E-02 
440	 6.10277982351892E-02 
441	 6.19906531957005E-02 
442	 6.22190686248786E-02 
443	 6.24190148993983E-02 
444	 0.062888824674138 
445	 6.30522990066028E-02 
446	 6.35024263935352E-02 
447	 6.40223945704557E-02 
448	 6.42840940378163E-02 
449	 6.44736461072188E-02 
450	 6.50429491970504E-02 
451	 6.57741562081368E-02 
452	 6.59376872179713E-02 
453	 6.62175418890028E-02 
454	 6.64187051495179E-02 
455	 6.64490714826992E-02 
456	 6.68658467533507E-02 
457	 6.71577578416763E-02 
458	 6.72617429262581E-02 
459	 6.73509176587525E-02 
460	 6.77329827607433E-02 
461	 6.78884853182476E-02 
462	 6.77506029427906E-02 
463	 6.79742505157823E-02 
464	 0.068385220133713 
465	 6.86492360338605E-02 
466	 6.85663277599643E-02 
467	 6.86592943014321E-02 
468	 6.88757754878889E-02 
469	 6.90676017617132E-02 
470	 6.90535029856229E-02 
471	 6.92662858232589E-02 
472	 6.94368285466344E-02 
473	 6.94290830604521E-02 
474	 6.97250620156784E-02 
475	 6.99113823701364E-02 
476	 6.98293826416631E-02 
477	 6.95302367280593E-02 
478	 6.96377317796968E-02 
479	 6.99261086860227E-02 
480	 7.01776779287567E-02 
481	 7.03026159431174E-02 
482	 0.07045494331888 
483	 7.05444084258045E-02 
484	 7.04773950472377E-02 
485	 7.04194068227686E-02 
486	 7.03221538531462E-02 
487	 7.02841441898593E-02 
488	 0.070489998384182 
489	 7.03652452196556E-02 
490	 0.070332137568843 
491	 7.06230117811069E-02 
492	 7.05644530001119E-02 
493	 0.0705692115029 
494	 7.06412727983056E-02 
495	 7.06280310607755E-02 
496	 7.07098043020203E-02 
497	 7.06863745188444E-02 
498	 7.05565674450409E-02 
499	 7.06674362142885E-02 
500	 7.06625669423059E-02 
501	 7.05901357253469E-02 
502	 7.05851104104786E-02 
503	 7.06216127457608E-02 
504	 7.05498773380815E-02 
505	 7.04490029472642E-02 
506	 7.05843035160877E-02 
507	 7.05364608313397E-02 
508	 7.04680363492724E-02 
509	 7.05083362084201E-02 
510	 7.03764790511288E-02 
511	 7.02803303304502E-02 
512	 7.02832691289135E-02 
513	 7.03506868369103E-02 
514	 7.03237472894094E-02 
515	 7.02594256821912E-02 
516	 7.02217321020613E-02 
517	 7.02498214971329E-02 
518	 7.01867926903031E-02 
519	 7.00611594341084E-02 
520	 6.99783343304643E-02 
521	 0.070082277594752 
522	 7.01542089509709E-02 
523	 7.01220636024437E-02 
524	 7.00881584592592E-02 
525	 7.00701267512017E-02 
526	 7.00714186066538E-02 
527	 7.00849969265296E-02 
528	 7.00938535424996E-02 
529	 0.070107229755129 
530	 0.070115563838343 
531	 7.00978468760769E-02 
532	 0.070032077652552 
533	 7.00682850999381E-02 
534	 7.02233987170768E-02 
535	 7.01785135459854E-02 
536	 7.02423589000793E-02 
537	 7.03184245257018E-02 
538	 7.02156422051904E-02 
539	 7.02464240291344E-02 
540	 7.02283358570602E-02 
541	 7.01493321300475E-02 
542	 0.070274486246109 
543	 7.03379640740934E-02 
544	 7.04051122228572E-02 
545	 7.05579944948943E-02 
546	 7.05664864272187E-02 
547	 7.06011170921964E-02 
548	 7.06895878887003E-02 
549	 0.0707326417498 
550	 0.070767032128727 
551	 7.08128180573187E-02 
552	 7.08914286026947E-02 
553	 7.10475489898421E-02 
554	 7.11423080779793E-02 
555	 7.12037366615267E-02 
556	 7.13326081696154E-02 
557	 7.13919295517572E-02 
558	 7.15324984763113E-02 
559	 0.071792122748475 
560	 7.19596089013494E-02 
561	 7.21352793360862E-02 
562	 7.23219863852454E-02 
563	 7.25038618730077E-02 
564	 7.27340772778146E-02 
565	 7.29205992536591E-02 
566	 7.30977226337686E-02 
567	 7.34441824776687E-02 
568	 7.38140110689678E-02 
569	 7.41094018854422E-02 
570	 7.43180370693739E-02 
571	 7.46581765687981E-02 
572	 7.50547728497645E-02 
573	 7.54918170419305E-02 
574	 7.59799054090767E-02 
575	 7.62997659548099E-02 
576	 7.66400249085165E-02 
577	 7.71195425094621E-02 
578	 7.75544283961425E-02 
579	 7.80685836855444E-02 
580	 7.86605349869808E-02 
581	 7.92820518999199E-02 
582	 7.99624680987899E-02 
583	 8.05793974857096E-02 
584	 8.11098818336335E-02 
585	 0.081688066280329 
586	 8.22914922607029E-02 
587	 0.082874052958158 
588	 8.34271393649349E-02 
589	 8.41567394253638E-02 
590	 8.48639518381296E-02 
591	 8.54857211452232E-02 
592	 8.60982793456178E-02 
593	 8.66853908310753E-02 
594	 8.73071892609851E-02 
595	 8.79931018675783E-02 
596	 8.86544472336232E-02 
597	 8.94026357801518E-02 
598	 9.01825173094814E-02 
599	 9.08716548079069E-02 
600	 9.16102742909462E-02 
601	 9.23112455709503E-02 
602	 9.29256627215677E-02 
603	 9.35153119396169E-02 
604	 9.41452049406029E-02 
605	 9.47873995854816E-02 
606	 9.53921901270116E-02 
607	 9.60119871806871E-02 
608	 9.66255946403918E-02 
609	 9.72157817593372E-02 
610	 9.77763473494194E-02 
611	 9.83603682857116E-02 
612	 9.88668860568706E-02 
613	 9.92442294978871E-02 
614	 0.099736667504336 
615	 0.100219451718648 
616	 0.100622134519907 
617	 0.100930700053542 
618	 0.101349204673075 
619	 0.101753315549145 
620	 0.102061682337585 
621	 0.102395223621664 
622	 0.102681713999975 
623	 0.102954503231572 
624	 0.103273470956277 
625	 0.103578606196755 
626	 0.103883183682332 
627	 0.10417521330085 
628	 0.104401032440841 
629	 0.104651698739015 
630	 0.104911285834002 
631	 0.105137220207535 
632	 0.10529918437136 
633	 0.10548733719156 
634	 0.10571847591685 
635	 0.105947487867294 
636	 0.106190477767095 
637	 0.106429264820246 
638	 0.10664606628525 
639	 0.106835445370315 
640	 0.107012903303264 
641	 0.107194633281319 
642	 0.107398470041299 
643	 0.107663591658183 
644	 0.107858778317808 
645	 0.107976494594589 
646	 0.108208485693115 
647	 0.108465302777625 
648	 0.108677545412077 
649	 0.10882471763275 
650	 0.109074108934088 
651	 0.109303634513054 
652	 0.109512072732121 
653	 0.109800599227505 
654	 0.11003460035232 
655	 0.110216100112166 
656	 0.110397645933806 
657	 0.110697898106825 
658	 0.11097299856519 
659	 0.111186585563735 
660	 0.111369843481865 
661	 0.111629703692045 
662	 0.111929813462236 
663	 0.112212967159143 
664	 0.112411223776553 
665	 0.112699676140373 
666	 0.113019248118226 
667	 0.113279569709897 
668	 0.113564714250224 
669	 0.113872598217337 
670	 0.114190756722345 
671	 0.114499501896137 
672	 0.114791555055667 
673	 0.115106534912201 
674	 0.115459813985747 
675	 0.115794705484324 
676	 0.116096167907685 
677	 0.11640687207726 
678	 0.11678056091758 
679	 0.117134216550976 
680	 0.117520021927158 
681	 0.117928028556509 
682	 0.118253586301749 
683	 0.118641216839863 
684	 0.119059491847842 
685	 0.11945494977826 
686	 0.11987456023851 
687	 0.1202995713703 
688	 0.120733708944156 
689	 0.121191132178779 
690	 0.121613299280416 
691	 0.122024790004236 
692	 0.122454446921257 
693	 0.122917788740143 
694	 0.123366028436161 
695	 0.123827732721127 
696	 0.124340925458963 
697	 0.124826334650598 
698	 0.125313611661724 
699	 0.125811070900235 
700	 0.126297546031954 
701	 0.126772122353674 
702	 0.127250965376941 
703	 0.127749051031235 
704	 0.128269797576992 
705	 0.128789348332148 
706	 0.129291019002338 
707	 0.129769805672216 
708	 0.130275758836153 
709	 0.130797068593268 
710	 0.131325159359402 
711	 0.131869589122352 
712	 0.132363823384677 
713	 0.132829251444138 
714	 0.133316742273399 
715	 0.133890031800072 
716	 0.134392300662532 
717	 0.134810229985796 
718	 0.135241373377195 
719	 0.135714601407509 
720	 0.136182828267361 
721	 0.136618729584158 
722	 0.137063809890728 
723	 0.137450538485334 
724	 0.137830261320708 
725	 0.138258851289435 
726	 0.138595289535609 
727	 0.138925738001696 
728	 0.139284961452419 
729	 0.139646326613883 
730	 0.139954351696471 
731	 0.140202930826502 
732	 0.140412421319007 
733	 0.140633399680318 
734	 0.140884479252697 
735	 0.141107185701692 
736	 0.141235083673644 
737	 0.141381298801234 
738	 0.141490301809763 
739	 0.141553405522961 
740	 0.141623712794145 
741	 0.141635913843604 
742	 0.141646719677415 
743	 0.141692229614105 
744	 0.141690250039918 
745	 0.14161132663471 
746	 0.141496847128128 
747	 0.141411601402727 
748	 0.14130469854725 
749	 0.141154490475836 
750	 0.14097337597909 
751	 0.140809886450412 
752	 0.140620493781059 
753	 0.140382150986434 
754	 0.140099708870421 
755	 0.139840214205805 
756	 0.139593146805561 
757	 0.13930925906049 
758	 0.138941174148153 
759	 0.138606803670593 
760	 0.138295874546909 
761	 0.137974288692719 
762	 0.137596724615378 
763	 0.137227148404532 
764	 0.136853234509768 
765	 0.136456218554783 
766	 0.136050550071318 
767	 0.135644286310288 
768	 0.135242744411403 
769	 0.134845109012826 
770	 0.134427830182063 
771	 0.133998874865938 
772	 0.133556516413943 
773	 0.133085570207848 
774	 0.132653561495151 
775	 0.132238322030493 
776	 0.131807546537512 
777	 0.131359967029852 
778	 0.130923173983064 
779	 0.130492119524309 
780	 0.130047923819478 
781	 0.129590755680157 
782	 0.12915601455892 
783	 0.128734155882969 
784	 0.128272278289255 
785	 0.127869995256761 
786	 0.127491999333089 
787	 0.127091974781682 
788	 0.126656837251086 
789	 0.126272440327923 
790	 0.125886510609901 
791	 0.125429055416575 
792	 0.125033728619436 
793	 0.1246507336942 
794	 0.124265165250302 
795	 0.123898382707042 
796	 0.123526616026332 
797	 0.123168812482119 
798	 0.122828030982848 
799	 0.122467705280252 
800	 0.122103437540345 
801	 0.121734450023242 
802	 0.121371472756476 
803	 0.121089493862238 
804	 0.120782789021355 
805	 0.120462215164507 
806	 0.120199638478397 
807	 0.119885201693877 
808	 0.119562473758754 
809	 0.119262712453511 
810	 0.118977611191633 
811	 0.118736345143858 
812	 0.118484798404242 
813	 0.118194320932664 
814	 0.117952409635768 
815	 0.117750106132231 
816	 0.117527126093754 
817	 0.117231677194461 
818	 0.116976829671203 
819	 0.116782926760198 
820	 0.116612325552541 
821	 0.116393942128061 
822	 0.116230064028671 
823	 0.116029490057361 
824	 0.115774662976049 
825	 0.115611622111928 
826	 0.11546126017298 
827	 0.115294403927666 
828	 0.115119461271888 
829	 0.115031323315619 
830	 0.11486181468203 
831	 0.11465741663656 
832	 0.114547569977955 
833	 0.114451957837723 
834	 0.114360099710735 
835	 0.114255236471222 
836	 0.114119374702786 
837	 0.114036966922215 
838	 0.113970551880407 
839	 0.113887431350104 
840	 0.113800672352251 
841	 0.113653507017028 
842	 0.113539578537202 
843	 0.113526095401786 
844	 0.113464117012623 
845	 0.113439543774193 
846	 0.113407628516202 
847	 0.113307036531182 
848	 0.113343373519768 
849	 0.11333943335515 
850	 0.113269855680149 
851	 0.113251131203183 
852	 0.113231622826759 
853	 0.113214847033484 
854	 0.113207841481184 
855	 0.113212986934313 
856	 0.113229620382587 
857	 0.113263130638401 
858	 0.113311543785936 
859	 0.113350411752638 
860	 0.113411342872886 
861	 0.113466356312698 
862	 0.113484909126057 
863	 0.113514585044569 
864	 0.113600420374418 
865	 0.113697660949242 
866	 0.113726997621733 
867	 0.113786271559617 
868	 0.113873394047283 
869	 0.113963293451643 
870	 0.114023516200594 
871	 0.114117721328823 
872	 0.114221860163971 
873	 0.114323572339285 
874	 0.114452633839508 
875	 0.114549258916936 
876	 0.114640256038483 
877	 0.114768301265195 
878	 0.114960457130601 
879	 0.115153554706998 
880	 0.11530396848843 
881	 0.115411087837993 
882	 0.115605443022689 
883	 0.115758977720798 
884	 0.115890739059731 
885	 0.116087926834222 
886	 0.11628893706926 
887	 0.116491321660024 
888	 0.11667642079996 
889	 0.116821870696351 
890	 0.117022780089813 
891	 0.117247854988599 
892	 0.117473449815184 
893	 0.117707742162326 
894	 0.117952653174314 
895	 0.118191207389591 
896	 0.118409429192089 
897	 0.118603078773171 
898	 0.118955721918574 
899	 0.119293792249035 
900	 0.119478665425119 
901	 0.119723032345196 
902	 0.119976041887279 
903	 0.120246673583596 
904	 0.120555632241981 
905	 0.120915542774771 
906	 0.121240875440448 
907	 0.121527274141847 
908	 0.121819751974093 
909	 0.122173525367334 
910	 0.122511984838234 
911	 0.12282576000905 
912	 0.123161640325063 
913	 0.12358258228487 
914	 0.124001354900526 
915	 0.124386662615839 
916	 0.124772743256223 
917	 0.125181131517329 
918	 0.125557600736212 
919	 0.125898090458887 
920	 0.126268176740455 
921	 0.12675248221285 
922	 0.127222202315254 
923	 0.127622963723406 
924	 0.128063139386688 
925	 0.128473700817038 
926	 0.128938079531118 
927	 0.129470708004755 
928	 0.129908306538922 
929	 0.130464505215323 
930	 0.131036138249376 
931	 0.131525347030886 
932	 0.132039330054107 
933	 0.132582023535477 
934	 0.133115391356619 
935	 0.133630274683718 
936	 0.134247449464552 
937	 0.134793554510179 
938	 0.135324028646514 
939	 0.135935556259203 
940	 0.13658475978907 
941	 0.137161147545536 
942	 0.137800006858249 
943	 0.138602520218759 
944	 0.13913417108159 
945	 0.139708528884013 
946	 0.140397747713685 
947	 0.141121500967746 
948	 0.141724484749118 
949	 0.142317760510401 
950	 0.142974730724273 
951	 0.143725997398904 
952	 0.144554426676942 
953	 0.14525118370993 
954	 0.145901716898422 
955	 0.146712123603094 
956	 0.147536079210841 
957	 0.14830740414273 
958	 0.149051592523969 
959	 0.149829283011184 
960	 0.150546638900788 
961	 0.151326733128586 
962	 0.152211171235646 
963	 0.153149050782463 
964	 0.153988334502568 
965	 0.154849029394214 
966	 0.1557399254632 
967	 0.156614475275272 
968	 0.157672309161814 
969	 0.158540993636928 
970	 0.159336226277245 
971	 0.160407549462997 
972	 0.161234680221424 
973	 0.162197886840765 
974	 0.163245425647082 
975	 0.164086150358682 
976	 0.165085935334596 
977	 0.166194743230115 
978	 0.167264559544096 
979	 0.168184947587997 
980	 0.169296596598635 
981	 0.170429406230324 
982	 0.171493011939228 
983	 0.172493207015789 
984	 0.173508141952939 
985	 0.174584094154563 
986	 0.175694354325022 
987	 0.176782753681235 
988	 0.177885404514626 
989	 0.178946870255013 
990	 0.180027729007855 
991	 0.181205531562315 
992	 0.18233334653826 
993	 0.183518585384367 
994	 0.184704925277199 
995	 0.185776479202028 
996	 0.186696674914521 
997	 0.187939000837572 
998	 0.189204983627534 
999	 0.190137195465903 
1000	 0.191331912628828 
1001	 0.199259535961465 
1002	 0.20045376912379 
1003	 0.201650014764484 
1004	 0.202835038617835 
1005	 0.204036299404533 
1006	 0.205242085155463 
1007	 0.206463335027271 
1008	 0.207594249469432 
1009	 0.208726418013049 
1010	 0.209920000846827 
1011	 0.211071108142118 
1012	 0.212226669784875 
1013	 0.213459994764028 
1014	 0.214618924546279 
1015	 0.215721126968752 
1016	 0.216899239873236 
1017	 0.218066236896314 
1018	 0.219239871087695 
1019	 0.220363838501466 
1020	 0.221519642908785 
1021	 0.222714095530084 
1022	 0.223843606829669 
1023	 0.224953022378298 
1024	 0.22601206149098 
1025	 0.226996229985045 
1026	 0.228044273418992 
1027	 0.229105171532222 
1028	 0.230184313235564 
1029	 0.231250067235954 
1030	 0.232288612657348 
1031	 0.233318121558548 
1032	 0.234334792792373 
1033	 0.235340034851585 
1034	 0.236369389437092 
1035	 0.237313305231444 
1036	 0.238269552871911 
1037	 0.239316396087753 
1038	 0.24030948034091 
1039	 0.241337924957508 
1040	 0.242385529725649 
1041	 0.243322401489878 
1042	 0.244311215174366 
1043	 0.245368155852161 
1044	 0.246349840826511 
1045	 0.247292204310114 
1046	 0.24827304067199 
1047	 0.249241597373422 
1048	 0.250165316575889 
1049	 0.251162111279623 
1050	 0.25219783842743 
1051	 0.253267645655666 
1052	 0.254311634440578 
1053	 0.255314148808342 
1054	 0.256329954963172 
1055	 0.257336205736919 
1056	 0.258347635387807 
1057	 0.259370440066374 
1058	 0.260448456582854 
1059	 0.261476674081523 
1060	 0.262467020726074 
1061	 0.263481496031777 
1062	 0.264493736044158 
1063	 0.265501830737331 
1064	 0.266596559213271 
1065	 0.267668758329838 
1066	 0.268714182909266 
1067	 0.26978478198307 
1068	 0.270872522676993 
1069	 0.271971077187638 
1070	 0.273060924929056 
1071	 0.274204009157137 
1072	 0.275293004591849 
1073	 0.276310217008081 
1074	 0.277365136181931 
1075	 0.278418960490169 
1076	 0.279466866240209 
1077	 0.280541178380647 
1078	 0.281572320604263 
1079	 0.282622753042665 
1080	 0.283695739450215 
1081	 0.284747011409325 
1082	 0.285846894796816 
1083	 0.28692902282032 
1084	 0.287989368423629 
1085	 0.289078985272739 
1086	 0.290209671096261 
1087	 0.291276980345809 
1088	 0.292323320427176 
1089	 0.293367987345238 
1090	 0.294401730413418 
1091	 0.295436429729588 
1092	 0.296434163963419 
1093	 0.297414078911152 
1094	 0.298448254896847 
1095	 0.29944156389595 
1096	 0.300498608054071 
1097	 0.301644248032851 
1098	 0.302722461687578 
1099	 0.303792069576248 
1100	 0.304828205453357 
1101	 0.305794926660838 
1102	 0.30682884702484 
1103	 0.307900513134062 
1104	 0.308903716716545 
1105	 0.309941246947249 
1106	 0.311015377356491 
1107	 0.311996473123686 
1108	 0.313021564983948 
1109	 0.314080203783672 
1110	 0.315099332346932 
1111	 0.316119624122463 
1112	 0.317130534054733 
1113	 0.318156515149692 
1114	 0.319171895705403 
1115	 0.32020167968386 
1116	 0.321267070476815 
1117	 0.322300777709487 
1118	 0.323317307943213 
1119	 0.324341169900384 
1120	 0.325349261767501 
1121	 0.326348171321579 
1122	 0.327370197198108 
1123	 0.328401090793474 
1124	 0.32944552401371 
1125	 0.33052699820894 
1126	 0.331565215746318 
1127	 0.332587708549109 
1128	 0.333617268066042 
1129	 0.334633020887734 
1130	 0.335646899271102 
1131	 0.336681974810864 
1132	 0.337688561599601 
1133	 0.338649808238712 
1134	 0.3396469385032 
1135	 0.34068033210472 
1136	 0.341656871630775 
1137	 0.342618473234248 
1138	 0.343589053929008 
1139	 0.344536238898061 
1140	 0.345446850714511 
1141	 0.34635266746406 
1142	 0.347274330897641 
1143	 0.348151260487421 
1144	 0.348982654165306 
1145	 0.349815384533543 
1146	 0.350642272380781 
1147	 0.351441648531503 
1148	 0.352211119738113 
1149	 0.352985093141187 
1150	 0.353721834463095 
1151	 0.354495696024258 
1152	 0.35528214390583 
1153	 0.356072731193717 
1154	 0.356893017637385 
1155	 0.357728777326142 
1156	 0.358595694210346 
1157	 0.35947491487324 
1158	 0.360399531186918 
1159	 0.361369312270891 
1160	 0.362347688490891 
1161	 0.363385384644242 
1162	 0.364382854701665 
1163	 0.365398377218212 
1164	 0.366372537753699 
1165	 0.367297248380041 
1166	 0.368246690828375 
1167	 0.369174867031394 
1168	 0.370123508509787 
1169	 0.371064984893556 
1170	 0.372028909231798 
1171	 0.372946906245609 
1172	 0.373846175747045 
1173	 0.374740063738749 
1174	 0.375613063503556 
1175	 0.376489568241075 
1176	 0.377388080817207 
1177	 0.378234129788091 
1178	 0.379037181056071 
1179	 0.379857427690579 
1180	 0.380661672159644 
1181	 0.381454198157862 
1182	 0.38225818578272 
1183	 0.383056431116462 
1184	 0.383811737343154 
1185	 0.384526070749314 
1186	 0.38525703974643 
1187	 0.385977148588504 
1188	 0.386685730764423 
1189	 0.387387485746374 
1190	 0.388089001805033 
1191	 0.388787414635271 
1192	 0.389466020298551 
1193	 0.390144277571877 
1194	 0.390806128682479 
1195	 0.391455325109544 
1196	 0.39207776124583 
1197	 0.392672477475949 
1198	 0.393274106787477 
1199	 0.39386633920239 
1200	 0.394429525962834 
1201	 0.395013165951322 
1202	 0.39561880109699 
1203	 0.396192622119834 
1204	 0.396746502844576 
1205	 0.397311522668267 
1206	 0.397884293364301 
1207	 0.398426461471958 
1208	 0.398972064451831 
1209	 0.3994867949877 
1210	 0.399956341862078 
1211	 0.400437541512906 
1212	 0.400901004183668 
1213	 0.40137625159547 
1214	 0.401872921788926 
1215	 0.402342730796606 
1216	 0.402802373813505 
1217	 0.403261301217054 
1218	 0.403703123385069 
1219	 0.404122176693427 
1220	 0.404540894162459 
1221	 0.404956707414743 
1222	 0.405363541722954 
1223	 0.405764362886239 
1224	 0.406148381308057 
1225	 0.406519420400206 
1226	 0.406888645719738 
1227	 0.407246723975763 
1228	 0.407596951038586 
1229	 0.407947416100745 
1230	 0.408287102153142 
1231	 0.408610591752285 
1232	 0.408930322807015 
1233	 0.409244721438247 
1234	 0.409554980361119 
1235	 0.409861254266726 
1236	 0.410165707270694 
1237	 0.410455954127534 
1238	 0.410741096543138 
1239	 0.411015525051225 
1240	 0.411272984550604 
1241	 0.411532277750253 
1242	 0.411790336310148 
1243	 0.41203901039842 
1244	 0.412278690675716 
1245	 0.412518752383658 
1246	 0.412743948969323 
1247	 0.412980990861999 
1248	 0.413225722108939 
1249	 0.413474847547772 
1250	 0.413704931855443 
1251	 0.413937083145318 
1252	 0.414135703155091 
1253	 0.414305325108736 
1254	 0.414473808380892 
1255	 0.414619748193834 
1256	 0.414776285030078 
1257	 0.41494051372048 
1258	 0.415075814725234 
1259	 0.415180175476571 
1260	 0.415318523567465 
1261	 0.415469783767491 
1262	 0.415592971166263 
1263	 0.415722169089929 
1264	 0.415850645584525 
1265	 0.415940400091799 
1266	 0.41604816590824 
1267	 0.416179601902327 
1268	 0.416313645487259 
1269	 0.416436691313372 
1270	 0.416542936351431 
1271	 0.416680423221688 
1272	 0.416832079172789 
1273	 0.416976761787497 
1274	 0.417137817831143 
1275	 0.417281469294082 
1276	 0.417413517763564 
1277	 0.417548264206199 
1278	 0.417687287622227 
1279	 0.417813625016063 
1280	 0.417922051037427 
1281	 0.418046707164488 
1282	 0.418172795363673 
1283	 0.418295724502134 
1284	 0.418434173152058 
1285	 0.418557832677123 
1286	 0.418663588192153 
1287	 0.418776781632481 
1288	 0.418897508209883 
1289	 0.419025363950918 
1290	 0.419139163350133 
1291	 0.419251276554854 
1292	 0.419368857610244 
1293	 0.419493601142556 
1294	 0.419589286388562 
1295	 0.419693283184599 
1296	 0.419761728277215 
1297	 0.419779539675865 
1298	 0.419815585297165 
1299	 0.419848171809415 
1300	 0.419869815755373 
1301	 0.419888513838384 
1302	 0.419897439270139 
1303	 0.419891823049761 
1304	 0.419893542370211 
1305	 0.419868576241133 
1306	 0.419826436557774 
1307	 0.41975545741477 
1308	 0.419664440430152 
1309	 0.419583457728319 
1310	 0.419506375554493 
1311	 0.419395771320169 
1312	 0.419281657542377 
1313	 0.419137555695175 
1314	 0.418962939859973 
1315	 0.41877670002375 
1316	 0.418573507881829 
1317	 0.418361760633236 
1318	 0.418125644825686 
1319	 0.417886398130335 
1320	 0.417655464501076 
1321	 0.417393123241029 
1322	 0.417109842247842 
1323	 0.416820261735541 
1324	 0.416501353647281 
1325	 0.416157709305433 
1326	 0.415841643260417 
1327	 0.415515270080091 
1328	 0.415168660084369 
1329	 0.414826502582095 
1330	 0.414446454357658 
1331	 0.414028150707142 
1332	 0.413613344668369 
1333	 0.41317966538857 
1334	 0.412751356634338 
1335	 0.412312009732117 
1336	 0.411881499275222 
1337	 0.411463961763682 
1338	 0.411033052111731 
1339	 0.410592448172145 
1340	 0.41015435373612 
1341	 0.409707830616154 
1342	 0.409266577914736 
1343	 0.408816078508127 
1344	 0.408392853803695 
1345	 0.407985609944556 
1346	 0.407581238575434 
1347	 0.407197819606473 
1348	 0.406832702759096 
1349	 0.406457746847026 
1350	 0.406077866595619 
1351	 0.405701418860674 
1352	 0.405325106715381 
1353	 0.404951240474654 
1354	 0.404569489423394 
1355	 0.404209973730888 
1356	 0.403863150603314 
1357	 0.403510287131894 
1358	 0.403169419173896 
1359	 0.402822418847314 
1360	 0.402477619017038 
1361	 0.402118808188128 
1362	 0.401763272650104 
1363	 0.401395399937245 
1364	 0.400989830260758 
1365	 0.400613918659042 
1366	 0.400254724780337 
1367	 0.399884124574707 
1368	 0.399536800205022 
1369	 0.399200684109135 
1370	 0.398804268909098 
1371	 0.398408144912596 
1372	 0.398003420625304 
1373	 0.397551408304125 
1374	 0.397077830386967 
1375	 0.396600972289366 
1376	 0.396061364689429 
1377	 0.395484920063259 
1378	 0.394846172529834 
1379	 0.39414813744548 
1380	 0.393432695595189 
1381	 0.392679758544976 
1382	 0.391869232149037 
1383	 0.391040996031124 
1384	 0.390146764916763 
1385	 0.3891959775889 
1386	 0.388186699998481 
1387	 0.387145302538351 
1388	 0.386025111492785 
1389	 0.384838594687154 
1390	 0.383578255716043 
1391	 0.382262426596894 
1392	 0.380861870773688 
1393	 0.379377608119998 
1394	 0.377829203885455 
1395	 0.376185338029445 
1396	 0.374485538881453 
1397	 0.372755916118922 
1398	 0.370964619361685 
1399	 0.369156975255033 
1400	 0.367291856676715 
1401	 0.365461638158543 
1402	 0.363590459206035 
1403	 0.361779735069795 
1404	 0.35997276790682 
1405	 0.358256573442559 
1406	 0.356558265041203 
1407	 0.354965319450376 
1408	 0.353432587472383 
1409	 0.352014562791561 
1410	 0.350688140756336 
1411	 0.349457472367393 
1412	 0.348325416368725 
1413	 0.347292679147585 
1414	 0.346371253467549 
1415	 0.345490287737998 
1416	 0.344698204469843 
1417	 0.343969098955438 
1418	 0.343233423063632 
1419	 0.342546597644862 
1420	 0.341870813949861 
1421	 0.34118945928399 
1422	 0.340523428262928 
1423	 0.339873059561324 
1424	 0.339251163613689 
1425	 0.338641748081927 
1426	 0.338074643197748 
1427	 0.337538489506327 
1428	 0.337028641375638 
1429	 0.33655944988003 
1430	 0.336098251383738 
1431	 0.335661392102709 
1432	 0.335231165176199 
1433	 0.334805050130478 
1434	 0.334410482052282 
1435	 0.334033936251093 
1436	 0.333684494496332 
1437	 0.333371654684571 
1438	 0.333058242272898 
1439	 0.332755353740081 
1440	 0.332475696263566 
1441	 0.332194059463128 
1442	 0.3319220791796 
1443	 0.331664153564054 
1444	 0.331401685657434 
1445	 0.331145990426116 
1446	 0.330903491242531 
1447	 0.330661668182126 
1448	 0.330429901505863 
1449	 0.330197870215578 
1450	 0.329959855748488 
1451	 0.32974762532096 
1452	 0.329552230924837 
1453	 0.329350172437494 
1454	 0.329162725516381 
1455	 0.328972786492477 
1456	 0.328775196831079 
1457	 0.328585200396702 
1458	 0.328407976802617 
1459	 0.328223352963227 
1460	 0.328030828897032 
1461	 0.327846380964459 
1462	 0.327668294986886 
1463	 0.327485199419754 
1464	 0.327294671067562 
1465	 0.327122885882774 
1466	 0.326947144371737 
1467	 0.326791810385116 
1468	 0.326634998847927 
1469	 0.326525352128544 
1470	 0.326449532596813 
1471	 0.326387532440754 
1472	 0.326352349173174 
1473	 0.326348732745892 
1474	 0.326323402261102 
1475	 0.326318748859411 
1476	 0.326351104091939 
1477	 0.326389642316657 
1478	 0.326437038373626 
1479	 0.32650460744519 
1480	 0.326581748456709 
1481	 0.326665614825521 
1482	 0.326774523530957 
1483	 0.326911773497383 
1484	 0.327047648390958 
1485	 0.327201167974088 
1486	 0.327348775224964 
1487	 0.327501694972102 
1488	 0.327654395822487 
1489	 0.327814162781754 
1490	 0.327960338081006 
1491	 0.328102844899393 
1492	 0.328243507530939 
1493	 0.328363668092254 
1494	 0.328508818586116 
1495	 0.328672382180071 
1496	 0.328819725326513 
1497	 0.328979582763884 
1498	 0.329124774578454 
1499	 0.329248272955456 
1500	 0.329382752392086 
1501	 0.329516681665747 
1502	 0.329647921461955 
1503	 0.329780098758488 
1504	 0.329914132615132 
1505	 0.330039504246246 
1506	 0.33016024829879 
1507	 0.330269486218192 
1508	 0.330378045960589 
1509	 0.330481884701005 
1510	 0.330573306551459 
1511	 0.330664852497577 
1512	 0.330747791948222 
1513	 0.330828609456579 
1514	 0.330930000650991 
1515	 0.331029994008485 
1516	 0.33112640323969 
1517	 0.331226893723375 
1518	 0.331332215150456 
1519	 0.331426506043279 
1520	 0.33153593413277 
1521	 0.331598847279636 
1522	 0.331628775282624 
1523	 0.331669069992548 
1524	 0.331680369669511 
1525	 0.331706300469491 
1526	 0.331742188436704 
1527	 0.331783946935518 
1528	 0.331824404572786 
1529	 0.331868516592293 
1530	 0.331926702571051 
1531	 0.331972027219198 
1532	 0.332010517701807 
1533	 0.332049723397565 
1534	 0.332092067271627 
1535	 0.332125328990383 
1536	 0.332150621190666 
1537	 0.332172503033456 
1538	 0.332186318774563 
1539	 0.332203373806352 
1540	 0.332218961818745 
1541	 0.332236922076364 
1542	 0.332257608540653 
1543	 0.332272753058188 
1544	 0.332293472496919 
1545	 0.332300007836565 
1546	 0.332293679530194 
1547	 0.332289002216864 
1548	 0.332280099676917 
1549	 0.332263309074391 
1550	 0.332252303551814 
1551	 0.332239428227581 
1552	 0.332209670112423 
1553	 0.33219654858618 
1554	 0.332204874026128 
1555	 0.33219472111949 
1556	 0.332189580401571 
1557	 0.332183810461941 
1558	 0.332152245679241 
1559	 0.332116432975779 
1560	 0.332078169110756 
1561	 0.332027380046869 
1562	 0.332006544348846 
1563	 0.331991364572165 
1564	 0.331979440948403 
1565	 0.332000357040047 
1566	 0.331985073169086 
1567	 0.331952013143464 
1568	 0.331919598842666 
1569	 0.331873177855868 
1570	 0.331836532151574 
1571	 0.331802889250444 
1572	 0.331757235850403 
1573	 0.331712123480765 
1574	 0.33166254648948 
1575	 0.33160116894348 
1576	 0.331542201921884 
1577	 0.331481080763042 
1578	 0.331422059799598 
1579	 0.331354192688781 
1580	 0.331302131844895 
1581	 0.331250966470426 
1582	 0.331223399077338 
1583	 0.331230705669494 
1584	 0.331205082244651 
1585	 0.331192093054069 
1586	 0.331155027201858 
1587	 0.331076953033095 
1588	 0.33101545103657 
1589	 0.330963104794036 
1590	 0.330891545178129 
1591	 0.330804077720985 
1592	 0.330730146387863 
1593	 0.330646754649124 
1594	 0.330570356353046 
1595	 0.330512115214308 
1596	 0.33044254487995 
1597	 0.330359299199364 
1598	 0.330290213791394 
1599	 0.330230323848401 
1600	 0.330165521367438 
1601	 0.330103487608305 
1602	 0.330045963156625 
1603	 0.329995817134399 
1604	 0.329930037538035 
1605	 0.329852798668267 
1606	 0.329786574606011 
1607	 0.329716937540699 
1608	 0.329644044717669 
1609	 0.329585123600492 
1610	 0.329524709676979 
1611	 0.329438032881935 
1612	 0.32935134502894 
1613	 0.329275964274655 
1614	 0.329212106809113 
1615	 0.329144269464493 
1616	 0.329074019267945 
1617	 0.328998854946236 
1618	 0.328905117158418 
1619	 0.328817790912774 
1620	 0.328742176954236 
1621	 0.328662151655607 
1622	 0.328589163847026 
1623	 0.328491668145554 
1624	 0.328383681065623 
1625	 0.32827938963586 
1626	 0.328158436938649 
1627	 0.328051538867762 
1628	 0.327952904459107 
1629	 0.327856736512598 
1630	 0.32775359084865 
1631	 0.327677773246259 
1632	 0.327625781949224 
1633	 0.327554890645438 
1634	 0.327500848896966 
1635	 0.327411371579495 
1636	 0.32730230633269 
1637	 0.327183806365037 
1638	 0.32703548962068 
1639	 0.326918409981312 
1640	 0.32679509741167 
1641	 0.326697446938336 
1642	 0.326633581315951 
1643	 0.326544198106879 
1644	 0.326461133797598 
1645	 0.326357955395832 
1646	 0.326235134663621 
1647	 0.326121864174188 
1648	 0.326006328926694 
1649	 0.32588473942677 
1650	 0.32576201277951 
1651	 0.32563656841525 
1652	 0.325501403756384 
1653	 0.325370855924188 
1654	 0.325244276558893 
1655	 0.325113500383776 
1656	 0.324988642746336 
1657	 0.324839819874044 
1658	 0.32467241641178 
1659	 0.324519145594798 
1660	 0.324352980683904 
1661	 0.324197791045206 
1662	 0.324061904210988 
1663	 0.323911011098742 
1664	 0.323742342016835 
1665	 0.323596893248735 
1666	 0.323447988719378 
1667	 0.323330836856332 
1668	 0.323260606801102 
1669	 0.323143092753502 
1670	 0.323038056077865 
1671	 0.322892763870245 
1672	 0.322682146277441 
1673	 0.322523858996653 
1674	 0.322379400072465 
1675	 0.322224627304092 
1676	 0.32208621834364 
1677	 0.321937970317679 
1678	 0.321766236408287 
1679	 0.32161786711787 
1680	 0.3214884565492 
1681	 0.321351058173931 
1682	 0.321207250811131 
1683	 0.321083424702119 
1684	 0.320979145659 
1685	 0.320851290600239 
1686	 0.320737994566764 
1687	 0.320595077664867 
1688	 0.320412396605456 
1689	 0.320252298485397 
1690	 0.320088978234371 
1691	 0.319931661502247 
1692	 0.319773792864589 
1693	 0.31963558963225 
1694	 0.319518614509954 
1695	 0.319382608871753 
1696	 0.319250491064941 
1697	 0.319118417250914 
1698	 0.318980382354936 
1699	 0.318827464075841 
1700	 0.3186796832514 
1701	 0.318518345614911 
1702	 0.318323681425006 
1703	 0.318153336853169 
1704	 0.318001795588761 
1705	 0.317828667915163 
1706	 0.317643291963086 
1707	 0.317471682449423 
1708	 0.317288570791716 
1709	 0.317128296103154 
1710	 0.316994770024051 
1711	 0.316845219095847 
1712	 0.316697405054983 
1713	 0.316545527198754 
1714	 0.316384578502649 
1715	 0.316232506086295 
1716	 0.316087935887335 
1717	 0.31593626818565 
1718	 0.315779094988895 
1719	 0.315634064106451 
1720	 0.315487134580205 
1721	 0.315347466374894 
1722	 0.315228094473154 
1723	 0.315091999635903 
1724	 0.314959742637329 
1725	 0.314804121580467 
1726	 0.314627763067539 
1727	 0.314454053980741 
1728	 0.314256546805611 
1729	 0.314090409344509 
1730	 0.313948034360289 
1731	 0.313779650474595 
1732	 0.313618761132834 
1733	 0.313441048553649 
1734	 0.313241710780312 
1735	 0.31304110281546 
1736	 0.312816784904698 
1737	 0.312643316139333 
1738	 0.312480363462714 
1739	 0.312332219938469 
1740	 0.31223155957263 
1741	 0.312106215415047 
1742	 0.311965859803793 
1743	 0.311842022141569 
1744	 0.311742670322199 
1745	 0.311590534917586 
1746	 0.311426502326733 
1747	 0.31120524896615 
1748	 0.310997189262399 
1749	 0.310839426897593 
1750	 0.310705477000529 
1751	 0.31059538996453 
1752	 0.310481739374633 
1753	 0.310338160064603 
1754	 0.310158473780993 
1755	 0.30997789919252 
1756	 0.309821385249874 
1757	 0.309658955266529 
1758	 0.309507980859092 
1759	 0.309367172391961 
1760	 0.309243810800898 
1761	 0.3091589048812 
1762	 0.309059278157088 
1763	 0.308969521622233 
1764	 0.308845590783769 
1765	 0.308665811350347 
1766	 0.308492316417644 
1767	 0.308305838222911 
1768	 0.308131255976862 
1769	 0.307977099111058 
1770	 0.307852561612503 
1771	 0.307741232783276 
1772	 0.30761371000633 
1773	 0.307483855150281 
1774	 0.307331214793799 
1775	 0.307182502703811 
1776	 0.307051710023813 
1777	 0.306922112621619 
1778	 0.306806723464443 
1779	 0.306690122006758 
1780	 0.30659413859554 
1781	 0.306525972417363 
1782	 0.3064440486354 
1783	 0.30633720172304 
1784	 0.306224822096761 
1785	 0.306089418511522 
1786	 0.30597215626821 
1787	 0.305860669682286 
1788	 0.305749041300122 
1789	 0.305635988204697 
1790	 0.305542697904918 
1791	 0.305463858276056 
1792	 0.305375664903934 
1793	 0.30529175041694 
1794	 0.305218551341101 
1795	 0.305146228478927 
1796	 0.305076073274314 
1797	 0.305026823626476 
1798	 0.304961414008968 
1799	 0.304880063712774 
1800	 0.304800216917012 
1801	 0.309380383972546 
1802	 0.309360220081959 
1803	 0.30932896460894 
1804	 0.309314906878433 
1805	 0.309306476761375 
1806	 0.309320717861893 
1807	 0.309327315734195 
1808	 0.309324190703264 
1809	 0.309348496840998 
1810	 0.309309764820843 
1811	 0.309210982332734 
1812	 0.309163348481386 
1813	 0.309086016496771 
1814	 0.308992433621602 
1815	 0.30895878866275 
1816	 0.308886418522787 
1817	 0.308824673374347 
1818	 0.308766201925971 
1819	 0.308717093790809 
1820	 0.30866010478764 
1821	 0.308632214670958 
1822	 0.308613175754956 
1823	 0.308574232813785 
1824	 0.308552189076444 
1825	 0.308507327071323 
1826	 0.308439074432036 
1827	 0.308389175169653 
1828	 0.308311976526201 
1829	 0.308202380842293 
1830	 0.308105795753677 
1831	 0.308003851330711 
1832	 0.307901128795139 
1833	 0.307799732083035 
1834	 0.307697447795994 
1835	 0.307603054190294 
1836	 0.307482344555365 
1837	 0.307364846917052 
1838	 0.307278145403375 
1839	 0.307180036621223 
1840	 0.307085084154739 
1841	 0.306979987265117 
1842	 0.306890158424903 
1843	 0.306786918120738 
1844	 0.306646576338429 
1845	 0.306524174606657 
1846	 0.306388380167466 
1847	 0.306244755296637 
1848	 0.306118832321113 
1849	 0.305988333016811 
1850	 0.305842565305389 
1851	 0.30569948727063 
1852	 0.305503306787903 
1853	 0.30529679074257 
1854	 0.305081087279427 
1855	 0.304832604174892 
1856	 0.304605187152769 
1857	 0.304345656100313 
1858	 0.304060074114003 
1859	 0.303779871216622 
1860	 0.303464434103173 
1861	 0.303119073123913 
1862	 0.302756722527248 
1863	 0.302375340253188 
1864	 0.301954049176547 
1865	 0.301502003350786 
1866	 0.30101505989724 
1867	 0.300502523591272 
1868	 0.29996685588055 
1869	 0.299377601609086 
1870	 0.298766391258275 
1871	 0.298130342383967 
1872	 0.297472657085798 
1873	 0.296772390671207 
1874	 0.296050048525893 
1875	 0.29526528946938 
1876	 0.294435432869575 
1877	 0.293559292284129 
1878	 0.292600021235791 
1879	 0.2916171330217 
1880	 0.290533899908279 
1881	 0.289354500771688 
1882	 0.288118565279871 
1883	 0.286832035374245 
1884	 0.285409921661621 
1885	 0.283937531936957 
1886	 0.282394654414811 
1887	 0.280715851353463 
1888	 0.278968324002973 
1889	 0.277127762781987 
1890	 0.275229565821847 
1891	 0.273276985678932 
1892	 0.271259292372409 
1893	 0.269184005548677 
1894	 0.26706238572102 
1895	 0.264833684709063 
1896	 0.262557102344819 
1897	 0.260252761514033 
1898	 0.2579035803555 
1899	 0.255570110140582 
1900	 0.253285034539679 
1901	 0.251045255742953 
1902	 0.248900265542016 
1903	 0.246849107012438 
1904	 0.244861598752543 
1905	 0.242938728762959 
1906	 0.241099516329268 
1907	 0.239350406351004 
1908	 0.237717416531041 
1909	 0.236225923843806 
1910	 0.234817731527846 
1911	 0.233487362499876 
1912	 0.232265537687975 
1913	 0.231100750019622 
1914	 0.230008453034549 
1915	 0.228983029883845 
1916	 0.228044162136062 
1917	 0.227139975225207 
1918	 0.226309413854113 
1919	 0.225508898132 
1920	 0.224768510060503 
1921	 0.224079468654292 
1922	 0.22342863772645 
1923	 0.222844410828106 
1924	 0.222315241130299 
1925	 0.22185290554016 
1926	 0.221436408384151 
1927	 0.221076374032483 
1928	 0.220753747100138 
1929	 0.22048685366601 
1930	 0.22024477752411 
1931	 0.22004906253501 
1932	 0.219902043079295 
1933	 0.219771327575232 
1934	 0.219658942764887 
1935	 0.219560005547764 
1936	 0.219447928190544 
1937	 0.21939954692488 
1938	 0.219397947872071 
1939	 0.219408397473877 
1940	 0.219446679783384 
1941	 0.219527535562023 
1942	 0.219624639680738 
1943	 0.219733291112702 
1944	 0.21987649615181 
1945	 0.220054069025442 
1946	 0.220222968453142 
1947	 0.220396275646506 
1948	 0.220580461447293 
1949	 0.220765273518404 
1950	 0.22096899099618 
1951	 0.221184890815361 
1952	 0.221421979504606 
1953	 0.221648784098664 
1954	 0.221911554427389 
1955	 0.222192248765781 
1956	 0.222471371977734 
1957	 0.22276309551626 
1958	 0.223094999118091 
1959	 0.2233851187773 
1960	 0.223657620679534 
1961	 0.223935410228415 
1962	 0.224192776981509 
1963	 0.224466963455426 
1964	 0.22473822866492 
1965	 0.225034035905843 
1966	 0.225344967252095 
1967	 0.225664271102404 
1968	 0.225982959811286 
1969	 0.226310472767022 
1970	 0.226644742537252 
1971	 0.226972720171561 
1972	 0.227319976503655 
1973	 0.227689315783387 
1974	 0.228064258048934 
1975	 0.228444081845545 
1976	 0.228836618216434 
1977	 0.229251100330525 
1978	 0.229651233347486 
1979	 0.230076179499599 
1980	 0.230494052023883 
1981	 0.230901492887305 
1982	 0.231289756869619 
1983	 0.231710372870223 
1984	 0.232132678901133 
1985	 0.232569960404285 
1986	 0.233048441278873 
1987	 0.233503192205771 
1988	 0.233960501945652 
1989	 0.234396204282389 
1990	 0.234815722750247 
1991	 0.235232516617017 
1992	 0.235667818062211 
1993	 0.23609402033851 
1994	 0.236541465525865 
1995	 0.237022067534848 
1996	 0.237479711748198 
1997	 0.237939446146342 
1998	 0.238391294543909 
1999	 0.238827586519417 
2000	 0.239281280934131 
2001	 0.239751025205707 
2002	 0.240190892866285 
2003	 0.240674104092526 
2004	 0.241123952940045 
2005	 0.241539854735802 
2006	 0.241928877084667 
2007	 0.242314490412021 
2008	 0.242633768979813 
2009	 0.243021009396878 
2010	 0.243437630739666 
2011	 0.243847522962192 
2012	 0.244304135837067 
2013	 0.244725210095299 
2014	 0.245122291735046 
2015	 0.245523909498654 
2016	 0.245909407100284 
2017	 0.246278263023604 
2018	 0.24667462665609 
2019	 0.24708074099645 
2020	 0.24748155082202 
2021	 0.247908766161889 
2022	 0.248302106801556 
2023	 0.248673659379699 
2024	 0.249051208384243 
2025	 0.249414789490015 
2026	 0.249782314759154 
2027	 0.25015054971835 
2028	 0.250518244695271 
2029	 0.250885852442343 
2030	 0.251261691826888 
2031	 0.251604044179962 
2032	 0.251925966615462 
2033	 0.252262791168834 
2034	 0.252578696084181 
2035	 0.252913234408289 
2036	 0.253282269293028 
2037	 0.25361923205465 
2038	 0.253939406976863 
2039	 0.254257635869567 
2040	 0.254568665204177 
2041	 0.254870417262901 
2042	 0.255152065470423 
2043	 0.255444573739194 
2044	 0.255751551387683 
2045	 0.256058736217178 
2046	 0.256371695965151 
2047	 0.256726263042232 
2048	 0.257029344246202 
2049	 0.257306670821431 
2050	 0.25758501594708 
2051	 0.257845614224094 
2052	 0.25809915739537 
2053	 0.258347891260039 
2054	 0.258587633303728 
2055	 0.258805106940606 
2056	 0.259019831330453 
2057	 0.259261759039701 
2058	 0.259514448306241 
2059	 0.259768197153735 
2060	 0.260044096393482 
2061	 0.260305834105494 
2062	 0.260564517950602 
2063	 0.260817455502337 
2064	 0.261076352338856 
2065	 0.261318743935617 
2066	 0.261541330864161 
2067	 0.261768805465057 
2068	 0.261985872263622 
2069	 0.262207114005849 
2070	 0.262438303686463 
2071	 0.262678035115924 
2072	 0.262911813578447 
2073	 0.263147283611033 
2074	 0.263389552189086 
2075	 0.263636609565142 
2076	 0.263875410843442 
2077	 0.264126207502143 
2078	 0.264357992981253 
2079	 0.264562077091276 
2080	 0.26478477294313 
2081	 0.265004617498664 
2082	 0.265234640021712 
2083	 0.265471810495286 
2084	 0.265727256746896 
2085	 0.265964351752531 
2086	 0.266205360658153 
2087	 0.266429891413099 
2088	 0.266641905070188 
2089	 0.266852394507731 
2090	 0.267058258713559 
2091	 0.267253388435272 
2092	 0.267429448490534 
2093	 0.267622837548091 
2094	 0.267803426729095 
2095	 0.268007571715241 
2096	 0.268238974412844 
2097	 0.268463262415505 
2098	 0.268699312610218 
2099	 0.268932780397622 
2100	 0.26915236561482 
2101	 0.269358966241047 
2102	 0.269581784327486 
2103	 0.269802612627754 
2104	 0.270022136821068 
2105	 0.270256889674074 
2106	 0.270474023336405 
2107	 0.2706699123586 
2108	 0.270884457214682 
2109	 0.271094157459384 
2110	 0.271320374940133 
2111	 0.271568824368486 
2112	 0.271806548231013 
2113	 0.272043034671504 
2114	 0.272294440848494 
2115	 0.272530957796376 
2116	 0.272751912497177 
2117	 0.272998757132109 
2118	 0.27325174948319 
2119	 0.273510229227381 
2120	 0.273801809199499 
2121	 0.274050873333119 
2122	 0.274281582289306 
2123	 0.274514971329619 
2124	 0.274727838033905 
2125	 0.274943024579068 
2126	 0.275182789542219 
2127	 0.275382488456575 
2128	 0.275549097363579 
2129	 0.27571873258933 
2130	 0.275868482224122 
2131	 0.276006104858726 
2132	 0.276161545196734 
2133	 0.276333604827159 
2134	 0.276479795063386 
2135	 0.276628306961404 
2136	 0.276752123072897 
2137	 0.276853584683948 
2138	 0.276947629836651 
2139	 0.277040859414884 
2140	 0.277101079697621 
2141	 0.277129620101535 
2142	 0.277160496748158 
2143	 0.277169609853799 
2144	 0.277173760707897 
2145	 0.277168977476534 
2146	 0.277168592170809 
2147	 0.277150578211149 
2148	 0.277148242517248 
2149	 0.2771414446868 
2150	 0.277152425076259 
2151	 0.277124811392662 
2152	 0.277080770729358 
2153	 0.277032585994964 
2154	 0.276974424447331 
2155	 0.276894014893911 
2156	 0.276803167734235 
2157	 0.276698248383852 
2158	 0.276563971768422 
2159	 0.27642774730549 
2160	 0.276292405153544 
2161	 0.276137328786326 
2162	 0.27594176323522 
2163	 0.275772755024745 
2164	 0.275607297652104 
2165	 0.275443607020043 
2166	 0.275280768566074 
2167	 0.275131568693691 
2168	 0.274978501460353 
2169	 0.274825648049307 
2170	 0.274659021210342 
2171	 0.274491135644578 
2172	 0.274324382469186 
2173	 0.274131931785488 
2174	 0.273967822604766 
2175	 0.273812666473149 
2176	 0.273679988182845 
2177	 0.273577782650428 
2178	 0.273458172200346 
2179	 0.273347367208451 
2180	 0.273239724090718 
2181	 0.273137158710738 
2182	 0.273015879786187 
2183	 0.272891521129663 
2184	 0.272768183376802 
2185	 0.272635243441342 
2186	 0.272468307247267 
2187	 0.272341896755434 
2188	 0.272241693834199 
2189	 0.272118851005992 
2190	 0.27199245629386 
2191	 0.27187731327338 
2192	 0.271755502118926 
2193	 0.271644069705021 
2194	 0.271552304944664 
2195	 0.271450994407219 
2196	 0.271333440903663 
2197	 0.271239485043137 
2198	 0.271159659685079 
2199	 0.271082792556741 
2200	 0.27103308610501 
2201	 0.270965325906312 
2202	 0.270891659888851 
2203	 0.270810576357376 
2204	 0.270730241692262 
2205	 0.270627346667185 
2206	 0.270569368375014 
2207	 0.270533873422118 
2208	 0.270487719786049 
2209	 0.27045897707202 
2210	 0.270433208080817 
2211	 0.270405953496205 
2212	 0.270376071070337 
2213	 0.270378890319388 
2214	 0.270335335448218 
2215	 0.270251000081724 
2216	 0.270183942725494 
2217	 0.270097709014645 
2218	 0.270025372296046 
2219	 0.269946741549725 
2220	 0.269900569645172 
2221	 0.269892884281336 
2222	 0.269861486619659 
2223	 0.269828515224239 
2224	 0.269796149532226 
2225	 0.269755968681868 
2226	 0.269676665429731 
2227	 0.26964209938666 
2228	 0.269632834900075 
2229	 0.269620983626967 
2230	 0.269633639666912 
2231	 0.269608770627343 
2232	 0.269571441238645 
2233	 0.269539376159079 
2234	 0.269489621987377 
2235	 0.269441201866409 
2236	 0.269409497391461 
2237	 0.269355036930953 
2238	 0.269251914173319 
2239	 0.269193008185987 
2240	 0.269147702063413 
2241	 0.269114067871761 
2242	 0.269112001294155 
2243	 0.26910624500727 
2244	 0.269111644746175 
2245	 0.269116320253747 
2246	 0.269077120656746 
2247	 0.269052937870824 
2248	 0.26900301855009 
2249	 0.268907495547711 
2250	 0.268853726766439 
2251	 0.268810286703052 
2252	 0.268767335823205 
2253	 0.268752669847423 
2254	 0.268697093630231 
2255	 0.268618829930861 
2256	 0.268558838667166 
2257	 0.268480063730298 
2258	 0.268414552997941 
2259	 0.268363788049426 
2260	 0.268312532724248 
2261	 0.26827479640125 
2262	 0.268213761743982 
2263	 0.26814198198072 
2264	 0.268078156662856 
2265	 0.267989232060832 
2266	 0.267921895529556 
2267	 0.267876820333699 
2268	 0.267835080802638 
2269	 0.26782851215672 
2270	 0.267772087986961 
2271	 0.267689166826297 
2272	 0.267627070017806 
2273	 0.267551968873851 
2274	 0.267437956647374 
2275	 0.267334873465764 
2276	 0.267238652437171 
2277	 0.267139000472694 
2278	 0.267014344813238 
2279	 0.26692770381998 
2280	 0.266873605295819 
2281	 0.266794102786751 
2282	 0.266716303381981 
2283	 0.266634451278655 
2284	 0.266534000577766 
2285	 0.266455543065441 
2286	 0.266385364840181 
2287	 0.266317107332339 
2288	 0.26628692981304 
2289	 0.266205371660326 
2290	 0.2661038941256 
2291	 0.265997824412737 
2292	 0.265843754373708 
2293	 0.265707585778892 
2294	 0.265586739446195 
2295	 0.265444459047058 
2296	 0.265268927320081 
2297	 0.265147220088535 
2298	 0.265003386378528 
2299	 0.26484814393527 
2300	 0.264705468308126 
2301	 0.264605972834929 
2302	 0.264530872825026 
2303	 0.264450215230763 
2304	 0.264391354279832 
2305	 0.264274588934959 
2306	 0.264145108214261 
2307	 0.263981861337531 
2308	 0.263807707737893 
2309	 0.263609350429852 
2310	 0.263420621669113 
2311	 0.263190899310147 
2312	 0.263018612234201 
2313	 0.262891211937312 
2314	 0.262725531715502 
2315	 0.262581690811038 
2316	 0.262398241015818 
2317	 0.262165629770389 
2318	 0.261959999312812 
2319	 0.261744563074801 
2320	 0.261553053967492 
2321	 0.26139430481426 
2322	 0.261191550721209 
2323	 0.260960914008343 
2324	 0.260771288403014 
2325	 0.260556132489771 
2326	 0.260393977179741 
2327	 0.260338590957659 
2328	 0.260180671590186 
2329	 0.25998689389791 
2330	 0.259859554965196 
2331	 0.259697458440957 
2332	 0.259517909050567 
2333	 0.259366751084023 
2334	 0.259167208505855 
2335	 0.258971578415823 
2336	 0.258785370888604 
2337	 0.25855621285978 
2338	 0.258382700301719 
2339	 0.258149015960958 
2340	 0.257874152214066 
2341	 0.257667249134424 
2342	 0.257394787401637 
2343	 0.257136701450936 
2344	 0.256931473576082 
2345	 0.25670235907308 
2346	 0.256496078730884 
2347	 0.256236346785146 
2348	 0.255949532398013 
2349	 0.255647103863732 
2350	 0.255297488755401 
2351	 0.254964812167161 
2352	 0.254626582433523 
2353	 0.254298797170482 
2354	 0.253996832401832 
2355	 0.253633050605832 
2356	 0.253243549477699 
2357	 0.252854381685077 
2358	 0.252374848903815 
2359	 0.25201066086779 
2360	 0.251750664158324 
2361	 0.251399635881559 
2362	 0.251048438142999 
2363	 0.250714919722507 
2364	 0.250314204851803 
2365	 0.249963054655043 
2366	 0.249718835696731 
2367	 0.249368949251105 
2368	 0.248959477678625 
2369	 0.248573435118754 
2370	 0.248152854267168 
2371	 0.247742836100131 
2372	 0.247353116180884 
2373	 0.246915675209526 
2374	 0.246511007121064 
2375	 0.246082850906073 
2376	 0.245668591628906 
2377	 0.245318096713622 
2378	 0.244970224689399 
2379	 0.244636522317546 
2380	 0.244275929814257 
2381	 0.243912847852173 
2382	 0.243531413984949 
2383	 0.243070797630802 
2384	 0.242560212791137 
2385	 0.242061011159748 
2386	 0.241547570926001 
2387	 0.241058677420388 
2388	 0.240719309661819 
2389	 0.240373269493659 
2390	 0.239973278771486 
2391	 0.239593288161428 
2392	 0.239172877752124 
2393	 0.238702617082946 
2394	 0.238238714508407 
2395	 0.237863641447913 
2396	 0.237526538558097 
2397	 0.237183331037223 
2398	 0.236802193943546 
2399	 0.236331807302529 
2400	 0.235858427855954 
2401	 0.2354006002594 
2402	 0.234953968664595 
2403	 0.234617462281764 
2404	 0.234275929504434 
2405	 0.233871063649759 
2406	 0.233476916554508 
2407	 0.233071596961684 
2408	 0.232658931882505 
2409	 0.232244630480459 
2410	 0.231932640495786 
2411	 0.231593850919263 
2412	 0.231134178624919 
2413	 0.230705127780838 
2414	 0.230253528463282 
2415	 0.229809716389713 
2416	 0.229394995853447 
2417	 0.229039726951245 
2418	 0.228646918701713 
2419	 0.228217262843868 
2420	 0.227832394839658 
2421	 0.227488072524976 
2422	 0.227174806073154 
2423	 0.226964263328342 
2424	 0.226604016599663 
2425	 0.226159117250081 
2426	 0.225732623600887 
2427	 0.225195158691441 
2428	 0.224743613917235 
2429	 0.22441668177862 
2430	 0.223965655996545 
2431	 0.223395092186114 
2432	 0.222993604507185 
2433	 0.222663557325387 
2434	 0.222224180030983 
2435	 0.221798709487337 
2436	 0.221431022221517 
2437	 0.221030896972312 
2438	 0.22064699461053 
2439	 0.220381678006694 
2440	 0.220005501598444 
2441	 0.219448018031056 
2442	 0.219040337291832 
2443	 0.218816795098003 
2444	 0.218396257175342 
2445	 0.217840336978939 
2446	 0.217433735910145 
2447	 0.216985786639348 
2448	 0.216568899444896 
2449	 0.216342835019451 
2450	 0.216020728127737 
2451	 0.215540982290359 
2452	 0.215151997513355 
2453	 0.214861729103856 
2454	 0.214468252912479 
2455	 0.214056515856218 
2456	 0.213698300119525 
2457	 0.213250365659179 
2458	 0.212896780281535 
2459	 0.212695646572876 
2460	 0.212343159143222 
2461	 0.211976919890137 
2462	 0.21159980818658 
2463	 0.211062713446507 
2464	 0.210650808714885 
2465	 0.210270964172993 
2466	 0.209959313465931 
2467	 0.209834547770195 
2468	 0.209535864758447 
2469	 0.20916888864517 
2470	 0.208669626394664 
2471	 0.208183199103851 
2472	 0.207535647664655 
2473	 0.207206161599846 
2474	 0.206857306695122 
2475	 0.206360438312703 
2476	 0.206142411920052 
2477	 0.205727779651641 
2478	 0.205304015012966 
2479	 0.205141032323554 
2480	 0.20467106280265 
2481	 0.204134066380867 
2482	 0.203851546162287 
2483	 0.203485840311842 
2484	 0.203083437481823 
2485	 0.202820160378491 
2486	 0.202607361304744 
2487	 0.202330465034174 
2488	 0.202236462450573 
2489	 0.202258845756231 
2490	 0.20205418067719 
2491	 0.20170437780858 
2492	 0.201147315708561 
2493	 0.200686432012498 
2494	 0.200475454903193 
2495	 0.20035291252981 
2496	 0.200431666107437 
2497	 0.200351712446344 
2498	 0.200207680404962 
2499	 0.199925175000218 
2500	 0.199544789074344 
