Wavelength	lmw-9-200001.asd
350	 5.73347162652601E-02 
351	 0.061554896016495 
352	 6.01255003618838E-02 
353	 5.45362644946393E-02 
354	 4.74283962027892E-02 
355	 0.049533316610858 
356	 5.42008391494121E-02 
357	 5.39586654573808E-02 
358	 5.74099865741093E-02 
359	 5.52720052446436E-02 
360	 4.91600610627526E-02 
361	 4.75867138672264E-02 
362	 5.07262097795528E-02 
363	 5.04868344529113E-02 
364	 4.55388023244359E-02 
365	 4.60127252231287E-02 
366	 0.050509965463556 
367	 5.31202721236447E-02 
368	 4.97644671902971E-02 
369	 4.77548312102903E-02 
370	 4.88847978617051E-02 
371	 5.14983774837037E-02 
372	 5.18661780134407E-02 
373	 5.03313138473756E-02 
374	 4.91368585191964E-02 
375	 4.93081837857216E-02 
376	 4.95516531519878E-02 
377	 4.74938514177978E-02 
378	 4.63518538906516E-02 
379	 4.92365073720522E-02 
380	 5.15414282598052E-02 
381	 5.11385476592115E-02 
382	 4.99851059045492E-02 
383	 5.23433656484715E-02 
384	 5.16345764898788E-02 
385	 5.14136321003803E-02 
386	 5.33517923466667E-02 
387	 5.27501921596154E-02 
388	 5.25004728243305E-02 
389	 5.16343965861807E-02 
390	 4.91147941406369E-02 
391	 0.048948338679621 
392	 5.08092693425322E-02 
393	 5.27360316617776E-02 
394	 5.19478345679129E-02 
395	 5.21867632727335E-02 
396	 5.23173537301959E-02 
397	 5.18401525993462E-02 
398	 5.34482082435775E-02 
399	 5.52020444942936E-02 
400	 5.61091908069698E-02 
401	 0.055784095082953 
402	 5.48383999909369E-02 
403	 5.45553217364692E-02 
404	 0.055057338103858 
405	 5.53225693996482E-02 
406	 5.59585005993405E-02 
407	 5.70990555794953E-02 
408	 5.80257365536184E-02 
409	 5.57083042422299E-02 
410	 5.51156255644812E-02 
411	 0.056402462984698 
412	 5.73908809594477E-02 
413	 5.74879019500777E-02 
414	 5.69028356980614E-02 
415	 5.63336736638841E-02 
416	 5.69435141668833E-02 
417	 5.72915471031596E-02 
418	 5.75924336005518E-02 
419	 5.81432319663311E-02 
420	 5.80922056856229E-02 
421	 5.77878182910749E-02 
422	 5.77218565496158E-02 
423	 5.82930415280954E-02 
424	 5.80068042121835E-02 
425	 5.75235012893085E-02 
426	 5.74238402576408E-02 
427	 5.76766270069325E-02 
428	 0.057751438086859 
429	 5.75514673345623E-02 
430	 5.72540109473571E-02 
431	 5.75350421108586E-02 
432	 5.76890108138711E-02 
433	 5.76726622218921E-02 
434	 5.81076930292435E-02 
435	 5.85616463366746E-02 
436	 5.91514971982197E-02 
437	 5.98127841378574E-02 
438	 5.96295118244269E-02 
439	 5.99631911439441E-02 
440	 0.060692618260209 
441	 6.10279653010422E-02 
442	 6.13619435307136E-02 
443	 6.19315196693446E-02 
444	 6.26641730888038E-02 
445	 6.30683818790484E-02 
446	 6.31697371189729E-02 
447	 6.33139716460205E-02 
448	 6.37673318299507E-02 
449	 6.39970996348984E-02 
450	 6.44069688260275E-02 
451	 6.49245481793057E-02 
452	 6.50897880078891E-02 
453	 6.53186646765802E-02 
454	 0.065600831801845 
455	 6.58856390667476E-02 
456	 6.62394575414451E-02 
457	 6.63917744196927E-02 
458	 6.64526019587218E-02 
459	 6.66785252193273E-02 
460	 6.69952017112849E-02 
461	 6.70512158152707E-02 
462	 6.68906469842305E-02 
463	 0.067135295743085 
464	 0.067216643479107 
465	 6.73353623175238E-02 
466	 6.77278121075374E-02 
467	 6.79062761555829E-02 
468	 6.81737912034024E-02 
469	 6.84309513536689E-02 
470	 6.82895483953059E-02 
471	 6.83301114859673E-02 
472	 6.84755267955193E-02 
473	 6.85706728429597E-02 
474	 6.85320489510788E-02 
475	 6.86521238241534E-02 
476	 6.88424914280388E-02 
477	 0.068890911617564 
478	 6.90580057887042E-02 
479	 6.91595150356078E-02 
480	 0.069126677704071 
481	 6.90891854133194E-02 
482	 6.94109412775704E-02 
483	 6.97187173723216E-02 
484	 6.96410392716366E-02 
485	 6.97229510310184E-02 
486	 6.97216904102813E-02 
487	 6.95930822899912E-02 
488	 6.94834034590316E-02 
489	 6.96517659447568E-02 
490	 6.97928685721695E-02 
491	 6.97141390190946E-02 
492	 6.97621731483975E-02 
493	 6.96503028763979E-02 
494	 0.069476659363867 
495	 6.95043561657805E-02 
496	 6.98105285803763E-02 
497	 6.98624330085217E-02 
498	 6.95927421610985E-02 
499	 0.069701243350793 
500	 6.96323579972126E-02 
501	 6.94975232667949E-02 
502	 6.95425338947945E-02 
503	 6.97503294217947E-02 
504	 6.97842105237618E-02 
505	 6.96228041139562E-02 
506	 6.95375324748601E-02 
507	 6.95901687828332E-02 
508	 6.96378203080557E-02 
509	 6.95773287555457E-02 
510	 6.95365766185551E-02 
511	 6.94145072935567E-02 
512	 6.93430854115609E-02 
513	 6.95179154279297E-02 
514	 6.95354198862942E-02 
515	 6.94850812320512E-02 
516	 6.94522708937763E-02 
517	 0.069418686127281 
518	 6.93007421455108E-02 
519	 6.91858557680998E-02 
520	 6.91882888760029E-02 
521	 6.92551457588692E-02 
522	 6.92378985823366E-02 
523	 6.91463620372407E-02 
524	 6.91557670594522E-02 
525	 6.91640953713554E-02 
526	 6.91683014051532E-02 
527	 6.91715983748906E-02 
528	 6.91250096224812E-02 
529	 6.90964303015637E-02 
530	 0.069118897195131 
531	 6.91854915902282E-02 
532	 6.91017703814639E-02 
533	 6.90976484810991E-02 
534	 6.92633310981063E-02 
535	 6.92839324735298E-02 
536	 6.92177386133628E-02 
537	 6.92096026332682E-02 
538	 6.93825970656329E-02 
539	 6.94160785283295E-02 
540	 6.93766753135498E-02 
541	 6.93662950282188E-02 
542	 6.94920571875149E-02 
543	 6.95079300161017E-02 
544	 6.95088889956798E-02 
545	 0.069605643930653 
546	 6.95603288300724E-02 
547	 6.95661851756955E-02 
548	 6.96551629312006E-02 
549	 6.97167182306709E-02 
550	 6.98103125176924E-02 
551	 6.99111691507977E-02 
552	 6.99991228261556E-02 
553	 7.01059525108624E-02 
554	 7.01886238012841E-02 
555	 7.02626097953544E-02 
556	 7.03709877462675E-02 
557	 7.05005158031611E-02 
558	 7.06371195333959E-02 
559	 7.07796589600321E-02 
560	 7.09480644196325E-02 
561	 7.11633216803458E-02 
562	 0.071399141524236 
563	 7.16109307997376E-02 
564	 7.17595777125803E-02 
565	 7.19243972147138E-02 
566	 7.21225252700996E-02 
567	 7.22959736662112E-02 
568	 7.26720539194822E-02 
569	 7.30691017159909E-02 
570	 7.33169608280325E-02 
571	 7.36220386290025E-02 
572	 7.39781151841191E-02 
573	 7.43677544326087E-02 
574	 7.47594526241564E-02 
575	 7.50621470152524E-02 
576	 7.54076985062103E-02 
577	 7.58706819472613E-02 
578	 7.63239467095057E-02 
579	 7.68024612787449E-02 
580	 7.73596344823582E-02 
581	 7.80315154069691E-02 
582	 0.078660449928563 
583	 7.92439221037829E-02 
584	 7.97909026641991E-02 
585	 0.0803056983202 
586	 8.08231984455853E-02 
587	 8.13617755787102E-02 
588	 0.081939508266684 
589	 8.26115085137632E-02 
590	 8.32741683361333E-02 
591	 8.38963188680125E-02 
592	 8.45189149505017E-02 
593	 8.50924449154716E-02 
594	 8.56824139700211E-02 
595	 8.63323923845481E-02 
596	 8.69658607598445E-02 
597	 8.76757069444919E-02 
598	 8.84173064892935E-02 
599	 8.90868732896525E-02 
600	 0.089756260249503 
601	 9.04269657553933E-02 
602	 9.10862093030631E-02 
603	 9.17138556930061E-02 
604	 9.23153507900134E-02 
605	 9.29057550367216E-02 
606	 0.093503599442567 
607	 9.41281361036038E-02 
608	 9.46812970572665E-02 
609	 9.51802542058985E-02 
610	 9.57772632599099E-02 
611	 9.63037650792304E-02 
612	 9.68021743620276E-02 
613	 9.73138427240969E-02 
614	 9.77012185560752E-02 
615	 9.80747315808577E-02 
616	 0.098470980930711 
617	 9.88704091455898E-02 
618	 9.92886604547168E-02 
619	 9.96599357814463E-02 
620	 9.99611300534407E-02 
621	 0.100280062951397 
622	 0.100591864659083 
623	 0.100884726254244 
624	 0.101156120476427 
625	 0.101438574833723 
626	 0.101747439889152 
627	 0.102046360448292 
628	 0.102232426433155 
629	 0.102500813374526 
630	 0.102769711691344 
631	 0.102935360690926 
632	 0.103114745228488 
633	 0.103325848037401 
634	 0.103567083350883 
635	 0.103817995144955 
636	 0.104022346381716 
637	 0.104193378951031 
638	 0.104367615803578 
639	 0.104606321019548 
640	 0.104864059228101 
641	 0.105066850078043 
642	 0.105162606262437 
643	 0.105369321133409 
644	 0.105594093180966 
645	 0.105786673509896 
646	 0.106004196159232 
647	 0.106184236821877 
648	 0.10636883762801 
649	 0.106604751240953 
650	 0.106825181939711 
651	 0.107048259711523 
652	 0.107266082132494 
653	 0.107452406166276 
654	 0.107696533044154 
655	 0.107918013607857 
656	 0.108087343920364 
657	 0.108388913878857 
658	 0.108649168776806 
659	 0.108847411773871 
660	 0.109039408747898 
661	 0.109252943542791 
662	 0.109524382595688 
663	 0.109828488747584 
664	 0.1100511543268 
665	 0.110339630183687 
666	 0.110643230952532 
667	 0.110886268736932 
668	 0.111129896493943 
669	 0.111438974062266 
670	 0.111782372173147 
671	 0.112055819712029 
672	 0.112329466625069 
673	 0.112653871905563 
674	 0.113030802081701 
675	 0.113360358655851 
676	 0.113658835579103 
677	 0.113957054640624 
678	 0.114284905072645 
679	 0.11457994231154 
680	 0.114940802407063 
681	 0.115377625396082 
682	 0.115770821735438 
683	 0.116133578984559 
684	 0.116498491222691 
685	 0.11689357663209 
686	 0.117304147144908 
687	 0.117702467485934 
688	 0.1180995941138 
689	 0.118529011209204 
690	 0.118939673283367 
691	 0.119357526155021 
692	 0.119799588351827 
693	 0.120247280808942 
694	 0.120659551080968 
695	 0.121085947908147 
696	 0.121580393714619 
697	 0.122014398416444 
698	 0.122469864067226 
699	 0.122960184682697 
700	 0.123416485876648 
701	 0.123910792363795 
702	 0.124419847457791 
703	 0.124914181772718 
704	 0.125408819282558 
705	 0.125872099590368 
706	 0.126330603852971 
707	 0.126832587169947 
708	 0.127336142577087 
709	 0.127830591666033 
710	 0.128321319744311 
711	 0.128833894138789 
712	 0.12932369535739 
713	 0.129792556737955 
714	 0.130262981863132 
715	 0.130784784389358 
716	 0.131253294826457 
717	 0.131667148829013 
718	 0.132101891408732 
719	 0.13255514384568 
720	 0.132991086158726 
721	 0.133396251929998 
722	 0.133812548132686 
723	 0.134231806659742 
724	 0.134632116427987 
725	 0.134993736880046 
726	 0.13533718756642 
727	 0.135661209909794 
728	 0.135967138763041 
729	 0.136260911851236 
730	 0.136579934529716 
731	 0.136883163242046 
732	 0.1371295021552 
733	 0.137301536104525 
734	 0.137528904258261 
735	 0.137748439550601 
736	 0.137848684607558 
737	 0.13796912430549 
738	 0.138097445172767 
739	 0.138206419026037 
740	 0.13826630144354 
741	 0.138300208827761 
742	 0.13831664770759 
743	 0.138315958542632 
744	 0.138288425782851 
745	 0.138202510935692 
746	 0.138110669599068 
747	 0.138077869133652 
748	 0.137954639855532 
749	 0.137790905638955 
750	 0.137623703604399 
751	 0.137451531810083 
752	 0.137285218514135 
753	 0.137082208070396 
754	 0.136820693291713 
755	 0.136573837919971 
756	 0.13631750993482 
757	 0.136035981340893 
758	 0.135723476739737 
759	 0.135413793524564 
760	 0.135101632541718 
761	 0.134774076535798 
762	 0.134414761060349 
763	 0.134069767885808 
764	 0.133706420745516 
765	 0.133302976477245 
766	 0.132923302420957 
767	 0.132543315344138 
768	 0.132156736393647 
769	 0.131764073592021 
770	 0.131350954469097 
771	 0.130945497732979 
772	 0.130538622072624 
773	 0.130075765479301 
774	 0.129648071499198 
775	 0.129250721820654 
776	 0.128851863783124 
777	 0.128407460375735 
778	 0.127982763728666 
779	 0.127571225843416 
780	 0.127139488115542 
781	 0.126715317448178 
782	 0.126303469084829 
783	 0.12588867865663 
784	 0.125441983653998 
785	 0.125035271645861 
786	 0.124677060176191 
787	 0.124335304474111 
788	 0.123911009859802 
789	 0.123518828028786 
790	 0.123129892421973 
791	 0.122691326656616 
792	 0.122319096999239 
793	 0.121969822853419 
794	 0.121619328719444 
795	 0.121266076258837 
796	 0.120873916914874 
797	 0.120518088569044 
798	 0.120218004562051 
799	 0.119861411964944 
800	 0.119510761670499 
801	 0.119176141536044 
802	 0.118852415854971 
803	 0.118534618252935 
804	 0.118241872399725 
805	 0.117969137907094 
806	 0.117694319640079 
807	 0.117395150145353 
808	 0.117100020215915 
809	 0.116820202828765 
810	 0.116536545141645 
811	 0.116277552921722 
812	 0.11602669401933 
813	 0.115772831418136 
814	 0.115547751346029 
815	 0.115344805863057 
816	 0.115119937181755 
817	 0.114839785760026 
818	 0.114602887831563 
819	 0.114438948659477 
820	 0.114288188317857 
821	 0.114038144499567 
822	 0.113854675688027 
823	 0.113663469232065 
824	 0.113438121997225 
825	 0.113288265679242 
826	 0.113129294296415 
827	 0.112968792367405 
828	 0.112828079123993 
829	 0.112692074426896 
830	 0.112537040903616 
831	 0.112388811188515 
832	 0.112285422374679 
833	 0.112177150326702 
834	 0.112086089973727 
835	 0.111990400881337 
836	 0.111836473271803 
837	 0.111777991023629 
838	 0.111702287364597 
839	 0.111564178793201 
840	 0.111508359069578 
841	 0.111384874133543 
842	 0.111284690071721 
843	 0.111287590548171 
844	 0.11122783302345 
845	 0.111179821372251 
846	 0.111130562929825 
847	 0.111054463222616 
848	 0.111092582067791 
849	 0.111095137016717 
850	 0.111028102725834 
851	 0.110974923255974 
852	 0.110982200029703 
853	 0.110979938170667 
854	 0.110946369348211 
855	 0.110954302245206 
856	 0.110990707121218 
857	 0.111028550587608 
858	 0.111055916772138 
859	 0.111110569862193 
860	 0.111180347419979 
861	 0.111231273549765 
862	 0.111236414271371 
863	 0.111225498690946 
864	 0.111276414971234 
865	 0.111384587614316 
866	 0.111487930104 
867	 0.111538330818257 
868	 0.111600902492509 
869	 0.111692309695007 
870	 0.111770423785554 
871	 0.111849391542445 
872	 0.111961271290628 
873	 0.112102751855608 
874	 0.112211537837345 
875	 0.112293299561902 
876	 0.112361917421927 
877	 0.112451195387227 
878	 0.112640402714853 
879	 0.11282361456895 
880	 0.112971654748203 
881	 0.113097463392032 
882	 0.113256765502938 
883	 0.113393594167592 
884	 0.113522932617182 
885	 0.113694056931765 
886	 0.11389605314348 
887	 0.114099845074091 
888	 0.114276040204413 
889	 0.114410371181001 
890	 0.11459741427649 
891	 0.114830004845471 
892	 0.115079016131041 
893	 0.115309388362417 
894	 0.115527525665188 
895	 0.115758577318006 
896	 0.116012155616308 
897	 0.116263368341423 
898	 0.116526708310371 
899	 0.116759759296645 
900	 0.1169496298655 
901	 0.1171922411726 
902	 0.117484890996456 
903	 0.117788663558274 
904	 0.118061732092635 
905	 0.118310301826812 
906	 0.11859881870185 
907	 0.118943663394909 
908	 0.119315699776393 
909	 0.11961532734847 
910	 0.119893356042148 
911	 0.120207309736842 
912	 0.120593255166842 
913	 0.120970113587002 
914	 0.121341204729763 
915	 0.121726603714608 
916	 0.122145423033354 
917	 0.1225287404418 
918	 0.122872682301014 
919	 0.123196154643619 
920	 0.123535816480148 
921	 0.123989388907305 
922	 0.124488254688492 
923	 0.124955701735475 
924	 0.125358599991993 
925	 0.125742951934049 
926	 0.126183589324479 
927	 0.126671961231024 
928	 0.127043711572269 
929	 0.127556916790006 
930	 0.128099683301238 
931	 0.128575750573677 
932	 0.129155320233232 
933	 0.129697157504852 
934	 0.130183172770624 
935	 0.130659474865483 
936	 0.131246014204972 
937	 0.131739666367855 
938	 0.132237178476762 
939	 0.132871539585661 
940	 0.133535719890044 
941	 0.134147488640779 
942	 0.134754035878992 
943	 0.135398008252801 
944	 0.13585658226376 
945	 0.136453557360186 
946	 0.137165319968869 
947	 0.137821729232611 
948	 0.138430097922863 
949	 0.139043648960639 
950	 0.139677812420069 
951	 0.140339242491602 
952	 0.141118814365713 
953	 0.141770898852303 
954	 0.142381742838177 
955	 0.143172299341672 
956	 0.143945869308001 
957	 0.144728302445188 
958	 0.145489814740372 
959	 0.146192030528294 
960	 0.146958030340897 
961	 0.147762139799676 
962	 0.148595296753495 
963	 0.149440095421334 
964	 0.150147689790718 
965	 0.150917826599297 
966	 0.151808763262143 
967	 0.15274230117103 
968	 0.15358961336134 
969	 0.154401180082307 
970	 0.155265461793644 
971	 0.156235136557612 
972	 0.15709014662777 
973	 0.158058330818071 
974	 0.15905304201236 
975	 0.15984970481679 
976	 0.160851742829924 
977	 0.161828660450767 
978	 0.16274817127416 
979	 0.163733710982147 
980	 0.164830661367104 
981	 0.165905015777793 
982	 0.166913525250524 
983	 0.167891175651577 
984	 0.168879148144549 
985	 0.169896230896654 
986	 0.170940951107764 
987	 0.171994329221682 
988	 0.173031684195435 
989	 0.174023883317094 
990	 0.175010424053632 
991	 0.176067539746766 
992	 0.177249047435706 
993	 0.17842967145348 
994	 0.179574019400155 
995	 0.180680901123859 
996	 0.181681717754103 
997	 0.182718274492671 
998	 0.183868863480881 
999	 0.185102014519479 
1000	 0.186145233133503 
1001	 0.192869768431108 
1002	 0.194012213130356 
1003	 0.195160444557046 
1004	 0.196288567340529 
1005	 0.197448843310366 
1006	 0.198591320866375 
1007	 0.199693319262927 
1008	 0.200815589360825 
1009	 0.201952071958553 
1010	 0.20308115860597 
1011	 0.20422506283324 
1012	 0.20533915384861 
1013	 0.206460317552908 
1014	 0.207567008143009 
1015	 0.208621875427366 
1016	 0.20971146627487 
1017	 0.210813433558734 
1018	 0.211903465790318 
1019	 0.21301974688961 
1020	 0.214177966789687 
1021	 0.215267685636483 
1022	 0.216313428102118 
1023	 0.217374608196205 
1024	 0.218402544182308 
1025	 0.219421703949735 
1026	 0.220450838960596 
1027	 0.221457286415751 
1028	 0.222478972335347 
1029	 0.223507580600184 
1030	 0.224517544731275 
1031	 0.225505534917011 
1032	 0.22649336949143 
1033	 0.22745473319458 
1034	 0.228375733553053 
1035	 0.229246787754469 
1036	 0.230155337239123 
1037	 0.231121801202923 
1038	 0.232047775897213 
1039	 0.233010861484099 
1040	 0.233981718025422 
1041	 0.234913405568284 
1042	 0.235918614680551 
1043	 0.236899909961887 
1044	 0.2378518933653 
1045	 0.238787400178062 
1046	 0.239731427735825 
1047	 0.240620663631409 
1048	 0.241569809593095 
1049	 0.242553135571623 
1050	 0.243512783953039 
1051	 0.244510101864564 
1052	 0.245453932472007 
1053	 0.246379265861125 
1054	 0.247328017827423 
1055	 0.24830713203224 
1056	 0.249336132196319 
1057	 0.250325887620855 
1058	 0.251339166959915 
1059	 0.252336995210304 
1060	 0.253312774102486 
1061	 0.254222065642753 
1062	 0.255209502867065 
1063	 0.256213261112818 
1064	 0.25720621874769 
1065	 0.258239189570755 
1066	 0.259245698353465 
1067	 0.260241648532022 
1068	 0.261234244909046 
1069	 0.262239982807944 
1070	 0.263291068579682 
1071	 0.264405535437572 
1072	 0.265474143600308 
1073	 0.26657071322449 
1074	 0.267625552860125 
1075	 0.268656227411435 
1076	 0.269626148024377 
1077	 0.270603315161975 
1078	 0.271568583632518 
1079	 0.27256477619386 
1080	 0.273611318403989 
1081	 0.274638807188463 
1082	 0.275694947965121 
1083	 0.276731292145544 
1084	 0.277702346202827 
1085	 0.278764086561115 
1086	 0.279914637876102 
1087	 0.2809544856386 
1088	 0.281967090758481 
1089	 0.283013314779156 
1090	 0.283966449077078 
1091	 0.28492342318485 
1092	 0.285958561674069 
1093	 0.286982052655389 
1094	 0.288020190563911 
1095	 0.289070120632831 
1096	 0.29012263743694 
1097	 0.291174786164784 
1098	 0.292198521755462 
1099	 0.293211320024418 
1100	 0.29421120817004 
1101	 0.295158097326723 
1102	 0.296154104092648 
1103	 0.297187500513723 
1104	 0.298175347415487 
1105	 0.299164197765237 
1106	 0.300219658002647 
1107	 0.301195642106413 
1108	 0.302156762460635 
1109	 0.303126579953713 
1110	 0.304050839895621 
1111	 0.305011167183752 
1112	 0.305978871871792 
1113	 0.306950371092719 
1114	 0.307933425483939 
1115	 0.308916662092888 
1116	 0.309919090395293 
1117	 0.310897662548477 
1118	 0.311852528613544 
1119	 0.31284076307393 
1120	 0.313831437348431 
1121	 0.31477899409928 
1122	 0.315767112247317 
1123	 0.316745352019274 
1124	 0.317733941799323 
1125	 0.318729823495708 
1126	 0.319709838164419 
1127	 0.320694446441612 
1128	 0.321666897733909 
1129	 0.32262665341785 
1130	 0.323575235803054 
1131	 0.324517223802911 
1132	 0.325458307850032 
1133	 0.326370022495433 
1134	 0.327302015464927 
1135	 0.328255467396216 
1136	 0.329197321313543 
1137	 0.330125257407268 
1138	 0.331035028927814 
1139	 0.33193841162523 
1140	 0.332826262787945 
1141	 0.333704680696865 
1142	 0.334600478102718 
1143	 0.335436496321478 
1144	 0.336223956269425 
1145	 0.337012892360002 
1146	 0.337773501317886 
1147	 0.338528999241951 
1148	 0.339267880458137 
1149	 0.340021341290878 
1150	 0.340760386637285 
1151	 0.341510025569456 
1152	 0.342279660765274 
1153	 0.343059253801937 
1154	 0.343855981592374 
1155	 0.344644571133917 
1156	 0.345496225083009 
1157	 0.346386784804084 
1158	 0.347286262585684 
1159	 0.348238456441525 
1160	 0.349172696419123 
1161	 0.350101466560945 
1162	 0.351049641678884 
1163	 0.352031939332723 
1164	 0.352981101004735 
1165	 0.353919259975627 
1166	 0.354873528854154 
1167	 0.355798053783253 
1168	 0.356720208577026 
1169	 0.357621441248562 
1170	 0.358519709554663 
1171	 0.359399169982115 
1172	 0.360258079311801 
1173	 0.361105994291101 
1174	 0.361936209937843 
1175	 0.362775125727632 
1176	 0.36361547413218 
1177	 0.364434785167645 
1178	 0.365255638521782 
1179	 0.366062170876835 
1180	 0.366845864881352 
1181	 0.367620033348528 
1182	 0.368379043724012 
1183	 0.369153268209076 
1184	 0.369904259095942 
1185	 0.3706468913936 
1186	 0.371363043687786 
1187	 0.372063770706192 
1188	 0.37275610164971 
1189	 0.373415229581093 
1190	 0.374092436216919 
1191	 0.374782610907741 
1192	 0.375453935022398 
1193	 0.37613210024307 
1194	 0.376779820951051 
1195	 0.377411564209857 
1196	 0.378022849981599 
1197	 0.378594022610428 
1198	 0.379178216004396 
1199	 0.37975895603148 
1200	 0.38032631236852 
1201	 0.380905924899888 
1202	 0.381498130879105 
1203	 0.382075739834113 
1204	 0.382656810601115 
1205	 0.383217036752637 
1206	 0.383780854782154 
1207	 0.384306259967067 
1208	 0.384798378321199 
1209	 0.385292592883632 
1210	 0.385760208345989 
1211	 0.38623241322246 
1212	 0.386702107339744 
1213	 0.387171993869874 
1214	 0.387652717837387 
1215	 0.388108176250774 
1216	 0.388551915393874 
1217	 0.388993791920551 
1218	 0.389414149301629 
1219	 0.389803275919042 
1220	 0.390207206361678 
1221	 0.390611003814461 
1222	 0.391006779020282 
1223	 0.39140329190304 
1224	 0.391787526469036 
1225	 0.392173127054855 
1226	 0.392532752130449 
1227	 0.392871110738313 
1228	 0.393209170178069 
1229	 0.393516371663678 
1230	 0.393842393052637 
1231	 0.394192578345267 
1232	 0.394518936858694 
1233	 0.394837583414992 
1234	 0.395158793167135 
1235	 0.395461404054051 
1236	 0.395742906826565 
1237	 0.396026068784415 
1238	 0.396301081862795 
1239	 0.396579804336168 
1240	 0.396864686444336 
1241	 0.397123644140573 
1242	 0.397369082133231 
1243	 0.397617333732324 
1244	 0.397849670746329 
1245	 0.3980805566968 
1246	 0.3983152536491 
1247	 0.398547533296356 
1248	 0.398769499420853 
1249	 0.398990342312361 
1250	 0.399224971118279 
1251	 0.399441100670975 
1252	 0.399632658250153 
1253	 0.39980363150599 
1254	 0.399967690438558 
1255	 0.400105547982179 
1256	 0.40025381164775 
1257	 0.40040592581024 
1258	 0.400538770731475 
1259	 0.400648279863497 
1260	 0.400777991414046 
1261	 0.400902741829398 
1262	 0.401034424725114 
1263	 0.401194953438478 
1264	 0.401333227159728 
1265	 0.401458382609858 
1266	 0.401580718809003 
1267	 0.401696533804573 
1268	 0.401802401037071 
1269	 0.401914748675639 
1270	 0.402019926353652 
1271	 0.402142016680565 
1272	 0.402274106574232 
1273	 0.402402667717198 
1274	 0.402538503241385 
1275	 0.402674268212199 
1276	 0.402809521526447 
1277	 0.402941663523984 
1278	 0.403080584449733 
1279	 0.403209763366609 
1280	 0.403335442709304 
1281	 0.403452414744552 
1282	 0.403558995258041 
1283	 0.403668086528237 
1284	 0.403767809654739 
1285	 0.403864899065942 
1286	 0.403995050491994 
1287	 0.404119043850054 
1288	 0.40423443444174 
1289	 0.404358531237496 
1290	 0.404469228830044 
1291	 0.404553329633302 
1292	 0.404665077836022 
1293	 0.404807829091652 
1294	 0.40490449378638 
1295	 0.404983016945547 
1296	 0.40507074492899 
1297	 0.40514030682548 
1298	 0.405204257646989 
1299	 0.405278765528999 
1300	 0.40534237509555 
1301	 0.40538995495628 
1302	 0.405424709481686 
1303	 0.40544749888357 
1304	 0.405477240322459 
1305	 0.405506387702545 
1306	 0.405528416371495 
1307	 0.405535949101432 
1308	 0.405531335727012 
1309	 0.40550602380016 
1310	 0.405448073896784 
1311	 0.405378794095907 
1312	 0.405304933210984 
1313	 0.405205939166204 
1314	 0.405071323656322 
1315	 0.404940079437665 
1316	 0.404827101021605 
1317	 0.404655361957215 
1318	 0.404436900461965 
1319	 0.404229751152776 
1320	 0.403985817472527 
1321	 0.403748106046354 
1322	 0.403519838911337 
1323	 0.403295127078127 
1324	 0.403041379061582 
1325	 0.402760600479467 
1326	 0.402461907604212 
1327	 0.402128752861407 
1328	 0.401757686057147 
1329	 0.401401599420664 
1330	 0.401026095061567 
1331	 0.400639402724259 
1332	 0.40023562151344 
1333	 0.399810708587971 
1334	 0.399397425636399 
1335	 0.398975761220403 
1336	 0.398557365317653 
1337	 0.398157589315694 
1338	 0.397729424571572 
1339	 0.397276075931807 
1340	 0.396834434166433 
1341	 0.396382475766078 
1342	 0.395939900352243 
1343	 0.395491893623861 
1344	 0.39507357935789 
1345	 0.394665825668281 
1346	 0.394233621358943 
1347	 0.393842426528645 
1348	 0.393456203301097 
1349	 0.393015230721684 
1350	 0.392600343783756 
1351	 0.39220777148068 
1352	 0.391817520365062 
1353	 0.391424482337809 
1354	 0.391057843956587 
1355	 0.390685157887974 
1356	 0.39029146612697 
1357	 0.389914746392672 
1358	 0.38957330406419 
1359	 0.389201822768361 
1360	 0.388807910343625 
1361	 0.388425420366962 
1362	 0.388030564032818 
1363	 0.387656844289707 
1364	 0.387302464275058 
1365	 0.386939399027178 
1366	 0.386585656814297 
1367	 0.386230582933113 
1368	 0.385854437365961 
1369	 0.385495544611123 
1370	 0.385113959427931 
1371	 0.384696807297928 
1372	 0.384279984539328 
1373	 0.383821452827776 
1374	 0.383342773961872 
1375	 0.382856871529998 
1376	 0.382316709295344 
1377	 0.381740197183396 
1378	 0.381116989376813 
1379	 0.380442555332545 
1380	 0.379748034498227 
1381	 0.379034487056585 
1382	 0.378253325499615 
1383	 0.377432962403085 
1384	 0.376568621874508 
1385	 0.375662452250735 
1386	 0.374697858730123 
1387	 0.373718068351374 
1388	 0.372645903010619 
1389	 0.37150554551176 
1390	 0.370278421138722 
1391	 0.368994722721688 
1392	 0.367635311447915 
1393	 0.366209402808768 
1394	 0.364743599880223 
1395	 0.363172999173155 
1396	 0.361557633206743 
1397	 0.359910695570089 
1398	 0.358191527126849 
1399	 0.356466475355605 
1400	 0.35470492785753 
1401	 0.352949944119229 
1402	 0.351142674397105 
1403	 0.349405972284428 
1404	 0.347663187110432 
1405	 0.346015824069881 
1406	 0.344392820996564 
1407	 0.342872261655231 
1408	 0.341405092396895 
1409	 0.340057619590802 
1410	 0.338809044267264 
1411	 0.337653487611399 
1412	 0.336600558100361 
1413	 0.33564459906085 
1414	 0.334768042455199 
1415	 0.33392731565679 
1416	 0.333145949042817 
1417	 0.332411973641595 
1418	 0.331702200269251 
1419	 0.331027453930612 
1420	 0.330362582343336 
1421	 0.329734874552992 
1422	 0.329138747901046 
1423	 0.328536545994354 
1424	 0.327951426697977 
1425	 0.327380782050112 
1426	 0.326837957532629 
1427	 0.326293368087437 
1428	 0.32580583042734 
1429	 0.325367146112757 
1430	 0.324938455523999 
1431	 0.32455523606778 
1432	 0.324155206783706 
1433	 0.323753207974091 
1434	 0.323377309493121 
1435	 0.322989473364913 
1436	 0.322650988829762 
1437	 0.322362367137243 
1438	 0.322078350847875 
1439	 0.321822957080303 
1440	 0.321575065966516 
1441	 0.321323306032563 
1442	 0.32106460759682 
1443	 0.320815380762633 
1444	 0.320577206110355 
1445	 0.320338753306064 
1446	 0.320116796996914 
1447	 0.319912309404839 
1448	 0.31969930467752 
1449	 0.319490166688192 
1450	 0.319292900373927 
1451	 0.319103760381116 
1452	 0.318911163351699 
1453	 0.318735442072857 
1454	 0.318588067804955 
1455	 0.318416881335376 
1456	 0.318241639883545 
1457	 0.318061536258607 
1458	 0.317868934740276 
1459	 0.317688078339053 
1460	 0.317503674260736 
1461	 0.31733102717862 
1462	 0.317168787444748 
1463	 0.317006516454127 
1464	 0.316846475619479 
1465	 0.316692491317303 
1466	 0.316536295050056 
1467	 0.316399100914131 
1468	 0.316254263209328 
1469	 0.316153699275955 
1470	 0.316086565221786 
1471	 0.31602643699425 
1472	 0.316006563028616 
1473	 0.316004649865773 
1474	 0.315994483844728 
1475	 0.316007912823061 
1476	 0.316037544371071 
1477	 0.316073419518474 
1478	 0.316118364874805 
1479	 0.316186715622469 
1480	 0.316271222522566 
1481	 0.31636747655019 
1482	 0.316481489614641 
1483	 0.316632486143089 
1484	 0.316755426124138 
1485	 0.316867119800995 
1486	 0.317009214748731 
1487	 0.317152311789489 
1488	 0.31731040908386 
1489	 0.317509210051848 
1490	 0.317676495929412 
1491	 0.317833793048391 
1492	 0.317992232252375 
1493	 0.318141139959958 
1494	 0.318294619163364 
1495	 0.31844919955002 
1496	 0.318605137245884 
1497	 0.318766414422031 
1498	 0.318915951946276 
1499	 0.319067057428951 
1500	 0.31920595579849 
1501	 0.319325234703269 
1502	 0.319456661888216 
1503	 0.319594391032891 
1504	 0.319713240335154 
1505	 0.319850248892092 
1506	 0.319981585827378 
1507	 0.320095327995635 
1508	 0.320208855830974 
1509	 0.320296963623924 
1510	 0.320380011531122 
1511	 0.320485194735382 
1512	 0.320579317757111 
1513	 0.320664192505941 
1514	 0.320768707209534 
1515	 0.320850641655743 
1516	 0.320926981956578 
1517	 0.321025005930584 
1518	 0.321145724368717 
1519	 0.32124260962163 
1520	 0.321351869619265 
1521	 0.321424934263693 
1522	 0.321468246339414 
1523	 0.321517722835203 
1524	 0.321540877659044 
1525	 0.321591549626423 
1526	 0.321665181144353 
1527	 0.32171480990601 
1528	 0.321763233865302 
1529	 0.321808319101554 
1530	 0.321835172727335 
1531	 0.321867589992259 
1532	 0.321906639343376 
1533	 0.321939170787416 
1534	 0.321960270458264 
1535	 0.32199249671142 
1536	 0.322032969249925 
1537	 0.32206772839608 
1538	 0.322107841381638 
1539	 0.322138700002166 
1540	 0.322154279400827 
1541	 0.322182395767235 
1542	 0.322222590465399 
1543	 0.322246543344023 
1544	 0.322275016751023 
1545	 0.322291611011649 
1546	 0.322296411822216 
1547	 0.322281900030087 
1548	 0.322274472832621 
1549	 0.322247027113853 
1550	 0.322223645994523 
1551	 0.322210864009234 
1552	 0.322200599929214 
1553	 0.322218260887653 
1554	 0.322213713188627 
1555	 0.32218143227876 
1556	 0.32215453908601 
1557	 0.322119837251573 
1558	 0.322088064871579 
1559	 0.322078283093365 
1560	 0.322057233455354 
1561	 0.322030666561946 
1562	 0.322006934467746 
1563	 0.321985099335688 
1564	 0.321965963167013 
1565	 0.321954724187585 
1566	 0.32192901814118 
1567	 0.321899955267234 
1568	 0.321864813673205 
1569	 0.321814685211035 
1570	 0.321775155184141 
1571	 0.321736280777437 
1572	 0.321700408021633 
1573	 0.321663551193048 
1574	 0.321638416349096 
1575	 0.321631035167062 
1576	 0.321602553073067 
1577	 0.321575378919958 
1578	 0.321533786184684 
1579	 0.321462988481416 
1580	 0.321416065322633 
1581	 0.321370743592824 
1582	 0.321338905919936 
1583	 0.321333534523275 
1584	 0.321302959249542 
1585	 0.321272403128666 
1586	 0.321230746723664 
1587	 0.321165087475019 
1588	 0.321111386738893 
1589	 0.321063716819964 
1590	 0.32100645200472 
1591	 0.320952267302966 
1592	 0.320884546395174 
1593	 0.320795085123391 
1594	 0.320720659234305 
1595	 0.320644070891565 
1596	 0.320574045604414 
1597	 0.320510960697799 
1598	 0.320451867861385 
1599	 0.320403809727451 
1600	 0.320344427943197 
1601	 0.320283342090672 
1602	 0.320229560092638 
1603	 0.320177179070834 
1604	 0.320115123907228 
1605	 0.320045902301201 
1606	 0.319985998973472 
1607	 0.31992903031643 
1608	 0.319857157450288 
1609	 0.319809676493829 
1610	 0.319764678785687 
1611	 0.319685482637642 
1612	 0.319614924751301 
1613	 0.319526573032665 
1614	 0.319428703468359 
1615	 0.319340772250519 
1616	 0.319250435828987 
1617	 0.319173102715163 
1618	 0.319084937531639 
1619	 0.318988022810568 
1620	 0.318906262056859 
1621	 0.318811459345876 
1622	 0.318711989566976 
1623	 0.318605382025231 
1624	 0.318491517733437 
1625	 0.318381015351031 
1626	 0.318262710908734 
1627	 0.318151646609359 
1628	 0.3180405327809 
1629	 0.317947452872685 
1630	 0.317854912767887 
1631	 0.317788148487264 
1632	 0.317749907065674 
1633	 0.317694552276185 
1634	 0.317654197174759 
1635	 0.317589674578677 
1636	 0.317517410621991 
1637	 0.317428962586432 
1638	 0.317322432552943 
1639	 0.317217351646044 
1640	 0.31709373363255 
1641	 0.31698937506672 
1642	 0.316893503270455 
1643	 0.316790782698751 
1644	 0.316692635114983 
1645	 0.31658812608541 
1646	 0.316480566363381 
1647	 0.316364948810299 
1648	 0.316239408572273 
1649	 0.316128266679204 
1650	 0.316011097818039 
1651	 0.315907606230023 
1652	 0.315832337525552 
1653	 0.31572352786384 
1654	 0.315604438807001 
1655	 0.315481416025625 
1656	 0.315350809874965 
1657	 0.315199252545536 
1658	 0.315034511355198 
1659	 0.31486819833851 
1660	 0.314672321166421 
1661	 0.314499818200203 
1662	 0.31433488214941 
1663	 0.314179306567735 
1664	 0.31402918586461 
1665	 0.313887657705211 
1666	 0.313752418031633 
1667	 0.31363599470563 
1668	 0.313548419376454 
1669	 0.313429182095012 
1670	 0.313317993994119 
1671	 0.313187277846157 
1672	 0.313025846204461 
1673	 0.312872449118958 
1674	 0.312716894372302 
1675	 0.312564499880946 
1676	 0.312398911910171 
1677	 0.312253283984034 
1678	 0.312127056597686 
1679	 0.311988931028183 
1680	 0.311851411075589 
1681	 0.31171809554365 
1682	 0.311573173818351 
1683	 0.311450248765664 
1684	 0.311356989254418 
1685	 0.311233462928679 
1686	 0.311113368685153 
1687	 0.310974379724634 
1688	 0.310802907666113 
1689	 0.310647832546682 
1690	 0.310486160441484 
1691	 0.31034141570222 
1692	 0.310211206266149 
1693	 0.310072770075911 
1694	 0.30994204160733 
1695	 0.309805167229941 
1696	 0.309661500362002 
1697	 0.309517913810112 
1698	 0.309368572939739 
1699	 0.309232277149106 
1700	 0.30911144013428 
1701	 0.308964619030309 
1702	 0.30881996750519 
1703	 0.308660664596875 
1704	 0.308468637821801 
1705	 0.308291986071191 
1706	 0.308113345184617 
1707	 0.307950633867326 
1708	 0.307802001077531 
1709	 0.30763859263448 
1710	 0.307474346277769 
1711	 0.307318240021262 
1712	 0.307150681342237 
1713	 0.306998273948701 
1714	 0.306872635086097 
1715	 0.306725318181281 
1716	 0.306564797951076 
1717	 0.306417994944717 
1718	 0.306274520881028 
1719	 0.306126403949579 
1720	 0.305980464290105 
1721	 0.305836053867607 
1722	 0.305693480677421 
1723	 0.305541685305931 
1724	 0.305381593870612 
1725	 0.305242362276572 
1726	 0.305104415395383 
1727	 0.304957409631333 
1728	 0.304843490881646 
1729	 0.304677978550333 
1730	 0.304465037504964 
1731	 0.304285303890593 
1732	 0.304096239132073 
1733	 0.303920802347926 
1734	 0.303767227256295 
1735	 0.303594627666041 
1736	 0.303403560526075 
1737	 0.303245331931386 
1738	 0.303099188419873 
1739	 0.302952640042064 
1740	 0.302822864193291 
1741	 0.302696008806273 
1742	 0.30256617138601 
1743	 0.302442701596752 
1744	 0.302348637154686 
1745	 0.302210950502463 
1746	 0.302053034370474 
1747	 0.301889166075507 
1748	 0.301697760233135 
1749	 0.301520264346654 
1750	 0.301366083597543 
1751	 0.301206515034921 
1752	 0.301068532302071 
1753	 0.300939416327082 
1754	 0.300774213592345 
1755	 0.300628035364786 
1756	 0.300491939235316 
1757	 0.300317807173091 
1758	 0.300168538234368 
1759	 0.300025386834234 
1760	 0.299848822241682 
1761	 0.299712246059135 
1762	 0.29959166725692 
1763	 0.299445610631965 
1764	 0.299324982562599 
1765	 0.299204475879099 
1766	 0.299045112456658 
1767	 0.298875470509858 
1768	 0.298720694597755 
1769	 0.298579516102532 
1770	 0.29845473911149 
1771	 0.29834144777604 
1772	 0.298209607668411 
1773	 0.298066286716562 
1774	 0.297937206850617 
1775	 0.297831731701655 
1776	 0.297734492723213 
1777	 0.297630785094276 
1778	 0.297500998238711 
1779	 0.297370461644264 
1780	 0.297268506732252 
1781	 0.297149918088153 
1782	 0.297042279306228 
1783	 0.296899218793585 
1784	 0.296774392120809 
1785	 0.296646634563979 
1786	 0.296541187019339 
1787	 0.296480471333137 
1788	 0.296389702351455 
1789	 0.296283883788975 
1790	 0.296201159026055 
1791	 0.296116818679056 
1792	 0.296027026639741 
1793	 0.295948686845768 
1794	 0.295880883456521 
1795	 0.29579946044 
1796	 0.295734797849018 
1797	 0.295708014732591 
1798	 0.295662725472595 
1799	 0.295608441412476 
1800	 0.295551340163325 
1801	 0.299637477948957 
1802	 0.299593373581475 
1803	 0.299581591000952 
1804	 0.299563829678715 
1805	 0.299565974447705 
1806	 0.299565648650499 
1807	 0.299542227151541 
1808	 0.299528041249966 
1809	 0.299538604611006 
1810	 0.299525961560351 
1811	 0.299498863138479 
1812	 0.299470824640348 
1813	 0.299444553748177 
1814	 0.299378826906572 
1815	 0.299284740284399 
1816	 0.299186028064812 
1817	 0.299114347219384 
1818	 0.299036278248457 
1819	 0.298988844186831 
1820	 0.298978865686338 
1821	 0.298952448728606 
1822	 0.298918461792282 
1823	 0.298876576390297 
1824	 0.298823850644718 
1825	 0.298787156015575 
1826	 0.298740939946948 
1827	 0.298675293044302 
1828	 0.298603815285352 
1829	 0.298515486962936 
1830	 0.298422677703403 
1831	 0.298320645048426 
1832	 0.298227560568965 
1833	 0.298103806300284 
1834	 0.297994366067381 
1835	 0.297912750184989 
1836	 0.297820469133474 
1837	 0.297736584622982 
1838	 0.297653017835711 
1839	 0.297566145967827 
1840	 0.297472642386291 
1841	 0.297371148161081 
1842	 0.297273548431957 
1843	 0.297177357300151 
1844	 0.297065477980497 
1845	 0.296951229974525 
1846	 0.296829772546265 
1847	 0.296711537806883 
1848	 0.296605464666165 
1849	 0.296497827297969 
1850	 0.296365529069609 
1851	 0.296232611403489 
1852	 0.296072260446811 
1853	 0.295879879551471 
1854	 0.295649677759826 
1855	 0.295391502639797 
1856	 0.295133195806009 
1857	 0.294860654461579 
1858	 0.294581083674869 
1859	 0.294302087645727 
1860	 0.293986555963242 
1861	 0.293651534518607 
1862	 0.293282545644701 
1863	 0.292872964577973 
1864	 0.292443664974381 
1865	 0.292001823942115 
1866	 0.291519948339296 
1867	 0.291015023407906 
1868	 0.290478253361413 
1869	 0.289906446501934 
1870	 0.289305230666721 
1871	 0.288666661141554 
1872	 0.287998390920345 
1873	 0.287313086692172 
1874	 0.286575301948959 
1875	 0.285769923477089 
1876	 0.284960317195649 
1877	 0.284083080558763 
1878	 0.28309463839511 
1879	 0.282094273808959 
1880	 0.281002984156114 
1881	 0.279818541281159 
1882	 0.278561826544435 
1883	 0.277257459663062 
1884	 0.27582412969086 
1885	 0.274315229918797 
1886	 0.272742275103241 
1887	 0.271073054099225 
1888	 0.269339559181008 
1889	 0.267509910061984 
1890	 0.265615662821347 
1891	 0.263673287096957 
1892	 0.26165630727533 
1893	 0.259593570153123 
1894	 0.257479797151753 
1895	 0.255308434682374 
1896	 0.253072487117614 
1897	 0.250829946749807 
1898	 0.24854636981165 
1899	 0.2462427550506 
1900	 0.243997266870781 
1901	 0.241782398747811 
1902	 0.239664722200683 
1903	 0.237621781388668 
1904	 0.235677293505079 
1905	 0.233809238022618 
1906	 0.232042159792312 
1907	 0.23035830084413 
1908	 0.228789337844669 
1909	 0.227306248485418 
1910	 0.225907449074193 
1911	 0.224628801890632 
1912	 0.223427829204065 
1913	 0.222293127281838 
1914	 0.221253389537544 
1915	 0.220257867736942 
1916	 0.219328892558022 
1917	 0.218444681450693 
1918	 0.217621226394603 
1919	 0.216838437327817 
1920	 0.216111811707953 
1921	 0.215439987289737 
1922	 0.214813151304254 
1923	 0.214249038065019 
1924	 0.213738582892458 
1925	 0.213288272115847 
1926	 0.212882484384444 
1927	 0.212528901247649 
1928	 0.212226442688726 
1929	 0.211969757910822 
1930	 0.211742521111311 
1931	 0.211573932092088 
1932	 0.21143193226576 
1933	 0.211305239399711 
1934	 0.211211018267915 
1935	 0.211135718620825 
1936	 0.211067225848907 
1937	 0.211044158273562 
1938	 0.211065197624633 
1939	 0.211097229070296 
1940	 0.211152970033646 
1941	 0.211235628848765 
1942	 0.211346220389988 
1943	 0.21146427857376 
1944	 0.211609902077522 
1945	 0.21178960972697 
1946	 0.211965037338787 
1947	 0.212136922859207 
1948	 0.212343209634913 
1949	 0.212576643715767 
1950	 0.212803717403323 
1951	 0.21303865958174 
1952	 0.213306824292037 
1953	 0.213557548045363 
1954	 0.213833364582909 
1955	 0.214134300659886 
1956	 0.214430474998094 
1957	 0.214712292919937 
1958	 0.214984879610973 
1959	 0.215262684429043 
1960	 0.215525264287753 
1961	 0.215802949175276 
1962	 0.21609314223342 
1963	 0.216385330762724 
1964	 0.216677032765383 
1965	 0.216976856523673 
1966	 0.217294051656961 
1967	 0.217615872086119 
1968	 0.217944377346738 
1969	 0.218283235167788 
1970	 0.218627238081474 
1971	 0.218977472467705 
1972	 0.219330624439751 
1973	 0.219693589863827 
1974	 0.220062169491518 
1975	 0.220427711691178 
1976	 0.220803855256267 
1977	 0.221213765200653 
1978	 0.221618741258418 
1979	 0.222038158257461 
1980	 0.222487928394797 
1981	 0.222928165360092 
1982	 0.223366714869868 
1983	 0.223818930605584 
1984	 0.224283255949488 
1985	 0.224742908810014 
1986	 0.225225353731725 
1987	 0.225680924760113 
1988	 0.226110911284456 
1989	 0.226562199575179 
1990	 0.227008771910357 
1991	 0.227449198015627 
1992	 0.22788991373018 
1993	 0.228336079201459 
1994	 0.228779883477963 
1995	 0.22921418142555 
1996	 0.229657607375723 
1997	 0.230111847857572 
1998	 0.230565642979023 
1999	 0.231027775144911 
2000	 0.231473541912927 
2001	 0.231919153714579 
2002	 0.232356735383429 
2003	 0.232774985704627 
2004	 0.233195507303065 
2005	 0.233603383324369 
2006	 0.234004610676192 
2007	 0.234398940587469 
2008	 0.234772641835667 
2009	 0.235159078497152 
2010	 0.235543455957933 
2011	 0.235934513649341 
2012	 0.236335368368634 
2013	 0.236732298140767 
2014	 0.237129818569551 
2015	 0.237535312658916 
2016	 0.237909281082517 
2017	 0.238286980565122 
2018	 0.238675546500719 
2019	 0.239057764522753 
2020	 0.239448976078702 
2021	 0.239866318100661 
2022	 0.240259919207168 
2023	 0.24064291991464 
2024	 0.24102407242534 
2025	 0.241399607899326 
2026	 0.241772299027269 
2027	 0.242139931002625 
2028	 0.242505648521711 
2029	 0.242867543078806 
2030	 0.243223336713592 
2031	 0.243580274066344 
2032	 0.243937338680871 
2033	 0.244286994471435 
2034	 0.244637934839003 
2035	 0.244975887318375 
2036	 0.245314290530903 
2037	 0.245628691267751 
2038	 0.245915350202751 
2039	 0.246213955506096 
2040	 0.246496473273254 
2041	 0.24678558426287 
2042	 0.247091874496816 
2043	 0.247380271022289 
2044	 0.247679374318796 
2045	 0.247980719759851 
2046	 0.248276297315617 
2047	 0.248575098203563 
2048	 0.248869994542609 
2049	 0.249173451656205 
2050	 0.249446946290137 
2051	 0.249699876890461 
2052	 0.249958499411099 
2053	 0.250191897120492 
2054	 0.250434537170855 
2055	 0.250687126166307 
2056	 0.250947321614801 
2057	 0.251187568157648 
2058	 0.251412303813676 
2059	 0.251652677247346 
2060	 0.251884925897793 
2061	 0.252130913919257 
2062	 0.25239406425321 
2063	 0.252647566233102 
2064	 0.252914696554922 
2065	 0.25315871459937 
2066	 0.253385044531418 
2067	 0.253616581161922 
2068	 0.253838102811512 
2069	 0.254051512508797 
2070	 0.254280641734292 
2071	 0.254513657036726 
2072	 0.254764574996814 
2073	 0.255028282792339 
2074	 0.255289504054403 
2075	 0.255585405201217 
2076	 0.255835649061999 
2077	 0.256058625034662 
2078	 0.256287731848458 
2079	 0.256491880298168 
2080	 0.256709121806648 
2081	 0.256937271217475 
2082	 0.257163089789178 
2083	 0.25738924878832 
2084	 0.2576094670783 
2085	 0.257839390542588 
2086	 0.25807394666304 
2087	 0.258301836580592 
2088	 0.258542706379888 
2089	 0.25875489056198 
2090	 0.258951536999704 
2091	 0.259144294658014 
2092	 0.259295650534568 
2093	 0.259495600628562 
2094	 0.259729090230768 
2095	 0.25993970255807 
2096	 0.260156176236329 
2097	 0.260381255628108 
2098	 0.260603507431123 
2099	 0.260810851485148 
2100	 0.261033129102083 
2101	 0.261288839777938 
2102	 0.261499281313938 
2103	 0.261671888533183 
2104	 0.261884912431043 
2105	 0.262097843196795 
2106	 0.262319057250268 
2107	 0.262564790652192 
2108	 0.26280351641281 
2109	 0.263032688190821 
2110	 0.263275832680675 
2111	 0.263540154762034 
2112	 0.263792673593774 
2113	 0.264048645791649 
2114	 0.264291106473413 
2115	 0.26454619625282 
2116	 0.264807299252089 
2117	 0.265049514654137 
2118	 0.265295643959976 
2119	 0.26552314287987 
2120	 0.265714813546243 
2121	 0.265939138641338 
2122	 0.26618856905267 
2123	 0.266403709728325 
2124	 0.266627356874298 
2125	 0.266819677136539 
2126	 0.266954633311051 
2127	 0.267122455451455 
2128	 0.267293807144359 
2129	 0.267464718818327 
2130	 0.267668491717611 
2131	 0.267838452259053 
2132	 0.26798997060973 
2133	 0.268130788700138 
2134	 0.268244386567504 
2135	 0.268314866535103 
2136	 0.268411379020783 
2137	 0.268512677860768 
2138	 0.268585562586615 
2139	 0.26864766281678 
2140	 0.268712594169242 
2141	 0.268752406611867 
2142	 0.268797599109746 
2143	 0.268867559869262 
2144	 0.268909025286983 
2145	 0.268930806802462 
2146	 0.26894413473065 
2147	 0.268938260502226 
2148	 0.268926776341664 
2149	 0.268924454477476 
2150	 0.268926369210979 
2151	 0.268900106192061 
2152	 0.268875899312173 
2153	 0.268828632019241 
2154	 0.268747560162045 
2155	 0.268671531575442 
2156	 0.268595419877792 
2157	 0.268503204647399 
2158	 0.268403528799152 
2159	 0.268283289885712 
2160	 0.268145797195629 
2161	 0.267998177402607 
2162	 0.267805561487838 
2163	 0.267646206546123 
2164	 0.267493985985478 
2165	 0.267358957900507 
2166	 0.267202908369724 
2167	 0.267057163847652 
2168	 0.26690202445096 
2169	 0.26671737585801 
2170	 0.266566037108588 
2171	 0.266443709701868 
2172	 0.266297666568642 
2173	 0.266149712604164 
2174	 0.266000054911855 
2175	 0.265835723734569 
2176	 0.26568294347306 
2177	 0.265530719190256 
2178	 0.265390396908158 
2179	 0.265263653014923 
2180	 0.265130008105804 
2181	 0.264995019656532 
2182	 0.26487191492735 
2183	 0.264742384401638 
2184	 0.264632357273809 
2185	 0.264522979040291 
2186	 0.264428143699305 
2187	 0.264334253105851 
2188	 0.26425210018109 
2189	 0.264147121201497 
2190	 0.264029362905441 
2191	 0.263932843875694 
2192	 0.263830961852209 
2193	 0.263732836327644 
2194	 0.263662273269656 
2195	 0.263573638718797 
2196	 0.263475052151247 
2197	 0.263367241958704 
2198	 0.263241813771235 
2199	 0.263135429816065 
2200	 0.263022526026311 
2201	 0.262918121061745 
2202	 0.262838066453949 
2203	 0.262748619102603 
2204	 0.262670257136686 
2205	 0.262587089118208 
2206	 0.262526144263888 
2207	 0.262486694039525 
2208	 0.262439657549973 
2209	 0.262397635667727 
2210	 0.262360423270245 
2211	 0.262333533916794 
2212	 0.262290666291165 
2213	 0.262251538489595 
2214	 0.262203911357794 
2215	 0.262133225821058 
2216	 0.26207746748175 
2217	 0.262026616760666 
2218	 0.261975352154982 
2219	 0.261925329417888 
2220	 0.261881461769453 
2221	 0.261837639597172 
2222	 0.261800418485182 
2223	 0.261789846846365 
2224	 0.261762719349272 
2225	 0.261753076330379 
2226	 0.261767851764482 
2227	 0.261747757166123 
2228	 0.261716384634214 
2229	 0.261692465176689 
2230	 0.261652989622372 
2231	 0.261620581801778 
2232	 0.261593799881873 
2233	 0.261570950860726 
2234	 0.261553197283403 
2235	 0.261523208211631 
2236	 0.261509155672333 
2237	 0.261464438075492 
2238	 0.261373197904691 
2239	 0.261315384991748 
2240	 0.261257141879117 
2241	 0.261208510947273 
2242	 0.261187713912742 
2243	 0.261155776730699 
2244	 0.261126412212771 
2245	 0.261084320954022 
2246	 0.261046638852657 
2247	 0.260991777405552 
2248	 0.260946206497357 
2249	 0.260906392951678 
2250	 0.260841489712185 
2251	 0.260774776942006 
2252	 0.260689085789478 
2253	 0.260557466790868 
2254	 0.260473030857524 
2255	 0.260398550496368 
2256	 0.260329711723305 
2257	 0.260286120375709 
2258	 0.26023425802755 
2259	 0.260185090297881 
2260	 0.26013089834988 
2261	 0.260081300987561 
2262	 0.260021942824597 
2263	 0.259955179869385 
2264	 0.259884236606788 
2265	 0.25977786508218 
2266	 0.259723085860493 
2267	 0.259710380656453 
2268	 0.259670403594106 
2269	 0.259643990239041 
2270	 0.259626507332756 
2271	 0.259591208575978 
2272	 0.259536666828021 
2273	 0.259470181511369 
2274	 0.259378754364119 
2275	 0.259281074053689 
2276	 0.259125049850546 
2277	 0.259033521042957 
2278	 0.25897885882972 
2279	 0.258899495754777 
2280	 0.258824548224823 
2281	 0.258754476810481 
2282	 0.258670032191314 
2283	 0.258609312943874 
2284	 0.258581521328765 
2285	 0.258527212411824 
2286	 0.258463289472688 
2287	 0.258406050564772 
2288	 0.258351639178329 
2289	 0.258287607547862 
2290	 0.25825228784976 
2291	 0.258155395122386 
2292	 0.25801449018787 
2293	 0.257863693981453 
2294	 0.25764934873741 
2295	 0.257474111889541 
2296	 0.25730268373073 
2297	 0.257145547040278 
2298	 0.256996923330803 
2299	 0.256876541245295 
2300	 0.256810509766788 
2301	 0.256719629397019 
2302	 0.256574211491187 
2303	 0.256421676466634 
2304	 0.25628672736615 
2305	 0.256136542018821 
2306	 0.255970072304614 
2307	 0.255841591185964 
2308	 0.255667274579479 
2309	 0.25541444740583 
2310	 0.255222527273505 
2311	 0.2550440872545 
2312	 0.254905061717559 
2313	 0.254805726315789 
2314	 0.2546782241426 
2315	 0.254605884578451 
2316	 0.254455995907901 
2317	 0.254241690082878 
2318	 0.2540313864389 
2319	 0.253769546315135 
2320	 0.253560586262572 
2321	 0.253372058580737 
2322	 0.253174807506317 
2323	 0.252999116355417 
2324	 0.252817718677908 
2325	 0.252607046205561 
2326	 0.252439921853838 
2327	 0.252334427008744 
2328	 0.252166397356884 
2329	 0.251994085278451 
2330	 0.251832563179115 
2331	 0.251632151437641 
2332	 0.251473194003533 
2333	 0.251329227556439 
2334	 0.251164997155433 
2335	 0.250998549141326 
2336	 0.250787121025368 
2337	 0.250576994882378 
2338	 0.250402059392675 
2339	 0.25019843424243 
2340	 0.249956906054793 
2341	 0.249758400533029 
2342	 0.249514760452794 
2343	 0.249241383445779 
2344	 0.24902910090281 
2345	 0.248748359574402 
2346	 0.248401106408002 
2347	 0.248114207429615 
2348	 0.247822432104572 
2349	 0.247524558269693 
2350	 0.247273913099001 
2351	 0.246955680068047 
2352	 0.246580771271007 
2353	 0.246247153353429 
2354	 0.245914816139857 
2355	 0.24557049510822 
2356	 0.24522767406054 
2357	 0.244895046702585 
2358	 0.244550002877246 
2359	 0.244204493691761 
2360	 0.243885010706022 
2361	 0.243532884640318 
2362	 0.243137703392442 
2363	 0.242777037806494 
2364	 0.242427128678699 
2365	 0.242088022180805 
2366	 0.24178427518531 
2367	 0.241450378381088 
2368	 0.241125988747861 
2369	 0.240745504017088 
2370	 0.240296684415763 
2371	 0.239886829832017 
2372	 0.239536223064615 
2373	 0.239170711801201 
2374	 0.238889648860089 
2375	 0.238598329731272 
2376	 0.23820649228889 
2377	 0.237796510516819 
2378	 0.237385379256764 
2379	 0.236945493289115 
2380	 0.236474455965429 
2381	 0.236006680435161 
2382	 0.23553660582483 
2383	 0.235108867050436 
2384	 0.234678242996199 
2385	 0.234284573707085 
2386	 0.23392082534304 
2387	 0.23348178704532 
2388	 0.233067623766408 
2389	 0.232695964652764 
2390	 0.232306977192219 
2391	 0.231883599579416 
2392	 0.23152211223776 
2393	 0.231158270316166 
2394	 0.230684599327543 
2395	 0.230238659989601 
2396	 0.22973913459959 
2397	 0.229229282078834 
2398	 0.228864229256726 
2399	 0.228524279848302 
2400	 0.228232265666574 
2401	 0.227992443205973 
2402	 0.227580508966233 
2403	 0.227139125650365 
2404	 0.226803192357474 
2405	 0.226369623976147 
2406	 0.225982861047631 
2407	 0.225648912871669 
2408	 0.225192889052093 
2409	 0.224737142868009 
2410	 0.224361299379835 
2411	 0.223951691777103 
2412	 0.22351329742697 
2413	 0.223122482447304 
2414	 0.222664029232706 
2415	 0.22227571035839 
2416	 0.221894700240023 
2417	 0.22152144058569 
2418	 0.221173582576656 
2419	 0.220890858513853 
2420	 0.220501392643311 
2421	 0.220087226206661 
2422	 0.219741572470334 
2423	 0.219398309001508 
2424	 0.218975514741615 
2425	 0.218566597171875 
2426	 0.218103595732214 
2427	 0.217494680378407 
2428	 0.217033704746446 
2429	 0.216624229905627 
2430	 0.216254386356864 
2431	 0.215945676219932 
2432	 0.215613967260575 
2433	 0.21538567537392 
2434	 0.215031583895251 
2435	 0.214598510764103 
2436	 0.214194851397036 
2437	 0.213696988917805 
2438	 0.213290960966226 
2439	 0.212993722291544 
2440	 0.212611262354247 
2441	 0.212183357593604 
2442	 0.211819690011546 
2443	 0.211492894517371 
2444	 0.211055950356252 
2445	 0.210564802313515 
2446	 0.210152002179189 
2447	 0.209694219975017 
2448	 0.209273867860767 
2449	 0.208963698733959 
2450	 0.208624131181217 
2451	 0.208218092764038 
2452	 0.207858874702838 
2453	 0.207592726814427 
2454	 0.207229463833412 
2455	 0.206850380755492 
2456	 0.206429307050443 
2457	 0.205890230804674 
2458	 0.20549062187278 
2459	 0.205130655690453 
2460	 0.204768557968716 
2461	 0.204502760259375 
2462	 0.204150231479514 
2463	 0.203712584015037 
2464	 0.203348746346276 
2465	 0.2029693019479 
2466	 0.202664335819607 
2467	 0.202554949064533 
2468	 0.202191312297679 
2469	 0.201717611354526 
2470	 0.201266940960412 
2471	 0.200664950864495 
2472	 0.200263837008897 
2473	 0.1999809603448 
2474	 0.199578672954183 
2475	 0.199126510981402 
2476	 0.198670108135517 
2477	 0.198279753735061 
2478	 0.19803042162362 
2479	 0.197919198657074 
2480	 0.197748837410529 
2481	 0.197384748929073 
2482	 0.197020724785961 
2483	 0.196552957278865 
2484	 0.196110717810375 
2485	 0.195931337504571 
2486	 0.195725905295166 
2487	 0.195485944775375 
2488	 0.195286837974993 
2489	 0.194915597611468 
2490	 0.194461746855459 
2491	 0.194076858583958 
2492	 0.193755299747012 
2493	 0.193512456077683 
2494	 0.193254484635711 
2495	 0.193081690065187 
2496	 0.192998147270679 
2497	 0.192709756136578 
2498	 0.192550795257778 
2499	 0.19265838905366 
2500	 0.192466832728518 
