Wavelength	lmw-9-300000.asd
350	 5.37220118040269E-02 
351	 0.049572905342201 
352	 4.35075134692403E-02 
353	 3.83257619507582E-02 
354	 4.94727577205152E-02 
355	 0.051666263441257 
356	 4.83129663490487E-02 
357	 4.85163515914247E-02 
358	 5.26240676765207E-02 
359	 4.45675854294546E-02 
360	 3.42757478675239E-02 
361	 4.42716008195864E-02 
362	 4.03367121730823E-02 
363	 3.66171883212499E-02 
364	 4.05787893582887E-02 
365	 4.00832679608848E-02 
366	 4.15536290063027E-02 
367	 4.41046093008857E-02 
368	 4.51472934977684E-02 
369	 4.32022289028808E-02 
370	 0.040021665750905 
371	 3.83133202762379E-02 
372	 4.06313494004863E-02 
373	 4.17545970424733E-02 
374	 4.12651557458134E-02 
375	 4.04235226174529E-02 
376	 4.23567306554896E-02 
377	 4.08081443855236E-02 
378	 3.86951870666807E-02 
379	 4.00948504409661E-02 
380	 4.15689710495594E-02 
381	 4.18456942333047E-02 
382	 4.15239238778464E-02 
383	 4.23476758222704E-02 
384	 4.22968803314476E-02 
385	 4.13697033181724E-02 
386	 4.11580555777801E-02 
387	 0.046033582263525 
388	 4.86568702490585E-02 
389	 4.97407533141381E-02 
390	 5.14299410444631E-02 
391	 4.89722240569482E-02 
392	 0.048543397605586 
393	 5.11730194662167E-02 
394	 5.32391199952664E-02 
395	 5.51685588191137E-02 
396	 5.68709379884939E-02 
397	 0.05867233875009 
398	 6.22779563563372E-02 
399	 6.28874153513346E-02 
400	 0.062630952097405 
401	 6.52340998568841E-02 
402	 6.76206605164267E-02 
403	 6.99171445383118E-02 
404	 7.19481156824926E-02 
405	 7.31493173657087E-02 
406	 7.55724700893204E-02 
407	 7.81607655943116E-02 
408	 7.97574499595942E-02 
409	 8.03287926015813E-02 
410	 8.20985709749878E-02 
411	 8.43329011263067E-02 
412	 8.51715946749565E-02 
413	 8.56890250145908E-02 
414	 8.64178700909575E-02 
415	 8.74389763973353E-02 
416	 0.088372920779022 
417	 8.84174233048046E-02 
418	 8.82287086065078E-02 
419	 0.088530883379894 
420	 8.90028120605502E-02 
421	 8.92893653049761E-02 
422	 8.91634931829852E-02 
423	 8.86003581674999E-02 
424	 8.88160382629475E-02 
425	 8.84427948443492E-02 
426	 8.73406679611601E-02 
427	 8.82250529447613E-02 
428	 8.87757787503715E-02 
429	 0.089083609316255 
430	 8.99324305485531E-02 
431	 9.15026704581233E-02 
432	 9.31275289496187E-02 
433	 0.095063005012913 
434	 9.84039905047112E-02 
435	 0.10188232207613 
436	 0.105721202831977 
437	 0.110062023393471 
438	 0.113936477431885 
439	 0.118339824536602 
440	 0.123161764746647 
441	 0.127735935403145 
442	 0.131932800964207 
443	 0.136037808985592 
444	 0.140149961439286 
445	 0.143997819394642 
446	 0.148152725539082 
447	 0.152108569932594 
448	 0.155383953786596 
449	 0.158931288287338 
450	 0.162741185627954 
451	 0.166508815155299 
452	 0.169770318133377 
453	 0.173086369867301 
454	 0.176214759639744 
455	 0.179123465712617 
456	 0.182697474677318 
457	 0.185838692240884 
458	 0.188565604088955 
459	 0.191407640627325 
460	 0.194555544101875 
461	 0.197556961659868 
462	 0.200291078699886 
463	 0.20317061099203 
464	 0.20610935619036 
465	 0.208976941973889 
466	 0.211678876335385 
467	 0.214343260231935 
468	 0.216901735817535 
469	 0.21946515118338 
470	 0.222253813903635 
471	 0.224828994670353 
472	 0.227296925549673 
473	 0.229805134005508 
474	 0.232401233708671 
475	 0.23458560345597 
476	 0.2366397439022 
477	 0.239083847910844 
478	 0.241397737963442 
479	 0.243425363622282 
480	 0.245239763082257 
481	 0.247174613944618 
482	 0.249342354629855 
483	 0.251206309512442 
484	 0.252405306668446 
485	 0.254027257262988 
486	 0.255698996123063 
487	 0.257232191838845 
488	 0.258626390140342 
489	 0.25982523267842 
490	 0.260886225729186 
491	 0.261902954124239 
492	 0.263022713109589 
493	 0.263975131934855 
494	 0.264738183968341 
495	 0.265412059572855 
496	 0.26601541635948 
497	 0.266529963599929 
498	 0.266953580764207 
499	 0.267317949551977 
500	 0.267577631435997 
501	 0.267774578345014 
502	 0.267977736661436 
503	 0.268278465416811 
504	 0.268380497089358 
505	 0.268310337236546 
506	 0.268381348703314 
507	 0.268353019006088 
508	 0.268244139199711 
509	 0.268128693991415 
510	 0.268112157263456 
511	 0.267979734627357 
512	 0.267687064076162 
513	 0.267313479901025 
514	 0.267100263303871 
515	 0.267001895315485 
516	 0.266909457298069 
517	 0.266681080099516 
518	 0.26626616141153 
519	 0.265852644572483 
520	 0.265629164277344 
521	 0.265308397476946 
522	 0.265132568369422 
523	 0.265042408013615 
524	 0.264648344985059 
525	 0.264308971505695 
526	 0.2640528676513 
527	 0.263821054590798 
528	 0.263509694913907 
529	 0.26333329624678 
530	 0.263223387695877 
531	 0.26295392019685 
532	 0.262814608110652 
533	 0.262691371235435 
534	 0.262503980262901 
535	 0.262362382226 
536	 0.262200617088183 
537	 0.262113579280431 
538	 0.262190344114898 
539	 0.262054225334962 
540	 0.261940053060403 
541	 0.261950732662686 
542	 0.261948617779819 
543	 0.262051974889266 
544	 0.262246634864454 
545	 0.262444194505331 
546	 0.262399338809082 
547	 0.262474996183491 
548	 0.262723243274193 
549	 0.262919288345661 
550	 0.263015278763373 
551	 0.263178438769245 
552	 0.263502281240167 
553	 0.263786843139247 
554	 0.264059266032141 
555	 0.264360090394914 
556	 0.264728709872816 
557	 0.265065284035499 
558	 0.265509021560523 
559	 0.266080830869421 
560	 0.266555830625516 
561	 0.266978660428115 
562	 0.267454000905734 
563	 0.268063247622396 
564	 0.268605370396838 
565	 0.269167462716396 
566	 0.269740507358153 
567	 0.270194326715398 
568	 0.270771364084138 
569	 0.271376512621185 
570	 0.271939632483526 
571	 0.272768546654465 
572	 0.27363455019335 
573	 0.274440853715837 
574	 0.275196723495642 
575	 0.275933292716407 
576	 0.276808351545051 
577	 0.27787856955503 
578	 0.278944757777547 
579	 0.280108718245026 
580	 0.281350202649014 
581	 0.282611794724586 
582	 0.283957124864676 
583	 0.285200155987801 
584	 0.2862524871868 
585	 0.287193088616368 
586	 0.28806652506613 
587	 0.288990033310766 
588	 0.290055618461732 
589	 0.291187552194165 
590	 0.292321599065093 
591	 0.293452481874279 
592	 0.294628823191144 
593	 0.295766743399754 
594	 0.296886907901249 
595	 0.298052966900658 
596	 0.29940534925013 
597	 0.300719894477106 
598	 0.301989133268601 
599	 0.303316184483633 
600	 0.304600819568449 
601	 0.305820688679558 
602	 0.307028739143829 
603	 0.308415711918863 
604	 0.309699721701367 
605	 0.310911560182601 
606	 0.31218330166777 
607	 0.313534036031687 
608	 0.314869318535727 
609	 0.316101286967317 
610	 0.317165738887593 
611	 0.318287878623137 
612	 0.319436548994183 
613	 0.320526360891441 
614	 0.321528774194316 
615	 0.322576156062996 
616	 0.323661186978821 
617	 0.32467745851174 
618	 0.325684588136069 
619	 0.326662835435197 
620	 0.327598121144353 
621	 0.328507838861074 
622	 0.329357229089773 
623	 0.330194830802987 
624	 0.331081107777078 
625	 0.331900868265782 
626	 0.332694312364601 
627	 0.333475944244483 
628	 0.334207187279687 
629	 0.334975901714624 
630	 0.335709317492091 
631	 0.3363442787585 
632	 0.337030662241484 
633	 0.337667255852804 
634	 0.338240126822483 
635	 0.338808298788764 
636	 0.339324095762086 
637	 0.33983016697772 
638	 0.340345707684804 
639	 0.340788521070545 
640	 0.341295412145928 
641	 0.341812741496279 
642	 0.34221440812975 
643	 0.342580112010843 
644	 0.342894886452993 
645	 0.343181689284066 
646	 0.343529589161791 
647	 0.343866572899997 
648	 0.34412218875356 
649	 0.34427347010378 
650	 0.344486390911328 
651	 0.344662633533254 
652	 0.344791283608794 
653	 0.344940275430387 
654	 0.345074056837824 
655	 0.345142915842239 
656	 0.345139907548944 
657	 0.345161764041491 
658	 0.345226871192787 
659	 0.345262694470828 
660	 0.345174541740153 
661	 0.345090736271318 
662	 0.344984057891913 
663	 0.344833679243547 
664	 0.344647455987158 
665	 0.344522422150472 
666	 0.344378510729168 
667	 0.344136715478419 
668	 0.343952788178972 
669	 0.343754970861275 
670	 0.343492595095053 
671	 0.343144599371192 
672	 0.342773190343685 
673	 0.342420707092922 
674	 0.342087380088967 
675	 0.341687620863987 
676	 0.341273082597639 
677	 0.340848458125965 
678	 0.340406011003264 
679	 0.340002707160585 
680	 0.339531810918044 
681	 0.338979918774209 
682	 0.338470589075855 
683	 0.337961530605951 
684	 0.337462564868382 
685	 0.336964865124808 
686	 0.336352818809455 
687	 0.335711723581136 
688	 0.335078221762215 
689	 0.334448099253356 
690	 0.333775164570165 
691	 0.333156622040406 
692	 0.332605454839896 
693	 0.331927873704949 
694	 0.331195742619654 
695	 0.330469524053578 
696	 0.329779608779048 
697	 0.328988718673166 
698	 0.328211805984742 
699	 0.327490758981862 
700	 0.326775479039737 
701	 0.326042751083961 
702	 0.325262478979347 
703	 0.324428683794682 
704	 0.323590052684429 
705	 0.322781851690102 
706	 0.321986598107852 
707	 0.321164419259938 
708	 0.320349478704312 
709	 0.319534323963203 
710	 0.318715846165529 
711	 0.317902890076307 
712	 0.317026726482715 
713	 0.316096954971224 
714	 0.315176212612791 
715	 0.314452789899156 
716	 0.313590235461927 
717	 0.312589535710058 
718	 0.311699319943144 
719	 0.310901541799243 
720	 0.310043705008057 
721	 0.309078794808118 
722	 0.308201103794332 
723	 0.307262614174402 
724	 0.306302956042913 
725	 0.30540466857209 
726	 0.304538065832519 
727	 0.303638422971559 
728	 0.302713486906297 
729	 0.301832578556694 
730	 0.300872587736275 
731	 0.299898743608744 
732	 0.298962569610711 
733	 0.297985871883634 
734	 0.297124570189405 
735	 0.296280890490985 
736	 0.29530041559221 
737	 0.294385415048787 
738	 0.293472309321551 
739	 0.29253872316456 
740	 0.291626691330851 
741	 0.290712835696921 
742	 0.289812116380488 
743	 0.288932215927147 
744	 0.288042627333424 
745	 0.287133573580377 
746	 0.2862308665256 
747	 0.28536275217772 
748	 0.284439031080057 
749	 0.283559731245652 
750	 0.282761797874541 
751	 0.281983895090464 
752	 0.281099051328919 
753	 0.28019953647986 
754	 0.279379353040358 
755	 0.27856978553844 
756	 0.277832387786379 
757	 0.277087409729437 
758	 0.276216365900158 
759	 0.275374879390068 
760	 0.274564740319973 
761	 0.273789777529592 
762	 0.273073518412082 
763	 0.27239186481484 
764	 0.271663999121822 
765	 0.270862322879099 
766	 0.270135700809904 
767	 0.269474378572382 
768	 0.26882627257426 
769	 0.268125273899687 
770	 0.267386163050659 
771	 0.266741460671021 
772	 0.26617508642283 
773	 0.265490116504972 
774	 0.264884714685522 
775	 0.264324595759784 
776	 0.263733269377251 
777	 0.263049607134956 
778	 0.262475675578613 
779	 0.261993276087473 
780	 0.261479348348837 
781	 0.260880976370299 
782	 0.260359231132988 
783	 0.259919795384432 
784	 0.259395400236386 
785	 0.258886775000805 
786	 0.258424529768906 
787	 0.258006790309639 
788	 0.257585970276859 
789	 0.257205389346941 
790	 0.256806452012273 
791	 0.256330928364205 
792	 0.255914727187869 
793	 0.255565383097797 
794	 0.255248961081515 
795	 0.254903921940213 
796	 0.254523673876199 
797	 0.254146630394556 
798	 0.253824340607944 
799	 0.253623026079629 
800	 0.253367763985362 
801	 0.253051619419034 
802	 0.252742009826888 
803	 0.252561783927123 
804	 0.252363991494986 
805	 0.252108437918525 
806	 0.251838841699022 
807	 0.251626049694504 
808	 0.251459792176559 
809	 0.251301581355266 
810	 0.251093835251476 
811	 0.250915815800252 
812	 0.250732668788391 
813	 0.250533610517057 
814	 0.250433844998728 
815	 0.250471701108759 
816	 0.250476615445107 
817	 0.25026767297542 
818	 0.250107418844519 
819	 0.250049664386891 
820	 0.250044595630661 
821	 0.249975321697162 
822	 0.249942341307724 
823	 0.249889455922959 
824	 0.249810061482759 
825	 0.249813270187322 
826	 0.249810484218831 
827	 0.249811706666867 
828	 0.249847262430821 
829	 0.249939186890358 
830	 0.249922077324286 
831	 0.249844319101044 
832	 0.24985764802405 
833	 0.250013730612669 
834	 0.250123342872001 
835	 0.250151089707823 
836	 0.25022136517566 
837	 0.250312245559739 
838	 0.250404278860882 
839	 0.25049577872047 
840	 0.250617566906299 
841	 0.250751111573326 
842	 0.250869772439191 
843	 0.250963499448998 
844	 0.251066966194607 
845	 0.251274018361451 
846	 0.251509431651777 
847	 0.251657373977235 
848	 0.251881656728935 
849	 0.252083270202823 
850	 0.252230513830388 
851	 0.252365020303424 
852	 0.252487607082259 
853	 0.252728730052183 
854	 0.253068265288197 
855	 0.253255947508364 
856	 0.253526100682222 
857	 0.253796106501846 
858	 0.253993946502419 
859	 0.254268644776247 
860	 0.254521515276285 
861	 0.254777775055203 
862	 0.255078830337519 
863	 0.255334616705071 
864	 0.255663552620528 
865	 0.255999213593165 
866	 0.256201126082683 
867	 0.256480898920319 
868	 0.256830594682733 
869	 0.257198851766459 
870	 0.257520820605967 
871	 0.257875834696585 
872	 0.258225479008137 
873	 0.25855785230093 
874	 0.258931985537467 
875	 0.259278477688697 
876	 0.259613110091 
877	 0.259970654004199 
878	 0.260376250708593 
879	 0.260805388138192 
880	 0.26125090405006 
881	 0.261702782921911 
882	 0.262121463011569 
883	 0.262510623128019 
884	 0.262897408745119 
885	 0.263322629347352 
886	 0.263833051540475 
887	 0.264326634776984 
888	 0.26473144140101 
889	 0.265047061142152 
890	 0.26556238512484 
891	 0.266091970946605 
892	 0.266542613944656 
893	 0.267017018069043 
894	 0.267511956066454 
895	 0.268010626320604 
896	 0.268498108537013 
897	 0.268969424649661 
898	 0.269631218908079 
899	 0.270206565039487 
900	 0.270517961153786 
901	 0.270976836418063 
902	 0.271592081162326 
903	 0.272244506609601 
904	 0.272817516474271 
905	 0.273432334540989 
906	 0.274112593261761 
907	 0.274712130632999 
908	 0.27511563851447 
909	 0.275771684218581 
910	 0.276422999403581 
911	 0.277038188618602 
912	 0.27771787182265 
913	 0.2782064976496 
914	 0.278805388645349 
915	 0.279548969793363 
916	 0.280209180489665 
917	 0.280871196290979 
918	 0.281417343574536 
919	 0.281913181992373 
920	 0.282627545585861 
921	 0.283412248035385 
922	 0.284116434267642 
923	 0.284712205142136 
924	 0.285351205452583 
925	 0.286055936395309 
926	 0.286744815681158 
927	 0.287382451170726 
928	 0.28806032638557 
929	 0.288840163111805 
930	 0.289662598314202 
931	 0.290415774698299 
932	 0.290953279755023 
933	 0.29164005899654 
934	 0.292432513301382 
935	 0.293232994647133 
936	 0.294203305270812 
937	 0.294921200298012 
938	 0.295491266089905 
939	 0.296163578433503 
940	 0.296984516652894 
941	 0.297793088083037 
942	 0.298612303915075 
943	 0.299481072104771 
944	 0.300181000310556 
945	 0.300890100147765 
946	 0.301635706932253 
947	 0.302372020069617 
948	 0.303098980932764 
949	 0.303768998400416 
950	 0.304484299237844 
951	 0.305335306267132 
952	 0.305982328852111 
953	 0.306555698257396 
954	 0.307212807171704 
955	 0.308038157763814 
956	 0.308760457541895 
957	 0.309467865910881 
958	 0.310118094728163 
959	 0.310646115662588 
960	 0.31135092258839 
961	 0.312174908940849 
962	 0.312999424721062 
963	 0.313705537006099 
964	 0.314302421913579 
965	 0.315120668154098 
966	 0.316066454882814 
967	 0.316840588468329 
968	 0.317851578878283 
969	 0.318832401259794 
970	 0.319729126871841 
971	 0.320653106919698 
972	 0.321568050418137 
973	 0.322541288680218 
974	 0.323503958692779 
975	 0.324354827331452 
976	 0.325382321449073 
977	 0.326400392277363 
978	 0.327332398515492 
979	 0.328226159204947 
980	 0.329251678568827 
981	 0.330124482211716 
982	 0.330938438139156 
983	 0.331954825551444 
984	 0.332896858127198 
985	 0.333783366391299 
986	 0.334688016537918 
987	 0.335696435058671 
988	 0.336865550583465 
989	 0.337743877154987 
990	 0.338542088373877 
991	 0.339654155213101 
992	 0.34056721662296 
993	 0.341427845388019 
994	 0.342461124393336 
995	 0.343747638090236 
996	 0.344768330095802 
997	 0.345640443182096 
998	 0.346592705052562 
999	 0.347783093518345 
1000	 0.349005234809177 
1001	 0.354668462043501 
1002	 0.355658094642022 
1003	 0.356560696305159 
1004	 0.357536231194175 
1005	 0.358602104655306 
1006	 0.359626789004421 
1007	 0.360619218816258 
1008	 0.361675336738179 
1009	 0.362759239604811 
1010	 0.363752129203275 
1011	 0.364798763428408 
1012	 0.36579914526056 
1013	 0.366777523168256 
1014	 0.367754923886565 
1015	 0.368719340488067 
1016	 0.369762767569272 
1017	 0.370771073087485 
1018	 0.371774234727766 
1019	 0.372732598750137 
1020	 0.373698441958686 
1021	 0.374620262255261 
1022	 0.375500744883925 
1023	 0.376446282285638 
1024	 0.377387875707866 
1025	 0.37829864758092 
1026	 0.379264612809757 
1027	 0.380187115697251 
1028	 0.381053522829971 
1029	 0.381898121405088 
1030	 0.3827642281938 
1031	 0.383627887406554 
1032	 0.384467332120146 
1033	 0.385348167174604 
1034	 0.386326078954801 
1035	 0.387215955616707 
1036	 0.388119005896923 
1037	 0.38907676767862 
1038	 0.3899182075141 
1039	 0.390718777872088 
1040	 0.391520287086634 
1041	 0.392296239839608 
1042	 0.39314955198008 
1043	 0.394058967422727 
1044	 0.394878670626368 
1045	 0.395686630871 
1046	 0.396448379237694 
1047	 0.397191722099762 
1048	 0.397935735156334 
1049	 0.398734131557166 
1050	 0.399584746909084 
1051	 0.400397836346141 
1052	 0.401152686533017 
1053	 0.401935423645817 
1054	 0.402765778987017 
1055	 0.403578768815907 
1056	 0.404376484300489 
1057	 0.405173824847008 
1058	 0.405982697997474 
1059	 0.406737069398941 
1060	 0.40744893647928 
1061	 0.408178826886462 
1062	 0.408916729287263 
1063	 0.409677524768317 
1064	 0.410489155052294 
1065	 0.411269130515627 
1066	 0.412010954157716 
1067	 0.412741514137593 
1068	 0.413446360072406 
1069	 0.414202015740263 
1070	 0.414981343515012 
1071	 0.415810456074064 
1072	 0.416599152275124 
1073	 0.417387492411404 
1074	 0.418167665551389 
1075	 0.418942337086044 
1076	 0.419682703150108 
1077	 0.420423548347895 
1078	 0.421129615045884 
1079	 0.421818302311501 
1080	 0.422535952948191 
1081	 0.423219435044064 
1082	 0.423970930611455 
1083	 0.424647586376988 
1084	 0.425267401508603 
1085	 0.425896201694078 
1086	 0.4264932359222 
1087	 0.427088527373946 
1088	 0.427664290274817 
1089	 0.428294433519179 
1090	 0.42892074801577 
1091	 0.429526188419597 
1092	 0.430121772448938 
1093	 0.430672797169481 
1094	 0.431131249232221 
1095	 0.431567144176533 
1096	 0.432020497575636 
1097	 0.432447776496301 
1098	 0.43286435156461 
1099	 0.433305226732783 
1100	 0.433691548817764 
1101	 0.43401946207625 
1102	 0.434358914834511 
1103	 0.434699898287224 
1104	 0.43500810017875 
1105	 0.435281112622743 
1106	 0.435558512532867 
1107	 0.435787935160758 
1108	 0.435985099415968 
1109	 0.436203941337159 
1110	 0.436448190982768 
1111	 0.43665819109186 
1112	 0.436893599357276 
1113	 0.437049257141086 
1114	 0.43714302822714 
1115	 0.437244616567166 
1116	 0.437311819990036 
1117	 0.437381783636469 
1118	 0.437457374432494 
1119	 0.437509059834095 
1120	 0.437550601386777 
1121	 0.43757212780048 
1122	 0.437554187346987 
1123	 0.437533006418367 
1124	 0.437501024002291 
1125	 0.437461728118887 
1126	 0.437369925327668 
1127	 0.437277013862537 
1128	 0.43712725437695 
1129	 0.436923648538123 
1130	 0.436700821579625 
1131	 0.436469610447388 
1132	 0.43616654323764 
1133	 0.435810532520712 
1134	 0.435428378088822 
1135	 0.435002597280983 
1136	 0.434568901296984 
1137	 0.434076978047197 
1138	 0.433484765628484 
1139	 0.43277591753977 
1140	 0.431963757763131 
1141	 0.43106601952506 
1142	 0.430079829052335 
1143	 0.429001287910517 
1144	 0.427857994220211 
1145	 0.426590430859267 
1146	 0.425170738283881 
1147	 0.423757772291393 
1148	 0.42221010326191 
1149	 0.420717117904279 
1150	 0.419187320578191 
1151	 0.417715762975581 
1152	 0.416276075354544 
1153	 0.414951494241598 
1154	 0.413786047173995 
1155	 0.412696535250152 
1156	 0.411833264650797 
1157	 0.411117812096494 
1158	 0.410570210314829 
1159	 0.410214760765666 
1160	 0.409970018329288 
1161	 0.409921183573628 
1162	 0.409885220524704 
1163	 0.410017248517401 
1164	 0.410092811334671 
1165	 0.41019434368816 
1166	 0.410303373273108 
1167	 0.410356625189887 
1168	 0.410394018688491 
1169	 0.41037028703262 
1170	 0.41028631814347 
1171	 0.410200236983791 
1172	 0.410066738422436 
1173	 0.409952196456618 
1174	 0.409815880511456 
1175	 0.409705386950436 
1176	 0.409630838947458 
1177	 0.409504789707192 
1178	 0.409368167436224 
1179	 0.409221538923689 
1180	 0.409007358516433 
1181	 0.40884379254957 
1182	 0.408720108162916 
1183	 0.408583784312718 
1184	 0.408428996791257 
1185	 0.408288078455721 
1186	 0.408114932110623 
1187	 0.407898744306802 
1188	 0.407712932375232 
1189	 0.407526963197856 
1190	 0.407349301952184 
1191	 0.407190716089772 
1192	 0.407010105653495 
1193	 0.406816046932211 
1194	 0.406635229977119 
1195	 0.406464021228558 
1196	 0.406269476303938 
1197	 0.406050438118294 
1198	 0.405863676228134 
1199	 0.405683113553387 
1200	 0.405475513211809 
1201	 0.405329401291959 
1202	 0.405245767420043 
1203	 0.405116300123662 
1204	 0.404988750426159 
1205	 0.404861602778927 
1206	 0.404708047229142 
1207	 0.404592266451701 
1208	 0.404509500939391 
1209	 0.404408065361625 
1210	 0.404315867786071 
1211	 0.404218261203822 
1212	 0.40409333683723 
1213	 0.403998485228453 
1214	 0.403926344821606 
1215	 0.40385006545117 
1216	 0.403779871356549 
1217	 0.403736693969449 
1218	 0.403649856409332 
1219	 0.403531841578851 
1220	 0.403450599533938 
1221	 0.403368050074155 
1222	 0.403285957429716 
1223	 0.403236732378046 
1224	 0.40315492329518 
1225	 0.403035689187451 
1226	 0.402943984918161 
1227	 0.40286906538558 
1228	 0.402776176454981 
1229	 0.4026929356184 
1230	 0.402591334644154 
1231	 0.402442527647861 
1232	 0.402329190561512 
1233	 0.402227404771662 
1234	 0.402130471837501 
1235	 0.40204597041631 
1236	 0.401996137950347 
1237	 0.401912921902585 
1238	 0.401820429137884 
1239	 0.401725529178221 
1240	 0.401616229167731 
1241	 0.401517044426889 
1242	 0.401418355487392 
1243	 0.401322604640803 
1244	 0.401227499363146 
1245	 0.401137349817916 
1246	 0.40105264274893 
1247	 0.400966039473239 
1248	 0.400883756553031 
1249	 0.400802602333671 
1250	 0.400708942940264 
1251	 0.400612862184103 
1252	 0.40050768389751 
1253	 0.400401766346968 
1254	 0.400267969357902 
1255	 0.400116223811314 
1256	 0.399963850092251 
1257	 0.399792303154327 
1258	 0.399618962489327 
1259	 0.399430985914331 
1260	 0.399263397187586 
1261	 0.399096253272312 
1262	 0.398925968277874 
1263	 0.398775328874086 
1264	 0.39861455747573 
1265	 0.398429015345861 
1266	 0.398264988703068 
1267	 0.398131076339221 
1268	 0.397962097671225 
1269	 0.397810788363601 
1270	 0.397668623522672 
1271	 0.397518860672789 
1272	 0.397375438067969 
1273	 0.397210913214972 
1274	 0.397034760024581 
1275	 0.396859435002619 
1276	 0.396670545608047 
1277	 0.396482195492253 
1278	 0.396306951665442 
1279	 0.396106917310399 
1280	 0.395906238878309 
1281	 0.3956707634407 
1282	 0.395412642191594 
1283	 0.39513447130846 
1284	 0.394828166498398 
1285	 0.394492524048353 
1286	 0.394166632431968 
1287	 0.393850139515262 
1288	 0.393528615031947 
1289	 0.393221407741427 
1290	 0.392880283689869 
1291	 0.392513520200187 
1292	 0.392161903755426 
1293	 0.391804892324729 
1294	 0.39144215242955 
1295	 0.391090847904776 
1296	 0.390718035961094 
1297	 0.390326380554786 
1298	 0.38992900226679 
1299	 0.38953192024513 
1300	 0.389117612146915 
1301	 0.388696609351652 
1302	 0.388248038368409 
1303	 0.387777190065275 
1304	 0.387301042430797 
1305	 0.386785565571106 
1306	 0.386258546027989 
1307	 0.385728549715508 
1308	 0.385143142414024 
1309	 0.384544750298954 
1310	 0.383935494161265 
1311	 0.383278171654784 
1312	 0.382593452426126 
1313	 0.381868867256136 
1314	 0.381112687193531 
1315	 0.380313237379046 
1316	 0.379462669104343 
1317	 0.37860067860308 
1318	 0.377727860800496 
1319	 0.376798757482802 
1320	 0.37585155362925 
1321	 0.374851557769542 
1322	 0.373801242432558 
1323	 0.372705454974371 
1324	 0.371591969446079 
1325	 0.370402940180319 
1326	 0.369190771975434 
1327	 0.367952807124347 
1328	 0.366637257456632 
1329	 0.365332998446223 
1330	 0.36397418704203 
1331	 0.362569707512509 
1332	 0.361131535777405 
1333	 0.359650176813756 
1334	 0.358169746166398 
1335	 0.356664539612328 
1336	 0.355156622967256 
1337	 0.353638840796622 
1338	 0.352126554295528 
1339	 0.350592674109157 
1340	 0.349065136303111 
1341	 0.347530370049043 
1342	 0.346025273296983 
1343	 0.344507213539624 
1344	 0.343050402126315 
1345	 0.341607596899509 
1346	 0.340202737969142 
1347	 0.338817588869466 
1348	 0.337427888444721 
1349	 0.33607972004847 
1350	 0.334753027662498 
1351	 0.333456895998851 
1352	 0.332197572119652 
1353	 0.330939335886085 
1354	 0.329693383017988 
1355	 0.328474566208348 
1356	 0.327275978843517 
1357	 0.326074476125527 
1358	 0.324886851816814 
1359	 0.323712501033996 
1360	 0.322541941225086 
1361	 0.321381797394332 
1362	 0.320262194338099 
1363	 0.319119101502976 
1364	 0.317966676580439 
1365	 0.316808551280632 
1366	 0.315660319915638 
1367	 0.314482805915271 
1368	 0.313292183872884 
1369	 0.312100338058829 
1370	 0.310844509408817 
1371	 0.30955439247122 
1372	 0.308205804727386 
1373	 0.306804496395787 
1374	 0.305345696508571 
1375	 0.303843335290355 
1376	 0.302242097660141 
1377	 0.300593697367683 
1378	 0.298807219646479 
1379	 0.296913348857366 
1380	 0.294936151285184 
1381	 0.292874586487272 
1382	 0.290677320186683 
1383	 0.288405933820757 
1384	 0.285987049304559 
1385	 0.283468114750394 
1386	 0.280785555062815 
1387	 0.277991519751 
1388	 0.275034798865566 
1389	 0.271950453097429 
1390	 0.268646394978932 
1391	 0.265193047679266 
1392	 0.261552962343993 
1393	 0.257746288376361 
1394	 0.253816479753446 
1395	 0.249701585561666 
1396	 0.245513918997525 
1397	 0.241251086854473 
1398	 0.236817570149491 
1399	 0.232446376203323 
1400	 0.22797678798647 
1401	 0.223663287763937 
1402	 0.21933369730053 
1403	 0.215198966960632 
1404	 0.211103875508325 
1405	 0.207316405724485 
1406	 0.203635194752767 
1407	 0.20027960537436 
1408	 0.197162810120313 
1409	 0.194363311497313 
1410	 0.191842532078844 
1411	 0.189599963578246 
1412	 0.187672917206836 
1413	 0.186003515622196 
1414	 0.184540503094364 
1415	 0.183213709685409 
1416	 0.182033235613968 
1417	 0.180929272409727 
1418	 0.179863650897185 
1419	 0.178850272165152 
1420	 0.177806524295479 
1421	 0.17677483851489 
1422	 0.175749374911226 
1423	 0.174710167202664 
1424	 0.17369089566111 
1425	 0.172690413722501 
1426	 0.171680990192257 
1427	 0.170667008083494 
1428	 0.16967434459318 
1429	 0.168680330079297 
1430	 0.167722448755135 
1431	 0.166784327502627 
1432	 0.165865220211332 
1433	 0.164972913013733 
1434	 0.164087170158303 
1435	 0.163216721195166 
1436	 0.162364148735041 
1437	 0.161520156397918 
1438	 0.160702388633502 
1439	 0.159928175538461 
1440	 0.159125692730781 
1441	 0.158313067164467 
1442	 0.157510774042207 
1443	 0.156692832985818 
1444	 0.155893685712879 
1445	 0.155118275665621 
1446	 0.154377501400351 
1447	 0.153650123255903 
1448	 0.152930225495111 
1449	 0.152245343544322 
1450	 0.151563716092348 
1451	 0.150919291753968 
1452	 0.150297553750757 
1453	 0.149704477082005 
1454	 0.149148949760132 
1455	 0.148602128435596 
1456	 0.148078348161186 
1457	 0.147557324913174 
1458	 0.147048717687747 
1459	 0.146550988071895 
1460	 0.146079633267749 
1461	 0.145583809433168 
1462	 0.145081510441764 
1463	 0.144587138466441 
1464	 0.144080740662608 
1465	 0.143579981810813 
1466	 0.143077557549836 
1467	 0.142598900780771 
1468	 0.142110980086646 
1469	 0.141661973919815 
1470	 0.141237917747805 
1471	 0.140851984853697 
1472	 0.14049500741609 
1473	 0.140158056277317 
1474	 0.139843472531338 
1475	 0.139566673137398 
1476	 0.139318286379845 
1477	 0.139105893724292 
1478	 0.138950209532981 
1479	 0.13883001309895 
1480	 0.138748306609739 
1481	 0.138691712282417 
1482	 0.138657729278672 
1483	 0.138663078573082 
1484	 0.138664239657311 
1485	 0.138677671521828 
1486	 0.13871096846704 
1487	 0.138750254128985 
1488	 0.138815887716122 
1489	 0.13892032195819 
1490	 0.139009888406909 
1491	 0.139116282206624 
1492	 0.139206353368286 
1493	 0.139284868690447 
1494	 0.139372204545494 
1495	 0.139460021153346 
1496	 0.139545077668546 
1497	 0.139637902808697 
1498	 0.139718511345195 
1499	 0.139793893119082 
1500	 0.139861144705104 
1501	 0.139908577549496 
1502	 0.139972454334753 
1503	 0.140044857827155 
1504	 0.140106325995559 
1505	 0.140164518981342 
1506	 0.140220533046023 
1507	 0.140243852852028 
1508	 0.140259682889991 
1509	 0.140290056433963 
1510	 0.140311123365248 
1511	 0.140323605745719 
1512	 0.140331305231477 
1513	 0.140340449583427 
1514	 0.140358939619119 
1515	 0.140363823327963 
1516	 0.140372099950388 
1517	 0.140376675115673 
1518	 0.14037015799787 
1519	 0.140358623626628 
1520	 0.140352199424123 
1521	 0.140332580895818 
1522	 0.140292793429047 
1523	 0.140265128360599 
1524	 0.140246453523794 
1525	 0.140212887911889 
1526	 0.14016962970979 
1527	 0.140130104301131 
1528	 0.14008548936947 
1529	 0.14003833090332 
1530	 0.140000513218059 
1531	 0.139945162891684 
1532	 0.13987515340409 
1533	 0.139803295988334 
1534	 0.13972223414955 
1535	 0.139641240388128 
1536	 0.139557786923465 
1537	 0.139470051356198 
1538	 0.139375190490559 
1539	 0.139283852504523 
1540	 0.139193872303911 
1541	 0.139099723175798 
1542	 0.139003081085271 
1543	 0.138904833642736 
1544	 0.138805370951281 
1545	 0.138701468514049 
1546	 0.138596191543843 
1547	 0.13849315826088 
1548	 0.138370370061905 
1549	 0.138237714498815 
1550	 0.13809653413235 
1551	 0.13795838806264 
1552	 0.137829517237876 
1553	 0.137697103601091 
1554	 0.137574127668654 
1555	 0.137449499500641 
1556	 0.137325730614689 
1557	 0.137199690559887 
1558	 0.137070427475745 
1559	 0.136945570571977 
1560	 0.136806760283974 
1561	 0.136665058976982 
1562	 0.136509504069228 
1563	 0.136334353528099 
1564	 0.136173147067758 
1565	 0.136009194269268 
1566	 0.135851531608365 
1567	 0.135701812870559 
1568	 0.135547161761955 
1569	 0.135388324672805 
1570	 0.135233279205079 
1571	 0.135084656777736 
1572	 0.134927319214755 
1573	 0.134765693904083 
1574	 0.134609077639454 
1575	 0.134447707641928 
1576	 0.134291177178162 
1577	 0.134144157574032 
1578	 0.133988415217288 
1579	 0.133827885641189 
1580	 0.133668808524629 
1581	 0.133504363402293 
1582	 0.133348917229928 
1583	 0.133202530586077 
1584	 0.133046673145566 
1585	 0.13289290215457 
1586	 0.132733764498184 
1587	 0.132565437186733 
1588	 0.132398248770852 
1589	 0.132224951312786 
1590	 0.132059708514378 
1591	 0.131903316570995 
1592	 0.131736584482902 
1593	 0.13157052712067 
1594	 0.131402616534101 
1595	 0.131218265407867 
1596	 0.131047888822533 
1597	 0.13089005472774 
1598	 0.130726466155029 
1599	 0.130575936959597 
1600	 0.130404748883544 
1601	 0.130214798400837 
1602	 0.130032259555493 
1603	 0.129831897238479 
1604	 0.129648306711459 
1605	 0.129483267360984 
1606	 0.129311161981055 
1607	 0.129147799963551 
1608	 0.128973237683057 
1609	 0.12879244145567 
1610	 0.128625391876399 
1611	 0.128452495793347 
1612	 0.128273922347912 
1613	 0.128102489582255 
1614	 0.127926631708439 
1615	 0.127738478612971 
1616	 0.127559210530782 
1617	 0.127376286705754 
1618	 0.127177900800078 
1619	 0.126983599853395 
1620	 0.126804370495271 
1621	 0.126623841243258 
1622	 0.126451339279713 
1623	 0.126253533842626 
1624	 0.126050773292588 
1625	 0.125844239269638 
1626	 0.125613479068672 
1627	 0.125407388181294 
1628	 0.125211568242755 
1629	 0.125019546684137 
1630	 0.124834493593478 
1631	 0.124646854371218 
1632	 0.124464345124493 
1633	 0.124282540884525 
1634	 0.12410396726529 
1635	 0.123911861413541 
1636	 0.12372788923248 
1637	 0.123514625699035 
1638	 0.123276237336598 
1639	 0.123043294306248 
1640	 0.12278974629852 
1641	 0.122559300065096 
1642	 0.122340661650862 
1643	 0.122111247214494 
1644	 0.121881987827818 
1645	 0.1216612003531 
1646	 0.121435059493589 
1647	 0.121217843618627 
1648	 0.12102099307806 
1649	 0.120805508849607 
1650	 0.120585850224089 
1651	 0.120356761923398 
1652	 0.120120197938848 
1653	 0.119878624363213 
1654	 0.119621114164205 
1655	 0.119377176334882 
1656	 0.119131003880912 
1657	 0.118895541608569 
1658	 0.11867950897201 
1659	 0.118439466347337 
1660	 0.118193603891177 
1661	 0.117945344044799 
1662	 0.117678812936741 
1663	 0.117425382951773 
1664	 0.117176036315275 
1665	 0.116932225429042 
1666	 0.116688800257323 
1667	 0.116455239161617 
1668	 0.116234952284309 
1669	 0.116009403955065 
1670	 0.115797740910743 
1671	 0.115561471952758 
1672	 0.11531190936918 
1673	 0.115064814366446 
1674	 0.114797226222764 
1675	 0.114551343498923 
1676	 0.114323504825128 
1677	 0.114080725003317 
1678	 0.113840341519169 
1679	 0.113593741787199 
1680	 0.113330523050798 
1681	 0.1130833730744 
1682	 0.112841098367297 
1683	 0.112602850359437 
1684	 0.112378829053895 
1685	 0.112140007270801 
1686	 0.111891763655485 
1687	 0.111655551146671 
1688	 0.111421615987663 
1689	 0.111182002377716 
1690	 0.110944964078914 
1691	 0.110712540017392 
1692	 0.110467296434411 
1693	 0.110242893089776 
1694	 0.110045836524523 
1695	 0.109829945934023 
1696	 0.109614960541405 
1697	 0.109392522296769 
1698	 0.109152713922726 
1699	 0.108929914463164 
1700	 0.108718217168374 
1701	 0.108494779668417 
1702	 0.108271051342888 
1703	 0.108051915901329 
1704	 0.107823397130458 
1705	 0.107604821647996 
1706	 0.10739433103182 
1707	 0.107190519500643 
1708	 0.106998847265733 
1709	 0.106791559741287 
1710	 0.106580514620048 
1711	 0.106378963643246 
1712	 0.106173250334899 
1713	 0.105966145096089 
1714	 0.105765200867392 
1715	 0.105568842054718 
1716	 0.105362233778376 
1717	 0.105170091363627 
1718	 0.104994391202136 
1719	 0.104822493304426 
1720	 0.104657057275546 
1721	 0.104482225858924 
1722	 0.104313100180521 
1723	 0.104145401393733 
1724	 0.103970253130918 
1725	 0.103797448513292 
1726	 0.103630348747162 
1727	 0.10346442543978 
1728	 0.103292379223472 
1729	 0.103131211690105 
1730	 0.102979537174005 
1731	 0.102828881041879 
1732	 0.102680354501117 
1733	 0.102533716641244 
1734	 0.102397982608215 
1735	 0.102256198273056 
1736	 0.102113118361896 
1737	 0.101962198564474 
1738	 0.101799073932888 
1739	 0.101652057313722 
1740	 0.101503551466443 
1741	 0.101369609167788 
1742	 0.101247082722177 
1743	 0.10113996778505 
1744	 0.101062623770442 
1745	 0.100933904671174 
1746	 0.100792289521214 
1747	 0.100673189198666 
1748	 0.100523871109717 
1749	 0.100410753067489 
1750	 0.100304628451842 
1751	 0.10017339145427 
1752	 0.100031996266531 
1753	 9.99025262720275E-02 
1754	 9.97964338268263E-02 
1755	 9.96991619110426E-02 
1756	 9.96091668621734E-02 
1757	 9.95217448227285E-02 
1758	 9.94288924200891E-02 
1759	 9.93222439274294E-02 
1760	 0.099206704885596 
1761	 9.91149150876633E-02 
1762	 9.90155291417534E-02 
1763	 9.89021075414397E-02 
1764	 9.88007481656853E-02 
1765	 9.86780230144398E-02 
1766	 9.85511520499585E-02 
1767	 9.84485784110461E-02 
1768	 9.83637400914751E-02 
1769	 9.82669096709439E-02 
1770	 9.81721786079792E-02 
1771	 9.80901094136482E-02 
1772	 9.79785134058656E-02 
1773	 0.09788028247887 
1774	 9.78087080004722E-02 
1775	 9.77190741172118E-02 
1776	 9.76196652309907E-02 
1777	 9.75214071815391E-02 
1778	 9.74172665530173E-02 
1779	 9.73125133886211E-02 
1780	 9.72157333396567E-02 
1781	 0.097130662952793 
1782	 9.70530347748748E-02 
1783	 9.69867787463027E-02 
1784	 0.096916606759872 
1785	 0.096841125632546 
1786	 9.67824796249143E-02 
1787	 9.67491356679911E-02 
1788	 9.66784685753448E-02 
1789	 9.65984970025206E-02 
1790	 9.65163027521535E-02 
1791	 9.63859801191979E-02 
1792	 9.63093018363816E-02 
1793	 9.62718980623471E-02 
1794	 9.62275693273323E-02 
1795	 9.62022080311162E-02 
1796	 9.61601730659901E-02 
1797	 9.61183294107184E-02 
1798	 9.60639796768487E-02 
1799	 9.59912627368291E-02 
1800	 0.095946178368355 
1801	 0.09521822871846 
1802	 9.51766981626242E-02 
1803	 9.51254904097615E-02 
1804	 9.51180812417717E-02 
1805	 9.51402123407037E-02 
1806	 9.51469252115532E-02 
1807	 9.51610861276697E-02 
1808	 9.51737965053287E-02 
1809	 9.52054249950204E-02 
1810	 9.52011562167534E-02 
1811	 9.51746533218854E-02 
1812	 9.51664029537954E-02 
1813	 0.095125908426316 
1814	 9.50886621793875E-02 
1815	 9.50930124916667E-02 
1816	 9.50773485022561E-02 
1817	 9.50566363844475E-02 
1818	 9.50428227801123E-02 
1819	 9.50172887108303E-02 
1820	 9.49782594776771E-02 
1821	 9.49309632711072E-02 
1822	 0.094906626178059 
1823	 9.48895151578529E-02 
1824	 9.48759290074399E-02 
1825	 9.48669452066081E-02 
1826	 9.48617577770295E-02 
1827	 9.48644887721097E-02 
1828	 9.48456797811379E-02 
1829	 9.48250571162017E-02 
1830	 9.47983300984936E-02 
1831	 9.47613535160797E-02 
1832	 9.47010615349131E-02 
1833	 9.46529558867892E-02 
1834	 9.45726545341166E-02 
1835	 9.45009058667006E-02 
1836	 9.44628315214003E-02 
1837	 9.43991339468408E-02 
1838	 9.43471230869105E-02 
1839	 9.43114441298286E-02 
1840	 9.42958442419284E-02 
1841	 9.42366618979814E-02 
1842	 9.41889336005858E-02 
1843	 9.41597821959999E-02 
1844	 9.40865102430895E-02 
1845	 9.40092805280211E-02 
1846	 9.39438528009614E-02 
1847	 9.38504946033801E-02 
1848	 9.37432905366622E-02 
1849	 9.36462746482452E-02 
1850	 9.35438435984649E-02 
1851	 9.34353349624445E-02 
1852	 9.33257678298346E-02 
1853	 9.32258000274077E-02 
1854	 9.30957709989423E-02 
1855	 9.29418685653955E-02 
1856	 9.28039874866871E-02 
1857	 9.26333091143513E-02 
1858	 9.24476614659421E-02 
1859	 9.23017515234359E-02 
1860	 9.21120633996162E-02 
1861	 9.18972414948946E-02 
1862	 9.16605883783362E-02 
1863	 9.14420341628298E-02 
1864	 9.11558817963748E-02 
1865	 9.08445443353185E-02 
1866	 9.05310202897128E-02 
1867	 9.01795281185545E-02 
1868	 8.98247782591934E-02 
1869	 0.08945795256812 
1870	 8.90983573421957E-02 
1871	 0.088711263034787 
1872	 8.83112456270941E-02 
1873	 8.78733731624542E-02 
1874	 8.74382504080426E-02 
1875	 8.69661574638342E-02 
1876	 8.64604653747539E-02 
1877	 8.59445472034702E-02 
1878	 8.53821437297479E-02 
1879	 8.47840488639433E-02 
1880	 8.41678719979069E-02 
1881	 8.35411349526902E-02 
1882	 8.28542698283416E-02 
1883	 8.21362558418872E-02 
1884	 0.081367294164382 
1885	 8.05349997155621E-02 
1886	 0.079675648800163 
1887	 7.87778784697017E-02 
1888	 7.78518946381623E-02 
1889	 7.68909369535149E-02 
1890	 7.58755072839548E-02 
1891	 7.48262489119133E-02 
1892	 0.073718826839451 
1893	 7.25942133133518E-02 
1894	 7.14310483886181E-02 
1895	 7.02543065637244E-02 
1896	 0.069048274335261 
1897	 6.78396947629816E-02 
1898	 6.66186343272437E-02 
1899	 6.53755016759706E-02 
1900	 6.41789401018892E-02 
1901	 6.30136276361746E-02 
1902	 6.19421551701641E-02 
1903	 6.09519562680633E-02 
1904	 6.00300395478638E-02 
1905	 5.91704791570688E-02 
1906	 5.83957823787165E-02 
1907	 5.77044502521876E-02 
1908	 5.70864448132557E-02 
1909	 5.65572873693608E-02 
1910	 5.61112675640277E-02 
1911	 5.57198998409753E-02 
1912	 5.53786826117819E-02 
1913	 5.50551247670534E-02 
1914	 5.47890350650916E-02 
1915	 5.45141420096384E-02 
1916	 5.42642426730551E-02 
1917	 5.40121823678517E-02 
1918	 5.37516618433711E-02 
1919	 5.34774570907319E-02 
1920	 5.32068354758367E-02 
1921	 5.29225124052712E-02 
1922	 5.26763503194955E-02 
1923	 5.24675874095251E-02 
1924	 5.22489842339419E-02 
1925	 5.20549195051455E-02 
1926	 5.18488392275093E-02 
1927	 5.16338012459638E-02 
1928	 5.14175543807582E-02 
1929	 5.12253326525611E-02 
1930	 0.051052069649853 
1931	 5.08885223154872E-02 
1932	 5.07336948574588E-02 
1933	 5.05897414407398E-02 
1934	 5.04399733190051E-02 
1935	 5.02952277949244E-02 
1936	 5.01523769772361E-02 
1937	 5.00227926292354E-02 
1938	 4.98907270215911E-02 
1939	 0.049779335771918 
1940	 4.96853065522271E-02 
1941	 4.95995641480243E-02 
1942	 4.95323624962682E-02 
1943	 4.94639702518413E-02 
1944	 4.93917808555696E-02 
1945	 4.93245944932234E-02 
1946	 4.92786040892885E-02 
1947	 4.92482071009664E-02 
1948	 4.92135684525002E-02 
1949	 4.92026449933171E-02 
1950	 4.91797609354309E-02 
1951	 4.91459080817159E-02 
1952	 4.91098619987075E-02 
1953	 4.90934842358204E-02 
1954	 4.90688312565238E-02 
1955	 4.90482702958693E-02 
1956	 4.90394720797917E-02 
1957	 4.90247716319945E-02 
1958	 4.90203851369728E-02 
1959	 4.89922330445261E-02 
1960	 4.89492957480598E-02 
1961	 4.89121464280082E-02 
1962	 4.88507065115758E-02 
1963	 4.88113956782145E-02 
1964	 0.048788720615563 
1965	 4.87558928805612E-02 
1966	 4.87456944649972E-02 
1967	 4.87658151106641E-02 
1968	 0.048782086065982 
1969	 4.88261380863648E-02 
1970	 4.88518291596738E-02 
1971	 4.88639228684501E-02 
1972	 4.88907895727969E-02 
1973	 4.89077438618379E-02 
1974	 4.89527475533322E-02 
1975	 4.90185796516294E-02 
1976	 4.90894204501705E-02 
1977	 4.91760830970596E-02 
1978	 4.92723379171728E-02 
1979	 4.93546917833338E-02 
1980	 4.94401611127532E-02 
1981	 4.95425656385113E-02 
1982	 4.96599121109466E-02 
1983	 4.97687302269435E-02 
1984	 4.98846293768571E-02 
1985	 5.00063707861224E-02 
1986	 0.05012825952247 
1987	 5.02447406029313E-02 
1988	 5.03703490858802E-02 
1989	 5.04916043567965E-02 
1990	 5.05958495455855E-02 
1991	 0.050714428312111 
1992	 5.08310446702967E-02 
1993	 5.09560965528184E-02 
1994	 5.10686168746169E-02 
1995	 5.11737048079945E-02 
1996	 5.12824506589211E-02 
1997	 5.13769735583032E-02 
1998	 5.14940015724397E-02 
1999	 0.051625829599714 
2000	 5.17556025145344E-02 
2001	 5.19036201469582E-02 
2002	 5.20391620332316E-02 
2003	 5.21545635202994E-02 
2004	 0.052293064349595 
2005	 5.24172073282723E-02 
2006	 5.25274912578299E-02 
2007	 5.26505251781394E-02 
2008	 5.27821371339056E-02 
2009	 5.29028397403296E-02 
2010	 5.30330979998555E-02 
2011	 5.31455196828251E-02 
2012	 5.32301958760242E-02 
2013	 5.33345136270168E-02 
2014	 5.34395765222746E-02 
2015	 5.35481088366348E-02 
2016	 0.053651082656783 
2017	 5.37581759366638E-02 
2018	 5.38723401151886E-02 
2019	 5.39807338056475E-02 
2020	 0.054092072240154 
2021	 5.42211898076514E-02 
2022	 5.43396071758618E-02 
2023	 5.44454021507934E-02 
2024	 5.45582990082955E-02 
2025	 5.46697611979872E-02 
2026	 5.47905705095893E-02 
2027	 5.49141121466836E-02 
2028	 5.50440412982134E-02 
2029	 5.51729162276886E-02 
2030	 5.53163623697807E-02 
2031	 5.54399175081886E-02 
2032	 5.55561275814605E-02 
2033	 5.56659418087983E-02 
2034	 5.57665303450034E-02 
2035	 5.58686451266643E-02 
2036	 5.59584287285065E-02 
2037	 5.60583633218885E-02 
2038	 5.61657460737562E-02 
2039	 5.62657411893573E-02 
2040	 5.63578449758566E-02 
2041	 5.64664550829929E-02 
2042	 5.65697408490231E-02 
2043	 5.66646866503712E-02 
2044	 5.67785492313583E-02 
2045	 5.69123478532326E-02 
2046	 5.70276806099811E-02 
2047	 5.71516180983665E-02 
2048	 5.72585102250917E-02 
2049	 5.73412170936283E-02 
2050	 5.74392126803184E-02 
2051	 0.057541851855783 
2052	 5.76353909081139E-02 
2053	 5.77312178398016E-02 
2054	 5.78232443391576E-02 
2055	 5.79084913098265E-02 
2056	 5.79852157014208E-02 
2057	 5.80697664873101E-02 
2058	 5.81533688289821E-02 
2059	 5.82493589603886E-02 
2060	 5.83573314376442E-02 
2061	 0.058450267491236 
2062	 5.85412197818589E-02 
2063	 5.86393130957017E-02 
2064	 5.87336167168402E-02 
2065	 5.88270053466607E-02 
2066	 5.89329134474546E-02 
2067	 0.059029697781955 
2068	 5.91182570209727E-02 
2069	 5.91958615807082E-02 
2070	 5.92872387287282E-02 
2071	 5.93861605110498E-02 
2072	 5.94785732243998E-02 
2073	 5.95723404492954E-02 
2074	 5.96644179778201E-02 
2075	 5.97567770488988E-02 
2076	 5.98427251710399E-02 
2077	 5.99175909740666E-02 
2078	 0.060008495905722 
2079	 6.01007436336669E-02 
2080	 0.060195230340517 
2081	 6.03193035982453E-02 
2082	 0.060413538462318 
2083	 6.04839136841551E-02 
2084	 6.05595142176419E-02 
2085	 6.06412045074102E-02 
2086	 6.07084079116038E-02 
2087	 6.08000402720231E-02 
2088	 6.09150349174768E-02 
2089	 6.10167213847175E-02 
2090	 6.11264321932655E-02 
2091	 6.12199640982682E-02 
2092	 6.12996891849439E-02 
2093	 6.13899532791771E-02 
2094	 6.14691701855222E-02 
2095	 6.15628317636657E-02 
2096	 6.16786671049831E-02 
2097	 6.17805243347936E-02 
2098	 6.18795355033951E-02 
2099	 0.061979837219169 
2100	 6.20770218771427E-02 
2101	 6.21594113873139E-02 
2102	 6.22662433608598E-02 
2103	 6.23987892206661E-02 
2104	 6.24937347429249E-02 
2105	 6.25758842707868E-02 
2106	 0.062671808339866 
2107	 6.27433224296215E-02 
2108	 6.28378448202458E-02 
2109	 6.29530265261964E-02 
2110	 6.30723183296482E-02 
2111	 6.32022406884708E-02 
2112	 0.063326105276599 
2113	 6.34463663746324E-02 
2114	 6.35946077727717E-02 
2115	 6.37251977128593E-02 
2116	 0.063845389413705 
2117	 6.39699195589221E-02 
2118	 6.41007278866836E-02 
2119	 0.064223715152879 
2120	 6.43353813541084E-02 
2121	 6.44604369270601E-02 
2122	 6.45890942995677E-02 
2123	 6.47189042110609E-02 
2124	 6.48639157515696E-02 
2125	 6.49914415585587E-02 
2126	 0.065110869875994 
2127	 6.52305676810986E-02 
2128	 6.53441182757169E-02 
2129	 6.54514661313785E-02 
2130	 6.55462667544315E-02 
2131	 6.56557134041496E-02 
2132	 6.57612971235673E-02 
2133	 6.58659492727083E-02 
2134	 6.59624586912661E-02 
2135	 6.60637005758648E-02 
2136	 6.61526093837067E-02 
2137	 6.62167999282659E-02 
2138	 0.066304842248793 
2139	 6.64051714432373E-02 
2140	 6.64965384723919E-02 
2141	 6.65950061738868E-02 
2142	 0.066686107199586 
2143	 6.67675119903052E-02 
2144	 6.68511094155417E-02 
2145	 6.69584791821919E-02 
2146	 0.067027921624329 
2147	 6.70815765947821E-02 
2148	 6.71116727035146E-02 
2149	 6.71401729234216E-02 
2150	 6.71226460317006E-02 
2151	 6.71608192844547E-02 
2152	 6.72261701278858E-02 
2153	 6.72766796012315E-02 
2154	 6.73444723028882E-02 
2155	 6.74009670538849E-02 
2156	 6.74504092578552E-02 
2157	 0.067492575401122 
2158	 6.75444063866414E-02 
2159	 6.75739810022446E-02 
2160	 6.75758077384898E-02 
2161	 0.067586071703989 
2162	 6.75817387525964E-02 
2163	 6.75869404282892E-02 
2164	 6.75950105967099E-02 
2165	 6.76163677568112E-02 
2166	 6.76218029451785E-02 
2167	 6.76237468050097E-02 
2168	 0.067631375527619 
2169	 6.76300598302575E-02 
2170	 0.067641201607744 
2171	 6.76676315699334E-02 
2172	 0.067681182227031 
2173	 6.76996566435969E-02 
2174	 6.77042150484085E-02 
2175	 6.76885009858864E-02 
2176	 6.76912432342023E-02 
2177	 6.76965213988993E-02 
2178	 0.06769771740298 
2179	 6.76853852926403E-02 
2180	 6.77073507513775E-02 
2181	 6.77765917253826E-02 
2182	 6.77998116828545E-02 
2183	 6.78076984465913E-02 
2184	 0.067846724189472 
2185	 0.067847000786729 
2186	 6.77873480856298E-02 
2187	 6.77777712500941E-02 
2188	 6.77866752184413E-02 
2189	 6.77938409100051E-02 
2190	 6.78184777299948E-02 
2191	 6.78170940394645E-02 
2192	 6.78117900664839E-02 
2193	 6.78022365324792E-02 
2194	 6.77622059530094E-02 
2195	 0.067747973146552 
2196	 6.77562072020441E-02 
2197	 6.77486151578593E-02 
2198	 6.77307089791004E-02 
2199	 6.77298342953564E-02 
2200	 6.77212513396226E-02 
2201	 6.77286040670766E-02 
2202	 6.77488817853092E-02 
2203	 6.77972281348478E-02 
2204	 6.78335597914728E-02 
2205	 6.78837223068801E-02 
2206	 0.067903123997069 
2207	 6.79177412902857E-02 
2208	 6.79131807678325E-02 
2209	 6.78645588067568E-02 
2210	 6.78642110478817E-02 
2211	 6.78791179469928E-02 
2212	 0.067890077144039 
2213	 6.79193539891988E-02 
2214	 6.79450751978938E-02 
2215	 0.067959115128281 
2216	 6.79877810356395E-02 
2217	 6.80360252341838E-02 
2218	 6.80749225784481E-02 
2219	 6.81171202081304E-02 
2220	 0.068149937558137 
2221	 6.81607629649621E-02 
2222	 0.068208914384297 
2223	 6.82230261882168E-02 
2224	 6.82452632589054E-02 
2225	 6.82563649061219E-02 
2226	 0.068255082334968 
2227	 0.06826970046775 
2228	 6.82843684384864E-02 
2229	 6.83008119856456E-02 
2230	 6.83235102007299E-02 
2231	 6.83495380355534E-02 
2232	 6.83856686683858E-02 
2233	 6.84047067448026E-02 
2234	 6.84181291890845E-02 
2235	 6.84393159344059E-02 
2236	 6.84546995920154E-02 
2237	 6.84636278849706E-02 
2238	 6.84794374594639E-02 
2239	 6.84909259960929E-02 
2240	 6.84951356154102E-02 
2241	 0.068488858467537 
2242	 6.84792890685196E-02 
2243	 6.84681979965322E-02 
2244	 6.84343754749179E-02 
2245	 6.84113730039498E-02 
2246	 0.068417244969758 
2247	 0.068430597752948 
2248	 6.84058202350241E-02 
2249	 6.83571657734469E-02 
2250	 0.068353891244275 
2251	 6.83386576374592E-02 
2252	 6.83406591935363E-02 
2253	 6.84052631003562E-02 
2254	 6.84131224987257E-02 
2255	 6.83817714319246E-02 
2256	 6.83705153942316E-02 
2257	 6.83596366957981E-02 
2258	 6.83424364949174E-02 
2259	 6.83315197574037E-02 
2260	 6.82993460068529E-02 
2261	 6.82370635138448E-02 
2262	 0.068199740088146 
2263	 6.81755902818148E-02 
2264	 0.06813423654798 
2265	 6.80882234107952E-02 
2266	 6.80556824621431E-02 
2267	 0.068016516020818 
2268	 6.79717841522834E-02 
2269	 6.79264995487088E-02 
2270	 6.79103360432949E-02 
2271	 6.78924935070403E-02 
2272	 6.78316584424673E-02 
2273	 6.78047418578858E-02 
2274	 6.77591396222049E-02 
2275	 6.76881839321494E-02 
2276	 6.75817680299796E-02 
2277	 6.75104151395885E-02 
2278	 6.74400339505018E-02 
2279	 6.73568580276045E-02 
2280	 6.72919599397373E-02 
2281	 6.71946688538561E-02 
2282	 6.70552048389482E-02 
2283	 6.69517303851146E-02 
2284	 6.68447176810418E-02 
2285	 6.67535686765868E-02 
2286	 6.66978032083728E-02 
2287	 6.66051829928386E-02 
2288	 6.65142789047099E-02 
2289	 6.64090966171569E-02 
2290	 6.62605593410399E-02 
2291	 0.06614105808369 
2292	 6.60397938069925E-02 
2293	 6.59173119746398E-02 
2294	 0.065794475766643 
2295	 0.065671326923512 
2296	 6.55252226052165E-02 
2297	 0.065388842046569 
2298	 6.52931937456832E-02 
2299	 6.52073006596069E-02 
2300	 6.51281271580803E-02 
2301	 6.50382887030093E-02 
2302	 6.48661684453375E-02 
2303	 6.46883351139197E-02 
2304	 6.45818579973539E-02 
2305	 6.44585202677332E-02 
2306	 6.43344381865449E-02 
2307	 6.42809739977665E-02 
2308	 6.41472877639307E-02 
2309	 6.39254081150532E-02 
2310	 6.37671530119236E-02 
2311	 6.36123865043391E-02 
2312	 6.34811130247403E-02 
2313	 6.33996320515659E-02 
2314	 6.32716228377423E-02 
2315	 6.31421515077616E-02 
2316	 0.063000536597715 
2317	 0.06280652909361 
2318	 6.26447057195994E-02 
2319	 6.24969935137626E-02 
2320	 6.23496923142373E-02 
2321	 6.22118974163958E-02 
2322	 6.20787536112414E-02 
2323	 6.19725760644801E-02 
2324	 6.18400541462938E-02 
2325	 6.16824855019992E-02 
2326	 6.15414862886072E-02 
2327	 6.14056401324085E-02 
2328	 6.12495459149069E-02 
2329	 6.10964861252228E-02 
2330	 0.060935101340465 
2331	 6.07301691221843E-02 
2332	 6.05144812247194E-02 
2333	 6.03536748003799E-02 
2334	 6.02353264061057E-02 
2335	 6.01722350637533E-02 
2336	 6.00866118288001E-02 
2337	 5.99195205256193E-02 
2338	 5.97260372723493E-02 
2339	 0.059504269545849 
2340	 0.059274345445442 
2341	 5.90661004168674E-02 
2342	 0.058908147790105 
2343	 5.87568811535545E-02 
2344	 5.85595863767636E-02 
2345	 5.84075191941873E-02 
2346	 5.82960167538282E-02 
2347	 5.81494524377682E-02 
2348	 5.80334021682897E-02 
2349	 5.78459259534841E-02 
2350	 5.75864035541765E-02 
2351	 5.73682207306431E-02 
2352	 0.057114319441302 
2353	 5.68970590925902E-02 
2354	 5.67298805471065E-02 
2355	 5.65343151773443E-02 
2356	 5.63352066453669E-02 
2357	 5.61267602726249E-02 
2358	 5.59057963356772E-02 
2359	 5.57042987994679E-02 
2360	 5.55065229276151E-02 
2361	 5.52872776764499E-02 
2362	 5.50626648006854E-02 
2363	 5.48508478153281E-02 
2364	 5.46235817283911E-02 
2365	 5.44187542524009E-02 
2366	 5.42527171309113E-02 
2367	 5.40644782906252E-02 
2368	 5.38769902710419E-02 
2369	 5.36601624367917E-02 
2370	 5.34136866801223E-02 
2371	 5.31990139786979E-02 
2372	 5.29486536712621E-02 
2373	 5.26920597798963E-02 
2374	 5.25348077275743E-02 
2375	 5.23172406004509E-02 
2376	 5.21011577410315E-02 
2377	 5.19380723203704E-02 
2378	 5.16731318993351E-02 
2379	 0.051485778018964 
2380	 5.13409112283002E-02 
2381	 5.11425425166303E-02 
2382	 0.051011512749416 
2383	 5.08561380471833E-02 
2384	 5.06624307834515E-02 
2385	 5.04785501752397E-02 
2386	 5.02368173184216E-02 
2387	 4.99436706190237E-02 
2388	 4.97365185489198E-02 
2389	 4.95571733658825E-02 
2390	 4.93297835496175E-02 
2391	 4.91756302692188E-02 
2392	 0.048961280626542 
2393	 4.86552693011342E-02 
2394	 4.84692481825151E-02 
2395	 4.82604916834127E-02 
2396	 4.79579399055554E-02 
2397	 4.77593656348219E-02 
2398	 4.76225749411038E-02 
2399	 4.74540810255672E-02 
2400	 4.73303182483869E-02 
2401	 4.72299984182592E-02 
2402	 4.70069500882705E-02 
2403	 4.67504162940411E-02 
2404	 4.65889581688457E-02 
2405	 0.046445686067283 
2406	 0.046330992534486 
2407	 4.62858005146834E-02 
2408	 4.61997578537102E-02 
2409	 4.60044618021235E-02 
2410	 4.57944635187343E-02 
2411	 4.55785022026186E-02 
2412	 4.53255393536308E-02 
2413	 4.51406954699474E-02 
2414	 4.50650888511238E-02 
2415	 4.49268613691887E-02 
2416	 4.47805781535978E-02 
2417	 4.46998762904877E-02 
2418	 4.45521750330287E-02 
2419	 4.42763045157579E-02 
2420	 4.41374993128532E-02 
2421	 4.40621106167732E-02 
2422	 4.39374746646789E-02 
2423	 4.38386502526996E-02 
2424	 4.37283597893624E-02 
2425	 4.35874506575221E-02 
2426	 4.34494243242771E-02 
2427	 4.33759732180716E-02 
2428	 4.32374256539992E-02 
2429	 4.30486314057746E-02 
2430	 4.28853208971488E-02 
2431	 0.042645038268722 
2432	 4.24848786066728E-02 
2433	 4.23812370375692E-02 
2434	 4.22586186606575E-02 
2435	 4.21730251223954E-02 
2436	 4.20541381993573E-02 
2437	 0.04193363248014 
2438	 4.17884349845285E-02 
2439	 0.041651903351972 
2440	 4.15394826242185E-02 
2441	 4.13790522787493E-02 
2442	 4.12281642189939E-02 
2443	 4.10614344253157E-02 
2444	 0.04089886278293 
2445	 4.07842425580091E-02 
2446	 4.06421161020586E-02 
2447	 4.04814347665365E-02 
2448	 4.03688139672081E-02 
2449	 4.02384369339065E-02 
2450	 4.01307434551631E-02 
2451	 4.01158062386253E-02 
2452	 4.00383371048794E-02 
2453	 3.99002880293658E-02 
2454	 3.98046112010079E-02 
2455	 3.97520890256613E-02 
2456	 3.95815250128305E-02 
2457	 3.93479729348712E-02 
2458	 3.91994153040917E-02 
2459	 3.89712625960674E-02 
2460	 3.88698257754455E-02 
2461	 3.89453234162213E-02 
2462	 3.88166714794605E-02 
2463	 3.86322423292922E-02 
2464	 3.85001496308645E-02 
2465	 3.82794882850725E-02 
2466	 3.81636888412279E-02 
2467	 3.80993305773271E-02 
2468	 3.80684378370899E-02 
2469	 0.03810165147476 
2470	 3.79977144438827E-02 
2471	 3.80693924955584E-02 
2472	 3.79938812479055E-02 
2473	 3.78813687630759E-02 
2474	 3.78804804929525E-02 
2475	 3.76852190616371E-02 
2476	 3.74856866250243E-02 
2477	 3.73270595550956E-02 
2478	 3.72648606951147E-02 
2479	 3.73482488150401E-02 
2480	 0.037346234572993 
2481	 3.72870216460484E-02 
2482	 3.70716875743673E-02 
2483	 3.69294765934553E-02 
2484	 3.69737262556257E-02 
2485	 3.69514249050618E-02 
2486	 3.69494889811249E-02 
2487	 3.68571969914573E-02 
2488	 3.66528998561123E-02 
2489	 3.64903195896133E-02 
2490	 3.62560122826335E-02 
2491	 3.58911866802552E-02 
2492	 3.55339710222214E-02 
2493	 3.53241032673915E-02 
2494	 3.53357529016095E-02 
2495	 3.54540419880082E-02 
2496	 3.55162305029204E-02 
2497	 3.54990834176572E-02 
2498	 3.55139980119472E-02 
2499	 3.55905212150971E-02 
2500	 3.56232174478798E-02 
