Wavelength	lmw-9-200002.asd
350	 0.056649817289202 
351	 6.24790769164191E-02 
352	 5.97770025416033E-02 
353	 4.93951955248994E-02 
354	 5.46880397689459E-02 
355	 5.82088813017824E-02 
356	 5.79284008696131E-02 
357	 0.056507954409935 
358	 0.058162178782397 
359	 5.10755013899835E-02 
360	 4.29727575706019E-02 
361	 0.05094528904656 
362	 4.78582918887343E-02 
363	 4.43846941503933E-02 
364	 4.69888081620554E-02 
365	 4.86415817036684E-02 
366	 4.70434010146779E-02 
367	 4.69597822051046E-02 
368	 5.16581504476928E-02 
369	 5.06177986463586E-02 
370	 4.83257635121401E-02 
371	 4.80401866982871E-02 
372	 5.11813584158593E-02 
373	 0.052618056114135 
374	 5.14642057880067E-02 
375	 0.049190414646444 
376	 5.02507001547288E-02 
377	 4.93801073312759E-02 
378	 4.91902165165869E-02 
379	 5.23814417123981E-02 
380	 5.20646372022695E-02 
381	 4.97766799409437E-02 
382	 4.85270097171136E-02 
383	 5.14672286150911E-02 
384	 5.29038043002661E-02 
385	 5.27520081502255E-02 
386	 0.052368780946137 
387	 5.44271061583794E-02 
388	 5.33613172141996E-02 
389	 5.15449388948308E-02 
390	 5.25087649548623E-02 
391	 5.21414708365034E-02 
392	 5.27740094375765E-02 
393	 5.39471383439896E-02 
394	 5.29473691093788E-02 
395	 5.36108319911078E-02 
396	 5.41746709550109E-02 
397	 5.38722845469401E-02 
398	 5.64251062998528E-02 
399	 5.64757428298169E-02 
400	 5.56694590152835E-02 
401	 5.72181993876617E-02 
402	 5.75892030175363E-02 
403	 0.056821039544543 
404	 0.055618361202853 
405	 5.50517020738594E-02 
406	 5.55422932118922E-02 
407	 0.056970775769016 
408	 5.85046929534489E-02 
409	 5.78071989693864E-02 
410	 5.69801126914092E-02 
411	 5.72351842181465E-02 
412	 5.88797481296731E-02 
413	 5.94973869260508E-02 
414	 5.93595158680557E-02 
415	 0.05892196563964 
416	 5.84934432168688E-02 
417	 5.80412168734505E-02 
418	 0.058207127246511 
419	 5.91588520904547E-02 
420	 5.91259170058698E-02 
421	 5.85962932301549E-02 
422	 5.84585380611746E-02 
423	 5.95209562459967E-02 
424	 5.90150699735799E-02 
425	 5.84233804541867E-02 
426	 5.86420059193047E-02 
427	 5.85280533276711E-02 
428	 5.84539390853705E-02 
429	 5.83981813637232E-02 
430	 5.83099777521884E-02 
431	 5.85672467886996E-02 
432	 5.85782474723528E-02 
433	 5.85097368538539E-02 
434	 5.92332258128707E-02 
435	 5.98551848374743E-02 
436	 6.02610555864143E-02 
437	 0.060479009717493 
438	 6.03747159489214E-02 
439	 6.07539072007853E-02 
440	 6.15226992539478E-02 
441	 6.21574742570882E-02 
442	 6.28193289982076E-02 
443	 6.33194897210911E-02 
444	 6.36467262894896E-02 
445	 6.40904998808219E-02 
446	 6.44498778641902E-02 
447	 0.064709363253137 
448	 6.49257993063069E-02 
449	 6.51919235904143E-02 
450	 6.57223949087239E-02 
451	 6.62951206961207E-02 
452	 6.63662934241262E-02 
453	 0.066378132429239 
454	 0.066664321987618 
455	 6.72718029051865E-02 
456	 6.76695040382843E-02 
457	 6.77470608965865E-02 
458	 6.76744096066137E-02 
459	 6.77760211534865E-02 
460	 0.068305354209946 
461	 6.86895034649652E-02 
462	 6.86596514222697E-02 
463	 6.84572738316107E-02 
464	 6.85397357585767E-02 
465	 0.068858420283504 
466	 6.92040552145446E-02 
467	 6.94742314160057E-02 
468	 6.94777454387758E-02 
469	 6.94031000329676E-02 
470	 6.96946756183564E-02 
471	 6.97574812947709E-02 
472	 0.069914791058754 
473	 7.03130668597374E-02 
474	 7.03212474327443E-02 
475	 7.02397778864959E-02 
476	 7.02285111983882E-02 
477	 7.03542514458854E-02 
478	 7.03797944563215E-02 
479	 0.070603450747246 
480	 7.09562919964061E-02 
481	 7.08023493527744E-02 
482	 7.08459154088056E-02 
483	 7.10414732998414E-02 
484	 7.11346331611706E-02 
485	 7.08954274650298E-02 
486	 7.09055459924602E-02 
487	 7.11087263438823E-02 
488	 7.09494265350275E-02 
489	 7.10643686024846E-02 
490	 7.11975477365444E-02 
491	 7.11332099353816E-02 
492	 7.11299166842958E-02 
493	 7.11452486033473E-02 
494	 7.11431426046095E-02 
495	 7.11051048625166E-02 
496	 0.071178241663258 
497	 7.12025603210508E-02 
498	 7.11847451495096E-02 
499	 7.14389617587151E-02 
500	 7.12814551272136E-02 
501	 7.10923833131022E-02 
502	 7.13073165800396E-02 
503	 7.11241353065702E-02 
504	 7.09689967139594E-02 
505	 7.09899211350667E-02 
506	 7.10402392584586E-02 
507	 7.10244182453224E-02 
508	 7.10144229903984E-02 
509	 7.10600254235411E-02 
510	 7.10616902455516E-02 
511	 7.09778356979375E-02 
512	 7.08686114794267E-02 
513	 7.08403854641904E-02 
514	 7.08625618243307E-02 
515	 7.08352983894496E-02 
516	 7.07699191843601E-02 
517	 7.09009147219132E-02 
518	 7.07526181339469E-02 
519	 7.05662268445809E-02 
520	 7.06937425522202E-02 
521	 7.07496494419914E-02 
522	 7.07214990429463E-02 
523	 7.06526870152014E-02 
524	 7.06208327984353E-02 
525	 7.06133301729024E-02 
526	 7.06081899130515E-02 
527	 7.05915456372788E-02 
528	 7.05852087914286E-02 
529	 7.05923274410635E-02 
530	 7.06176347942631E-02 
531	 7.06634424073417E-02 
532	 7.06942037116533E-02 
533	 7.07350225641979E-02 
534	 7.07865510231104E-02 
535	 7.07764727803781E-02 
536	 7.07644292664232E-02 
537	 7.07690438528708E-02 
538	 7.07972346997112E-02 
539	 7.09082906762636E-02 
540	 7.08896970795222E-02 
541	 7.07437917721416E-02 
542	 7.07771717194344E-02 
543	 7.08586461258962E-02 
544	 0.070972519318647 
545	 7.11010889607414E-02 
546	 7.11197447276757E-02 
547	 7.10783852944933E-02 
548	 7.10856909800675E-02 
549	 0.071274228827464 
550	 7.13317858926878E-02 
551	 7.13612930957691E-02 
552	 7.14780076691321E-02 
553	 7.16351826541815E-02 
554	 7.16925209664237E-02 
555	 7.17205506945548E-02 
556	 7.18791792048553E-02 
557	 7.20051693262949E-02 
558	 7.21329981179348E-02 
559	 7.22957660153289E-02 
560	 7.24904792589444E-02 
561	 7.26375712543325E-02 
562	 7.27827324292336E-02 
563	 7.29967020722776E-02 
564	 7.32276568038739E-02 
565	 7.33903194826055E-02 
566	 7.35383199318398E-02 
567	 7.38755424209381E-02 
568	 7.42382391103547E-02 
569	 7.45346082443712E-02 
570	 7.47484147407134E-02 
571	 7.50372417554989E-02 
572	 7.54232255769559E-02 
573	 7.58508398201597E-02 
574	 7.62153001796515E-02 
575	 7.65516596202674E-02 
576	 7.69234751273983E-02 
577	 7.73662738615429E-02 
578	 7.78570130417091E-02 
579	 7.82712977668943E-02 
580	 7.87368986360038E-02 
581	 7.94386197005021E-02 
582	 8.01233154708142E-02 
583	 0.080679648452154 
584	 8.11421486068683E-02 
585	 8.17311018170646E-02 
586	 8.23015456442753E-02 
587	 8.28440565939749E-02 
588	 8.33989782062791E-02 
589	 8.40587897410219E-02 
590	 8.46981256881347E-02 
591	 8.52811444875058E-02 
592	 8.58649655744201E-02 
593	 8.65019900095762E-02 
594	 0.087133839367403 
595	 8.77247166155862E-02 
596	 8.83576169868575E-02 
597	 8.90565932396616E-02 
598	 8.97771402307902E-02 
599	 9.04500851272972E-02 
600	 9.11575545900825E-02 
601	 9.18366389290344E-02 
602	 9.24574285871578E-02 
603	 9.30816932454899E-02 
604	 9.36683549701483E-02 
605	 9.42570283576603E-02 
606	 9.48964509089727E-02 
607	 9.55319234731406E-02 
608	 9.61143088099244E-02 
609	 9.66451596227144E-02 
610	 9.71831015278295E-02 
611	 9.77248265493729E-02 
612	 9.82375543053301E-02 
613	 9.86949712757422E-02 
614	 9.91263351870983E-02 
615	 9.95342858380408E-02 
616	 9.99266857548153E-02 
617	 0.100313691026837 
618	 0.100725046146181 
619	 0.101086154994075 
620	 0.101392998060505 
621	 0.101843437537148 
622	 0.102164934841249 
623	 0.102398683583083 
624	 0.102693149607923 
625	 0.102976044003863 
626	 0.103229652151043 
627	 0.103470030240812 
628	 0.103751825039131 
629	 0.10403245509193 
630	 0.10425727100805 
631	 0.104414968483451 
632	 0.104664535999772 
633	 0.104929589085419 
634	 0.105154797334432 
635	 0.105315941101481 
636	 0.105528686669095 
637	 0.105760277467219 
638	 0.105966796807392 
639	 0.106141697118095 
640	 0.106335428371601 
641	 0.106550819132377 
642	 0.106768848574741 
643	 0.10700590943374 
644	 0.10721450757366 
645	 0.107388474451097 
646	 0.107588085072372 
647	 0.107794968308596 
648	 0.107984886499513 
649	 0.108154220470996 
650	 0.108397760915702 
651	 0.108632355339409 
652	 0.108843184902137 
653	 0.109076494211492 
654	 0.109280162498931 
655	 0.109478128981544 
656	 0.109707601136119 
657	 0.110015348813054 
658	 0.110263193244298 
659	 0.110455585271753 
660	 0.110664106692001 
661	 0.11087148928713 
662	 0.111139767158423 
663	 0.111462445944431 
664	 0.111727880656517 
665	 0.111939346625174 
666	 0.112176579195928 
667	 0.112496859176617 
668	 0.112757523107172 
669	 0.113056511324604 
670	 0.113392085721348 
671	 0.113678607293974 
672	 0.11395071366994 
673	 0.114262046800831 
674	 0.114630230184507 
675	 0.114991191663725 
676	 0.115275865114598 
677	 0.115550929171665 
678	 0.115919539358894 
679	 0.116251240325303 
680	 0.116594040832259 
681	 0.116973517354381 
682	 0.117366934885067 
683	 0.117748160878833 
684	 0.118112890516276 
685	 0.118471612699206 
686	 0.118854269037329 
687	 0.11928691733222 
688	 0.119735539422306 
689	 0.120130843407123 
690	 0.120535310401382 
691	 0.120942088408332 
692	 0.121354948577278 
693	 0.121824102466501 
694	 0.122278817858978 
695	 0.122715699169929 
696	 0.123158938258335 
697	 0.123629579424471 
698	 0.124113193618217 
699	 0.124593659609323 
700	 0.125056038726118 
701	 0.125505829487279 
702	 0.125978206103716 
703	 0.126483258324669 
704	 0.12693855040917 
705	 0.127455059256951 
706	 0.127979086151397 
707	 0.12839825178512 
708	 0.128888865516042 
709	 0.129398340776062 
710	 0.129889430192731 
711	 0.130383983988701 
712	 0.130875066558442 
713	 0.131357916152737 
714	 0.131839677915196 
715	 0.132378072774407 
716	 0.132845741787208 
717	 0.133241306700367 
718	 0.133659904596156 
719	 0.134136268914779 
720	 0.134590658057929 
721	 0.134982886951318 
722	 0.135382742061081 
723	 0.135797115282209 
724	 0.136198081304111 
725	 0.136551360020318 
726	 0.136864439766809 
727	 0.137182167472637 
728	 0.137514091340802 
729	 0.137833997328579 
730	 0.138118321157484 
731	 0.138381238671993 
732	 0.138629452929676 
733	 0.138825731034822 
734	 0.139063983910456 
735	 0.139276130758863 
736	 0.139365031945552 
737	 0.139503448814569 
738	 0.139636563367419 
739	 0.139736087819579 
740	 0.139820052083425 
741	 0.139849039386928 
742	 0.139833518091962 
743	 0.139802664168726 
744	 0.139811160416664 
745	 0.139751806629481 
746	 0.139663123936537 
747	 0.139629990341391 
748	 0.139529744824264 
749	 0.139373457389441 
750	 0.139187355818944 
751	 0.138999746744803 
752	 0.138792801475844 
753	 0.138577692001198 
754	 0.138359634243977 
755	 0.138110237922318 
756	 0.137837935018757 
757	 0.137547738303801 
758	 0.137244104443056 
759	 0.13693417859876 
760	 0.136611795070513 
761	 0.13627352726912 
762	 0.135921388216341 
763	 0.135590998355681 
764	 0.135249468197499 
765	 0.134868230805996 
766	 0.134478034421502 
767	 0.134083638016426 
768	 0.133699617664843 
769	 0.133333001114913 
770	 0.132912966187974 
771	 0.132489964157573 
772	 0.132079238541313 
773	 0.131641917954874 
774	 0.131221269007863 
775	 0.130814288281157 
776	 0.130402968929031 
777	 0.129955598178488 
778	 0.129523336341617 
779	 0.129113214511188 
780	 0.128705104425023 
781	 0.128251529953975 
782	 0.127840956247293 
783	 0.127465953960331 
784	 0.127015713248697 
785	 0.126602612479938 
786	 0.126236440902699 
787	 0.125881677560369 
788	 0.125434695987153 
789	 0.125079018856012 
790	 0.124730081956913 
791	 0.124260308352264 
792	 0.123887733843296 
793	 0.12352641299019 
794	 0.123155069412631 
795	 0.122815111969274 
796	 0.122424880472241 
797	 0.122064976145665 
798	 0.121769558210251 
799	 0.12144426613452 
800	 0.12111235799736 
801	 0.120773399216924 
802	 0.120429249822537 
803	 0.120106500968702 
804	 0.119807867956485 
805	 0.119524121780976 
806	 0.119237861609958 
807	 0.118931480926975 
808	 0.118626070625415 
809	 0.118335263719848 
810	 0.118056146304473 
811	 0.117839479952353 
812	 0.117612510478105 
813	 0.117327121332955 
814	 0.11707406298684 
815	 0.116858011441642 
816	 0.116641057900608 
817	 0.116383668332428 
818	 0.116146230485307 
819	 0.115965602843716 
820	 0.115806673920489 
821	 0.115588450989814 
822	 0.115442654106521 
823	 0.11525450927756 
824	 0.114998100151287 
825	 0.114849477884096 
826	 0.114687911878143 
827	 0.114518472902301 
828	 0.114370510952198 
829	 0.114243979119516 
830	 0.11408962795845 
831	 0.113929519906767 
832	 0.113811430696132 
833	 0.113700534959087 
834	 0.113605349848528 
835	 0.113510557122364 
836	 0.113384640981899 
837	 0.113324744521372 
838	 0.113239433099322 
839	 0.113101546043267 
840	 0.113044727994404 
841	 0.11295565571946 
842	 0.112843352435046 
843	 0.112753691563098 
844	 0.112736533750612 
845	 0.112758287794351 
846	 0.112723889582848 
847	 0.112576031581762 
848	 0.112621982032213 
849	 0.112620636147751 
850	 0.112547150852248 
851	 0.112569225994114 
852	 0.112510187536064 
853	 0.112502377649899 
854	 0.112576807272563 
855	 0.112561846687508 
856	 0.112539862060648 
857	 0.112552467307453 
858	 0.112608525418986 
859	 0.112658532106005 
860	 0.112706393611165 
861	 0.112743603004949 
862	 0.112765825122801 
863	 0.112788471269482 
864	 0.11287437882916 
865	 0.112985977654276 
866	 0.113034557583005 
867	 0.113049182104131 
868	 0.113116694164343 
869	 0.113225854419713 
870	 0.113272710671275 
871	 0.113374910564629 
872	 0.113504708783386 
873	 0.113627257017812 
874	 0.113736784519808 
875	 0.11383746833805 
876	 0.11391769781275 
877	 0.113993869633006 
878	 0.114163796656926 
879	 0.114355768487763 
880	 0.114523715047009 
881	 0.114651142364688 
882	 0.114797331191865 
883	 0.114963869946157 
884	 0.115111976453885 
885	 0.115212148023306 
886	 0.115427008641241 
887	 0.115657229801051 
888	 0.115834602403094 
889	 0.115955917212268 
890	 0.116185682670999 
891	 0.116402214619944 
892	 0.116583018547141 
893	 0.116864805530496 
894	 0.117083904197681 
895	 0.117263802448201 
896	 0.117464048225275 
897	 0.117737143620826 
898	 0.118017049504216 
899	 0.118271080978786 
900	 0.118494535613634 
901	 0.118721535586786 
902	 0.119014568489091 
903	 0.119318108173168 
904	 0.119570584823781 
905	 0.119857318533665 
906	 0.120180699747413 
907	 0.120528799654439 
908	 0.120875457370447 
909	 0.121174955113624 
910	 0.121455977137548 
911	 0.121755015258068 
912	 0.122105499393724 
913	 0.122517490253166 
914	 0.122921903951739 
915	 0.123283515799533 
916	 0.123616729729485 
917	 0.124015380142007 
918	 0.12438724541756 
919	 0.124721783335268 
920	 0.125121887140491 
921	 0.125546796521809 
922	 0.126012063547447 
923	 0.126492424317109 
924	 0.126901432141336 
925	 0.127298656532144 
926	 0.127711085174806 
927	 0.128137906302657 
928	 0.128538978088194 
929	 0.129066494653495 
930	 0.129621199407336 
931	 0.130103829375353 
932	 0.130574180258603 
933	 0.131071005465181 
934	 0.131646644701438 
935	 0.132284811232786 
936	 0.132786929356968 
937	 0.133219553690348 
938	 0.133723456347224 
939	 0.134382995876268 
940	 0.135013879720241 
941	 0.135587342444048 
942	 0.136187285178947 
943	 0.136868552599403 
944	 0.137365379977032 
945	 0.137974381520658 
946	 0.138695166036341 
947	 0.139379994243445 
948	 0.139941665333101 
949	 0.140522066112264 
950	 0.141171153406965 
951	 0.141878177370011 
952	 0.142647547069267 
953	 0.143310515622482 
954	 0.143900728969629 
955	 0.144577886468879 
956	 0.145458822213519 
957	 0.146284115077857 
958	 0.146969998985675 
959	 0.14759919502157 
960	 0.148380440147489 
961	 0.14915784032445 
962	 0.149942585640718 
963	 0.150820730354528 
964	 0.151556147739111 
965	 0.152407911670917 
966	 0.153321408008864 
967	 0.15407333448487 
968	 0.154901505327469 
969	 0.155809313126258 
970	 0.156754707300615 
971	 0.157671323100731 
972	 0.158503554702546 
973	 0.159412252394287 
974	 0.160402328980224 
975	 0.161361885917322 
976	 0.162240266737992 
977	 0.163259620238699 
978	 0.164289707288609 
979	 0.165097792835047 
980	 0.166310279481575 
981	 0.167420011810041 
982	 0.168365747180085 
983	 0.169381818135038 
984	 0.17040150204082 
985	 0.171320128581595 
986	 0.172271318979669 
987	 0.173441679515011 
988	 0.174607646729275 
989	 0.175545599120838 
990	 0.176414075994431 
991	 0.177490447757425 
992	 0.178590221028578 
993	 0.179694439475554 
994	 0.180839404557623 
995	 0.182020354106126 
996	 0.182977389072099 
997	 0.184023913738736 
998	 0.185220723066561 
999	 0.186458342893155 
1000	 0.187492524830456 
1001	 0.194389507686176 
1002	 0.195533776427929 
1003	 0.196667436312005 
1004	 0.197833605521881 
1005	 0.199092135322332 
1006	 0.200241645103448 
1007	 0.201348644826844 
1008	 0.202482611757382 
1009	 0.203533989550703 
1010	 0.204616459952206 
1011	 0.205758364964556 
1012	 0.206808895302279 
1013	 0.207934267569403 
1014	 0.209099769939151 
1015	 0.210214102230079 
1016	 0.211390135365665 
1017	 0.212513602354824 
1018	 0.213599950880213 
1019	 0.214660576018325 
1020	 0.215740439767245 
1021	 0.216740461114258 
1022	 0.217809737332749 
1023	 0.218898509181818 
1024	 0.219923430500738 
1025	 0.22101787039385 
1026	 0.222048395348903 
1027	 0.222975163609114 
1028	 0.22400989859706 
1029	 0.225050640212662 
1030	 0.226046879072493 
1031	 0.22702318566109 
1032	 0.228013166134273 
1033	 0.228900482910384 
1034	 0.229830965915409 
1035	 0.230806610594416 
1036	 0.231765838227386 
1037	 0.232811064549672 
1038	 0.233796750251884 
1039	 0.234719335996651 
1040	 0.235663566701051 
1041	 0.236566180870431 
1042	 0.237512387304098 
1043	 0.238479556349794 
1044	 0.23942756185854 
1045	 0.240396587333983 
1046	 0.241368748032516 
1047	 0.24226355800471 
1048	 0.243186671441532 
1049	 0.244150347517049 
1050	 0.245093356584137 
1051	 0.24606748946697 
1052	 0.247033338307065 
1053	 0.247955374254931 
1054	 0.248915498650416 
1055	 0.249935989134452 
1056	 0.250915871023998 
1057	 0.251903395175106 
1058	 0.252930041907899 
1059	 0.253931843663027 
1060	 0.254886682441056 
1061	 0.255893969564804 
1062	 0.256918648647792 
1063	 0.257883906015741 
1064	 0.258922641334808 
1065	 0.259966050328577 
1066	 0.260960451928724 
1067	 0.2619892432704 
1068	 0.263003830582947 
1069	 0.263983435816106 
1070	 0.26501355959454 
1071	 0.266110733944125 
1072	 0.26716361562691 
1073	 0.268195723977289 
1074	 0.269244803896251 
1075	 0.270284912401369 
1076	 0.271315095270608 
1077	 0.272373010030624 
1078	 0.273414484131704 
1079	 0.274470226198416 
1080	 0.275496546175229 
1081	 0.276502747235155 
1082	 0.277576063297774 
1083	 0.278598380248018 
1084	 0.279561417055949 
1085	 0.280592946668922 
1086	 0.281651391160806 
1087	 0.282668748731364 
1088	 0.283672255214741 
1089	 0.284739685053355 
1090	 0.285765917791103 
1091	 0.286760199273444 
1092	 0.287796109780502 
1093	 0.28881640703406 
1094	 0.289824580792066 
1095	 0.290827240228987 
1096	 0.291827326031409 
1097	 0.292855284953714 
1098	 0.293874968577569 
1099	 0.294888310950666 
1100	 0.295910792302749 
1101	 0.296964780056187 
1102	 0.297967762731181 
1103	 0.298951768896766 
1104	 0.299928991776173 
1105	 0.300871569138239 
1106	 0.301838706859553 
1107	 0.302850240416707 
1108	 0.303878111481413 
1109	 0.304894766015389 
1110	 0.305889826906221 
1111	 0.306883947886616 
1112	 0.30785530602039 
1113	 0.308829001657177 
1114	 0.309802650167989 
1115	 0.31078109768726 
1116	 0.31173909247682 
1117	 0.312727681031625 
1118	 0.313737656946647 
1119	 0.314750574654431 
1120	 0.315773374251948 
1121	 0.316765175801733 
1122	 0.317718477039042 
1123	 0.318693179510367 
1124	 0.319684910909097 
1125	 0.32069705907951 
1126	 0.321670623986551 
1127	 0.322631836687443 
1128	 0.32360646093072 
1129	 0.324555386572777 
1130	 0.325520818137347 
1131	 0.326531302172051 
1132	 0.327510876553705 
1133	 0.328452425531619 
1134	 0.32941608009388 
1135	 0.330396479441127 
1136	 0.331354576358098 
1137	 0.33232205390091 
1138	 0.333284609428354 
1139	 0.3341903406419 
1140	 0.335051588386904 
1141	 0.335927152871991 
1142	 0.336783201974293 
1143	 0.337617731495955 
1144	 0.338445700612576 
1145	 0.339253670032479 
1146	 0.340033775183697 
1147	 0.34080409003481 
1148	 0.341564277578456 
1149	 0.342323312902991 
1150	 0.343054551506896 
1151	 0.343789673773084 
1152	 0.344557699541256 
1153	 0.345336569150336 
1154	 0.346141050226064 
1155	 0.346964863456619 
1156	 0.347817196892342 
1157	 0.348684768101969 
1158	 0.349583494066451 
1159	 0.350519022647667 
1160	 0.351466751177496 
1161	 0.352446461607012 
1162	 0.353424392175215 
1163	 0.354441078786181 
1164	 0.355419368817491 
1165	 0.356392489615294 
1166	 0.357352782895468 
1167	 0.358277380306116 
1168	 0.35919708953761 
1169	 0.360102246768345 
1170	 0.360989101757124 
1171	 0.361879126144637 
1172	 0.362771386461209 
1173	 0.363636792294341 
1174	 0.36448802371214 
1175	 0.365336076356913 
1176	 0.366168997208483 
1177	 0.366994294320937 
1178	 0.367812767366333 
1179	 0.368632601367582 
1180	 0.369462985591926 
1181	 0.370256880092867 
1182	 0.371034231250993 
1183	 0.371808271232126 
1184	 0.372565900462333 
1185	 0.373287400062001 
1186	 0.374025100921121 
1187	 0.37477996614466 
1188	 0.375499014281338 
1189	 0.376193359185344 
1190	 0.376892759402939 
1191	 0.377587207600993 
1192	 0.378264703269217 
1193	 0.378942251607178 
1194	 0.37960034250166 
1195	 0.380244233226836 
1196	 0.38086455537202 
1197	 0.381453192389858 
1198	 0.382052177464351 
1199	 0.38264500352745 
1200	 0.383214819108834 
1201	 0.383806995042159 
1202	 0.384422593417273 
1203	 0.385006278918995 
1204	 0.385587854764894 
1205	 0.386146778725501 
1206	 0.386686971936748 
1207	 0.38721873673597 
1208	 0.387734971695296 
1209	 0.388245541389646 
1210	 0.388752113143382 
1211	 0.389240445983239 
1212	 0.389708380642725 
1213	 0.390178775075549 
1214	 0.390630371722892 
1215	 0.391090288503348 
1216	 0.391553085181484 
1217	 0.392035081521238 
1218	 0.392471353911561 
1219	 0.392892842034018 
1220	 0.393308901838172 
1221	 0.393696744462288 
1222	 0.394090572425871 
1223	 0.394489511995472 
1224	 0.394877214793414 
1225	 0.39524957046916 
1226	 0.395623619657282 
1227	 0.396009698176817 
1228	 0.396370562558802 
1229	 0.396710284629556 
1230	 0.397053852613485 
1231	 0.397396749817501 
1232	 0.397718447580475 
1233	 0.398029789605368 
1234	 0.398334365320614 
1235	 0.398640363004402 
1236	 0.398921249001345 
1237	 0.399229595048263 
1238	 0.399570435372634 
1239	 0.399871229899799 
1240	 0.400168100575748 
1241	 0.400444727942485 
1242	 0.400690509818829 
1243	 0.400943124291224 
1244	 0.401194635350864 
1245	 0.401434244745643 
1246	 0.401660142027168 
1247	 0.401888590772703 
1248	 0.402117881757966 
1249	 0.402326578729422 
1250	 0.402548841918195 
1251	 0.402782710580366 
1252	 0.402986945370468 
1253	 0.403182806548148 
1254	 0.40336553657973 
1255	 0.403531626419833 
1256	 0.403684888455763 
1257	 0.403825969473856 
1258	 0.403962616794043 
1259	 0.40407023281793 
1260	 0.404198319601778 
1261	 0.404341827276374 
1262	 0.404467036472308 
1263	 0.404586760248865 
1264	 0.404710631762327 
1265	 0.404808663093552 
1266	 0.404934170722173 
1267	 0.405084925319446 
1268	 0.405237084207709 
1269	 0.405372790176679 
1270	 0.405511923282623 
1271	 0.405648348271419 
1272	 0.405763126460614 
1273	 0.405900958089302 
1274	 0.406062861435 
1275	 0.406201936375123 
1276	 0.406338559878191 
1277	 0.406469835944737 
1278	 0.406579240880296 
1279	 0.406709237373504 
1280	 0.40684775245084 
1281	 0.406983326854906 
1282	 0.407143076506938 
1283	 0.407275454150785 
1284	 0.407398448970038 
1285	 0.4074979790038 
1286	 0.407601864095476 
1287	 0.407710398798354 
1288	 0.407827235867506 
1289	 0.4079666957348 
1290	 0.408077155545976 
1291	 0.408177832608166 
1292	 0.408274663517363 
1293	 0.408351198823227 
1294	 0.40844446954616 
1295	 0.408555371178694 
1296	 0.408639911323657 
1297	 0.408735530668847 
1298	 0.408792876860614 
1299	 0.408799293653003 
1300	 0.408827548168539 
1301	 0.408845128787717 
1302	 0.408861878185045 
1303	 0.408874830999533 
1304	 0.408911498891242 
1305	 0.408947518547679 
1306	 0.408953395787625 
1307	 0.408938972125237 
1308	 0.408924289628154 
1309	 0.408872203286299 
1310	 0.408779611388099 
1311	 0.408682714432867 
1312	 0.408568259903907 
1313	 0.408447869853272 
1314	 0.408315205143657 
1315	 0.408166850799975 
1316	 0.408010410583573 
1317	 0.407835689527885 
1318	 0.40764517193325 
1319	 0.407434957567822 
1320	 0.407211956703986 
1321	 0.406974070023654 
1322	 0.406710777782479 
1323	 0.406446632155676 
1324	 0.406172124705376 
1325	 0.405866823938581 
1326	 0.405559717768107 
1327	 0.405231328475104 
1328	 0.404876194358497 
1329	 0.404532788211704 
1330	 0.404148116981444 
1331	 0.403725726254446 
1332	 0.40331228919743 
1333	 0.402880770284508 
1334	 0.402455704886961 
1335	 0.402030494012785 
1336	 0.401601672503099 
1337	 0.401167543199667 
1338	 0.400736441856899 
1339	 0.400307074349571 
1340	 0.399878725309228 
1341	 0.399445163637709 
1342	 0.399019655984929 
1343	 0.398594647123648 
1344	 0.398174244880314 
1345	 0.397768741890662 
1346	 0.397374594836873 
1347	 0.39698230287352 
1348	 0.396603414986163 
1349	 0.396208249868548 
1350	 0.395797959364655 
1351	 0.395414980536769 
1352	 0.395040104002428 
1353	 0.394660243179959 
1354	 0.394290662577218 
1355	 0.393928989034544 
1356	 0.393561988731344 
1357	 0.393195126521022 
1358	 0.392855988002235 
1359	 0.392485352888715 
1360	 0.392088455236384 
1361	 0.39170226835119 
1362	 0.391291903611966 
1363	 0.390916786633802 
1364	 0.390577951065963 
1365	 0.39021260305674 
1366	 0.389846418239332 
1367	 0.389495043523635 
1368	 0.389120870887839 
1369	 0.3887398369785 
1370	 0.388371994454684 
1371	 0.387993432383843 
1372	 0.38759986190442 
1373	 0.387157298081123 
1374	 0.386681686491218 
1375	 0.386186917923633 
1376	 0.385630953467553 
1377	 0.385029007297314 
1378	 0.384380731615998 
1379	 0.383667611683014 
1380	 0.382943075018209 
1381	 0.382189203451137 
1382	 0.381387644277298 
1383	 0.380579259218437 
1384	 0.379694435858382 
1385	 0.378766343700027 
1386	 0.377773199667831 
1387	 0.376720343540173 
1388	 0.375613381241228 
1389	 0.374467873214061 
1390	 0.373225907474134 
1391	 0.371911324381481 
1392	 0.370521893352995 
1393	 0.369036894509018 
1394	 0.367489691947911 
1395	 0.365858808057858 
1396	 0.364187131716532 
1397	 0.362496729729726 
1398	 0.360751294550378 
1399	 0.358984684913843 
1400	 0.357190587141553 
1401	 0.355391343133996 
1402	 0.35351549633091 
1403	 0.351733876880676 
1404	 0.349952480415326 
1405	 0.348271639510599 
1406	 0.346636061041783 
1407	 0.345080251446988 
1408	 0.343571219732907 
1409	 0.342183839721188 
1410	 0.340885743304379 
1411	 0.339683394236979 
1412	 0.338589821318297 
1413	 0.337581363205052 
1414	 0.33665347816872 
1415	 0.335779877976927 
1416	 0.334994222581456 
1417	 0.334255748933247 
1418	 0.333537671318973 
1419	 0.332848091112498 
1420	 0.332171127364558 
1421	 0.331524962978768 
1422	 0.330882308977547 
1423	 0.330259941562697 
1424	 0.329662695668753 
1425	 0.32907166530796 
1426	 0.328523615624455 
1427	 0.328014518345322 
1428	 0.327519657537846 
1429	 0.327049921952236 
1430	 0.326603611839369 
1431	 0.326184441545259 
1432	 0.325773580987313 
1433	 0.325367249384417 
1434	 0.325007550277414 
1435	 0.324683768416505 
1436	 0.324363191724672 
1437	 0.324083740238457 
1438	 0.323802631619318 
1439	 0.323523535963056 
1440	 0.32324456027074 
1441	 0.322987477468092 
1442	 0.32272681944031 
1443	 0.322453839546624 
1444	 0.322194566104604 
1445	 0.32195679820507 
1446	 0.321733258637007 
1447	 0.321533338293015 
1448	 0.321337255994884 
1449	 0.321129213114755 
1450	 0.320913787607377 
1451	 0.320718904743945 
1452	 0.320532693317303 
1453	 0.320347249745572 
1454	 0.320176363630987 
1455	 0.320001037560437 
1456	 0.319811039724394 
1457	 0.319640408328379 
1458	 0.319492434583169 
1459	 0.319330609388994 
1460	 0.319160650731379 
1461	 0.319010595787039 
1462	 0.318865464018598 
1463	 0.318717643396259 
1464	 0.318592767005436 
1465	 0.318451379484431 
1466	 0.318270611441676 
1467	 0.318134979185033 
1468	 0.318001629592729 
1469	 0.317907998972199 
1470	 0.317846435550388 
1471	 0.317822309487432 
1472	 0.31781264745112 
1473	 0.317812272419755 
1474	 0.31783028846223 
1475	 0.317874077727151 
1476	 0.317934499422811 
1477	 0.318011554732261 
1478	 0.318087527938448 
1479	 0.318164440320725 
1480	 0.318265905922586 
1481	 0.318369681663513 
1482	 0.318487466600982 
1483	 0.318622621603823 
1484	 0.318768185190424 
1485	 0.318921085067918 
1486	 0.319088209661179 
1487	 0.319286600638777 
1488	 0.319460348996625 
1489	 0.319629937471514 
1490	 0.3198021884069 
1491	 0.319961644158557 
1492	 0.320134945768112 
1493	 0.320328402096679 
1494	 0.320499467020389 
1495	 0.320668056368618 
1496	 0.320828493523971 
1497	 0.320964831169233 
1498	 0.32111766426531 
1499	 0.321278886115158 
1500	 0.321432819708782 
1501	 0.321594247323432 
1502	 0.321743988184135 
1503	 0.321883195498782 
1504	 0.322018488078199 
1505	 0.322160363395788 
1506	 0.322311361351237 
1507	 0.322453346565142 
1508	 0.322586097707797 
1509	 0.322694444914184 
1510	 0.322782852310126 
1511	 0.322883364217652 
1512	 0.322973146856805 
1513	 0.323064342876767 
1514	 0.323170992483309 
1515	 0.323262546459673 
1516	 0.323368652417618 
1517	 0.323475479532965 
1518	 0.323592193815068 
1519	 0.323691629686983 
1520	 0.323792329513054 
1521	 0.32387650256494 
1522	 0.323945153362943 
1523	 0.324010416123149 
1524	 0.324062845245032 
1525	 0.324124976989108 
1526	 0.324179129721157 
1527	 0.324244729597751 
1528	 0.324328476621753 
1529	 0.324391613744609 
1530	 0.324447386040516 
1531	 0.324506867095931 
1532	 0.32456766745619 
1533	 0.324611058233415 
1534	 0.324651821778126 
1535	 0.324681527991871 
1536	 0.324672408416078 
1537	 0.324698101729969 
1538	 0.324739870493837 
1539	 0.324777525863869 
1540	 0.324840887687982 
1541	 0.3248821410773 
1542	 0.32491050533776 
1543	 0.324935859152617 
1544	 0.324950024047287 
1545	 0.324964317874026 
1546	 0.324980358450475 
1547	 0.324984768448171 
1548	 0.324973494030197 
1549	 0.324951866474258 
1550	 0.324919872066851 
1551	 0.324902341944052 
1552	 0.324914746070102 
1553	 0.324938168971674 
1554	 0.324953517554807 
1555	 0.324951145800953 
1556	 0.324926893999854 
1557	 0.324889475659843 
1558	 0.324858921396964 
1559	 0.324847694080201 
1560	 0.324835162601999 
1561	 0.324833462062866 
1562	 0.324824887650044 
1563	 0.324811342044081 
1564	 0.324810702257674 
1565	 0.324826315574151 
1566	 0.324814734870404 
1567	 0.324806660336878 
1568	 0.324777378846025 
1569	 0.324714902311944 
1570	 0.324668335558261 
1571	 0.32461682923175 
1572	 0.32457532390108 
1573	 0.324537698470754 
1574	 0.324504902616197 
1575	 0.324486493341571 
1576	 0.324450368241741 
1577	 0.324407407280738 
1578	 0.324364594103946 
1579	 0.324307053063723 
1580	 0.324264279209841 
1581	 0.324229798820196 
1582	 0.324195981133768 
1583	 0.32418169770409 
1584	 0.324142026968334 
1585	 0.324079035063879 
1586	 0.324036207590843 
1587	 0.323984441853703 
1588	 0.323944546292332 
1589	 0.323935571815709 
1590	 0.32390425197923 
1591	 0.32387329996566 
1592	 0.323822797109118 
1593	 0.323751446615716 
1594	 0.323682883225177 
1595	 0.323592924964584 
1596	 0.323513474784335 
1597	 0.3234416575345 
1598	 0.323369477128192 
1599	 0.323298871766359 
1600	 0.32323321098415 
1601	 0.323169866494831 
1602	 0.323107434218792 
1603	 0.323042044348311 
1604	 0.322986558805085 
1605	 0.322942079693748 
1606	 0.322894364473202 
1607	 0.322856695593599 
1608	 0.322811598857496 
1609	 0.322761631741331 
1610	 0.322702805804099 
1611	 0.322638828757233 
1612	 0.322584144131769 
1613	 0.322499910059725 
1614	 0.322418124259079 
1615	 0.322348145475627 
1616	 0.322256411749187 
1617	 0.322186345265307 
1618	 0.322099947374248 
1619	 0.321991990672147 
1620	 0.321901222243077 
1621	 0.321810725642828 
1622	 0.321731287287542 
1623	 0.321626859371147 
1624	 0.321513980462752 
1625	 0.321406963218834 
1626	 0.32127869454532 
1627	 0.321181688676873 
1628	 0.321103076673274 
1629	 0.321027127409335 
1630	 0.320962978990747 
1631	 0.320895670251323 
1632	 0.320839804805696 
1633	 0.320766901547042 
1634	 0.320690492345579 
1635	 0.320604091284247 
1636	 0.320508373824171 
1637	 0.320406186245888 
1638	 0.32029167718174 
1639	 0.320184909627147 
1640	 0.320064280782052 
1641	 0.319974676926841 
1642	 0.319908977908214 
1643	 0.319822515988634 
1644	 0.319743772365064 
1645	 0.319657818074027 
1646	 0.319558824095246 
1647	 0.319461021480846 
1648	 0.319371579089867 
1649	 0.319268367301534 
1650	 0.319150690370857 
1651	 0.319034390060439 
1652	 0.318916747643024 
1653	 0.318793693657977 
1654	 0.318664535807776 
1655	 0.318533142127157 
1656	 0.318408534001297 
1657	 0.318255843542239 
1658	 0.318081240180448 
1659	 0.317916823124352 
1660	 0.31772858606865 
1661	 0.317567943478531 
1662	 0.317429082280969 
1663	 0.317280756706486 
1664	 0.317125108363136 
1665	 0.316997071008751 
1666	 0.316882784509675 
1667	 0.316768784229432 
1668	 0.316687847371124 
1669	 0.316572963429285 
1670	 0.316447787372442 
1671	 0.316305939875443 
1672	 0.316136935929147 
1673	 0.315985499132749 
1674	 0.31582480677815 
1675	 0.315674081804061 
1676	 0.315535936659392 
1677	 0.315396764059076 
1678	 0.315258288639015 
1679	 0.315120076647028 
1680	 0.314984290497823 
1681	 0.314852608606644 
1682	 0.314711810099715 
1683	 0.314593442889363 
1684	 0.314510942678764 
1685	 0.31438536443226 
1686	 0.31426266846511 
1687	 0.314109235383972 
1688	 0.313894869371921 
1689	 0.313730170677936 
1690	 0.313570902247697 
1691	 0.313424741823709 
1692	 0.313306981390042 
1693	 0.313181702553915 
1694	 0.313068433169455 
1695	 0.312933642175814 
1696	 0.31278784053259 
1697	 0.312651069040602 
1698	 0.312506927379064 
1699	 0.312358559214063 
1700	 0.312222381151385 
1701	 0.312071607502333 
1702	 0.311898616370559 
1703	 0.311736165785866 
1704	 0.311588361650236 
1705	 0.311412992479269 
1706	 0.31121009874394 
1707	 0.311036811409015 
1708	 0.310858536836681 
1709	 0.310693823688341 
1710	 0.310550438897468 
1711	 0.310414882011211 
1712	 0.310291893999672 
1713	 0.310150560353852 
1714	 0.31001901090594 
1715	 0.309873924501315 
1716	 0.309693641737985 
1717	 0.309551394008201 
1718	 0.309438422211776 
1719	 0.309300935041536 
1720	 0.309166547495172 
1721	 0.30902718226836 
1722	 0.308863538914865 
1723	 0.30872668539981 
1724	 0.30861961506375 
1725	 0.308474156405015 
1726	 0.308321034448448 
1727	 0.308161614638765 
1728	 0.30797512280637 
1729	 0.307800671832739 
1730	 0.307636969332717 
1731	 0.307458906591131 
1732	 0.307259625599903 
1733	 0.307089388788495 
1734	 0.306935842511921 
1735	 0.306758404403086 
1736	 0.306590775403838 
1737	 0.306409122014844 
1738	 0.306186112012044 
1739	 0.306016855422343 
1740	 0.305861102515769 
1741	 0.305737690120077 
1742	 0.30566676310242 
1743	 0.305549835886918 
1744	 0.305450214817431 
1745	 0.305294556631276 
1746	 0.305085616469875 
1747	 0.304890769767369 
1748	 0.304708215411063 
1749	 0.304553126711111 
1750	 0.304414806002697 
1751	 0.304302128400385 
1752	 0.304192556824418 
1753	 0.304090254522124 
1754	 0.30396564210767 
1755	 0.303804328332822 
1756	 0.303647620132705 
1757	 0.303470080081857 
1758	 0.303305138128103 
1759	 0.303164252728898 
1760	 0.303018870963262 
1761	 0.302900129318837 
1762	 0.302788983610846 
1763	 0.302651407669195 
1764	 0.302501367321613 
1765	 0.302350934815777 
1766	 0.302183612043645 
1767	 0.301996989044653 
1768	 0.301843745229544 
1769	 0.301707671141547 
1770	 0.301562543089467 
1771	 0.301461599619662 
1772	 0.301367312109063 
1773	 0.301246904820797 
1774	 0.301136799633506 
1775	 0.301022006398628 
1776	 0.300890480620875 
1777	 0.300756407002793 
1778	 0.300621873218202 
1779	 0.300510414079923 
1780	 0.300411696856043 
1781	 0.30029126192183 
1782	 0.300171508804795 
1783	 0.300031272562653 
1784	 0.299912095202099 
1785	 0.299833304183873 
1786	 0.299714662645148 
1787	 0.29955908068083 
1788	 0.299444962958126 
1789	 0.299335027305314 
1790	 0.29923343663884 
1791	 0.29916194038925 
1792	 0.299092452187382 
1793	 0.299008542256294 
1794	 0.298950352406439 
1795	 0.298935951646996 
1796	 0.298875083572626 
1797	 0.298813924100442 
1798	 0.298738616184935 
1799	 0.298611456714107 
1800	 0.298551689519844 
1801	 0.302717791427868 
1802	 0.302666387662152 
1803	 0.30263070152937 
1804	 0.302610697075343 
1805	 0.302563649251527 
1806	 0.302547423664216 
1807	 0.302539678262378 
1808	 0.302521880536359 
1809	 0.3025129160849 
1810	 0.302482010520863 
1811	 0.302435810453406 
1812	 0.302386482736648 
1813	 0.302361422222131 
1814	 0.302304888699599 
1815	 0.302237531798005 
1816	 0.302181727223681 
1817	 0.302121146888921 
1818	 0.302034280884204 
1819	 0.301972856116362 
1820	 0.301923806721045 
1821	 0.301883421954067 
1822	 0.301867858068062 
1823	 0.301803685879931 
1824	 0.301747566347206 
1825	 0.301692452140201 
1826	 0.301598956886716 
1827	 0.301525747108259 
1828	 0.301430801123004 
1829	 0.301319685157346 
1830	 0.301218538988181 
1831	 0.301105928181797 
1832	 0.301000125732842 
1833	 0.300914763287559 
1834	 0.300795575773163 
1835	 0.300696645977947 
1836	 0.300586658247757 
1837	 0.300495870387235 
1838	 0.300445530611503 
1839	 0.300371537441873 
1840	 0.300297649822588 
1841	 0.300239914606573 
1842	 0.300152814033404 
1843	 0.300030542197765 
1844	 0.299916529956961 
1845	 0.299789219335469 
1846	 0.299652294834126 
1847	 0.299511023092917 
1848	 0.299408760828158 
1849	 0.299289726285212 
1850	 0.299142768115203 
1851	 0.298974074987829 
1852	 0.298826162045442 
1853	 0.298648458935625 
1854	 0.298430712421859 
1855	 0.298215596239674 
1856	 0.297987554082654 
1857	 0.297716082743855 
1858	 0.297432736976399 
1859	 0.297138303170993 
1860	 0.296808357376229 
1861	 0.296451702215024 
1862	 0.296053935275001 
1863	 0.295633603001401 
1864	 0.295179380656205 
1865	 0.294679134121018 
1866	 0.294160476814039 
1867	 0.293622599241117 
1868	 0.293039840586523 
1869	 0.292419945728694 
1870	 0.291778966340639 
1871	 0.291089366667963 
1872	 0.290352051101039 
1873	 0.289594872375342 
1874	 0.288803001692666 
1875	 0.287946996847371 
1876	 0.287070518373127 
1877	 0.286139710437844 
1878	 0.285113506164777 
1879	 0.284028187634643 
1880	 0.282852780714345 
1881	 0.281580322867734 
1882	 0.28023652063129 
1883	 0.27882908929294 
1884	 0.277297059742426 
1885	 0.275714673596352 
1886	 0.274040426369949 
1887	 0.272253952468204 
1888	 0.270421129777831 
1889	 0.268476245272649 
1890	 0.266468408899502 
1891	 0.264415393157156 
1892	 0.262281717342545 
1893	 0.260118346033499 
1894	 0.257912456191872 
1895	 0.255656070410842 
1896	 0.253335281242871 
1897	 0.25099261263551 
1898	 0.248613009242752 
1899	 0.246230074558186 
1900	 0.24392403609071 
1901	 0.241660790122452 
1902	 0.239487954676299 
1903	 0.237401242323076 
1904	 0.235395362017851 
1905	 0.233440662784178 
1906	 0.231613409779164 
1907	 0.229894245733636 
1908	 0.228278773775985 
1909	 0.226799398888334 
1910	 0.225408013378458 
1911	 0.224080591692613 
1912	 0.222847873471977 
1913	 0.22167317392497 
1914	 0.220549925499496 
1915	 0.219504561401442 
1916	 0.218545365444501 
1917	 0.217640993457952 
1918	 0.216781999243299 
1919	 0.215996444107653 
1920	 0.215285243168861 
1921	 0.214611563900485 
1922	 0.213977488189354 
1923	 0.213416715803633 
1924	 0.212901296482633 
1925	 0.212415661605722 
1926	 0.212006670219336 
1927	 0.211673243945928 
1928	 0.211379852307146 
1929	 0.211120832471537 
1930	 0.210933851556597 
1931	 0.210763786892643 
1932	 0.210614115374547 
1933	 0.210517457702686 
1934	 0.210432754447237 
1935	 0.210369004651046 
1936	 0.210324666041935 
1937	 0.210315246116586 
1938	 0.21031755721631 
1939	 0.210363719103651 
1940	 0.210449243032736 
1941	 0.210571327089171 
1942	 0.210708877861275 
1943	 0.210889524109768 
1944	 0.211070451692399 
1945	 0.211232742797142 
1946	 0.21141950620913 
1947	 0.211604121099257 
1948	 0.211816385070758 
1949	 0.212056962728796 
1950	 0.212304403007568 
1951	 0.21256383088131 
1952	 0.212842467563544 
1953	 0.213123692937462 
1954	 0.213421015729613 
1955	 0.21375310008308 
1956	 0.214063454819811 
1957	 0.214378558476997 
1958	 0.214705016906028 
1959	 0.215018093935643 
1960	 0.215322978435734 
1961	 0.215633714689181 
1962	 0.215921741120734 
1963	 0.216244389530086 
1964	 0.216587001434212 
1965	 0.216926388418983 
1966	 0.217284948410045 
1967	 0.21766798968249 
1968	 0.21803709460051 
1969	 0.218400339832987 
1970	 0.218770445361236 
1971	 0.219133483496185 
1972	 0.219522512597269 
1973	 0.219935100104723 
1974	 0.220336581095199 
1975	 0.220743077463868 
1976	 0.221159385182189 
1977	 0.221580610063311 
1978	 0.221983823953174 
1979	 0.222431843348781 
1980	 0.22290436574428 
1981	 0.223360121404011 
1982	 0.223819910588655 
1983	 0.224285118834912 
1984	 0.224748169610363 
1985	 0.225209468541018 
1986	 0.225689339092604 
1987	 0.22614713790742 
1988	 0.226582185239789 
1989	 0.227028624688509 
1990	 0.227475047450852 
1991	 0.227922819084858 
1992	 0.228394679701627 
1993	 0.228889996045699 
1994	 0.229379451999702 
1995	 0.229894335003429 
1996	 0.230379364177515 
1997	 0.230852923609448 
1998	 0.231326485148815 
1999	 0.231786780337978 
2000	 0.232248860432207 
2001	 0.232718022684168 
2002	 0.233171868529139 
2003	 0.233636876218919 
2004	 0.234076823048089 
2005	 0.234503295078081 
2006	 0.234912959785829 
2007	 0.23533274383575 
2008	 0.235734787185764 
2009	 0.236142141292985 
2010	 0.236550541733876 
2011	 0.236970063711018 
2012	 0.237401877924943 
2013	 0.237816521565916 
2014	 0.23823197209391 
2015	 0.23864761031452 
2016	 0.239043701139627 
2017	 0.239451920392534 
2018	 0.23987271111623 
2019	 0.240320184718842 
2020	 0.240744779281365 
2021	 0.241182794057935 
2022	 0.241586325641171 
2023	 0.241958769559912 
2024	 0.242348790806508 
2025	 0.242722668946717 
2026	 0.243102424446798 
2027	 0.243491938835889 
2028	 0.24388576311115 
2029	 0.244271415801509 
2030	 0.244652608475302 
2031	 0.245027214414658 
2032	 0.245399050469678 
2033	 0.245767400992499 
2034	 0.246135077836709 
2035	 0.246486875858187 
2036	 0.246834501550598 
2037	 0.247172138376234 
2038	 0.247498275230477 
2039	 0.247807241204733 
2040	 0.248094054632759 
2041	 0.248389358415539 
2042	 0.248672194195794 
2043	 0.248962445543733 
2044	 0.249268638239421 
2045	 0.249596301182212 
2046	 0.24991571257711 
2047	 0.250249154519007 
2048	 0.25056473384056 
2049	 0.250887370560844 
2050	 0.251183804596817 
2051	 0.251458235819795 
2052	 0.251728300752122 
2053	 0.251967345286127 
2054	 0.252224562305731 
2055	 0.252480458843052 
2056	 0.252746974945715 
2057	 0.253015788845561 
2058	 0.253299151665044 
2059	 0.253571085490766 
2060	 0.25384295327337 
2061	 0.254110156963786 
2062	 0.254376371043438 
2063	 0.254635065517743 
2064	 0.254897895571791 
2065	 0.25513906841734 
2066	 0.255351685891599 
2067	 0.255581659163221 
2068	 0.255800453955762 
2069	 0.256030100888591 
2070	 0.256267163898777 
2071	 0.256516588504217 
2072	 0.25677425038733 
2073	 0.257042048366533 
2074	 0.257301519670424 
2075	 0.25758308622625 
2076	 0.257833854933729 
2077	 0.258049927134435 
2078	 0.2582940456326 
2079	 0.258538584831452 
2080	 0.25878636415545 
2081	 0.259057037663942 
2082	 0.259313705540769 
2083	 0.259558423315094 
2084	 0.259808209023557 
2085	 0.260053257240239 
2086	 0.260295040594738 
2087	 0.260536187161724 
2088	 0.260777013819826 
2089	 0.261011536698451 
2090	 0.261252949766724 
2091	 0.261469008170409 
2092	 0.26165863218681 
2093	 0.261867418843506 
2094	 0.26205180530121 
2095	 0.262266787388481 
2096	 0.262523792233091 
2097	 0.262758271415607 
2098	 0.262977536912094 
2099	 0.263229059536165 
2100	 0.263463583377197 
2101	 0.263693519028046 
2102	 0.263907984184284 
2103	 0.264118259952924 
2104	 0.264329211808897 
2105	 0.264507728496603 
2106	 0.264725612876116 
2107	 0.264979272861057 
2108	 0.265208100746695 
2109	 0.265420784932341 
2110	 0.265666650446462 
2111	 0.265928378977038 
2112	 0.266179432456628 
2113	 0.266438110350107 
2114	 0.266727325429145 
2115	 0.266984349630282 
2116	 0.267207851140868 
2117	 0.267467858822568 
2118	 0.267748268115682 
2119	 0.268008523861013 
2120	 0.268280159497712 
2121	 0.268529116664483 
2122	 0.268760160555981 
2123	 0.268987458315863 
2124	 0.269206357803912 
2125	 0.269415396785708 
2126	 0.269617063513817 
2127	 0.269809149035101 
2128	 0.26998339049405 
2129	 0.270160979812655 
2130	 0.270340785381472 
2131	 0.270501473927707 
2132	 0.270665523079145 
2133	 0.270837330870125 
2134	 0.270979771819915 
2135	 0.271112211263384 
2136	 0.271224176040903 
2137	 0.271313975413091 
2138	 0.271391886500911 
2139	 0.271447788998179 
2140	 0.271505009091249 
2141	 0.271549639180411 
2142	 0.271589278639908 
2143	 0.271633600793203 
2144	 0.271656204614973 
2145	 0.271645112983875 
2146	 0.271653076857853 
2147	 0.271665415206832 
2148	 0.271665210457771 
2149	 0.271669626780106 
2150	 0.27170639865192 
2151	 0.27167178068248 
2152	 0.271596106017922 
2153	 0.271531112390296 
2154	 0.271417099532218 
2155	 0.271344723089081 
2156	 0.271329530636322 
2157	 0.271239959177544 
2158	 0.271127390509456 
2159	 0.27100002914097 
2160	 0.270806804749768 
2161	 0.270642011165794 
2162	 0.270481208741453 
2163	 0.270327243131754 
2164	 0.270157375442614 
2165	 0.270036259567471 
2166	 0.269892423230296 
2167	 0.269757778735918 
2168	 0.269606238929225 
2169	 0.269449746913498 
2170	 0.269283715902344 
2171	 0.269100263847538 
2172	 0.268932682415133 
2173	 0.268752335327376 
2174	 0.26860208575537 
2175	 0.268473341631604 
2176	 0.268344197587036 
2177	 0.268238868088417 
2178	 0.268117153503925 
2179	 0.267982278173457 
2180	 0.267862635756628 
2181	 0.267753156516524 
2182	 0.267637586755206 
2183	 0.267524333997862 
2184	 0.267415032692853 
2185	 0.2673038950436 
2186	 0.267174598778415 
2187	 0.267078269459296 
2188	 0.26700942163191 
2189	 0.266913162516642 
2190	 0.266825624756847 
2191	 0.266723901747402 
2192	 0.266583095346968 
2193	 0.2664864555495 
2194	 0.266425670952458 
2195	 0.266331496388022 
2196	 0.266241172409217 
2197	 0.266144391529392 
2198	 0.266019043305126 
2199	 0.265904652490484 
2200	 0.265790401780959 
2201	 0.265692377473374 
2202	 0.265607687288884 
2203	 0.265512991100434 
2204	 0.265423849958142 
2205	 0.265342031422595 
2206	 0.265272732415518 
2207	 0.265192224824765 
2208	 0.265148725127412 
2209	 0.265156644861412 
2210	 0.265122514574057 
2211	 0.265085905588648 
2212	 0.265046425735713 
2213	 0.264979902328222 
2214	 0.264937217052557 
2215	 0.264922010637959 
2216	 0.264881335999303 
2217	 0.264826423728295 
2218	 0.264782450427738 
2219	 0.264714262571933 
2220	 0.264678415017997 
2221	 0.264671909573657 
2222	 0.264670982638475 
2223	 0.264670037026282 
2224	 0.26465304690671 
2225	 0.264623910686041 
2226	 0.264574145797781 
2227	 0.264536959588827 
2228	 0.26448903097078 
2229	 0.264457720942508 
2230	 0.264436689391634 
2231	 0.264406669637707 
2232	 0.264388413286514 
2233	 0.264359337659274 
2234	 0.264321713524831 
2235	 0.264278357133883 
2236	 0.26424043016618 
2237	 0.264172909384204 
2238	 0.264071097664599 
2239	 0.2639942745418 
2240	 0.263893193708141 
2241	 0.263825805028078 
2242	 0.2637921197411 
2243	 0.263758805542991 
2244	 0.26374019268997 
2245	 0.263730925662291 
2246	 0.26371752599405 
2247	 0.263686186067866 
2248	 0.263640718089715 
2249	 0.263577534429537 
2250	 0.263512777256213 
2251	 0.263435655819429 
2252	 0.263357034200275 
2253	 0.26326205535393 
2254	 0.263188177008111 
2255	 0.263114456002272 
2256	 0.263053872338088 
2257	 0.263009971232172 
2258	 0.262969121427617 
2259	 0.262942145178131 
2260	 0.262904882829682 
2261	 0.262897706433828 
2262	 0.262831582917614 
2263	 0.262700895508417 
2264	 0.262612233531882 
2265	 0.262489622490023 
2266	 0.262418329009345 
2267	 0.262416129386732 
2268	 0.262394943746358 
2269	 0.262410292222668 
2270	 0.262367471345347 
2271	 0.262317364444405 
2272	 0.262272464527596 
2273	 0.262204317772256 
2274	 0.262128264163425 
2275	 0.262020751782234 
2276	 0.261887696524666 
2277	 0.261758794218595 
2278	 0.261589039235181 
2279	 0.261463147535789 
2280	 0.261351509465742 
2281	 0.261262268749827 
2282	 0.261202062800222 
2283	 0.261133444816869 
2284	 0.261083667016609 
2285	 0.261016908135737 
2286	 0.26093630511009 
2287	 0.260865187457364 
2288	 0.260809905574716 
2289	 0.260734858408723 
2290	 0.260672938703098 
2291	 0.260568679022044 
2292	 0.26040861690291 
2293	 0.260278308646739 
2294	 0.260125550781975 
2295	 0.259990477649529 
2296	 0.259870859305392 
2297	 0.259777819964276 
2298	 0.259681442737505 
2299	 0.259589357095079 
2300	 0.259454698019311 
2301	 0.25931155667447 
2302	 0.259139084511738 
2303	 0.25895856209343 
2304	 0.258828243753283 
2305	 0.258668976332095 
2306	 0.25848840150839 
2307	 0.258273581407242 
2308	 0.258104869350834 
2309	 0.257924492857971 
2310	 0.25778127612123 
2311	 0.257709494206113 
2312	 0.257564639513955 
2313	 0.257391757373067 
2314	 0.2572318509393 
2315	 0.25705261975931 
2316	 0.256863868789521 
2317	 0.25668202255677 
2318	 0.256485496595321 
2319	 0.256261046433361 
2320	 0.256045032710718 
2321	 0.255822355569192 
2322	 0.255615415989251 
2323	 0.25541706016641 
2324	 0.255214973229813 
2325	 0.255018009286738 
2326	 0.254829547590974 
2327	 0.254642573601261 
2328	 0.254439136565664 
2329	 0.254283344456853 
2330	 0.254138055369673 
2331	 0.253993659719004 
2332	 0.253841429838872 
2333	 0.2536063857965 
2334	 0.253385701017939 
2335	 0.253161511122664 
2336	 0.252931495779161 
2337	 0.252806474948939 
2338	 0.252637393486758 
2339	 0.252410485939535 
2340	 0.252175711113475 
2341	 0.251895277611408 
2342	 0.251657500547688 
2343	 0.25142088625296 
2344	 0.251164082652081 
2345	 0.250888863040778 
2346	 0.250574915521937 
2347	 0.250250853337233 
2348	 0.249917773833275 
2349	 0.249569862636839 
2350	 0.249190530566276 
2351	 0.248843404564375 
2352	 0.248496784658201 
2353	 0.248160886335886 
2354	 0.247851029671445 
2355	 0.247504154941696 
2356	 0.247144111511045 
2357	 0.246784018268557 
2358	 0.246393586045196 
2359	 0.246029791667548 
2360	 0.245707901346601 
2361	 0.245338386431088 
2362	 0.244946500891826 
2363	 0.244571940052389 
2364	 0.244142147529744 
2365	 0.243761841940289 
2366	 0.243413658565335 
2367	 0.243092092014805 
2368	 0.242869902601397 
2369	 0.242539779093551 
2370	 0.242176471393652 
2371	 0.241810015192196 
2372	 0.241362582925714 
2373	 0.240882372949432 
2374	 0.240504692226568 
2375	 0.240151432851738 
2376	 0.239803983272174 
2377	 0.239452442902537 
2378	 0.239112998095409 
2379	 0.238710477021402 
2380	 0.23816564470932 
2381	 0.237686583043574 
2382	 0.237306124582237 
2383	 0.236891833117565 
2384	 0.236537570673738 
2385	 0.236224901229784 
2386	 0.235768453947888 
2387	 0.235269935419357 
2388	 0.23483915647559 
2389	 0.234414381195439 
2390	 0.234033641765049 
2391	 0.23366428286999 
2392	 0.233239628317825 
2393	 0.232790416677277 
2394	 0.232350971310472 
2395	 0.23190793548351 
2396	 0.231441738696598 
2397	 0.231017699928319 
2398	 0.230561403579389 
2399	 0.230045163882717 
2400	 0.229626265073023 
2401	 0.229237064290404 
2402	 0.228830164341505 
2403	 0.228450554598084 
2404	 0.228102605920549 
2405	 0.227717696690404 
2406	 0.227259511770666 
2407	 0.22687253457777 
2408	 0.226420669726663 
2409	 0.225949270409371 
2410	 0.225604579888335 
2411	 0.225264292142298 
2412	 0.224936970956254 
2413	 0.224545027286439 
2414	 0.224162282261954 
2415	 0.223776311171288 
2416	 0.223402044034584 
2417	 0.223087413966842 
2418	 0.222723536441884 
2419	 0.222341018881064 
2420	 0.221938679580748 
2421	 0.221484488276657 
2422	 0.221059631158337 
2423	 0.220628617015531 
2424	 0.220173016593687 
2425	 0.219698844191152 
2426	 0.219236828208542 
2427	 0.218789643124295 
2428	 0.218387047515498 
2429	 0.218033413977901 
2430	 0.217623080481327 
2431	 0.21716738158847 
2432	 0.216753491311482 
2433	 0.216339677324651 
2434	 0.215934372232419 
2435	 0.215549381869542 
2436	 0.215215290218754 
2437	 0.214926679962697 
2438	 0.214512731025248 
2439	 0.214119527326628 
2440	 0.213684801991841 
2441	 0.213084704421836 
2442	 0.212661478537142 
2443	 0.21240157071243 
2444	 0.211977219453011 
2445	 0.21147907005198 
2446	 0.210996553030061 
2447	 0.210426064389691 
2448	 0.209947235628188 
2449	 0.209495806448013 
2450	 0.209169388646015 
2451	 0.208973065290577 
2452	 0.208634999024379 
2453	 0.208402798572138 
2454	 0.208019226543051 
2455	 0.207427867982261 
2456	 0.206967772439384 
2457	 0.206440451745288 
2458	 0.206023895049508 
2459	 0.20578768875987 
2460	 0.205401676140648 
2461	 0.204943767486138 
2462	 0.204611315454772 
2463	 0.204198609296195 
2464	 0.203974142644347 
2465	 0.204052782550572 
2466	 0.203815067284639 
2467	 0.203542209184194 
2468	 0.203120608848527 
2469	 0.202385587891293 
2470	 0.202075026955745 
2471	 0.201709240417255 
2472	 0.201367896933287 
2473	 0.20122790262357 
2474	 0.200950552055983 
2475	 0.200411707591274 
2476	 0.199947112553539 
2477	 0.199436919428777 
2478	 0.198952579486583 
2479	 0.198744053779548 
2480	 0.198567282730484 
2481	 0.198235855305564 
2482	 0.197744117610636 
2483	 0.197257332359983 
2484	 0.196893666937497 
2485	 0.196588993343628 
2486	 0.196388481563695 
2487	 0.196380112671369 
2488	 0.196076889455128 
2489	 0.195455962211777 
2490	 0.194989727849749 
2491	 0.194392430934625 
2492	 0.193860908141457 
2493	 0.193703886429494 
2494	 0.193558851935112 
2495	 0.193250745684362 
2496	 0.193059799867961 
2497	 0.192873907877723 
2498	 0.19245024612954 
2499	 0.192026494576507 
2500	 0.191643093752694 
