Wavelength	lmw-9-200009.asd
350	 7.08107138923496E-02 
351	 0.075205778174523 
352	 6.82884417126784E-02 
353	 5.29459081462726E-02 
354	 6.63859568634152E-02 
355	 6.95193599495004E-02 
356	 6.48962893605034E-02 
357	 6.35769707348727E-02 
358	 6.38452865208909E-02 
359	 6.12263902569855E-02 
360	 5.82149888822568E-02 
361	 6.05971015608711E-02 
362	 5.73713504854609E-02 
363	 5.68381910582123E-02 
364	 0.060778892538854 
365	 5.71837884771267E-02 
366	 5.65737536459356E-02 
367	 5.81753924511023E-02 
368	 5.87273639775443E-02 
369	 5.86290465880995E-02 
370	 0.055716092215879 
371	 5.35117826262144E-02 
372	 5.80847313462867E-02 
373	 5.80927724866955E-02 
374	 5.76811392997057E-02 
375	 5.89334397962776E-02 
376	 5.68313810011506E-02 
377	 5.33674661312678E-02 
378	 5.32448495480906E-02 
379	 5.85868823932625E-02 
380	 5.75194308711156E-02 
381	 0.05596297384474 
382	 5.66052761560467E-02 
383	 5.88347061725698E-02 
384	 0.059315364263206 
385	 5.77948130172611E-02 
386	 0.055626200889026 
387	 0.056166043721388 
388	 5.67309184378402E-02 
389	 5.70095106825849E-02 
390	 5.72762598419404E-02 
391	 5.69185277003123E-02 
392	 5.60542788025501E-02 
393	 5.62241786645784E-02 
394	 5.96660574780016E-02 
395	 6.09004457865698E-02 
396	 6.08808090041327E-02 
397	 6.09195122308792E-02 
398	 6.05399748944824E-02 
399	 6.06589087218016E-02 
400	 6.11688825286084E-02 
401	 0.061526732962777 
402	 6.12361503141685E-02 
403	 6.07780556193898E-02 
404	 0.060631294917072 
405	 6.11578041621368E-02 
406	 6.19549338134795E-02 
407	 6.28450230118165E-02 
408	 6.33602144631992E-02 
409	 6.19328669248886E-02 
410	 6.12288115050818E-02 
411	 0.061474260614301 
412	 0.061808555860741 
413	 6.29961522062204E-02 
414	 6.34760745729624E-02 
415	 6.29054443198919E-02 
416	 6.26766077046746E-02 
417	 6.22005763465835E-02 
418	 6.23025325475883E-02 
419	 6.33877952937536E-02 
420	 6.36117326227848E-02 
421	 6.27405720869832E-02 
422	 6.19399327856594E-02 
423	 6.28881096231152E-02 
424	 6.26146623263652E-02 
425	 6.23551019229965E-02 
426	 6.27849461473172E-02 
427	 6.25832441809645E-02 
428	 6.23694835363017E-02 
429	 6.23532155801389E-02 
430	 6.25609229970346E-02 
431	 6.27994358892683E-02 
432	 6.26088923629808E-02 
433	 6.23017526537473E-02 
434	 6.28641740844921E-02 
435	 6.34362782801768E-02 
436	 6.38496459953643E-02 
437	 6.41736168559764E-02 
438	 6.47338486077481E-02 
439	 6.51067231324962E-02 
440	 6.54483635523173E-02 
441	 6.61147524815724E-02 
442	 6.65399972724268E-02 
443	 6.70583151203739E-02 
444	 6.76553203987516E-02 
445	 6.76434363303239E-02 
446	 6.79574748440948E-02 
447	 6.83595060373382E-02 
448	 6.84676250146834E-02 
449	 6.87944116637628E-02 
450	 6.93228544565019E-02 
451	 6.98462974353153E-02 
452	 7.00468752712532E-02 
453	 7.02756036819438E-02 
454	 7.05267961451406E-02 
455	 0.070780815321061 
456	 7.11749209019249E-02 
457	 0.071357377889266 
458	 7.14578524281397E-02 
459	 7.17770132429045E-02 
460	 7.20901461451463E-02 
461	 7.22517503153821E-02 
462	 7.22831847941049E-02 
463	 7.24203016427986E-02 
464	 7.25699208769661E-02 
465	 7.27187889379911E-02 
466	 7.28802257844033E-02 
467	 7.31027205167257E-02 
468	 7.33465996842751E-02 
469	 7.34873943278493E-02 
470	 7.33840202950331E-02 
471	 7.37387971677838E-02 
472	 7.40481008441775E-02 
473	 7.39577153299644E-02 
474	 7.39114644589114E-02 
475	 7.41132403962398E-02 
476	 0.074341052508184 
477	 7.42586962998761E-02 
478	 7.43162992402358E-02 
479	 7.44452694566594E-02 
480	 7.45865967187776E-02 
481	 7.47664551908802E-02 
482	 7.47454299640252E-02 
483	 7.47505414225909E-02 
484	 7.49773856130075E-02 
485	 7.49421192925742E-02 
486	 0.074892969246817 
487	 7.48898282601314E-02 
488	 7.48327702140523E-02 
489	 7.49256824288217E-02 
490	 7.49963258620036E-02 
491	 7.49566094232071E-02 
492	 7.50919657762443E-02 
493	 7.52196342649955E-02 
494	 7.52166187080361E-02 
495	 7.50469645373949E-02 
496	 0.075111276171022 
497	 0.075153556391541 
498	 7.51071396349063E-02 
499	 7.52961596829466E-02 
500	 7.51605371790946E-02 
501	 0.074921036379166 
502	 7.49175735014627E-02 
503	 7.49023029366081E-02 
504	 7.50205636233299E-02 
505	 7.51288447220508E-02 
506	 7.48533402531449E-02 
507	 7.49195859641852E-02 
508	 7.49981738338106E-02 
509	 0.074805996068889 
510	 7.47277750450195E-02 
511	 7.47940632634011E-02 
512	 7.48507818048997E-02 
513	 7.46922098248758E-02 
514	 7.46877262369907E-02 
515	 0.074666612068832 
516	 7.45700460831907E-02 
517	 0.074649717627424 
518	 7.45377338522081E-02 
519	 7.44244481627039E-02 
520	 7.45714984270799E-02 
521	 0.074610419633234 
522	 7.45574776422827E-02 
523	 7.45004575212378E-02 
524	 7.45722691687997E-02 
525	 7.45462646882616E-02 
526	 7.45040119572653E-02 
527	 7.45253818934355E-02 
528	 7.44404434071894E-02 
529	 7.44647307586196E-02 
530	 7.45570613962479E-02 
531	 7.45212529296564E-02 
532	 7.44658236684491E-02 
533	 7.45115228402261E-02 
534	 7.46359139407927E-02 
535	 7.44921505819564E-02 
536	 7.45038291155896E-02 
537	 0.074617781408171 
538	 7.46206213315099E-02 
539	 7.45955961483094E-02 
540	 7.46038392915531E-02 
541	 7.46507474738531E-02 
542	 7.46707474485561E-02 
543	 7.46956613939296E-02 
544	 7.47462101473325E-02 
545	 7.48292454507722E-02 
546	 7.49157229772117E-02 
547	 7.49547989766132E-02 
548	 7.49848729294783E-02 
549	 0.075109685365737 
550	 7.51748151892184E-02 
551	 7.52179427413575E-02 
552	 7.52970737186268E-02 
553	 7.54433333562832E-02 
554	 7.54779262606327E-02 
555	 7.54904775808777E-02 
556	 7.56799886908077E-02 
557	 7.58247299833366E-02 
558	 7.59367426736898E-02 
559	 7.60694514565477E-02 
560	 7.63128409165153E-02 
561	 7.64257394431003E-02 
562	 7.65449398766051E-02 
563	 7.68459622703085E-02 
564	 7.69274547276319E-02 
565	 7.70814068865124E-02 
566	 7.73960678029949E-02 
567	 7.76897335871867E-02 
568	 7.80017832214274E-02 
569	 7.82995053936097E-02 
570	 7.85643915151338E-02 
571	 0.078857821919131 
572	 7.92264869125665E-02 
573	 7.96424264951557E-02 
574	 8.00229435285997E-02 
575	 8.03190330104893E-02 
576	 8.06629575112431E-02 
577	 8.11192527629121E-02 
578	 8.15386573129743E-02 
579	 8.20014990233923E-02 
580	 8.25276383512662E-02 
581	 8.31108324952636E-02 
582	 8.37424387780923E-02 
583	 8.43638694642813E-02 
584	 8.49243052162374E-02 
585	 8.53868860891299E-02 
586	 8.59280715565053E-02 
587	 8.65076407675819E-02 
588	 8.70567859968824E-02 
589	 8.77041745318375E-02 
590	 8.83165941439022E-02 
591	 8.88852455439431E-02 
592	 8.95184963419299E-02 
593	 9.01182064745453E-02 
594	 9.07110064142992E-02 
595	 9.13308427952225E-02 
596	 9.19596322746857E-02 
597	 9.26757721069693E-02 
598	 9.34361646114257E-02 
599	 9.41411406697343E-02 
600	 9.48250125655914E-02 
601	 9.54677026516122E-02 
602	 0.096084364183064 
603	 9.67758781135239E-02 
604	 9.73424846534369E-02 
605	 9.78785309303815E-02 
606	 0.098533261909765 
607	 9.91332039369239E-02 
608	 9.96871469002687E-02 
609	 0.100248186097803 
610	 0.100904442399379 
611	 0.101454455946127 
612	 0.101947112410228 
613	 0.102453617146655 
614	 0.102904270629743 
615	 0.103313951861731 
616	 0.103707836971523 
617	 0.104114922826929 
618	 0.104548800773165 
619	 0.10494474252424 
620	 0.105274667964372 
621	 0.105611565091512 
622	 0.105917094485156 
623	 0.106195224278641 
624	 0.106469439074298 
625	 0.106774759239862 
626	 0.107066051654538 
627	 0.107332421337295 
628	 0.107616045110463 
629	 0.107878143444948 
630	 0.10812475869078 
631	 0.10836713384788 
632	 0.108579997046167 
633	 0.108813856610473 
634	 0.109055219675101 
635	 0.109243188470762 
636	 0.109448279669339 
637	 0.109671621943735 
638	 0.109901899086822 
639	 0.110133770262396 
640	 0.11033502850676 
641	 0.110520149460256 
642	 0.110722105957277 
643	 0.110916997226187 
644	 0.111151159164737 
645	 0.111406399977382 
646	 0.111561492535944 
647	 0.111738010362664 
648	 0.111949803626782 
649	 0.112180097073575 
650	 0.112430188371365 
651	 0.11266624135435 
652	 0.112866181240792 
653	 0.113026866710357 
654	 0.113263796432441 
655	 0.113503052897376 
656	 0.11370162848709 
657	 0.11399079985666 
658	 0.1142528004411 
659	 0.114471265438754 
660	 0.114680740703569 
661	 0.114901903807351 
662	 0.115142587887843 
663	 0.115407971493269 
664	 0.11570286143529 
665	 0.116013639989439 
666	 0.116290203669066 
667	 0.116507931810552 
668	 0.116775837886175 
669	 0.117095576813725 
670	 0.117420547088979 
671	 0.117675923800242 
672	 0.117977820501461 
673	 0.118301804697062 
674	 0.118610976018042 
675	 0.118893539048574 
676	 0.11920527285516 
677	 0.119557440141439 
678	 0.11992768700951 
679	 0.120219304124039 
680	 0.120541948129201 
681	 0.120938531376274 
682	 0.121342621630667 
683	 0.121726741329204 
684	 0.122094820799964 
685	 0.122468959832953 
686	 0.122897751860994 
687	 0.123313638448203 
688	 0.123694710386426 
689	 0.124060302916253 
690	 0.124491361653702 
691	 0.124928104219185 
692	 0.125340459826607 
693	 0.125806284311018 
694	 0.126235967343268 
695	 0.126671045973181 
696	 0.127173308116582 
697	 0.127640297169571 
698	 0.128067023086441 
699	 0.128497882983428 
700	 0.129015682236006 
701	 0.129496186930646 
702	 0.129961768070619 
703	 0.130444152964137 
704	 0.130902113829933 
705	 0.131418689018017 
706	 0.13193090729066 
707	 0.132328472520216 
708	 0.132792080596339 
709	 0.133303101002787 
710	 0.13383324508398 
711	 0.134376912131801 
712	 0.134835087749201 
713	 0.13525633818253 
714	 0.135717431602063 
715	 0.136224584966316 
716	 0.136703785999937 
717	 0.13714251291837 
718	 0.137576122451017 
719	 0.138009087236813 
720	 0.138435735295484 
721	 0.138842916834252 
722	 0.139203630218025 
723	 0.139612949754281 
724	 0.140038752497149 
725	 0.14041193988002 
726	 0.140725902056214 
727	 0.141033338388703 
728	 0.141354836183693 
729	 0.141676211946672 
730	 0.141981047192123 
731	 0.142239166287567 
732	 0.142446031664409 
733	 0.142655686834359 
734	 0.142887668828712 
735	 0.143082216528609 
736	 0.143175978960074 
737	 0.143311792741834 
738	 0.143431891210805 
739	 0.143514440785156 
740	 0.143591299071205 
741	 0.143598407441907 
742	 0.143606834187601 
743	 0.143655834732179 
744	 0.143624188228837 
745	 0.143529379960726 
746	 0.143432779959443 
747	 0.143390499567068 
748	 0.143248817929493 
749	 0.143098255879909 
750	 0.142969434690237 
751	 0.142794852075983 
752	 0.142570303522179 
753	 0.142330559750759 
754	 0.142099213710495 
755	 0.141833779059254 
756	 0.14158324183302 
757	 0.141322478843014 
758	 0.141001574510469 
759	 0.1406894893093 
760	 0.140371201341565 
761	 0.140030760411728 
762	 0.139661918481388 
763	 0.1393171535275 
764	 0.138967456199194 
765	 0.138582351113693 
766	 0.138181211597331 
767	 0.137805493938398 
768	 0.137445742413053 
769	 0.137065137380175 
770	 0.136649337189746 
771	 0.136232963720998 
772	 0.135822507229654 
773	 0.135386547745659 
774	 0.134971015334975 
775	 0.134566918484006 
776	 0.134158407978568 
777	 0.133749132878564 
778	 0.133319555291665 
779	 0.132891130924249 
780	 0.132490901936119 
781	 0.132051207305507 
782	 0.131618784309025 
783	 0.131207023102278 
784	 0.130787402660065 
785	 0.130381119601374 
786	 0.129996710989768 
787	 0.12961922621288 
788	 0.129175308726973 
789	 0.12880351775231 
790	 0.128439484160034 
791	 0.127986667396282 
792	 0.127611120230896 
793	 0.127260240017353 
794	 0.126916207045177 
795	 0.126593516791364 
796	 0.126188372796822 
797	 0.12580895542572 
798	 0.125506541422586 
799	 0.125168297387315 
800	 0.1248422546062 
801	 0.124505909852288 
802	 0.124143485833578 
803	 0.123840433685886 
804	 0.123542418881392 
805	 0.123247800519398 
806	 0.122984146993776 
807	 0.122713034104075 
808	 0.122419421287235 
809	 0.122108776065405 
810	 0.12180799474931 
811	 0.121541448720845 
812	 0.121300399446179 
813	 0.121063054423347 
814	 0.120791573614689 
815	 0.120592598658504 
816	 0.120399136195665 
817	 0.120111494144257 
818	 0.119864822115244 
819	 0.119726573459129 
820	 0.119604343612424 
821	 0.119308194047498 
822	 0.119146143927663 
823	 0.118970113987048 
824	 0.118714777747292 
825	 0.118560757478997 
826	 0.118427763788528 
827	 0.118274893381242 
828	 0.118098365780296 
829	 0.117986449728424 
830	 0.117825513191524 
831	 0.117655510612296 
832	 0.117566435231133 
833	 0.117451125127668 
834	 0.117350418377173 
835	 0.117253004061489 
836	 0.117100893631539 
837	 0.117013032616475 
838	 0.11694111557417 
839	 0.116853618726163 
840	 0.116796972360945 
841	 0.11668705439011 
842	 0.116577286549168 
843	 0.116522573553897 
844	 0.116453215213771 
845	 0.116435393614396 
846	 0.116412971931986 
847	 0.116315385534734 
848	 0.116332934653586 
849	 0.116335278570141 
850	 0.116290856687697 
851	 0.116267934133868 
852	 0.116261561673833 
853	 0.116276396503726 
854	 0.116295169375915 
855	 0.116271711319149 
856	 0.116268253231734 
857	 0.116296084169549 
858	 0.116343016227271 
859	 0.116370082257669 
860	 0.116430851739627 
861	 0.11647570469496 
862	 0.116453555082994 
863	 0.116459248750037 
864	 0.11656818993886 
865	 0.116711781374081 
866	 0.116755714363344 
867	 0.116785189359968 
868	 0.116847389741653 
869	 0.116936903505418 
870	 0.117002147837429 
871	 0.117080381560964 
872	 0.117197111822444 
873	 0.117341887317232 
874	 0.117453029747871 
875	 0.11749489169324 
876	 0.117580038709941 
877	 0.11776979789996 
878	 0.117891356985878 
879	 0.118047971976431 
880	 0.118217568801293 
881	 0.118351179539045 
882	 0.118469832759925 
883	 0.118624056082318 
884	 0.118803197276926 
885	 0.118967949666897 
886	 0.119141200891177 
887	 0.119361320450211 
888	 0.119577618051308 
889	 0.119692253624451 
890	 0.119914430899376 
891	 0.120148520611948 
892	 0.12034393009607 
893	 0.120556558996676 
894	 0.120792113785577 
895	 0.121007158597004 
896	 0.121193662713687 
897	 0.121421895604302 
898	 0.121746668428592 
899	 0.122071555755861 
900	 0.122305488818392 
901	 0.122473078730778 
902	 0.122756676583384 
903	 0.123068373129135 
904	 0.123292579029726 
905	 0.123602989581144 
906	 0.123944252597694 
907	 0.124271185067077 
908	 0.12456588802256 
909	 0.12491752299478 
910	 0.125220887813005 
911	 0.125500419463487 
912	 0.125855702189814 
913	 0.126230172987889 
914	 0.12661012793225 
915	 0.126987609208413 
916	 0.127360378392704 
917	 0.127742920763545 
918	 0.128095240172835 
919	 0.1284252825862 
920	 0.128799892875808 
921	 0.129248180470171 
922	 0.129690173494347 
923	 0.130088467143564 
924	 0.130498826581251 
925	 0.130948231028004 
926	 0.13140619622889 
927	 0.131841447158934 
928	 0.132246841678866 
929	 0.132759037971776 
930	 0.133337383255569 
931	 0.133884887590125 
932	 0.134296550605611 
933	 0.134802078441655 
934	 0.135364552107301 
935	 0.135904247941583 
936	 0.136478120114223 
937	 0.136941391793312 
938	 0.137427799207447 
939	 0.138074960824165 
940	 0.138702258285207 
941	 0.139264586361957 
942	 0.13987528603018 
943	 0.140609702259101 
944	 0.141123648728789 
945	 0.14171178032502 
946	 0.142373351060709 
947	 0.142987703757601 
948	 0.143595303009698 
949	 0.144209404402343 
950	 0.144856652492075 
951	 0.145551452507519 
952	 0.146229242827571 
953	 0.146868359738985 
954	 0.147525402813015 
955	 0.1482710105366 
956	 0.149006490674083 
957	 0.149786208830129 
958	 0.15057553821216 
959	 0.151310477239236 
960	 0.152111705275332 
961	 0.152857043592463 
962	 0.153611111897796 
963	 0.154494459373415 
964	 0.15516875212662 
965	 0.155917260020243 
966	 0.156811700027283 
967	 0.157740736780543 
968	 0.158639722462603 
969	 0.159519019447295 
970	 0.160390830443464 
971	 0.161255296869485 
972	 0.162065747756756 
973	 0.162990752980355 
974	 0.163965845134385 
975	 0.164824821096435 
976	 0.165844113853619 
977	 0.166928041983331 
978	 0.167913046721622 
979	 0.168698373521811 
980	 0.169619125396098 
981	 0.170737175579324 
982	 0.171897726898299 
983	 0.172893297982905 
984	 0.173933939455149 
985	 0.174915786216384 
986	 0.175911095694749 
987	 0.177032725920938 
988	 0.178063292790076 
989	 0.178989442703801 
990	 0.179933322189488 
991	 0.181042378348679 
992	 0.18227297336088 
993	 0.18334558315336 
994	 0.184373292078797 
995	 0.185511855480475 
996	 0.186266840957275 
997	 0.187330439283607 
998	 0.188587781836464 
999	 0.189723007592605 
1000	 0.191040658554174 
1001	 0.198387379894442 
1002	 0.199634871033138 
1003	 0.200761690713618 
1004	 0.201859972787884 
1005	 0.202936246890953 
1006	 0.204008107960739 
1007	 0.204974319784544 
1008	 0.206067953020439 
1009	 0.207206379975487 
1010	 0.208352462844816 
1011	 0.209488111440811 
1012	 0.210601268617721 
1013	 0.211694538349268 
1014	 0.212792128964702 
1015	 0.213913211977888 
1016	 0.215023422450071 
1017	 0.216142158612294 
1018	 0.217287827652221 
1019	 0.218407339831414 
1020	 0.219453110238415 
1021	 0.220469388817071 
1022	 0.221473222484236 
1023	 0.222472411127853 
1024	 0.223480273088049 
1025	 0.224586949700221 
1026	 0.225644122680914 
1027	 0.226622807041448 
1028	 0.227682877126724 
1029	 0.22865210625198 
1030	 0.229616607492913 
1031	 0.230601784177742 
1032	 0.231639808873326 
1033	 0.232571953705234 
1034	 0.233520676813131 
1035	 0.234510829620361 
1036	 0.235476816220856 
1037	 0.236457127411533 
1038	 0.237438241253307 
1039	 0.238413590088445 
1040	 0.239375134492558 
1041	 0.240341243983927 
1042	 0.241367139105605 
1043	 0.242327424944848 
1044	 0.243253774330643 
1045	 0.244130488587334 
1046	 0.245074172731759 
1047	 0.24597760729102 
1048	 0.246904699350801 
1049	 0.247915947269471 
1050	 0.248910879519255 
1051	 0.249933563447958 
1052	 0.250916037445633 
1053	 0.251864303092507 
1054	 0.252854383615766 
1055	 0.25381417409166 
1056	 0.254776726273611 
1057	 0.255769166760901 
1058	 0.256809306292718 
1059	 0.257816097583712 
1060	 0.258809058009569 
1061	 0.259822985709641 
1062	 0.260840443909586 
1063	 0.261819744048337 
1064	 0.262848406282636 
1065	 0.263906435715904 
1066	 0.264914967269238 
1067	 0.265904314558011 
1068	 0.26690765416752 
1069	 0.267918482644399 
1070	 0.268965739740915 
1071	 0.270074787426989 
1072	 0.271164364275702 
1073	 0.27228132886494 
1074	 0.273340101121676 
1075	 0.274376503209804 
1076	 0.275380671681122 
1077	 0.276360090875397 
1078	 0.27734539345235 
1079	 0.278390368461326 
1080	 0.279430892155339 
1081	 0.280440253150197 
1082	 0.281473422765471 
1083	 0.282511243373983 
1084	 0.283520434418575 
1085	 0.28458846748791 
1086	 0.28571471069475 
1087	 0.286776955986572 
1088	 0.28784078696929 
1089	 0.288867481326606 
1090	 0.289850178693849 
1091	 0.290872411399197 
1092	 0.291939265519562 
1093	 0.292979987572287 
1094	 0.293987209218091 
1095	 0.294995997544084 
1096	 0.295977375117691 
1097	 0.296927092259203 
1098	 0.297926514408441 
1099	 0.298975836649683 
1100	 0.299998544776182 
1101	 0.30103042541371 
1102	 0.302050344289822 
1103	 0.303064475598208 
1104	 0.304065601328535 
1105	 0.305073258484263 
1106	 0.306092776622434 
1107	 0.307103119608555 
1108	 0.308118452642669 
1109	 0.309131581343807 
1110	 0.310139536162237 
1111	 0.311154714607858 
1112	 0.312194446802112 
1113	 0.313187707653031 
1114	 0.314156018011016 
1115	 0.31513780899613 
1116	 0.316086877980792 
1117	 0.317076300340352 
1118	 0.318076642442447 
1119	 0.319102252086274 
1120	 0.320174683402296 
1121	 0.321214830402006 
1122	 0.322234246961359 
1123	 0.323264703525367 
1124	 0.324286983517253 
1125	 0.325285273623035 
1126	 0.326290530640571 
1127	 0.327301195784802 
1128	 0.32831786064134 
1129	 0.329343061023848 
1130	 0.330333783253251 
1131	 0.331318053714113 
1132	 0.332299194593409 
1133	 0.333245891592715 
1134	 0.334209984514765 
1135	 0.335201436310472 
1136	 0.336159135071413 
1137	 0.337144130400959 
1138	 0.338085738310295 
1139	 0.339004885988307 
1140	 0.339914782803654 
1141	 0.340813220637446 
1142	 0.341685832142294 
1143	 0.342535117448561 
1144	 0.343370362987795 
1145	 0.344188428843322 
1146	 0.34497388639703 
1147	 0.345754838299188 
1148	 0.346526176364601 
1149	 0.347303182465415 
1150	 0.348056362230685 
1151	 0.348825686714222 
1152	 0.349592571594721 
1153	 0.350373771551274 
1154	 0.351206018939044 
1155	 0.352052657119392 
1156	 0.352934117747949 
1157	 0.35386941282835 
1158	 0.354805472933572 
1159	 0.355772723958153 
1160	 0.356730741559504 
1161	 0.35769326340434 
1162	 0.358676793597699 
1163	 0.359674158827005 
1164	 0.360663596245531 
1165	 0.36168024411421 
1166	 0.362683898068857 
1167	 0.363656657209298 
1168	 0.364635465041356 
1169	 0.365594958520052 
1170	 0.366550099046887 
1171	 0.367483705897638 
1172	 0.368411265467285 
1173	 0.369300528461858 
1174	 0.370151279631204 
1175	 0.371020898183827 
1176	 0.371869774074677 
1177	 0.37272767967147 
1178	 0.373613960707522 
1179	 0.374467771868572 
1180	 0.375309629701727 
1181	 0.376133287089833 
1182	 0.376937866894068 
1183	 0.377736117846787 
1184	 0.378513764070077 
1185	 0.379269852548823 
1186	 0.380033045314369 
1187	 0.380789853047162 
1188	 0.381532815405903 
1189	 0.382276006807055 
1190	 0.383001025626625 
1191	 0.383704981748666 
1192	 0.38440877857337 
1193	 0.385120457485471 
1194	 0.385800163223731 
1195	 0.386458792061609 
1196	 0.387109803583259 
1197	 0.387737095361698 
1198	 0.388359985911162 
1199	 0.388975895639249 
1200	 0.389585840001355 
1201	 0.390193691905888 
1202	 0.390790393049912 
1203	 0.391393232377936 
1204	 0.392006013454511 
1205	 0.392598114979904 
1206	 0.39319493654669 
1207	 0.393759036773692 
1208	 0.394294171338491 
1209	 0.394833245819914 
1210	 0.395366845365443 
1211	 0.395877177797863 
1212	 0.396370304303658 
1213	 0.396864545121549 
1214	 0.397336083223543 
1215	 0.397809595265614 
1216	 0.398283382391562 
1217	 0.398769284685076 
1218	 0.399233933061152 
1219	 0.399694458156665 
1220	 0.400131990698279 
1221	 0.400544111848656 
1222	 0.400975586361332 
1223	 0.40140649574306 
1224	 0.401822388380366 
1225	 0.402248605282194 
1226	 0.402656887310369 
1227	 0.403047031005599 
1228	 0.40342491088064 
1229	 0.403798082930333 
1230	 0.404158982128933 
1231	 0.404486992587365 
1232	 0.404826822054502 
1233	 0.405167747992675 
1234	 0.405513106058138 
1235	 0.405845405590263 
1236	 0.40618710884973 
1237	 0.406495961516184 
1238	 0.406782317927818 
1239	 0.407069196972242 
1240	 0.407330286176475 
1241	 0.407609158172921 
1242	 0.407899670968859 
1243	 0.408175967611105 
1244	 0.408451862025259 
1245	 0.408722806773322 
1246	 0.408983330323308 
1247	 0.409241357794412 
1248	 0.40949770424446 
1249	 0.409757606531871 
1250	 0.409993256617328 
1251	 0.410223729497787 
1252	 0.410427683527561 
1253	 0.410605503870895 
1254	 0.410787632862905 
1255	 0.410951587618057 
1256	 0.41112006574442 
1257	 0.411294331288849 
1258	 0.411452618758408 
1259	 0.411594460295883 
1260	 0.411744160506832 
1261	 0.411890757662883 
1262	 0.412032707525847 
1263	 0.412183544619145 
1264	 0.412319989499783 
1265	 0.412429489746437 
1266	 0.412558094134301 
1267	 0.412701085108675 
1268	 0.412821981913273 
1269	 0.412956279037444 
1270	 0.4131012142766 
1271	 0.413248516922413 
1272	 0.413400296890098 
1273	 0.413542199615052 
1274	 0.413693958665974 
1275	 0.413826004539831 
1276	 0.413928552106911 
1277	 0.414054312662325 
1278	 0.414183220083896 
1279	 0.414316740289905 
1280	 0.414467189377381 
1281	 0.414605408428775 
1282	 0.414751490712489 
1283	 0.414874749616332 
1284	 0.414982435038995 
1285	 0.415080656878718 
1286	 0.415181271278642 
1287	 0.415275487820281 
1288	 0.415383230229606 
1289	 0.4155130786144 
1290	 0.415615486599879 
1291	 0.415699487746697 
1292	 0.415805208262807 
1293	 0.415921907896538 
1294	 0.416013685937538 
1295	 0.41612061819292 
1296	 0.416190378908515 
1297	 0.416214391171193 
1298	 0.416253074773326 
1299	 0.416295734198796 
1300	 0.416318799869722 
1301	 0.416331021514994 
1302	 0.416334264261551 
1303	 0.416320689590109 
1304	 0.416296678282913 
1305	 0.41627743062943 
1306	 0.416248585338219 
1307	 0.416199028992263 
1308	 0.416122614301503 
1309	 0.416048784680174 
1310	 0.4159680094215 
1311	 0.415863030008303 
1312	 0.415752516889571 
1313	 0.415620164103166 
1314	 0.415463505603763 
1315	 0.415285664905197 
1316	 0.415091297566019 
1317	 0.414883577062134 
1318	 0.414653418562395 
1319	 0.414412493400413 
1320	 0.414161102985928 
1321	 0.413900201630269 
1322	 0.413626901512198 
1323	 0.413335045236093 
1324	 0.413043756647574 
1325	 0.412732645669948 
1326	 0.412413849491105 
1327	 0.41208006304243 
1328	 0.411731182425675 
1329	 0.411367362935871 
1330	 0.410972915820965 
1331	 0.410552845793461 
1332	 0.410118429917138 
1333	 0.409640209095231 
1334	 0.409196353128866 
1335	 0.408749167356429 
1336	 0.408316911919451 
1337	 0.407911672463548 
1338	 0.40748928560534 
1339	 0.407061333088477 
1340	 0.406630949804992 
1341	 0.406202289819099 
1342	 0.40576577156038 
1343	 0.405315468671388 
1344	 0.404877043165907 
1345	 0.404451612928537 
1346	 0.404028952355212 
1347	 0.403643426240181 
1348	 0.403262911734773 
1349	 0.402860602071938 
1350	 0.402450689610027 
1351	 0.402062809121309 
1352	 0.401679401306848 
1353	 0.401299044978128 
1354	 0.400937334492241 
1355	 0.400565111118902 
1356	 0.400179757450212 
1357	 0.399803338242092 
1358	 0.399443048114716 
1359	 0.399060512194692 
1360	 0.398659638886559 
1361	 0.398275823602928 
1362	 0.397890054130379 
1363	 0.397507286546863 
1364	 0.39714205727804 
1365	 0.396766041792742 
1366	 0.396382937038405 
1367	 0.395999011773676 
1368	 0.395619298725948 
1369	 0.395230267781865 
1370	 0.394804781410361 
1371	 0.394369937658588 
1372	 0.393910599121623 
1373	 0.393420884437451 
1374	 0.392886346339736 
1375	 0.392324858976675 
1376	 0.391708263164871 
1377	 0.391044314712271 
1378	 0.390334299298756 
1379	 0.389573014125435 
1380	 0.388788857377288 
1381	 0.387979406780801 
1382	 0.387094898582569 
1383	 0.386190648343013 
1384	 0.385198668425829 
1385	 0.384132949687293 
1386	 0.383015381574359 
1387	 0.381852230499637 
1388	 0.380604133221841 
1389	 0.379302869333088 
1390	 0.37790039104114 
1391	 0.376411545251136 
1392	 0.374851499421419 
1393	 0.373213525689213 
1394	 0.371515433733504 
1395	 0.369725948005262 
1396	 0.367891656269582 
1397	 0.366026204054246 
1398	 0.364093246554397 
1399	 0.362148466313484 
1400	 0.36014935548074 
1401	 0.358196417769496 
1402	 0.356206478732921 
1403	 0.354293300066376 
1404	 0.35239992407542 
1405	 0.350597833954233 
1406	 0.348824065667514 
1407	 0.347148407665081 
1408	 0.345532686397443 
1409	 0.344031412304232 
1410	 0.342615668568103 
1411	 0.341304034654262 
1412	 0.340083026120653 
1413	 0.33900229519396 
1414	 0.338015298760796 
1415	 0.33705910733759 
1416	 0.336184816068009 
1417	 0.335359632096721 
1418	 0.334537119160852 
1419	 0.33376775569956 
1420	 0.33303090829436 
1421	 0.332317412155233 
1422	 0.331643356308344 
1423	 0.330986886891933 
1424	 0.330350984233325 
1425	 0.329739081551439 
1426	 0.329149364570935 
1427	 0.328569290355413 
1428	 0.328034463700652 
1429	 0.327533289804463 
1430	 0.327058558261599 
1431	 0.326625629063529 
1432	 0.32620002462175 
1433	 0.325792472334088 
1434	 0.32540598213419 
1435	 0.325034668909052 
1436	 0.32468939827581 
1437	 0.324379108510723 
1438	 0.324071390281445 
1439	 0.323790723609791 
1440	 0.323494614664424 
1441	 0.323202967964904 
1442	 0.322916671631744 
1443	 0.322645025835434 
1444	 0.322405467260118 
1445	 0.322163103725883 
1446	 0.321943295541724 
1447	 0.32174753379082 
1448	 0.321535444103696 
1449	 0.321327240674285 
1450	 0.321137640039447 
1451	 0.320945970477436 
1452	 0.320736145655353 
1453	 0.320560661288687 
1454	 0.320413054829489 
1455	 0.320256605316395 
1456	 0.320113209257594 
1457	 0.319960582095566 
1458	 0.319795752734334 
1459	 0.319651213454953 
1460	 0.319509603948 
1461	 0.319381968352169 
1462	 0.319280857091795 
1463	 0.319165499397427 
1464	 0.319038046454965 
1465	 0.318932579046177 
1466	 0.318824955803017 
1467	 0.318742175065802 
1468	 0.318669933914842 
1469	 0.318628333740968 
1470	 0.318607884796702 
1471	 0.318610373126989 
1472	 0.318648249064417 
1473	 0.318710157688047 
1474	 0.318770078319255 
1475	 0.318853467485909 
1476	 0.318948045907597 
1477	 0.319065558777725 
1478	 0.319206837572309 
1479	 0.319345781015723 
1480	 0.319494024211831 
1481	 0.319661031099816 
1482	 0.319842198082201 
1483	 0.320044320909167 
1484	 0.320245233309922 
1485	 0.320457960577323 
1486	 0.320672231109152 
1487	 0.320889096486386 
1488	 0.321106462942101 
1489	 0.321335961658566 
1490	 0.321562011664535 
1491	 0.321782862866171 
1492	 0.322013204453691 
1493	 0.322253500031461 
1494	 0.322478797742676 
1495	 0.32269950497662 
1496	 0.322923525763537 
1497	 0.323146971068546 
1498	 0.323364636049402 
1499	 0.323588882571788 
1500	 0.323798814759946 
1501	 0.323991616826379 
1502	 0.324182893703762 
1503	 0.324360854112027 
1504	 0.324551978541525 
1505	 0.324745543372298 
1506	 0.324933542265171 
1507	 0.325125659513181 
1508	 0.32529430408975 
1509	 0.325435819500705 
1510	 0.325587945851387 
1511	 0.325731147609989 
1512	 0.325867542047881 
1513	 0.326010523932452 
1514	 0.326144237336442 
1515	 0.326273173858329 
1516	 0.326415101813068 
1517	 0.326569663166043 
1518	 0.326745447415647 
1519	 0.326893755448553 
1520	 0.327046102650692 
1521	 0.327184228612981 
1522	 0.327301878156207 
1523	 0.327410853361391 
1524	 0.327519327258057 
1525	 0.327613624646455 
1526	 0.327678630435267 
1527	 0.327761315039484 
1528	 0.327851505463471 
1529	 0.327938260599226 
1530	 0.328021266055115 
1531	 0.328109898887061 
1532	 0.32819991813575 
1533	 0.328279329901622 
1534	 0.328363318995869 
1535	 0.328440642292239 
1536	 0.328502257116397 
1537	 0.328580261504106 
1538	 0.328675894813278 
1539	 0.328744408797053 
1540	 0.328802867725636 
1541	 0.328862355555706 
1542	 0.328901551682167 
1543	 0.328947687222684 
1544	 0.329021020044309 
1545	 0.329060780462418 
1546	 0.329079623912015 
1547	 0.329088134617693 
1548	 0.329096461188467 
1549	 0.329091560338692 
1550	 0.329096598962217 
1551	 0.329115022562286 
1552	 0.329122006886801 
1553	 0.329149956074907 
1554	 0.32919671085723 
1555	 0.329224109013715 
1556	 0.329238992712604 
1557	 0.32923259699961 
1558	 0.329223899405575 
1559	 0.329228134958433 
1560	 0.329239590343134 
1561	 0.329274533360229 
1562	 0.329286854312464 
1563	 0.329294541267175 
1564	 0.329295703407168 
1565	 0.32928451935507 
1566	 0.32928138014504 
1567	 0.329274642758351 
1568	 0.329275506488946 
1569	 0.32928713420271 
1570	 0.329287217554994 
1571	 0.329290669314032 
1572	 0.329276551849262 
1573	 0.329246163795675 
1574	 0.329221012760949 
1575	 0.329191154092457 
1576	 0.329159524606082 
1577	 0.32912902914513 
1578	 0.32909325307788 
1579	 0.329030398447969 
1580	 0.329006454246836 
1581	 0.328998709473192 
1582	 0.328999106789977 
1583	 0.329050099427954 
1584	 0.329049235524093 
1585	 0.329030255905956 
1586	 0.329004131872756 
1587	 0.328940970168539 
1588	 0.328896204737565 
1589	 0.328858129450543 
1590	 0.328813413946417 
1591	 0.328771948155382 
1592	 0.328722899296062 
1593	 0.328654541743809 
1594	 0.32860707172955 
1595	 0.32857175528277 
1596	 0.32852712980249 
1597	 0.32850311725085 
1598	 0.328456270549114 
1599	 0.328377124037503 
1600	 0.328315407066794 
1601	 0.328249350839016 
1602	 0.328194358104619 
1603	 0.328159873162567 
1604	 0.328112989702063 
1605	 0.328066700449663 
1606	 0.328016350174382 
1607	 0.327951547773012 
1608	 0.327895654202253 
1609	 0.3278699864434 
1610	 0.327813134746214 
1611	 0.327757884015086 
1612	 0.327712854314674 
1613	 0.327634291248119 
1614	 0.327551976930857 
1615	 0.327471113591507 
1616	 0.327385447169134 
1617	 0.327300157887197 
1618	 0.327228434705183 
1619	 0.327165012600437 
1620	 0.327080978033311 
1621	 0.327005778103697 
1622	 0.326937571922611 
1623	 0.326847327553831 
1624	 0.326745523187638 
1625	 0.326652948658576 
1626	 0.326550049154469 
1627	 0.326448478732337 
1628	 0.326352678078775 
1629	 0.326259418342938 
1630	 0.326148154710492 
1631	 0.326079985460021 
1632	 0.326046009623045 
1633	 0.325983511091577 
1634	 0.325932629733472 
1635	 0.325866754594085 
1636	 0.325781560118331 
1637	 0.32570421686617 
1638	 0.325637010811233 
1639	 0.325548205541162 
1640	 0.325436802423456 
1641	 0.325347891517003 
1642	 0.325262976910553 
1643	 0.325169653322679 
1644	 0.325085602546693 
1645	 0.324991348347668 
1646	 0.324881922306484 
1647	 0.324778384853912 
1648	 0.324685062806603 
1649	 0.324572827238048 
1650	 0.324435827656663 
1651	 0.324330744420525 
1652	 0.324242932678768 
1653	 0.324128615782862 
1654	 0.324026495220413 
1655	 0.323900502349254 
1656	 0.323737841917325 
1657	 0.323591380258342 
1658	 0.323449658082175 
1659	 0.323301689498823 
1660	 0.323146446251123 
1661	 0.322993610284721 
1662	 0.322836496697478 
1663	 0.322688845066397 
1664	 0.32253175401242 
1665	 0.322406610509007 
1666	 0.322302198302969 
1667	 0.322201598455382 
1668	 0.322139515901442 
1669	 0.322035178164869 
1670	 0.321924990244227 
1671	 0.321791724979864 
1672	 0.321627158208488 
1673	 0.321466650898125 
1674	 0.321284233484138 
1675	 0.321124610370741 
1676	 0.320965650540384 
1677	 0.320819282078171 
1678	 0.320684786739248 
1679	 0.320561291859027 
1680	 0.320461507081114 
1681	 0.320334552719873 
1682	 0.320206264915058 
1683	 0.320076164116375 
1684	 0.319926534707926 
1685	 0.319784632477408 
1686	 0.319663536419852 
1687	 0.319511359384675 
1688	 0.319324492076706 
1689	 0.319169532462605 
1690	 0.319007725556106 
1691	 0.318869395588329 
1692	 0.318775198182805 
1693	 0.318644689982498 
1694	 0.318502324645574 
1695	 0.318365333605209 
1696	 0.318215833322775 
1697	 0.318070468751117 
1698	 0.31793690825774 
1699	 0.317792120289624 
1700	 0.317640331899019 
1701	 0.317479051460844 
1702	 0.317314915093052 
1703	 0.31714246306518 
1704	 0.316943187665673 
1705	 0.316776238763379 
1706	 0.3166224586452 
1707	 0.316463378486352 
1708	 0.316321849600669 
1709	 0.316168642450592 
1710	 0.316002215091359 
1711	 0.315846939992407 
1712	 0.31570890346362 
1713	 0.31554289510966 
1714	 0.315350664581875 
1715	 0.315188500007551 
1716	 0.315014040662419 
1717	 0.314872567693318 
1718	 0.314783442701701 
1719	 0.31465448147195 
1720	 0.314516944575594 
1721	 0.314377831518947 
1722	 0.31421990971688 
1723	 0.31408006905882 
1724	 0.313959751632577 
1725	 0.313813432821079 
1726	 0.313652589920694 
1727	 0.313501708205818 
1728	 0.313350991936157 
1729	 0.313182936048012 
1730	 0.31301983527455 
1731	 0.312844166237916 
1732	 0.312637541283067 
1733	 0.31245061660436 
1734	 0.312275136149861 
1735	 0.312088972233398 
1736	 0.31189472000527 
1737	 0.311708005757398 
1738	 0.311514985698626 
1739	 0.31134458121521 
1740	 0.311186913822233 
1741	 0.311035652159768 
1742	 0.310905306819668 
1743	 0.310762053512623 
1744	 0.310617690523857 
1745	 0.310466680923127 
1746	 0.310315662260248 
1747	 0.310124885398498 
1748	 0.309958959257606 
1749	 0.309786919806132 
1750	 0.309629012377094 
1751	 0.309507785551262 
1752	 0.309374775610961 
1753	 0.309265392516536 
1754	 0.309144995736945 
1755	 0.308980460398537 
1756	 0.308829787467372 
1757	 0.308642581364858 
1758	 0.308438544575202 
1759	 0.308279193500017 
1760	 0.308142268241761 
1761	 0.308030819530915 
1762	 0.307917072901077 
1763	 0.307775711221678 
1764	 0.307617265186496 
1765	 0.307449716238163 
1766	 0.307268246870817 
1767	 0.307085409406043 
1768	 0.306917932196869 
1769	 0.306752806737403 
1770	 0.306613977727353 
1771	 0.306515771063595 
1772	 0.30641686650334 
1773	 0.306288037134775 
1774	 0.306162268247165 
1775	 0.306062482430489 
1776	 0.305942128175451 
1777	 0.305825934698978 
1778	 0.305724705650893 
1779	 0.305598010630731 
1780	 0.305482276759636 
1781	 0.305372055246862 
1782	 0.305265596648093 
1783	 0.305143416915093 
1784	 0.305022870073118 
1785	 0.304913114364275 
1786	 0.304807167152624 
1787	 0.3046954452447 
1788	 0.304598976309794 
1789	 0.304523645928527 
1790	 0.304432165266302 
1791	 0.304333946390749 
1792	 0.304247067196871 
1793	 0.304142835688816 
1794	 0.304063897812131 
1795	 0.304016275934647 
1796	 0.303954174062974 
1797	 0.303905028877052 
1798	 0.303856933865065 
1799	 0.303811350027283 
1800	 0.303737297300213 
1801	 0.308305202120651 
1802	 0.308241585499964 
1803	 0.308222414999782 
1804	 0.308204854370796 
1805	 0.308208335223233 
1806	 0.308247192079937 
1807	 0.308240460883332 
1808	 0.308223907331103 
1809	 0.308218181508132 
1810	 0.308182291674661 
1811	 0.308095572946873 
1812	 0.308042181960817 
1813	 0.308002819828565 
1814	 0.307915822223682 
1815	 0.307858060141134 
1816	 0.307801855244177 
1817	 0.30774062145466 
1818	 0.307683167573144 
1819	 0.307632698111899 
1820	 0.307587997323211 
1821	 0.307521124797517 
1822	 0.307472210389686 
1823	 0.307405438566504 
1824	 0.307343602768024 
1825	 0.3072738639751 
1826	 0.307211998768016 
1827	 0.307188637726222 
1828	 0.307123993882944 
1829	 0.307056432428958 
1830	 0.306958702255421 
1831	 0.30683251859722 
1832	 0.306687654823673 
1833	 0.306548877435974 
1834	 0.306419502216699 
1835	 0.306321233162015 
1836	 0.306197593652791 
1837	 0.306087564769055 
1838	 0.306007898117425 
1839	 0.305899194586476 
1840	 0.305783641450939 
1841	 0.305674564014653 
1842	 0.305541019541855 
1843	 0.305410808770789 
1844	 0.305289968669381 
1845	 0.305118279881417 
1846	 0.304964535837461 
1847	 0.304818738910856 
1848	 0.304647166358469 
1849	 0.304488569521931 
1850	 0.304313017472633 
1851	 0.304134839224913 
1852	 0.303904536548211 
1853	 0.303670620190399 
1854	 0.303418674119214 
1855	 0.303135138110117 
1856	 0.302828070996414 
1857	 0.302486227948202 
1858	 0.302143580352667 
1859	 0.30178141150637 
1860	 0.301371124306065 
1861	 0.300933051234024 
1862	 0.300441021386274 
1863	 0.299904236668273 
1864	 0.299347175742967 
1865	 0.298741566753279 
1866	 0.298115611879288 
1867	 0.29744886917754 
1868	 0.296707150281133 
1869	 0.295925242320905 
1870	 0.295104309364144 
1871	 0.294226999083017 
1872	 0.293302771805113 
1873	 0.29234342406438 
1874	 0.29133057794696 
1875	 0.290228370201893 
1876	 0.289090724498971 
1877	 0.287889898981161 
1878	 0.286566451278981 
1879	 0.285180928938849 
1880	 0.283690487606406 
1881	 0.282092182131685 
1882	 0.280402554227111 
1883	 0.278627149474916 
1884	 0.276727537928727 
1885	 0.274770453267079 
1886	 0.272685344060381 
1887	 0.270481642189849 
1888	 0.268212355170235 
1889	 0.265791027918508 
1890	 0.263336965717669 
1891	 0.260865094005986 
1892	 0.258317324794874 
1893	 0.255764346273448 
1894	 0.253207246397026 
1895	 0.250599788164726 
1896	 0.247921529470591 
1897	 0.245275175607867 
1898	 0.242621275812748 
1899	 0.240000912480499 
1900	 0.237452077496171 
1901	 0.234953387713187 
1902	 0.232567322372085 
1903	 0.230256082330171 
1904	 0.228064859291076 
1905	 0.225964190861269 
1906	 0.224010144242297 
1907	 0.222164831623005 
1908	 0.220420011778709 
1909	 0.218806192458062 
1910	 0.217305536373434 
1911	 0.215900943270119 
1912	 0.214595509688695 
1913	 0.21335005237017 
1914	 0.212184445537922 
1915	 0.21107913352623 
1916	 0.210041176136853 
1917	 0.209069322321236 
1918	 0.208172017635616 
1919	 0.207354724619242 
1920	 0.206618015974432 
1921	 0.205924783760858 
1922	 0.205289787571088 
1923	 0.204723221773719 
1924	 0.204208335751351 
1925	 0.203743761453692 
1926	 0.203352754302592 
1927	 0.203039274050131 
1928	 0.202750841710108 
1929	 0.202519370503163 
1930	 0.202348272928783 
1931	 0.202190871007763 
1932	 0.202075340893897 
1933	 0.202009963329942 
1934	 0.201963078307729 
1935	 0.201941790154071 
1936	 0.201942331731433 
1937	 0.201986436570649 
1938	 0.202065655137831 
1939	 0.202166062076146 
1940	 0.202300298119596 
1941	 0.202468744150071 
1942	 0.20265035422725 
1943	 0.202845900863509 
1944	 0.203086733258887 
1945	 0.203370915713853 
1946	 0.203651551430806 
1947	 0.203948693636062 
1948	 0.204267696211902 
1949	 0.204607926643372 
1950	 0.204941469349221 
1951	 0.205280976852924 
1952	 0.205657976927977 
1953	 0.206006351248843 
1954	 0.206373573804802 
1955	 0.206783602551916 
1956	 0.207195458470651 
1957	 0.207609048828114 
1958	 0.208051525787698 
1959	 0.208463807680069 
1960	 0.208850774913647 
1961	 0.209258786624087 
1962	 0.209674804445671 
1963	 0.210081750700186 
1964	 0.210483944752638 
1965	 0.210903501414874 
1966	 0.21131141587237 
1967	 0.21173543042532 
1968	 0.212185848655452 
1969	 0.212671693313531 
1970	 0.213141380360472 
1971	 0.213620219162644 
1972	 0.214100869408652 
1973	 0.214583727393061 
1974	 0.215070788313182 
1975	 0.215556053930572 
1976	 0.216061530867517 
1977	 0.216575554475248 
1978	 0.21709580189597 
1979	 0.217634554468388 
1980	 0.218168336615074 
1981	 0.218698994773127 
1982	 0.219210034510437 
1983	 0.219754820573395 
1984	 0.22030737227004 
1985	 0.220878885877939 
1986	 0.221496942818444 
1987	 0.222080700721693 
1988	 0.222670889027894 
1989	 0.223244369807721 
1990	 0.223768243859321 
1991	 0.22429692179224 
1992	 0.224836459411755 
1993	 0.22536018003545 
1994	 0.225908167741058 
1995	 0.226487350738588 
1996	 0.227041369061561 
1997	 0.22758988837165 
1998	 0.228138443813398 
1999	 0.228685189585845 
2000	 0.22922540223653 
2001	 0.229755612261999 
2002	 0.230292855435968 
2003	 0.230851905823126 
2004	 0.231400862180808 
2005	 0.231924446796021 
2006	 0.23245240077232 
2007	 0.232955623053375 
2008	 0.233408988596566 
2009	 0.233888803889643 
2010	 0.234369581149958 
2011	 0.234861204519771 
2012	 0.235375249470647 
2013	 0.235859824734016 
2014	 0.236337339661258 
2015	 0.236811743761187 
2016	 0.237258150543403 
2017	 0.23771337178787 
2018	 0.238186880798662 
2019	 0.23868232872113 
2020	 0.239165435971766 
2021	 0.239666396904485 
2022	 0.240140763740771 
2023	 0.240602140717271 
2024	 0.241059360474264 
2025	 0.241497852812252 
2026	 0.241940903023295 
2027	 0.242384087909606 
2028	 0.242820400008172 
2029	 0.243262594426884 
2030	 0.243710201668251 
2031	 0.24414532996637 
2032	 0.24458395916076 
2033	 0.245004722335489 
2034	 0.245406287129862 
2035	 0.24581334932628 
2036	 0.246216714483423 
2037	 0.246613748895278 
2038	 0.247007519765818 
2039	 0.247398122438096 
2040	 0.247784882027484 
2041	 0.248162675146601 
2042	 0.248536849319701 
2043	 0.248897672553734 
2044	 0.249266672408615 
2045	 0.249629506834174 
2046	 0.24999446513619 
2047	 0.250368048519516 
2048	 0.250733546631273 
2049	 0.251093866889178 
2050	 0.251448306286749 
2051	 0.251814016227931 
2052	 0.252150373634829 
2053	 0.252460664772508 
2054	 0.252774000321319 
2055	 0.253065514737497 
2056	 0.253358515830169 
2057	 0.253669105299521 
2058	 0.253987313862258 
2059	 0.254313858877143 
2060	 0.254662445757369 
2061	 0.254991917151166 
2062	 0.255327432016491 
2063	 0.255645516668244 
2064	 0.255952353453751 
2065	 0.256248321255493 
2066	 0.256535099147007 
2067	 0.256812368550596 
2068	 0.257069257221557 
2069	 0.257326770457388 
2070	 0.257597809832495 
2071	 0.257861478103017 
2072	 0.258147033907302 
2073	 0.258450156091603 
2074	 0.258757144054381 
2075	 0.259097221559517 
2076	 0.259390857002845 
2077	 0.259662226523034 
2078	 0.259947261809187 
2079	 0.260199961191466 
2080	 0.260478726093435 
2081	 0.260795115536121 
2082	 0.26109245412165 
2083	 0.261381221688912 
2084	 0.261673017949163 
2085	 0.261965544952141 
2086	 0.262256417509176 
2087	 0.2625480463817 
2088	 0.262853327422355 
2089	 0.263127061775726 
2090	 0.263387175912968 
2091	 0.263638704638116 
2092	 0.263846768420221 
2093	 0.264100945593076 
2094	 0.264380438382512 
2095	 0.264645483808693 
2096	 0.264933219372212 
2097	 0.265205898263252 
2098	 0.265467792309895 
2099	 0.26571055644109 
2100	 0.265961835464125 
2101	 0.266212798839068 
2102	 0.266461804184009 
2103	 0.266703575868547 
2104	 0.266955342073378 
2105	 0.267210040992079 
2106	 0.267469388546972 
2107	 0.267736249168706 
2108	 0.267999378134471 
2109	 0.268259044475666 
2110	 0.268529446084543 
2111	 0.268796793472837 
2112	 0.269076624545121 
2113	 0.269368674303649 
2114	 0.269670675461658 
2115	 0.269971765717837 
2116	 0.270287452406649 
2117	 0.270583744030125 
2118	 0.270879664375432 
2119	 0.271163323430986 
2120	 0.271436546272158 
2121	 0.271700637574267 
2122	 0.271946846321268 
2123	 0.272204771301395 
2124	 0.272480878231279 
2125	 0.272714760272863 
2126	 0.272941030486819 
2127	 0.273147865164919 
2128	 0.273294775184485 
2129	 0.273468006999321 
2130	 0.27365046472851 
2131	 0.273826915217425 
2132	 0.274007857349368 
2133	 0.274208286460983 
2134	 0.274367466422323 
2135	 0.274518135446058 
2136	 0.274646314168183 
2137	 0.274742332496625 
2138	 0.274836820351696 
2139	 0.274906965153214 
2140	 0.274991947697785 
2141	 0.27508706995787 
2142	 0.275156201557124 
2143	 0.275220864739661 
2144	 0.275277006729895 
2145	 0.275310549622991 
2146	 0.275337954083445 
2147	 0.275355401862202 
2148	 0.275377218154091 
2149	 0.275397207694792 
2150	 0.275409593124982 
2151	 0.275410454867805 
2152	 0.275421474910955 
2153	 0.27540630074045 
2154	 0.27537392269142 
2155	 0.275320526608985 
2156	 0.275256473351894 
2157	 0.275167665050402 
2158	 0.275027445332572 
2159	 0.27491739592169 
2160	 0.274823083327165 
2161	 0.274698485395444 
2162	 0.274565423733137 
2163	 0.274431726891123 
2164	 0.274275183942247 
2165	 0.274107540103277 
2166	 0.273964189914012 
2167	 0.273844212128356 
2168	 0.273700254462125 
2169	 0.273545592343165 
2170	 0.273409429051838 
2171	 0.273275555396234 
2172	 0.273138857763797 
2173	 0.27302197310758 
2174	 0.27288225875659 
2175	 0.272715726782118 
2176	 0.27256799629646 
2177	 0.272420324536628 
2178	 0.272278251598236 
2179	 0.272145584511109 
2180	 0.272014605505967 
2181	 0.271888726785041 
2182	 0.271759500043054 
2183	 0.271620214541831 
2184	 0.271497330439949 
2185	 0.271391201467803 
2186	 0.271294610297344 
2187	 0.271200450477887 
2188	 0.271132648247361 
2189	 0.271043240454147 
2190	 0.27093341696044 
2191	 0.27084804879436 
2192	 0.270792366763186 
2193	 0.270695629366076 
2194	 0.270576702048004 
2195	 0.270478215009196 
2196	 0.270356451090246 
2197	 0.27025212264984 
2198	 0.270183875093309 
2199	 0.270100928443095 
2200	 0.27000730796739 
2201	 0.269917344024524 
2202	 0.269836644285037 
2203	 0.269743721686223 
2204	 0.26965190679111 
2205	 0.269545390041942 
2206	 0.269473806542585 
2207	 0.269413357673428 
2208	 0.269358718774454 
2209	 0.269332119768437 
2210	 0.269291095635965 
2211	 0.269236457876065 
2212	 0.269202463153598 
2213	 0.269183725957112 
2214	 0.269161322583282 
2215	 0.269169716238295 
2216	 0.269136465054673 
2217	 0.26906867353461 
2218	 0.26901570897301 
2219	 0.268936173900079 
2220	 0.268879286747888 
2221	 0.268831180974251 
2222	 0.268814573981281 
2223	 0.268801818267409 
2224	 0.268759815888558 
2225	 0.268721565817079 
2226	 0.268677546567851 
2227	 0.268648094074414 
2228	 0.268620037966459 
2229	 0.268586578337523 
2230	 0.268563438111654 
2231	 0.268528653585812 
2232	 0.268480352632279 
2233	 0.268435515329137 
2234	 0.268401281117916 
2235	 0.268349622992207 
2236	 0.268286076783733 
2237	 0.268217043585124 
2238	 0.268128294846493 
2239	 0.26805193326844 
2240	 0.26796343533796 
2241	 0.267899358703044 
2242	 0.267850795389365 
2243	 0.267810174481787 
2244	 0.26778530875214 
2245	 0.267773157423115 
2246	 0.267753427002173 
2247	 0.267743332785617 
2248	 0.267698850192464 
2249	 0.267639660407833 
2250	 0.267571002129994 
2251	 0.267472060599335 
2252	 0.267388756671089 
2253	 0.267308971089796 
2254	 0.267224045390564 
2255	 0.267128074007621 
2256	 0.267052805936151 
2257	 0.266980300512715 
2258	 0.266912899634154 
2259	 0.266866681889872 
2260	 0.266809512030362 
2261	 0.266759587726133 
2262	 0.266691140150894 
2263	 0.266620643136681 
2264	 0.266526959932141 
2265	 0.266376014831125 
2266	 0.266278786466438 
2267	 0.266192604092424 
2268	 0.266123071324722 
2269	 0.266088914557665 
2270	 0.266081647068951 
2271	 0.266025118609624 
2272	 0.265939480883508 
2273	 0.265880202951356 
2274	 0.265790180589799 
2275	 0.265671926108972 
2276	 0.265538231514916 
2277	 0.265411948108355 
2278	 0.265241521798169 
2279	 0.265096308897911 
2280	 0.264981357999596 
2281	 0.264857461275254 
2282	 0.264710807657716 
2283	 0.264596855137975 
2284	 0.264503757509933 
2285	 0.264408189819267 
2286	 0.264339609772673 
2287	 0.264236094525357 
2288	 0.264116653503593 
2289	 0.264012027659162 
2290	 0.263897304285015 
2291	 0.263777462897631 
2292	 0.263678692223487 
2293	 0.263558028889531 
2294	 0.263411785413649 
2295	 0.263256645941256 
2296	 0.263077430181414 
2297	 0.262925245336074 
2298	 0.262750833998313 
2299	 0.262602461065378 
2300	 0.262474597572464 
2301	 0.262297570451644 
2302	 0.262144312442014 
2303	 0.262011153052293 
2304	 0.26181877054101 
2305	 0.261651926705373 
2306	 0.2614675535111 
2307	 0.26122730530872 
2308	 0.261041957423827 
2309	 0.26090318380486 
2310	 0.260717163336198 
2311	 0.260524866129492 
2312	 0.26034282918962 
2313	 0.260147127744899 
2314	 0.259961125743852 
2315	 0.259825820926136 
2316	 0.259594738939298 
2317	 0.259284222465196 
2318	 0.259023793008217 
2319	 0.258712260528639 
2320	 0.258457029024307 
2321	 0.258276846151591 
2322	 0.258057810357501 
2323	 0.257843139398844 
2324	 0.257615906940382 
2325	 0.257356973546292 
2326	 0.257136690208761 
2327	 0.25695438919898 
2328	 0.256710420582768 
2329	 0.256466632768482 
2330	 0.256261447499361 
2331	 0.256064750452091 
2332	 0.255824247451416 
2333	 0.255580308653916 
2334	 0.255361134216441 
2335	 0.255085103118703 
2336	 0.254826235095306 
2337	 0.254640330643196 
2338	 0.254414915919457 
2339	 0.254145921795298 
2340	 0.25385522433677 
2341	 0.253567320563509 
2342	 0.253280908482694 
2343	 0.252988005248085 
2344	 0.252747831773387 
2345	 0.252446509185224 
2346	 0.252135360928778 
2347	 0.25174345525443 
2348	 0.251246026184888 
2349	 0.250856459034128 
2350	 0.250441720384287 
2351	 0.250091195959353 
2352	 0.249856729924028 
2353	 0.249546307642995 
2354	 0.249237251666592 
2355	 0.248876904835532 
2356	 0.248497214998371 
2357	 0.248086822580015 
2358	 0.247589607501477 
2359	 0.247158395558101 
2360	 0.246724225650995 
2361	 0.246309517731016 
2362	 0.245965542804826 
2363	 0.24555339541876 
2364	 0.245092054045731 
2365	 0.244681013405691 
2366	 0.244269535537299 
2367	 0.243845114141633 
2368	 0.243453491955604 
2369	 0.243037619343442 
2370	 0.242582062243958 
2371	 0.242153738660995 
2372	 0.241706166013713 
2373	 0.241281536502366 
2374	 0.240868144095734 
2375	 0.240410777533844 
2376	 0.239950163837463 
2377	 0.239487080371979 
2378	 0.239039972927103 
2379	 0.238627397325688 
2380	 0.238240029881342 
2381	 0.237839398506137 
2382	 0.237435607154469 
2383	 0.236994106897906 
2384	 0.236487246556614 
2385	 0.236017238331444 
2386	 0.235547000232421 
2387	 0.235040609752377 
2388	 0.234593292237639 
2389	 0.234198937079908 
2390	 0.233716147405648 
2391	 0.23321696811202 
2392	 0.232807713781235 
2393	 0.232335893773896 
2394	 0.231933391527452 
2395	 0.231571697228127 
2396	 0.23111033342904 
2397	 0.230676693980035 
2398	 0.230177068792793 
2399	 0.2296835043294 
2400	 0.229263403389662 
2401	 0.228773707314725 
2402	 0.22828244736043 
2403	 0.227847397486618 
2404	 0.227371697810908 
2405	 0.22692387294253 
2406	 0.226509778216302 
2407	 0.22601673193444 
2408	 0.225579194025661 
2409	 0.225209625371393 
2410	 0.224839252193761 
2411	 0.22449716226168 
2412	 0.224079797911031 
2413	 0.223583250933439 
2414	 0.223080585381286 
2415	 0.222606530019247 
2416	 0.222158666975568 
2417	 0.221766480836319 
2418	 0.22129353200571 
2419	 0.22076831042998 
2420	 0.220331405880131 
2421	 0.219892218939642 
2422	 0.219509388219498 
2423	 0.219265198282398 
2424	 0.218851228275512 
2425	 0.218378273807403 
2426	 0.217869272122772 
2427	 0.21722386822325 
2428	 0.216762590474319 
2429	 0.216370126613603 
2430	 0.215885971214183 
2431	 0.215437961857202 
2432	 0.215007851296688 
2433	 0.214496772665033 
2434	 0.214128405041247 
2435	 0.213950450122308 
2436	 0.213562790148293 
2437	 0.213149915797549 
2438	 0.212687446618325 
2439	 0.212070405620341 
2440	 0.211565210351699 
2441	 0.211018974142393 
2442	 0.210538239662499 
2443	 0.210158868207085 
2444	 0.209738737001594 
2445	 0.209426611883994 
2446	 0.208999963904219 
2447	 0.208402879030352 
2448	 0.207916440184673 
2449	 0.207413512605935 
2450	 0.206991580642744 
2451	 0.20677314994633 
2452	 0.206391938302367 
2453	 0.20591596172501 
2454	 0.205446539384433 
2455	 0.204871175080455 
2456	 0.204370236818507 
2457	 0.203941962505259 
2458	 0.203500436795528 
2459	 0.203071405501707 
2460	 0.202677491955423 
2461	 0.202282756459583 
2462	 0.201890752969587 
2463	 0.201522088641686 
2464	 0.20112509656643 
2465	 0.200792796004746 
2466	 0.200354046165387 
2467	 0.199765669440277 
2468	 0.199351641580484 
2469	 0.198986901948393 
2470	 0.198591825383377 
2471	 0.198226187745799 
2472	 0.197781439854451 
2473	 0.197289430669198 
2474	 0.196829470988059 
2475	 0.196436485893319 
2476	 0.196117919006293 
2477	 0.195709259437849 
2478	 0.195186480270752 
2479	 0.194784857664462 
2480	 0.194451130561236 
2481	 0.194136942984065 
2482	 0.193926870961771 
2483	 0.193640241102805 
2484	 0.193245638574787 
2485	 0.192871366395173 
2486	 0.192488335120793 
2487	 0.192117511331873 
2488	 0.191774562649452 
2489	 0.191293951826931 
2490	 0.190820023377113 
2491	 0.190482540102987 
2492	 0.190073793360031 
2493	 0.189752955385228 
2494	 0.189533160342679 
2495	 0.189258120473725 
2496	 0.189026450095204 
2497	 0.18878420201154 
2498	 0.188579428421009 
2499	 0.188273552064052 
2500	 0.187837343172023 
