Wavelength	lmw-9-100005.asd
350	 9.77675560331178E-02 
351	 0.101363393535308 
352	 0.102169217868117 
353	 9.26816263487759E-02 
354	 9.47396237614863E-02 
355	 0.093768725921022 
356	 9.03579138889077E-02 
357	 0.089063582357881 
358	 9.49029116895449E-02 
359	 9.54221887334153E-02 
360	 9.21451764412732E-02 
361	 9.44742022449987E-02 
362	 9.08375387384725E-02 
363	 8.70063207276918E-02 
364	 8.64335078449578E-02 
365	 8.57556902760284E-02 
366	 8.49493402347579E-02 
367	 8.48520738754759E-02 
368	 8.57293016339312E-02 
369	 8.44628387122099E-02 
370	 8.39735031867259E-02 
371	 8.47567462168237E-02 
372	 8.53003713244848E-02 
373	 8.25525975434944E-02 
374	 8.00263997650941E-02 
375	 8.03375367557756E-02 
376	 8.34309977942781E-02 
377	 8.39662798570159E-02 
378	 8.27705144156937E-02 
379	 8.23800476815101E-02 
380	 8.36345260467293E-02 
381	 0.083006088581592 
382	 8.10942716664255E-02 
383	 8.13656967772148E-02 
384	 8.12994711311634E-02 
385	 7.88784099126098E-02 
386	 7.56080134875625E-02 
387	 7.96917394037414E-02 
388	 8.23973170545461E-02 
389	 8.24474031969332E-02 
390	 8.11078171647111E-02 
391	 7.89593429632981E-02 
392	 7.87143327060589E-02 
393	 8.03997819934952E-02 
394	 8.17537006755226E-02 
395	 8.22860857310204E-02 
396	 8.17158993317173E-02 
397	 8.09303834683177E-02 
398	 8.34204685761021E-02 
399	 8.41384730069359E-02 
400	 0.083267774969073 
401	 8.28259890808745E-02 
402	 0.082969626462191 
403	 8.31001861021713E-02 
404	 8.28075242975389E-02 
405	 8.20053501349877E-02 
406	 8.37267422966409E-02 
407	 8.57032228006602E-02 
408	 8.59102071359034E-02 
409	 8.56114802097816E-02 
410	 8.48666919774842E-02 
411	 8.46928780408294E-02 
412	 0.08604433682205 
413	 8.66493503523846E-02 
414	 8.59389026403036E-02 
415	 8.46341999207565E-02 
416	 8.47910961651733E-02 
417	 8.49128678162662E-02 
418	 8.45924183290562E-02 
419	 8.39469659700699E-02 
420	 8.39003863896295E-02 
421	 8.37198908407055E-02 
422	 8.32921989752486E-02 
423	 8.29190728496544E-02 
424	 0.082592799151739 
425	 8.21529661587949E-02 
426	 8.15433870793009E-02 
427	 8.08807013050934E-02 
428	 8.05631010766899E-02 
429	 8.05220939090454E-02 
430	 8.05359635730841E-02 
431	 8.05686701506526E-02 
432	 8.04124831267045E-02 
433	 0.080329444236318 
434	 8.09835420289656E-02 
435	 8.17751449301693E-02 
436	 8.24115660947653E-02 
437	 8.28730463414403E-02 
438	 8.36312814882552E-02 
439	 8.45627233248012E-02 
440	 8.55728565457551E-02 
441	 8.65937074396337E-02 
442	 8.77329157943425E-02 
443	 8.89572107933802E-02 
444	 9.01785683719626E-02 
445	 9.12381097107742E-02 
446	 9.24159701580286E-02 
447	 9.38788312124591E-02 
448	 9.55815264975849E-02 
449	 9.67826883327804E-02 
450	 9.81372865324752E-02 
451	 9.99098830433951E-02 
452	 0.101953862521405 
453	 0.103455289792182 
454	 0.104867919634731 
455	 0.106630147340107 
456	 0.108609702820321 
457	 0.110271155610334 
458	 0.111824400617274 
459	 0.11375248863049 
460	 0.115689209836359 
461	 0.117645772314029 
462	 0.11965715370113 
463	 0.121738588392224 
464	 0.123905383032431 
465	 0.126242563594795 
466	 0.12869926948995 
467	 0.130578967367395 
468	 0.132824909168749 
469	 0.135464140201029 
470	 0.137796153946326 
471	 0.14037347133197 
472	 0.143089383272548 
473	 0.145760200237252 
474	 0.148245376213209 
475	 0.150811252135898 
476	 0.153491269221287 
477	 0.156223104877273 
478	 0.159101236032112 
479	 0.161790768220354 
480	 0.16431152733669 
481	 0.167225057703221 
482	 0.169988979125299 
483	 0.172730791110889 
484	 0.175607432303131 
485	 0.178171890597425 
486	 0.180499325591429 
487	 0.182783474677107 
488	 0.185278378745895 
489	 0.187654213320167 
490	 0.189913803360207 
491	 0.192098806291244 
492	 0.194196848357475 
493	 0.196108850028995 
494	 0.197931696472998 
495	 0.199812054325002 
496	 0.201490868204457 
497	 0.202962538060411 
498	 0.204291072302645 
499	 0.205604371912058 
500	 0.206875628762577 
501	 0.207978421764052 
502	 0.208852354633386 
503	 0.20986368256935 
504	 0.210762298259939 
505	 0.211524978716756 
506	 0.212340809681548 
507	 0.212951892296205 
508	 0.213523197912263 
509	 0.214163992998644 
510	 0.214632660764586 
511	 0.214876679839435 
512	 0.215098543166343 
513	 0.215571590304822 
514	 0.215834889618253 
515	 0.216028479410544 
516	 0.216291456118115 
517	 0.216665202485588 
518	 0.216802501115455 
519	 0.216846806587532 
520	 0.217038927301301 
521	 0.217180843440139 
522	 0.21731011186537 
523	 0.217416032654422 
524	 0.217428662304123 
525	 0.217539351213612 
526	 0.217708609536383 
527	 0.217865339792935 
528	 0.218022422863938 
529	 0.218183029713169 
530	 0.21833007573814 
531	 0.218438894862501 
532	 0.21854658930572 
533	 0.218734126638717 
534	 0.218993085092085 
535	 0.219115893831769 
536	 0.219248312360341 
537	 0.219470567510195 
538	 0.219808122588245 
539	 0.220099719081375 
540	 0.220358090111862 
541	 0.220658907935529 
542	 0.22114360537136 
543	 0.221483645578188 
544	 0.221744206580632 
545	 0.222087399676585 
546	 0.222599155475689 
547	 0.223025229653384 
548	 0.223368654696666 
549	 0.223848389881328 
550	 0.224319643105672 
551	 0.224858610955303 
552	 0.225488176004362 
553	 0.225989312352991 
554	 0.226514902454981 
555	 0.227123604811396 
556	 0.227813416281273 
557	 0.228503472914191 
558	 0.229207690298235 
559	 0.229939761174742 
560	 0.230699390531836 
561	 0.231375628275891 
562	 0.232035888812842 
563	 0.232775412444843 
564	 0.233464759337856 
565	 0.23409581434902 
566	 0.2347196678533 
567	 0.235442134033593 
568	 0.236220846840138 
569	 0.237084706986835 
570	 0.238045760276214 
571	 0.239029340491351 
572	 0.239967168110327 
573	 0.240869986926122 
574	 0.241803102751604 
575	 0.242734537324658 
576	 0.243711351935267 
577	 0.244724171270311 
578	 0.245608724607031 
579	 0.246499340011895 
580	 0.247387666547258 
581	 0.248226092739491 
582	 0.249115427064973 
583	 0.250052210303865 
584	 0.250990546340881 
585	 0.251842134075132 
586	 0.252736039998347 
587	 0.253721339783922 
588	 0.254788733421473 
589	 0.255806640987904 
590	 0.256832017768192 
591	 0.2578991555229 
592	 0.259018275355812 
593	 0.260204377153036 
594	 0.261409397272378 
595	 0.262566674883461 
596	 0.263593929555458 
597	 0.26458274999936 
598	 0.265553828720503 
599	 0.266492288659458 
600	 0.26738703207555 
601	 0.268307134111864 
602	 0.269297756714505 
603	 0.270362053521429 
604	 0.271371790970585 
605	 0.272346663986313 
606	 0.273353987613357 
607	 0.274378280324063 
608	 0.275432256511849 
609	 0.276498583769877 
610	 0.277527398904815 
611	 0.278502160938187 
612	 0.279431703285816 
613	 0.280337353519112 
614	 0.28127652916319 
615	 0.282090756779588 
616	 0.282828693019306 
617	 0.28367062504119 
618	 0.28453994048033 
619	 0.285438259198233 
620	 0.286335946579584 
621	 0.287110023762666 
622	 0.287800436030269 
623	 0.288513116669359 
624	 0.289340872366269 
625	 0.290059285230564 
626	 0.290765859352605 
627	 0.291504964644684 
628	 0.292215583035688 
629	 0.292892411324529 
630	 0.293581017278027 
631	 0.294301015463404 
632	 0.294900183682709 
633	 0.295517442849405 
634	 0.296146072401988 
635	 0.296669352299287 
636	 0.297267303669196 
637	 0.29786975984834 
638	 0.298415619624234 
639	 0.298979414425498 
640	 0.299514225446155 
641	 0.300033001884074 
642	 0.300563499209599 
643	 0.301034808241085 
644	 0.301478145619099 
645	 0.301903074542816 
646	 0.302271553501929 
647	 0.302635828668487 
648	 0.30297900235015 
649	 0.303291476809835 
650	 0.303693671429185 
651	 0.304011472721674 
652	 0.30423907386338 
653	 0.304516905923822 
654	 0.304752864552268 
655	 0.304918762168198 
656	 0.305040781528984 
657	 0.305256195506954 
658	 0.305441058161522 
659	 0.305541827820505 
660	 0.305555381155333 
661	 0.305587165213382 
662	 0.305586214687202 
663	 0.305531721664072 
664	 0.305468722213948 
665	 0.305398793242439 
666	 0.305304083561412 
667	 0.305168877900022 
668	 0.305009851647874 
669	 0.304876273995677 
670	 0.304732388626508 
671	 0.304474297228052 
672	 0.304074232982008 
673	 0.303708882634836 
674	 0.303451323058566 
675	 0.303052115911229 
676	 0.302589694889651 
677	 0.302140106239693 
678	 0.301757694817528 
679	 0.301320499302155 
680	 0.300816489747609 
681	 0.30025156253163 
682	 0.299639571773366 
683	 0.299118245970948 
684	 0.298572127441903 
685	 0.297885680399005 
686	 0.297191650851901 
687	 0.296527409150556 
688	 0.295863235491369 
689	 0.295128559126224 
690	 0.294368218142584 
691	 0.293618855340181 
692	 0.292892645449523 
693	 0.292166268818752 
694	 0.291319030742205 
695	 0.290431796474527 
696	 0.289623931787704 
697	 0.28876554555736 
698	 0.28789966272639 
699	 0.287035313184634 
700	 0.286137766384234 
701	 0.285206085935173 
702	 0.284241547941424 
703	 0.283271010627253 
704	 0.282396109892193 
705	 0.281476116854122 
706	 0.280495895211052 
707	 0.279508200332956 
708	 0.278496942425585 
709	 0.277546110113027 
710	 0.27664425006227 
711	 0.275629739117872 
712	 0.274574182386569 
713	 0.273506380131933 
714	 0.272459487462417 
715	 0.271536366451522 
716	 0.270539329484559 
717	 0.269438234431487 
718	 0.268340887474683 
719	 0.267387855346664 
720	 0.266408500572215 
721	 0.2653131055223 
722	 0.264250408945252 
723	 0.263190715979036 
724	 0.26211495242102 
725	 0.26102340965779 
726	 0.260020031324778 
727	 0.258976567408864 
728	 0.257877175343182 
729	 0.256816589219211 
730	 0.255745960810847 
731	 0.254643918800556 
732	 0.253526313014291 
733	 0.252486255524638 
734	 0.251461885329282 
735	 0.250419785104944 
736	 0.249335895369128 
737	 0.248153218775338 
738	 0.247082144100488 
739	 0.24610747505357 
740	 0.244959059442712 
741	 0.243859361914899 
742	 0.242799329050486 
743	 0.241746010474159 
744	 0.24075141430427 
745	 0.239662023071791 
746	 0.238534233061486 
747	 0.237503317884224 
748	 0.236478510052834 
749	 0.235401495731418 
750	 0.234309209822161 
751	 0.233343199237184 
752	 0.232341910851365 
753	 0.231281620181781 
754	 0.230193164051009 
755	 0.229159790278157 
756	 0.228192046442663 
757	 0.227205829147304 
758	 0.226107941144851 
759	 0.225116591888791 
760	 0.224170139820026 
761	 0.223211855276161 
762	 0.22222746048479 
763	 0.221269491361485 
764	 0.220295200638844 
765	 0.21928678885856 
766	 0.218361587756071 
767	 0.217457313580607 
768	 0.216517355482659 
769	 0.215513178888607 
770	 0.214579700536081 
771	 0.213717716715422 
772	 0.21287363892749 
773	 0.211951765193104 
774	 0.211095761108807 
775	 0.210260445422166 
776	 0.209393660575204 
777	 0.208546333807434 
778	 0.207685036267777 
779	 0.206834804167733 
780	 0.206035731828669 
781	 0.205244385813453 
782	 0.204474594627152 
783	 0.203706098190648 
784	 0.202887536259969 
785	 0.202124612846468 
786	 0.201403279331059 
787	 0.200687204573178 
788	 0.199944402937954 
789	 0.199234750745645 
790	 0.198536870617154 
791	 0.197817139788436 
792	 0.197144908050167 
793	 0.196496520129821 
794	 0.195863796988638 
795	 0.195250382577141 
796	 0.194570216383425 
797	 0.193907588470282 
798	 0.193306605662315 
799	 0.192686696468797 
800	 0.192141511157851 
801	 0.19160208307333 
802	 0.191002276162151 
803	 0.190493673110603 
804	 0.189938204930378 
805	 0.189360717190588 
806	 0.188875330004513 
807	 0.18837988330208 
808	 0.187869813530056 
809	 0.187366660808974 
810	 0.186908352059093 
811	 0.186439089388729 
812	 0.185969317023705 
813	 0.185523883612229 
814	 0.185124640883018 
815	 0.184746719932252 
816	 0.184359012215744 
817	 0.183939493517287 
818	 0.183513970557095 
819	 0.183158087850284 
820	 0.182842336101906 
821	 0.182460134448026 
822	 0.182134266290282 
823	 0.181815244502552 
824	 0.181479888755966 
825	 0.181188769132975 
826	 0.180895487936306 
827	 0.180590202838757 
828	 0.18028025936428 
829	 0.179990666632489 
830	 0.179706815040431 
831	 0.179446301263924 
832	 0.179233248556797 
833	 0.179045580309828 
834	 0.178807342162408 
835	 0.178556940610994 
836	 0.1784230937579 
837	 0.178208033344118 
838	 0.177996997384461 
839	 0.177828544850112 
840	 0.177580790299233 
841	 0.177420609992263 
842	 0.177308133493637 
843	 0.177169227340804 
844	 0.177011035991073 
845	 0.176923212880493 
846	 0.176851005675023 
847	 0.176707970598959 
848	 0.176655618532645 
849	 0.176570350621792 
850	 0.176447337349035 
851	 0.176387112334908 
852	 0.176320247540709 
853	 0.176264540487097 
854	 0.176231227092957 
855	 0.176205604709313 
856	 0.17618367578413 
857	 0.176174679657379 
858	 0.176189396163427 
859	 0.17624109344826 
860	 0.17623628626309 
861	 0.176219192574074 
862	 0.176258975274135 
863	 0.176288768664604 
864	 0.176340522045404 
865	 0.176414139602437 
866	 0.176487300234584 
867	 0.176539747587501 
868	 0.176629218347924 
869	 0.176755273104128 
870	 0.176854793249745 
871	 0.176940810067853 
872	 0.177060038858457 
873	 0.177224583924092 
874	 0.177382680670136 
875	 0.177518433364084 
876	 0.177673730665258 
877	 0.177867933114699 
878	 0.178016726925114 
879	 0.178203648821533 
880	 0.178435815653036 
881	 0.178687945502217 
882	 0.178933904021535 
883	 0.179144517840511 
884	 0.179363408472814 
885	 0.179651810530747 
886	 0.179922194962087 
887	 0.180143681859874 
888	 0.180353132387512 
889	 0.180633616910093 
890	 0.180967197807468 
891	 0.181329900234271 
892	 0.181683119700625 
893	 0.181981087345479 
894	 0.182309488416968 
895	 0.182674526303177 
896	 0.183054356581731 
897	 0.183409496657587 
898	 0.18380376495738 
899	 0.184196278314334 
900	 0.184550290614097 
901	 0.184908951332597 
902	 0.185318655920282 
903	 0.185808830710337 
904	 0.186356089434821 
905	 0.186797866626337 
906	 0.187228949565211 
907	 0.187682233587915 
908	 0.188161154430463 
909	 0.188696538347881 
910	 0.189223148745594 
911	 0.189727848112915 
912	 0.190235981914442 
913	 0.190746933640465 
914	 0.19129421455677 
915	 0.191874040282376 
916	 0.192457485027153 
917	 0.193131071130858 
918	 0.193754100436849 
919	 0.194304167208106 
920	 0.194920285932431 
921	 0.195616461762315 
922	 0.196296895513376 
923	 0.196903549880416 
924	 0.197471509954145 
925	 0.198083751788531 
926	 0.198763035397522 
927	 0.199482981054757 
928	 0.200161925865888 
929	 0.200852135016545 
930	 0.201652111472635 
931	 0.202550575043596 
932	 0.2032767727904 
933	 0.203998216916463 
934	 0.204774830990397 
935	 0.205590079435836 
936	 0.206304083915802 
937	 0.207005786831853 
938	 0.207758782631558 
939	 0.208593254066732 
940	 0.209456197171928 
941	 0.210398214575355 
942	 0.211316683492179 
943	 0.21212021373613 
944	 0.212995595569632 
945	 0.213838851626215 
946	 0.214704567404931 
947	 0.215650110314842 
948	 0.216409663449257 
949	 0.217278194756896 
950	 0.218226183588216 
951	 0.219094596379743 
952	 0.220046276043118 
953	 0.220882995155237 
954	 0.221685511255184 
955	 0.22265732445761 
956	 0.223707754065453 
957	 0.22469295864321 
958	 0.225607979703508 
959	 0.22654023996659 
960	 0.227523875545736 
961	 0.228518914577415 
962	 0.229497001351241 
963	 0.230434969074397 
964	 0.23125468858524 
965	 0.232278300236557 
966	 0.233458889941398 
967	 0.23450938246306 
968	 0.235426762477657 
969	 0.236520336910826 
970	 0.237714333296562 
971	 0.23872520502989 
972	 0.239833919427018 
973	 0.241016946975562 
974	 0.242216686066936 
975	 0.243376564911674 
976	 0.244522656209609 
977	 0.245615592879316 
978	 0.246688774697512 
979	 0.24783433001983 
980	 0.249182958495359 
981	 0.250482481686127 
982	 0.251635739555305 
983	 0.252708764552035 
984	 0.25389337934538 
985	 0.255225951893726 
986	 0.256640582842533 
987	 0.258010281781793 
988	 0.259221597236529 
989	 0.260448078291518 
990	 0.26173253332247 
991	 0.263063851614435 
992	 0.264586914801428 
993	 0.265853640446694 
994	 0.267055793295998 
995	 0.268525123585476 
996	 0.269843415750128 
997	 0.271238473738217 
998	 0.272688885432321 
999	 0.2741066520882 
1000	 0.275546391255387 
1001	 0.280009304167023 
1002	 0.281478633364146 
1003	 0.282939482419118 
1004	 0.284377692321938 
1005	 0.285749398072927 
1006	 0.287194258238897 
1007	 0.288660443764074 
1008	 0.290161949558314 
1009	 0.291640647742441 
1010	 0.293105029443628 
1011	 0.294559092181539 
1012	 0.296010637227347 
1013	 0.297446827755205 
1014	 0.298926278515948 
1015	 0.300408266871527 
1016	 0.301836067541061 
1017	 0.303351115045261 
1018	 0.304919229596616 
1019	 0.306499422332723 
1020	 0.308024544602195 
1021	 0.309574272202294 
1022	 0.311062760392284 
1023	 0.312507492293881 
1024	 0.313985167796343 
1025	 0.31545056694075 
1026	 0.316865200748794 
1027	 0.318287211608928 
1028	 0.319752069441757 
1029	 0.321198158189929 
1030	 0.322707242073381 
1031	 0.324166298677595 
1032	 0.32561984815097 
1033	 0.326984997333483 
1034	 0.328384886253312 
1035	 0.329742643959651 
1036	 0.331174294173054 
1037	 0.332705802474073 
1038	 0.334204693543808 
1039	 0.33569656170206 
1040	 0.337124458665512 
1041	 0.338480628110896 
1042	 0.339857738849237 
1043	 0.341228398640265 
1044	 0.342602922557549 
1045	 0.343971548844726 
1046	 0.345400314288029 
1047	 0.346774070522335 
1048	 0.348124761891956 
1049	 0.349543199772708 
1050	 0.350902022526224 
1051	 0.352275263952666 
1052	 0.353671724274831 
1053	 0.355003890781138 
1054	 0.35634560549554 
1055	 0.357696511350634 
1056	 0.359067624258806 
1057	 0.360404999501282 
1058	 0.361704677717729 
1059	 0.363034173204016 
1060	 0.364367064170468 
1061	 0.365673694515564 
1062	 0.366982146384017 
1063	 0.368366148201308 
1064	 0.36967321981138 
1065	 0.370949431011681 
1066	 0.372224620977004 
1067	 0.373458810484576 
1068	 0.37473024598521 
1069	 0.375982428960444 
1070	 0.377264313651355 
1071	 0.378633715803066 
1072	 0.379913760651992 
1073	 0.381121485906843 
1074	 0.38236792659289 
1075	 0.383628980744494 
1076	 0.384781383475187 
1077	 0.385958529861497 
1078	 0.387181561270338 
1079	 0.388318280452748 
1080	 0.389471201444601 
1081	 0.390612963342079 
1082	 0.391736143465584 
1083	 0.392867338666377 
1084	 0.393963061436937 
1085	 0.395106987002446 
1086	 0.396333220609213 
1087	 0.397418843530664 
1088	 0.398451213331782 
1089	 0.399513295968857 
1090	 0.400442720467413 
1091	 0.401382225794685 
1092	 0.402399382497547 
1093	 0.40336400626785 
1094	 0.40432511543423 
1095	 0.405296107369242 
1096	 0.406242792424314 
1097	 0.407140310500208 
1098	 0.408026370376542 
1099	 0.40889114523821 
1100	 0.409743411222742 
1101	 0.410569594481701 
1102	 0.411399356299871 
1103	 0.412255441321917 
1104	 0.41303308166202 
1105	 0.413747044430692 
1106	 0.414496235671685 
1107	 0.415228999621041 
1108	 0.415930281372298 
1109	 0.416639686672022 
1110	 0.417331250401194 
1111	 0.418013930337685 
1112	 0.418672898532106 
1113	 0.419310169827544 
1114	 0.419954276123168 
1115	 0.420558139371989 
1116	 0.421110426280422 
1117	 0.421667521787718 
1118	 0.422210434751042 
1119	 0.422764041794287 
1120	 0.423304771993268 
1121	 0.42377610339048 
1122	 0.424213574519986 
1123	 0.424633375131344 
1124	 0.425027995505496 
1125	 0.425383330711836 
1126	 0.425731760917709 
1127	 0.426102446095151 
1128	 0.426371823654467 
1129	 0.426586929640349 
1130	 0.426776087381022 
1131	 0.426929976890969 
1132	 0.42701000872748 
1133	 0.427077549257261 
1134	 0.427061240908304 
1135	 0.42698384581983 
1136	 0.426820909655311 
1137	 0.426587834715012 
1138	 0.426244741133308 
1139	 0.425812910113438 
1140	 0.425277631995883 
1141	 0.424670427506562 
1142	 0.424002445428672 
1143	 0.423222630943263 
1144	 0.422346384882819 
1145	 0.42139681902839 
1146	 0.420323778688375 
1147	 0.419244745002025 
1148	 0.418082807781977 
1149	 0.416927807207457 
1150	 0.415732549726043 
1151	 0.414546708829383 
1152	 0.413351485216988 
1153	 0.412244214602889 
1154	 0.411222803300182 
1155	 0.410257256249917 
1156	 0.40937896031421 
1157	 0.40856300893687 
1158	 0.407847417910113 
1159	 0.407208443112037 
1160	 0.40665254491101 
1161	 0.406209476584516 
1162	 0.405800426397998 
1163	 0.405440840675842 
1164	 0.405150321864789 
1165	 0.404910762720781 
1166	 0.404753386300208 
1167	 0.404635815827653 
1168	 0.404543448978751 
1169	 0.40448064807892 
1170	 0.404443462743054 
1171	 0.404435295039592 
1172	 0.404465333719028 
1173	 0.404509427323083 
1174	 0.404556581080808 
1175	 0.404665190820905 
1176	 0.404817334944769 
1177	 0.404986448385259 
1178	 0.405202193199028 
1179	 0.405429552450577 
1180	 0.405650758914313 
1181	 0.405925921918785 
1182	 0.406251423748684 
1183	 0.406592921888732 
1184	 0.406940018093414 
1185	 0.407347192052173 
1186	 0.407672394514519 
1187	 0.407976237174921 
1188	 0.408261115850063 
1189	 0.408494960071985 
1190	 0.408756732318256 
1191	 0.409032510921787 
1192	 0.409277422289907 
1193	 0.409510784355354 
1194	 0.409739855088509 
1195	 0.409946041104708 
1196	 0.410151973668058 
1197	 0.410356366381879 
1198	 0.410560908138377 
1199	 0.410761792138491 
1200	 0.410946038657754 
1201	 0.41115540404193 
1202	 0.411363000590899 
1203	 0.411605342628049 
1204	 0.411884413077592 
1205	 0.412133196630984 
1206	 0.412409784639585 
1207	 0.412644683069639 
1208	 0.412839476099201 
1209	 0.413046734414459 
1210	 0.413246150624266 
1211	 0.413442842429931 
1212	 0.413642604626324 
1213	 0.41383022382509 
1214	 0.414003025066571 
1215	 0.414179786979526 
1216	 0.414354177421015 
1217	 0.414530547334843 
1218	 0.414682914088421 
1219	 0.414824005178463 
1220	 0.414969968166013 
1221	 0.415098715667222 
1222	 0.415234587694094 
1223	 0.415384785464652 
1224	 0.415519129411786 
1225	 0.415642728768409 
1226	 0.415762458418664 
1227	 0.415875993632768 
1228	 0.415990002980762 
1229	 0.416110455468005 
1230	 0.416209121448825 
1231	 0.416291056817921 
1232	 0.416377200624271 
1233	 0.416457312170213 
1234	 0.416515650765851 
1235	 0.416596977289598 
1236	 0.416693651516035 
1237	 0.416778947475138 
1238	 0.416875393553391 
1239	 0.416941547266768 
1240	 0.416983594872247 
1241	 0.41704265808151 
1242	 0.417096565208779 
1243	 0.417143902674829 
1244	 0.417200959611647 
1245	 0.417248278822894 
1246	 0.417271484600054 
1247	 0.417306396021004 
1248	 0.417348090805394 
1249	 0.417391041137691 
1250	 0.417440573156897 
1251	 0.417479075018206 
1252	 0.417500099601321 
1253	 0.417521359499276 
1254	 0.417510617427171 
1255	 0.417472897339998 
1256	 0.417428304168824 
1257	 0.417351847520382 
1258	 0.417295571619438 
1259	 0.417231987224833 
1260	 0.417176105190991 
1261	 0.417149917262183 
1262	 0.417084366118329 
1263	 0.416987569808834 
1264	 0.416910308580451 
1265	 0.416827506173478 
1266	 0.416738486702044 
1267	 0.416677379971465 
1268	 0.416579769311556 
1269	 0.416468818573294 
1270	 0.416330546144291 
1271	 0.416196478936765 
1272	 0.416056509036041 
1273	 0.415903689123276 
1274	 0.415743155088648 
1275	 0.415565001955643 
1276	 0.415369940973944 
1277	 0.415166549585363 
1278	 0.414957501056032 
1279	 0.414729073516163 
1280	 0.41448960532462 
1281	 0.414232186032111 
1282	 0.413953214206642 
1283	 0.413659728817677 
1284	 0.413353586845663 
1285	 0.413021831999719 
1286	 0.412676921714489 
1287	 0.412362844591839 
1288	 0.41203151595556 
1289	 0.411714697513009 
1290	 0.411343516103973 
1291	 0.410946843032307 
1292	 0.410541968794163 
1293	 0.410115847291376 
1294	 0.409661897928028 
1295	 0.409198624980359 
1296	 0.40870447781714 
1297	 0.408166666545422 
1298	 0.407623249503818 
1299	 0.407054550505717 
1300	 0.406490982718336 
1301	 0.405933448514913 
1302	 0.405337844391356 
1303	 0.404726273686487 
1304	 0.404117447557817 
1305	 0.403453808864404 
1306	 0.402750005493745 
1307	 0.402010228931005 
1308	 0.401226756293672 
1309	 0.400450263371908 
1310	 0.399659114640626 
1311	 0.398819560581555 
1312	 0.397989231263898 
1313	 0.397084533703269 
1314	 0.396112632150911 
1315	 0.395118255523262 
1316	 0.394101037216126 
1317	 0.393028442222309 
1318	 0.391915385687339 
1319	 0.390760675260937 
1320	 0.389557989465795 
1321	 0.388323365680587 
1322	 0.387062838082519 
1323	 0.385753078926525 
1324	 0.384400756107958 
1325	 0.383020405022937 
1326	 0.381607913196416 
1327	 0.380176753435316 
1328	 0.378702577556908 
1329	 0.377226995468535 
1330	 0.375684447049438 
1331	 0.37408940910649 
1332	 0.372470692450071 
1333	 0.370797470630228 
1334	 0.369134022999451 
1335	 0.367449868901755 
1336	 0.365772441049339 
1337	 0.364093589312793 
1338	 0.362418139486833 
1339	 0.360725029017374 
1340	 0.359057802747742 
1341	 0.357375421463716 
1342	 0.355739856979296 
1343	 0.354118403554079 
1344	 0.352552766935089 
1345	 0.350996839800824 
1346	 0.349531553009117 
1347	 0.348116893161659 
1348	 0.346705966828344 
1349	 0.345331427115768 
1350	 0.343981251805964 
1351	 0.342678108852055 
1352	 0.341406537008014 
1353	 0.340153245027139 
1354	 0.338946796146152 
1355	 0.337741717134917 
1356	 0.336544528924898 
1357	 0.335353821980604 
1358	 0.334192394434624 
1359	 0.333012887672095 
1360	 0.331832569676069 
1361	 0.330645594459511 
1362	 0.329465601759515 
1363	 0.328269494308002 
1364	 0.327075408358235 
1365	 0.325846717471209 
1366	 0.324605001278977 
1367	 0.323339098893966 
1368	 0.322042715252898 
1369	 0.320734678150154 
1370	 0.319363926919198 
1371	 0.317947849697801 
1372	 0.316483131901266 
1373	 0.314930174978493 
1374	 0.313291882386272 
1375	 0.311595665888988 
1376	 0.309769556131809 
1377	 0.307856968190271 
1378	 0.305794030721361 
1379	 0.303604318976991 
1380	 0.301318314611571 
1381	 0.298921204801891 
1382	 0.296374916290261 
1383	 0.293727938932599 
1384	 0.290942342709141 
1385	 0.288033543401688 
1386	 0.284996321714318 
1387	 0.281833552282353 
1388	 0.278574678726695 
1389	 0.275220006812931 
1390	 0.271682371047669 
1391	 0.268040101927537 
1392	 0.264286554024642 
1393	 0.260420031707245 
1394	 0.256499368266996 
1395	 0.25248336754182 
1396	 0.248456913054349 
1397	 0.244418911261192 
1398	 0.240299407029068 
1399	 0.236232060911005 
1400	 0.232150372527486 
1401	 0.228155003738683 
1402	 0.224153722676066 
1403	 0.220283476203827 
1404	 0.216459968311878 
1405	 0.212816137758922 
1406	 0.209239355218626 
1407	 0.205854607500035 
1408	 0.202607334437408 
1409	 0.199560243590423 
1410	 0.196692882847261 
1411	 0.193986021738006 
1412	 0.191442092421151 
1413	 0.189105612203678 
1414	 0.186935737716519 
1415	 0.184864171677166 
1416	 0.182964952055654 
1417	 0.18118786446235 
1418	 0.179493956237834 
1419	 0.177925094511783 
1420	 0.176433632080326 
1421	 0.175042916553899 
1422	 0.173729381574987 
1423	 0.172452977602112 
1424	 0.171248964412308 
1425	 0.170113954468063 
1426	 0.169040996622079 
1427	 0.168038223217168 
1428	 0.167076318528814 
1429	 0.166191794819583 
1430	 0.165324131072692 
1431	 0.164499096843 
1432	 0.163684499843172 
1433	 0.162893216468284 
1434	 0.162134506537203 
1435	 0.161413312365572 
1436	 0.160690640865804 
1437	 0.15999148416146 
1438	 0.15931017239299 
1439	 0.158637245140557 
1440	 0.157965846208012 
1441	 0.15733836453645 
1442	 0.156702505973703 
1443	 0.156059731180488 
1444	 0.155449211578848 
1445	 0.15486569560417 
1446	 0.154339787541359 
1447	 0.153874869457238 
1448	 0.153464373605799 
1449	 0.153130791024569 
1450	 0.152869867649165 
1451	 0.152675384190789 
1452	 0.152551913625797 
1453	 0.152496161016586 
1454	 0.152514228242697 
1455	 0.152585461067936 
1456	 0.152743013610003 
1457	 0.152905774775046 
1458	 0.15314573126348 
1459	 0.153338325845717 
1460	 0.153541366862682 
1461	 0.153733637303641 
1462	 0.153917650229931 
1463	 0.154083737528483 
1464	 0.154253255499311 
1465	 0.154391058094256 
1466	 0.154499382690453 
1467	 0.154598853535342 
1468	 0.154661980303437 
1469	 0.154745193031068 
1470	 0.154835944879552 
1471	 0.154906684669976 
1472	 0.154980420396538 
1473	 0.155076655197381 
1474	 0.155166286215005 
1475	 0.155260347244602 
1476	 0.155371300665937 
1477	 0.155491573146834 
1478	 0.15561259466534 
1479	 0.155731426717112 
1480	 0.155857660741812 
1481	 0.155989258626197 
1482	 0.156148274723442 
1483	 0.156331566445965 
1484	 0.156507307469392 
1485	 0.156699916865052 
1486	 0.156894365028236 
1487	 0.157075618474559 
1488	 0.157287329983806 
1489	 0.157528583496628 
1490	 0.157758639170779 
1491	 0.158006308311249 
1492	 0.158233508982285 
1493	 0.158456445734249 
1494	 0.158665115544877 
1495	 0.158856363297089 
1496	 0.159051394599325 
1497	 0.159241395794978 
1498	 0.159427111539672 
1499	 0.159614319795 
1500	 0.159790421903558 
1501	 0.159958192256092 
1502	 0.160116787314171 
1503	 0.160266817834396 
1504	 0.160408562922004 
1505	 0.160551809744054 
1506	 0.160685618743448 
1507	 0.160820547950327 
1508	 0.160950163200491 
1509	 0.161056948250557 
1510	 0.161172044374023 
1511	 0.161288055885 
1512	 0.161398855744775 
1513	 0.161522296541097 
1514	 0.161638622724528 
1515	 0.161746117562705 
1516	 0.161859796024705 
1517	 0.161966314045771 
1518	 0.162063868395217 
1519	 0.162168986682306 
1520	 0.162283764971583 
1521	 0.162373829642137 
1522	 0.162457527657751 
1523	 0.162536871619763 
1524	 0.162588561824998 
1525	 0.162665738457395 
1526	 0.162756268201995 
1527	 0.162843160625477 
1528	 0.162940940604125 
1529	 0.163022393014006 
1530	 0.163105000780649 
1531	 0.163165543064721 
1532	 0.163206234242935 
1533	 0.163251285106736 
1534	 0.163281781792132 
1535	 0.163317738740967 
1536	 0.16336505275702 
1537	 0.163393428935505 
1538	 0.163405426445024 
1539	 0.163426407098319 
1540	 0.163432180354633 
1541	 0.1634516611875 
1542	 0.1634868129329 
1543	 0.163517801643575 
1544	 0.163558068185396 
1545	 0.163590092788756 
1546	 0.163625775669085 
1547	 0.163643269837821 
1548	 0.163656793592282 
1549	 0.163659602309062 
1550	 0.163650466012185 
1551	 0.163641974780028 
1552	 0.163634474056013 
1553	 0.16363335778955 
1554	 0.163636109611699 
1555	 0.163621765624246 
1556	 0.163592055089477 
1557	 0.163557177959153 
1558	 0.163525847124481 
1559	 0.163512058598297 
1560	 0.163501393637914 
1561	 0.163513764702815 
1562	 0.163495492388717 
1563	 0.163469470907135 
1564	 0.163438421132537 
1565	 0.163390207925948 
1566	 0.16334901646343 
1567	 0.163306828900074 
1568	 0.163266299717135 
1569	 0.163221632822251 
1570	 0.163185127552758 
1571	 0.163155411147356 
1572	 0.163126032111684 
1573	 0.16310478638445 
1574	 0.163069859684892 
1575	 0.163037727470725 
1576	 0.162986489727788 
1577	 0.162912858599919 
1578	 0.162853253954439 
1579	 0.162785667511376 
1580	 0.162727937536449 
1581	 0.162686065607215 
1582	 0.162628135347492 
1583	 0.162566711024051 
1584	 0.162501941222745 
1585	 0.162430712135506 
1586	 0.162355066114608 
1587	 0.162280054156868 
1588	 0.162193927018636 
1589	 0.162096784877912 
1590	 0.16199836277086 
1591	 0.161887049598894 
1592	 0.161782900537683 
1593	 0.161678314822801 
1594	 0.161575104865614 
1595	 0.161483893290255 
1596	 0.161381947279887 
1597	 0.161272201509304 
1598	 0.161162716906334 
1599	 0.16105221830082 
1600	 0.160932073103002 
1601	 0.160804833535318 
1602	 0.160679829608733 
1603	 0.160547445393556 
1604	 0.160415937497848 
1605	 0.160284479230894 
1606	 0.160154229760999 
1607	 0.160029596384132 
1608	 0.159896332771731 
1609	 0.15974119918004 
1610	 0.159600026867287 
1611	 0.159433532653249 
1612	 0.159257071190235 
1613	 0.159094224444145 
1614	 0.15892480055824 
1615	 0.158762057665885 
1616	 0.158602613195893 
1617	 0.158430069943269 
1618	 0.158260569088234 
1619	 0.158086852695176 
1620	 0.157904645021696 
1621	 0.157730025576523 
1622	 0.157564769617263 
1623	 0.157382320086938 
1624	 0.157191973080616 
1625	 0.157002513817203 
1626	 0.156802380624562 
1627	 0.156614463462618 
1628	 0.156433892868743 
1629	 0.156249551067543 
1630	 0.156066770645409 
1631	 0.155880923021456 
1632	 0.155696969487835 
1633	 0.155499448349259 
1634	 0.155296300340469 
1635	 0.155090147624758 
1636	 0.154872501563649 
1637	 0.154658546425714 
1638	 0.15444075496638 
1639	 0.154235223178297 
1640	 0.154034218088709 
1641	 0.153828452118438 
1642	 0.153626619048963 
1643	 0.153429533554044 
1644	 0.153231389622373 
1645	 0.153029923845535 
1646	 0.152837220925669 
1647	 0.152636818645519 
1648	 0.152423310037441 
1649	 0.152219722720519 
1650	 0.1520290047443 
1651	 0.151818077231297 
1652	 0.151592981234111 
1653	 0.151381176486671 
1654	 0.15116028754379 
1655	 0.150955321109956 
1656	 0.150770823550488 
1657	 0.150570725442698 
1658	 0.150382174016048 
1659	 0.15015888241066 
1660	 0.149908915027609 
1661	 0.149671325351444 
1662	 0.149404472018011 
1663	 0.149173797074568 
1664	 0.148966933642847 
1665	 0.148757779209959 
1666	 0.148564478230367 
1667	 0.148361654434827 
1668	 0.148159235607051 
1669	 0.147956186684133 
1670	 0.147753259374292 
1671	 0.147545862136407 
1672	 0.147337545150708 
1673	 0.147127804994687 
1674	 0.146907506336179 
1675	 0.146702354118263 
1676	 0.146505102555688 
1677	 0.14630778558305 
1678	 0.146121627981124 
1679	 0.145926125051971 
1680	 0.145725220297239 
1681	 0.145527270894156 
1682	 0.145323037658374 
1683	 0.14513013819056 
1684	 0.144939891379967 
1685	 0.144759307551963 
1686	 0.144605573028532 
1687	 0.144415418145243 
1688	 0.144208454752198 
1689	 0.144012076812749 
1690	 0.143787789470638 
1691	 0.143596263332298 
1692	 0.14344028113692 
1693	 0.143259379128072 
1694	 0.143081087028909 
1695	 0.142892320376186 
1696	 0.14268258232152 
1697	 0.142492402451865 
1698	 0.142302179595016 
1699	 0.142123512574665 
1700	 0.141970551817973 
1701	 0.141790392704544 
1702	 0.141602741065263 
1703	 0.141414025841242 
1704	 0.141205830642518 
1705	 0.141013145131874 
1706	 0.140831062981509 
1707	 0.14064758514157 
1708	 0.140460963054742 
1709	 0.140284714588851 
1710	 0.140115349872109 
1711	 0.139947878596353 
1712	 0.139801831414472 
1713	 0.139622769815221 
1714	 0.139419226490935 
1715	 0.139236140538493 
1716	 0.139038929487309 
1717	 0.138861810693469 
1718	 0.138713125327623 
1719	 0.138551978098332 
1720	 0.138384797088008 
1721	 0.138223186017808 
1722	 0.138061895984501 
1723	 0.137910685102572 
1724	 0.137769408229337 
1725	 0.1376203125803 
1726	 0.137481875169844 
1727	 0.137327987422598 
1728	 0.137154600206115 
1729	 0.136999504858372 
1730	 0.136848183231133 
1731	 0.136697280220689 
1732	 0.136554200300387 
1733	 0.136405429050364 
1734	 0.136254359155742 
1735	 0.136101158826423 
1736	 0.135948005547539 
1737	 0.135798259813212 
1738	 0.135640769668844 
1739	 0.135501452761737 
1740	 0.135375090706823 
1741	 0.135230826710684 
1742	 0.135086265976789 
1743	 0.134956192942166 
1744	 0.134827427881646 
1745	 0.134691578001021 
1746	 0.134569993857512 
1747	 0.134410497295125 
1748	 0.134255922173817 
1749	 0.134087548733334 
1750	 0.133918328739133 
1751	 0.133747062840005 
1752	 0.133579753793766 
1753	 0.133480067623038 
1754	 0.1333969733889 
1755	 0.133299532314591 
1756	 0.13319991350905 
1757	 0.133061532220806 
1758	 0.132911433642055 
1759	 0.132794834641945 
1760	 0.132698003681786 
1761	 0.132588288311983 
1762	 0.132470235222399 
1763	 0.132334635911839 
1764	 0.132183983742913 
1765	 0.132050252295372 
1766	 0.131937372533221 
1767	 0.131830042331701 
1768	 0.131731329790111 
1769	 0.131624447097168 
1770	 0.13151338713598 
1771	 0.131422953109834 
1772	 0.131311740662814 
1773	 0.13120463494251 
1774	 0.131115952833264 
1775	 0.131003491483628 
1776	 0.130899646406832 
1777	 0.130810438395356 
1778	 0.130710575276467 
1779	 0.130616363099458 
1780	 0.130544827486323 
1781	 0.130475469730228 
1782	 0.130390827027014 
1783	 0.130271446023065 
1784	 0.130176066242557 
1785	 0.130074091360503 
1786	 0.12999021631127 
1787	 0.129934442380466 
1788	 0.129879098017447 
1789	 0.129840186893893 
1790	 0.129779751341658 
1791	 0.12972028556889 
1792	 0.129656813872388 
1793	 0.129560260928396 
1794	 0.129491563998472 
1795	 0.12942867731629 
1796	 0.129382976913832 
1797	 0.129370710806597 
1798	 0.129326735328118 
1799	 0.129278516311384 
1800	 0.12923455478116 
1801	 0.12923750558629 
1802	 0.129217555336288 
1803	 0.129183233887382 
1804	 0.129136778539801 
1805	 0.129113179068076 
1806	 0.129101807557674 
1807	 0.129071089183872 
1808	 0.129055884013234 
1809	 0.129074250896101 
1810	 0.129063166647639 
1811	 0.129019490282738 
1812	 0.129026228643451 
1813	 0.129020973319509 
1814	 0.128991364916522 
1815	 0.128982771961087 
1816	 0.128934132677111 
1817	 0.128910063982031 
1818	 0.128900264367442 
1819	 0.128859579450289 
1820	 0.128801565112789 
1821	 0.128778855530097 
1822	 0.128709755132767 
1823	 0.128688456101746 
1824	 0.128697680168658 
1825	 0.128650755985708 
1826	 0.128625107019633 
1827	 0.128579692142589 
1828	 0.128525577150703 
1829	 0.128473539227653 
1830	 0.128412953824005 
1831	 0.128330065460957 
1832	 0.128248595687768 
1833	 0.128202738492292 
1834	 0.128136065605132 
1835	 0.128099926182059 
1836	 0.128072143987879 
1837	 0.128017228470387 
1838	 0.127952857624789 
1839	 0.127887297492443 
1840	 0.127813591344448 
1841	 0.127746572876498 
1842	 0.127670851150629 
1843	 0.127606388610441 
1844	 0.127557598156441 
1845	 0.127452978924764 
1846	 0.127343570878321 
1847	 0.127231722201306 
1848	 0.127066877552678 
1849	 0.126908856598283 
1850	 0.126741931561435 
1851	 0.126563749203519 
1852	 0.126363554855467 
1853	 0.126189059970097 
1854	 0.125988805468127 
1855	 0.125740913246332 
1856	 0.125501755291896 
1857	 0.12525616732304 
1858	 0.124976659088915 
1859	 0.124696912987065 
1860	 0.124386694449142 
1861	 0.124053717146348 
1862	 0.123667169854521 
1863	 0.123280257142952 
1864	 0.122879062950885 
1865	 0.122429468938594 
1866	 0.121952927022461 
1867	 0.12145606685211 
1868	 0.120921673009087 
1869	 0.120372689581999 
1870	 0.119792994811213 
1871	 0.119176020843153 
1872	 0.118523265224605 
1873	 0.117844796262381 
1874	 0.117121655268013 
1875	 0.116366557692996 
1876	 0.11556409191741 
1877	 0.114726694826512 
1878	 0.113852934484974 
1879	 0.112914126617147 
1880	 0.111923290917607 
1881	 0.110856890605472 
1882	 0.109771535319435 
1883	 0.108630380957821 
1884	 0.10747445978415 
1885	 0.106307480653359 
1886	 0.105113427213275 
1887	 0.103864294683519 
1888	 0.102573398139293 
1889	 0.101224363529158 
1890	 9.98380988734755E-02 
1891	 9.84504873451161E-02 
1892	 9.70034521586678E-02 
1893	 9.56042288779957E-02 
1894	 9.42113516955872E-02 
1895	 9.28308320103716E-02 
1896	 9.14473853255222E-02 
1897	 9.01240316260552E-02 
1898	 8.87992007907162E-02 
1899	 8.74936316132463E-02 
1900	 8.62670112261458E-02 
1901	 8.50662903805403E-02 
1902	 8.39290978064628E-02 
1903	 8.28418702977771E-02 
1904	 8.18293593095984E-02 
1905	 8.08722689864489E-02 
1906	 7.99949294707002E-02 
1907	 7.91831525565279E-02 
1908	 7.84224764969399E-02 
1909	 7.77150168883463E-02 
1910	 7.70528110197149E-02 
1911	 7.64465506080174E-02 
1912	 7.58914904450821E-02 
1913	 7.53554146134179E-02 
1914	 7.48589015064582E-02 
1915	 7.43858067380202E-02 
1916	 7.39391202383725E-02 
1917	 7.35152389433744E-02 
1918	 7.31196388915706E-02 
1919	 7.27608262309034E-02 
1920	 7.24401316855995E-02 
1921	 0.072122296079362 
1922	 7.18161996172721E-02 
1923	 7.15371199251203E-02 
1924	 7.12772881723477E-02 
1925	 7.10181639793178E-02 
1926	 7.08018697941223E-02 
1927	 7.06275093047276E-02 
1928	 7.04632410988028E-02 
1929	 7.03024602812149E-02 
1930	 0.070170162686546 
1931	 7.00534029970272E-02 
1932	 6.99462892824173E-02 
1933	 6.98770415580584E-02 
1934	 6.98206976940547E-02 
1935	 6.97674524794352E-02 
1936	 6.97300225045542E-02 
1937	 6.96948782376126E-02 
1938	 6.96352581222039E-02 
1939	 6.96347871836185E-02 
1940	 6.96671556428862E-02 
1941	 6.97103580360529E-02 
1942	 6.97893186200632E-02 
1943	 6.98697849282255E-02 
1944	 6.99586621436111E-02 
1945	 7.00645507428357E-02 
1946	 7.01771860152514E-02 
1947	 7.03145200490598E-02 
1948	 7.04562013133024E-02 
1949	 7.05913130388654E-02 
1950	 7.07462270222525E-02 
1951	 7.09252682915829E-02 
1952	 7.11084351954257E-02 
1953	 7.12666277864716E-02 
1954	 7.14600113975553E-02 
1955	 7.16516149934839E-02 
1956	 0.07180486879042 
1957	 7.19725150009802E-02 
1958	 7.21511945210555E-02 
1959	 7.23114247103539E-02 
1960	 7.24546344066157E-02 
1961	 0.072610610018465 
1962	 7.27801211838675E-02 
1963	 7.29260005861463E-02 
1964	 7.30587920134328E-02 
1965	 7.31868496244452E-02 
1966	 7.33247618666802E-02 
1967	 7.34738250628599E-02 
1968	 0.073625679400474 
1969	 7.38025852728416E-02 
1970	 0.073968622877611 
1971	 0.074123310041257 
1972	 7.42818219555844E-02 
1973	 0.074451676858583 
1974	 7.46170149642914E-02 
1975	 7.47748101245828E-02 
1976	 7.49371771008066E-02 
1977	 7.51090278818701E-02 
1978	 7.52808475621799E-02 
1979	 7.54603677982105E-02 
1980	 7.56533945388679E-02 
1981	 7.58396689600288E-02 
1982	 7.60221887615594E-02 
1983	 7.62185680791785E-02 
1984	 7.64247939728223E-02 
1985	 7.66242845643992E-02 
1986	 7.68384150381665E-02 
1987	 0.077038655209259 
1988	 7.72226883534751E-02 
1989	 7.74116263193271E-02 
1990	 7.76096032752175E-02 
1991	 7.78011659662128E-02 
1992	 7.79958265855921E-02 
1993	 7.81948339247037E-02 
1994	 7.83934789328751E-02 
1995	 7.85923034428301E-02 
1996	 7.87894405283174E-02 
1997	 7.89921222412987E-02 
1998	 0.079184199420422 
1999	 7.93576313147021E-02 
2000	 7.95496079479888E-02 
2001	 7.97447926013107E-02 
2002	 7.99557789254035E-02 
2003	 8.01540228841184E-02 
2004	 8.03437957944248E-02 
2005	 0.080514531757408 
2006	 8.06470264512256E-02 
2007	 8.08110735313772E-02 
2008	 8.09816996661893E-02 
2009	 8.11474346538213E-02 
2010	 8.13158751020745E-02 
2011	 8.14910287762296E-02 
2012	 8.16616926411483E-02 
2013	 8.18384818422326E-02 
2014	 8.20259741456265E-02 
2015	 8.22242208492724E-02 
2016	 0.082403860376724 
2017	 8.25758316267464E-02 
2018	 8.27619786569069E-02 
2019	 8.29522650190444E-02 
2020	 8.31382654333665E-02 
2021	 8.33432943482729E-02 
2022	 8.35218134409134E-02 
2023	 8.36712830651252E-02 
2024	 0.083843511439634 
2025	 8.40209918768546E-02 
2026	 8.41889990892163E-02 
2027	 8.43632431175616E-02 
2028	 8.45361593247496E-02 
2029	 8.47008559716976E-02 
2030	 8.48454793588201E-02 
2031	 8.50130126323492E-02 
2032	 8.51879045509622E-02 
2033	 8.53647214798111E-02 
2034	 8.55631425892282E-02 
2035	 8.57304083680266E-02 
2036	 8.58778918762198E-02 
2037	 8.60402780982935E-02 
2038	 0.086194968978877 
2039	 8.63486144758301E-02 
2040	 8.65127389699748E-02 
2041	 0.086681823710529 
2042	 8.68058768989977E-02 
2043	 8.69191909933737E-02 
2044	 8.70671242305316E-02 
2045	 8.72201045479548E-02 
2046	 8.73742882849208E-02 
2047	 8.75621160644135E-02 
2048	 8.77247741582686E-02 
2049	 8.78792619862283E-02 
2050	 8.80191452780574E-02 
2051	 8.81402704529117E-02 
2052	 8.82751815624647E-02 
2053	 8.84003963055927E-02 
2054	 8.85268341505578E-02 
2055	 8.86570446566574E-02 
2056	 8.88026434969928E-02 
2057	 8.89398214952182E-02 
2058	 8.90638791040701E-02 
2059	 8.92065069709896E-02 
2060	 8.93670939610361E-02 
2061	 0.089510928120614 
2062	 8.96585147222382E-02 
2063	 8.97934261419254E-02 
2064	 8.99109999698803E-02 
2065	 9.00393360807613E-02 
2066	 9.01716037652147E-02 
2067	 9.02957335619941E-02 
2068	 9.04193550677287E-02 
2069	 9.05380998245114E-02 
2070	 9.06638783986893E-02 
2071	 9.07874968120835E-02 
2072	 0.09090456096211 
2073	 9.10221388121648E-02 
2074	 9.11457522120497E-02 
2075	 9.12602602498836E-02 
2076	 9.13822301617048E-02 
2077	 9.15208483981947E-02 
2078	 9.16500317033721E-02 
2079	 9.17726103188347E-02 
2080	 9.18969965346744E-02 
2081	 9.20258682835577E-02 
2082	 9.21486411840759E-02 
2083	 9.22686714451873E-02 
2084	 9.23815338886172E-02 
2085	 9.24995596458818E-02 
2086	 9.26145572921824E-02 
2087	 9.27355094326039E-02 
2088	 9.28636068493755E-02 
2089	 9.29831500959527E-02 
2090	 0.093102844929113 
2091	 0.093218968669051 
2092	 9.33257385008562E-02 
2093	 9.34388015232775E-02 
2094	 9.35665222043954E-02 
2095	 9.36710543256908E-02 
2096	 9.37541507731456E-02 
2097	 9.38546235377229E-02 
2098	 9.39594789748174E-02 
2099	 9.40454348074476E-02 
2100	 9.41421802499859E-02 
2101	 9.42504520335451E-02 
2102	 9.43589956101233E-02 
2103	 9.44592571237148E-02 
2104	 0.094570353139956 
2105	 9.47018027063925E-02 
2106	 9.48188302058057E-02 
2107	 9.49304966648072E-02 
2108	 9.50396943384267E-02 
2109	 9.51403984728887E-02 
2110	 9.52516910615545E-02 
2111	 9.53493621457628E-02 
2112	 9.54736459687304E-02 
2113	 9.56410925272678E-02 
2114	 9.57736972274637E-02 
2115	 9.59103862223733E-02 
2116	 9.60645813638165E-02 
2117	 9.61842825178067E-02 
2118	 9.62632152689931E-02 
2119	 9.63854791708499E-02 
2120	 9.65330361855607E-02 
2121	 9.66372201211755E-02 
2122	 9.67378627956845E-02 
2123	 0.096835101852221 
2124	 9.68866795057549E-02 
2125	 9.69679262401997E-02 
2126	 9.70798307142462E-02 
2127	 9.71777947707625E-02 
2128	 9.72830163318676E-02 
2129	 9.73655666855104E-02 
2130	 9.74362234555732E-02 
2131	 9.74951111295819E-02 
2132	 9.75633637124566E-02 
2133	 9.76188817537941E-02 
2134	 0.097682909450365 
2135	 9.77614311250836E-02 
2136	 9.78255802753932E-02 
2137	 9.78853432537333E-02 
2138	 9.79313873713168E-02 
2139	 9.79738473518044E-02 
2140	 0.098007776951496 
2141	 9.80123409833826E-02 
2142	 9.80362866337395E-02 
2143	 9.80721684667439E-02 
2144	 9.80964474456617E-02 
2145	 9.81317865677031E-02 
2146	 9.81506696374645E-02 
2147	 9.81582326416707E-02 
2148	 9.81471522811184E-02 
2149	 9.81473458200808E-02 
2150	 9.81401503376455E-02 
2151	 9.81400053256627E-02 
2152	 0.098147235758546 
2153	 9.81468651068125E-02 
2154	 9.81451308277143E-02 
2155	 9.81397616273366E-02 
2156	 9.81351614116235E-02 
2157	 9.81213678858469E-02 
2158	 9.80960562211079E-02 
2159	 0.098075577105158 
2160	 0.098061888855561 
2161	 9.80313152459964E-02 
2162	 9.79864604802717E-02 
2163	 9.79508895375766E-02 
2164	 9.79160598446072E-02 
2165	 9.78609576201848E-02 
2166	 9.78211315252411E-02 
2167	 9.77998681719457E-02 
2168	 9.77552199377938E-02 
2169	 0.097693692566675 
2170	 9.76469487551726E-02 
2171	 9.75896479511235E-02 
2172	 9.75556449970237E-02 
2173	 9.75444154038437E-02 
2174	 9.75205218861054E-02 
2175	 9.75175215011248E-02 
2176	 9.74848897715619E-02 
2177	 9.74306938110953E-02 
2178	 9.73782290558685E-02 
2179	 9.73076978352454E-02 
2180	 9.72421325959366E-02 
2181	 9.71840752064513E-02 
2182	 9.71164302627294E-02 
2183	 9.70362632472196E-02 
2184	 9.69605175847197E-02 
2185	 9.68942273053681E-02 
2186	 9.68281992884571E-02 
2187	 9.67646910728469E-02 
2188	 9.67042596049138E-02 
2189	 0.096660484507262 
2190	 9.66180872018127E-02 
2191	 9.65874944822347E-02 
2192	 9.66033232481236E-02 
2193	 9.65673663954591E-02 
2194	 9.64946100021653E-02 
2195	 9.64489758017276E-02 
2196	 9.63988561741859E-02 
2197	 9.63428829168174E-02 
2198	 9.62951701491021E-02 
2199	 9.62538357259013E-02 
2200	 9.62073313099438E-02 
2201	 9.61541645849043E-02 
2202	 9.61052326790192E-02 
2203	 9.60660580693393E-02 
2204	 9.60190953666873E-02 
2205	 9.59516259544105E-02 
2206	 9.59062129518788E-02 
2207	 9.58727667980952E-02 
2208	 9.58432909150733E-02 
2209	 9.58249972109788E-02 
2210	 9.57945814460388E-02 
2211	 9.57634779601755E-02 
2212	 9.57425384474771E-02 
2213	 9.57261721329341E-02 
2214	 9.56966142390451E-02 
2215	 9.56684385476993E-02 
2216	 9.56387812665807E-02 
2217	 9.55883315483672E-02 
2218	 9.55516218588212E-02 
2219	 9.55256724179009E-02 
2220	 9.55075361507708E-02 
2221	 9.54988952101175E-02 
2222	 9.54831940976871E-02 
2223	 9.54876921905423E-02 
2224	 9.54739430362107E-02 
2225	 9.54548350006389E-02 
2226	 9.54230128177712E-02 
2227	 9.54043473816874E-02 
2228	 9.53777134579975E-02 
2229	 9.53685056297628E-02 
2230	 9.53849207603735E-02 
2231	 9.53657419171444E-02 
2232	 9.53389358978947E-02 
2233	 9.53111819071994E-02 
2234	 9.52558207637925E-02 
2235	 9.52235749685073E-02 
2236	 9.52143099488197E-02 
2237	 9.51824673082977E-02 
2238	 9.51312492133789E-02 
2239	 9.51012321348986E-02 
2240	 9.50615428185952E-02 
2241	 0.095045287473652 
2242	 9.50913450027943E-02 
2243	 0.095080313064164 
2244	 9.50483935599503E-02 
2245	 9.50043284033457E-02 
2246	 0.094953128827053 
2247	 9.48886761328898E-02 
2248	 0.094838276480092 
2249	 9.48082403712836E-02 
2250	 9.47766957564563E-02 
2251	 9.47516833817943E-02 
2252	 9.46975401686571E-02 
2253	 0.094628070307732 
2254	 0.094578312205612 
2255	 9.45073132713672E-02 
2256	 9.44564748504524E-02 
2257	 9.44532896134272E-02 
2258	 9.44105891632039E-02 
2259	 9.43352463514666E-02 
2260	 9.42793447273497E-02 
2261	 9.42291775574585E-02 
2262	 9.41723289774241E-02 
2263	 9.41118423857944E-02 
2264	 9.40574002693624E-02 
2265	 9.40102523465453E-02 
2266	 9.39460241283772E-02 
2267	 9.38857897730273E-02 
2268	 9.38164334607065E-02 
2269	 0.093729439319776 
2270	 9.36314647399165E-02 
2271	 9.35444654936589E-02 
2272	 9.34403123458892E-02 
2273	 9.33391173456646E-02 
2274	 9.32611732804108E-02 
2275	 9.31716759604515E-02 
2276	 9.30948695305222E-02 
2277	 9.29950242537584E-02 
2278	 0.092875524503826 
2279	 9.27629044481752E-02 
2280	 9.26365970993596E-02 
2281	 9.25326143679062E-02 
2282	 9.24494892995043E-02 
2283	 9.23461493636104E-02 
2284	 9.22515569067885E-02 
2285	 0.092140583852912 
2286	 9.20032238639641E-02 
2287	 9.18769644872808E-02 
2288	 9.17429367955279E-02 
2289	 9.16202380404441E-02 
2290	 9.15047594972864E-02 
2291	 9.13913675151686E-02 
2292	 9.12824182641249E-02 
2293	 9.11815198905733E-02 
2294	 9.11070819326323E-02 
2295	 9.09967458279981E-02 
2296	 9.08725202446718E-02 
2297	 9.07548449765622E-02 
2298	 9.05928730562525E-02 
2299	 9.04013107946273E-02 
2300	 9.02722363863428E-02 
2301	 9.01345420205285E-02 
2302	 8.99989732034656E-02 
2303	 8.99190833198402E-02 
2304	 8.97777011413271E-02 
2305	 8.95890548992028E-02 
2306	 8.94196771401632E-02 
2307	 8.92102901003497E-02 
2308	 0.089052014690287 
2309	 8.89344949203558E-02 
2310	 8.87979318771405E-02 
2311	 8.86793209972588E-02 
2312	 8.85474484034635E-02 
2313	 8.83982892959847E-02 
2314	 8.82546347480837E-02 
2315	 8.81120438971642E-02 
2316	 0.08796498255308 
2317	 8.78304480581376E-02 
2318	 8.76591281867044E-02 
2319	 8.74519948109957E-02 
2320	 8.72820212995059E-02 
2321	 0.087101855386232 
2322	 8.69296771304856E-02 
2323	 8.68143841441385E-02 
2324	 0.086650299331325 
2325	 8.64309521368545E-02 
2326	 8.62457005111028E-02 
2327	 8.60714822143679E-02 
2328	 8.58685683320513E-02 
2329	 8.56881062565765E-02 
2330	 8.55523495313193E-02 
2331	 0.085425474179665 
2332	 8.52973268308037E-02 
2333	 8.51456898295628E-02 
2334	 0.084999256407566 
2335	 0.084809015547249 
2336	 8.45993479803607E-02 
2337	 8.44458081453658E-02 
2338	 8.42536926014322E-02 
2339	 0.084083575317469 
2340	 8.39674590646452E-02 
2341	 8.38035406622742E-02 
2342	 8.36754091753302E-02 
2343	 8.35162102009712E-02 
2344	 8.32855315731885E-02 
2345	 8.30879124040029E-02 
2346	 8.28807007324555E-02 
2347	 8.26635455170639E-02 
2348	 8.24453996841225E-02 
2349	 8.22357677883334E-02 
2350	 8.20138578943559E-02 
2351	 8.18058777921301E-02 
2352	 8.16310955801723E-02 
2353	 0.081422330835321 
2354	 8.11787350643663E-02 
2355	 8.09615040712667E-02 
2356	 8.07474958555585E-02 
2357	 8.05279156563415E-02 
2358	 8.03105692367477E-02 
2359	 8.01182866579288E-02 
2360	 7.99600691706103E-02 
2361	 0.079747919047199 
2362	 7.95129013985088E-02 
2363	 7.93092496000952E-02 
2364	 7.90772700237294E-02 
2365	 0.078845744557686 
2366	 7.86471157414497E-02 
2367	 7.84509641349686E-02 
2368	 7.82369652366493E-02 
2369	 7.80194674111429E-02 
2370	 7.78189435802223E-02 
2371	 0.07763748647353 
2372	 7.74101488886673E-02 
2373	 7.71629379547357E-02 
2374	 7.69187315230707E-02 
2375	 7.66989665540471E-02 
2376	 7.64685391808545E-02 
2377	 7.62337555971067E-02 
2378	 7.60822309765152E-02 
2379	 7.58909141736743E-02 
2380	 7.56558141910958E-02 
2381	 7.54704376158026E-02 
2382	 7.52222199279171E-02 
2383	 7.49352068754591E-02 
2384	 7.46511920590339E-02 
2385	 7.44169304843565E-02 
2386	 7.41986497108182E-02 
2387	 7.39393608364926E-02 
2388	 7.37710160729634E-02 
2389	 0.073571735652594 
2390	 7.33089253478633E-02 
2391	 7.31197694572338E-02 
2392	 7.29453469476541E-02 
2393	 7.27537319940822E-02 
2394	 7.26154170251127E-02 
2395	 7.24944851633882E-02 
2396	 7.23345104823257E-02 
2397	 7.21789812764781E-02 
2398	 7.19811494691496E-02 
2399	 7.17853866367335E-02 
2400	 7.16209610673746E-02 
2401	 7.13920518457916E-02 
2402	 7.11600057619615E-02 
2403	 7.09554681780202E-02 
2404	 7.07396833479761E-02 
2405	 7.05249693715893E-02 
2406	 7.03207519740658E-02 
2407	 0.070221094670313 
2408	 7.01372566290862E-02 
2409	 0.070000558761932 
2410	 6.98626673784913E-02 
2411	 6.96406016290551E-02 
2412	 6.94200095358237E-02 
2413	 6.92956905476286E-02 
2414	 6.92485906049396E-02 
2415	 6.91732105601681E-02 
2416	 6.90433240817256E-02 
2417	 6.88675720504256E-02 
2418	 6.86568744265738E-02 
2419	 0.068365151065383 
2420	 6.82096665262696E-02 
2421	 6.80841914142568E-02 
2422	 0.067927893509407 
2423	 6.78560942776496E-02 
2424	 6.76905727592315E-02 
2425	 6.74410078455022E-02 
2426	 6.72578773989435E-02 
2427	 6.70370213664611E-02 
2428	 6.68753546641444E-02 
2429	 6.68208984154624E-02 
2430	 6.66621068648541E-02 
2431	 6.64491920891965E-02 
2432	 6.63535821495659E-02 
2433	 6.62602609211961E-02 
2434	 6.61130082670807E-02 
2435	 6.60952087769319E-02 
2436	 6.59167644382313E-02 
2437	 6.55401338635173E-02 
2438	 6.52870808654842E-02 
2439	 0.065058330854522 
2440	 6.48009532759023E-02 
2441	 6.45315549532317E-02 
2442	 6.43396578639027E-02 
2443	 6.41981546604949E-02 
2444	 6.39882086851313E-02 
2445	 0.063789557496493 
2446	 6.35914424424935E-02 
2447	 6.33154004730602E-02 
2448	 6.30846613819027E-02 
2449	 0.0629542008229 
2450	 6.27805051163141E-02 
2451	 6.25668595721638E-02 
2452	 6.23716342756221E-02 
2453	 6.21242539137196E-02 
2454	 6.19660549302503E-02 
2455	 6.19042835274616E-02 
2456	 6.17789218165496E-02 
2457	 0.061686570921429 
2458	 6.15640194129497E-02 
2459	 6.13700987966162E-02 
2460	 6.11949378981573E-02 
2461	 6.10629886187697E-02 
2462	 6.08827194875961E-02 
2463	 6.06094265412964E-02 
2464	 6.04136572392316E-02 
2465	 6.01958221181262E-02 
2466	 6.00708084270703E-02 
2467	 6.01424024390114E-02 
2468	 6.01121158058824E-02 
2469	 6.00992639430558E-02 
2470	 6.00223333216496E-02 
2471	 5.97293661880802E-02 
2472	 0.059375081976332 
2473	 5.92161625983158E-02 
2474	 5.91099440768458E-02 
2475	 5.88369012407018E-02 
2476	 5.88385938421508E-02 
2477	 5.89727819883715E-02 
2478	 5.88468363417155E-02 
2479	 5.88876206507134E-02 
2480	 5.89189760832271E-02 
2481	 5.85472270265723E-02 
2482	 0.058221889406179 
2483	 5.80779033360952E-02 
2484	 5.78426868368108E-02 
2485	 0.057674850101471 
2486	 5.76663730644829E-02 
2487	 5.76477354939161E-02 
2488	 5.75144273456923E-02 
2489	 5.73274309550083E-02 
2490	 5.71296475969045E-02 
2491	 5.68515753224778E-02 
2492	 5.66658415879766E-02 
2493	 5.66271949782787E-02 
2494	 5.65170681081211E-02 
2495	 0.056399653562105 
2496	 5.62161327297494E-02 
2497	 5.57706114888103E-02 
2498	 5.55450445621695E-02 
2499	 5.55074247376303E-02 
2500	 5.55048290775419E-02 
