Wavelength	lmw-9-100009.asd
350	 9.71080601954266E-02 
351	 9.26700647306841E-02 
352	 0.090591130177909 
353	 9.08923038498329E-02 
354	 9.22098063347674E-02 
355	 9.39714260366808E-02 
356	 9.26321767048063E-02 
357	 8.74222634809461E-02 
358	 0.090228181235238 
359	 8.75917066172413E-02 
360	 8.36473039106314E-02 
361	 9.14392235714576E-02 
362	 8.71515143290148E-02 
363	 8.18761776425246E-02 
364	 8.30159443748337E-02 
365	 8.60366811465923E-02 
366	 8.39654143562187E-02 
367	 8.10303777093483E-02 
368	 8.19431773112391E-02 
369	 7.93189960476458E-02 
370	 8.01542961408361E-02 
371	 8.32357697492812E-02 
372	 8.20973336677831E-02 
373	 8.07827829003987E-02 
374	 8.06104760692226E-02 
375	 8.15952516281184E-02 
376	 8.23674655952515E-02 
377	 8.08021517235427E-02 
378	 7.92714646905782E-02 
379	 8.01914978549892E-02 
380	 7.99969511029614E-02 
381	 7.78895389766826E-02 
382	 7.59323882874496E-02 
383	 7.77637433620929E-02 
384	 8.07068485580738E-02 
385	 0.080786131135954 
386	 7.77255743109748E-02 
387	 7.83539301466623E-02 
388	 0.079508819392999 
389	 8.02272792565401E-02 
390	 8.02233808035449E-02 
391	 0.079219833536509 
392	 7.96017209081275E-02 
393	 8.12281293379309E-02 
394	 8.18503487161628E-02 
395	 8.24545482691043E-02 
396	 8.14407880940367E-02 
397	 7.91306141047011E-02 
398	 8.09034826674142E-02 
399	 8.16654690023308E-02 
400	 8.26060905562737E-02 
401	 8.57374602201968E-02 
402	 8.42163720570018E-02 
403	 8.26849734308939E-02 
404	 0.083085912720072 
405	 8.38881042911266E-02 
406	 8.40855033527057E-02 
407	 8.47837778385944E-02 
408	 8.61884404317637E-02 
409	 8.48736479003707E-02 
410	 0.084411944963678 
411	 0.084983643710037 
412	 0.085292003782007 
413	 8.63333491755827E-02 
414	 8.56215802762079E-02 
415	 8.34338190661718E-02 
416	 8.38000081141648E-02 
417	 8.40755887724761E-02 
418	 0.08382711994308 
419	 8.33129259769918E-02 
420	 8.32195246295169E-02 
421	 8.31757111295094E-02 
422	 8.30699284405385E-02 
423	 8.29273488531382E-02 
424	 8.21634929707857E-02 
425	 8.11650235651448E-02 
426	 0.080401400351457 
427	 8.02708541486863E-02 
428	 8.04958480523137E-02 
429	 8.05526084144845E-02 
430	 8.00952278168087E-02 
431	 8.00209558259846E-02 
432	 7.99167923704134E-02 
433	 8.00087157198956E-02 
434	 8.11147942248642E-02 
435	 8.15565421051733E-02 
436	 8.18811058171103E-02 
437	 8.26138152975063E-02 
438	 8.29601199754642E-02 
439	 0.083715472450319 
440	 8.48583903935707E-02 
441	 0.085970981100214 
442	 8.70741193570109E-02 
443	 8.83374367658843E-02 
444	 8.97362861063313E-02 
445	 9.09347057212284E-02 
446	 9.20563219826361E-02 
447	 0.093276042952004 
448	 9.47112761788479E-02 
449	 9.61511259824371E-02 
450	 9.78056255744515E-02 
451	 9.95162307735889E-02 
452	 0.100853612135109 
453	 0.102330098097868 
454	 0.103836930708574 
455	 0.105351890328729 
456	 0.107386777828289 
457	 0.109208265009114 
458	 0.110860130213528 
459	 0.112715005670021 
460	 0.114705585103602 
461	 0.116639810166705 
462	 0.118447164889882 
463	 0.120221537817689 
464	 0.12252150401268 
465	 0.125068706053482 
466	 0.127399695198296 
467	 0.129333533024449 
468	 0.131594200306691 
469	 0.134152584149193 
470	 0.136401191143959 
471	 0.138997481650766 
472	 0.141634650030275 
473	 0.144062286810875 
474	 0.146499787665443 
475	 0.149095789422131 
476	 0.15181630736243 
477	 0.154530500746464 
478	 0.157113861215336 
479	 0.159894397234933 
480	 0.162801350709385 
481	 0.165166018160807 
482	 0.167957326820331 
483	 0.170849332512205 
484	 0.173362599631004 
485	 0.175965693939585 
486	 0.178553287420101 
487	 0.18092780650789 
488	 0.182883655020766 
489	 0.185160468442285 
490	 0.187432758331178 
491	 0.189445171361494 
492	 0.191616637072821 
493	 0.193538882815343 
494	 0.195266788602124 
495	 0.197053378092609 
496	 0.198873201682522 
497	 0.200355373556729 
498	 0.201502354041999 
499	 0.202917073808677 
500	 0.204082348269128 
501	 0.205166567199308 
502	 0.20638218796483 
503	 0.207244754063635 
504	 0.207976759951417 
505	 0.208738947950507 
506	 0.209598715597115 
507	 0.210359555665722 
508	 0.210956899796089 
509	 0.211396981206036 
510	 0.211774668891006 
511	 0.212126681302059 
512	 0.21243169538033 
513	 0.212661193651993 
514	 0.21304952444155 
515	 0.213420650686513 
516	 0.213666279198408 
517	 0.213868729383568 
518	 0.214043960959976 
519	 0.214204367606096 
520	 0.214360246509204 
521	 0.21454286008938 
522	 0.214661481229077 
523	 0.21471481933678 
524	 0.214799348573693 
525	 0.214874298485168 
526	 0.215012784720896 
527	 0.215245547047902 
528	 0.215419490375666 
529	 0.215475337588616 
530	 0.215481629463549 
531	 0.215589380922663 
532	 0.215843412093873 
533	 0.216124395475273 
534	 0.216346327389386 
535	 0.216532129117998 
536	 0.216771625298438 
537	 0.217018688882486 
538	 0.217205960233734 
539	 0.217539027048113 
540	 0.217810449502851 
541	 0.218014027021517 
542	 0.218451512151602 
543	 0.218801085710258 
544	 0.219124134400284 
545	 0.219537144631825 
546	 0.219932257771336 
547	 0.22037868116155 
548	 0.220870148311527 
549	 0.221335192200332 
550	 0.221773014825188 
551	 0.222244468396461 
552	 0.222791119670978 
553	 0.223380798258407 
554	 0.223966403479315 
555	 0.224586934783974 
556	 0.225302795062011 
557	 0.22591006755012 
558	 0.226540571915167 
559	 0.227279658373865 
560	 0.228079976835153 
561	 0.228752231710454 
562	 0.229376377158297 
563	 0.23008423251972 
564	 0.230690683241086 
565	 0.231309667909338 
566	 0.231997299371726 
567	 0.232726021246886 
568	 0.233520806488031 
569	 0.234371652213972 
570	 0.235267683790169 
571	 0.23623813026005 
572	 0.237180182085592 
573	 0.238089251613152 
574	 0.23902727354573 
575	 0.239929674645964 
576	 0.240853647815755 
577	 0.241825742329584 
578	 0.242774473454051 
579	 0.243641491808397 
580	 0.244467284691978 
581	 0.24533098748492 
582	 0.246202796259665 
583	 0.247064260386003 
584	 0.247928666274263 
585	 0.248859422500829 
586	 0.249769077819598 
587	 0.250718706002412 
588	 0.25176177090295 
589	 0.252721698023686 
590	 0.253749260110187 
591	 0.254856109663125 
592	 0.255927610758576 
593	 0.257082338986554 
594	 0.258272492593345 
595	 0.259413957942084 
596	 0.260413985757456 
597	 0.261379032477405 
598	 0.262330486200774 
599	 0.263247383380587 
600	 0.264123692103414 
601	 0.265052955639204 
602	 0.266067755666816 
603	 0.267086721119953 
604	 0.268052307430086 
605	 0.269008785646263 
606	 0.270027103755349 
607	 0.2710815741891 
608	 0.272111564940715 
609	 0.273109058748413 
610	 0.274128866799961 
611	 0.275115432783783 
612	 0.276047785017181 
613	 0.276923397818542 
614	 0.277775600001914 
615	 0.27862423806152 
616	 0.279470596990743 
617	 0.280300798633487 
618	 0.281151724194839 
619	 0.282010411895155 
620	 0.28284786241638 
621	 0.283611380197754 
622	 0.284323157825834 
623	 0.285054249014251 
624	 0.285867799550871 
625	 0.286622904759462 
626	 0.287297227724612 
627	 0.28794616502342 
628	 0.288710736389268 
629	 0.289412730271413 
630	 0.290073499148344 
631	 0.290745103435897 
632	 0.291360933414585 
633	 0.29199269099632 
634	 0.292608694210751 
635	 0.293107153370768 
636	 0.293693150066698 
637	 0.294313593121846 
638	 0.294896551873145 
639	 0.295449412910877 
640	 0.295914150902678 
641	 0.296371546565519 
642	 0.29693648340029 
643	 0.297449084276345 
644	 0.297893479064098 
645	 0.298280825618213 
646	 0.298635053498222 
647	 0.299076820261625 
648	 0.299480962789428 
649	 0.299728375471086 
650	 0.300052523268968 
651	 0.30037320587432 
652	 0.300653850145177 
653	 0.300904469943234 
654	 0.301129956693249 
655	 0.301323075860612 
656	 0.30148970997323 
657	 0.301678651116605 
658	 0.301816812497795 
659	 0.301886635916692 
660	 0.301907458540147 
661	 0.301944602701708 
662	 0.301982308852926 
663	 0.301988079674114 
664	 0.301918078411878 
665	 0.301828831375149 
666	 0.301725380631992 
667	 0.3015932427963 
668	 0.301394778295073 
669	 0.30124768121901 
670	 0.301110442940226 
671	 0.300816634272872 
672	 0.300444351285985 
673	 0.300110402619539 
674	 0.299849532653755 
675	 0.299497144309559 
676	 0.299066454046715 
677	 0.298616211292889 
678	 0.298208651440961 
679	 0.297743058939125 
680	 0.297237998968739 
681	 0.296700714615909 
682	 0.296109549348172 
683	 0.2955536125679 
684	 0.294982849413615 
685	 0.294346998019641 
686	 0.293739261886084 
687	 0.293081598815343 
688	 0.292370908657095 
689	 0.291658858458163 
690	 0.290938519822059 
691	 0.290217668890148 
692	 0.289489642276395 
693	 0.288721454137696 
694	 0.287853458868114 
695	 0.286977193742665 
696	 0.286198212549965 
697	 0.285363554415524 
698	 0.284517205925391 
699	 0.283664219519217 
700	 0.282761417064988 
701	 0.2818964685687 
702	 0.280994789201573 
703	 0.280024041643101 
704	 0.279181225872131 
705	 0.278239370700459 
706	 0.277214071289682 
707	 0.276241215324891 
708	 0.27527598376209 
709	 0.274335138906872 
710	 0.273407022928516 
711	 0.27243198401444 
712	 0.271391792060451 
713	 0.270320570019071 
714	 0.269285351672096 
715	 0.268434553791555 
716	 0.267444476372987 
717	 0.266308978242635 
718	 0.265259718028485 
719	 0.264328063127354 
720	 0.263365974103519 
721	 0.262293339366 
722	 0.261202685011878 
723	 0.260147377982393 
724	 0.259106304030978 
725	 0.258044591907954 
726	 0.257025161000424 
727	 0.256020452208293 
728	 0.254992102912958 
729	 0.253903126522167 
730	 0.252853446127294 
731	 0.251786077059115 
732	 0.250679177293356 
733	 0.249664008796225 
734	 0.248682396789893 
735	 0.247664588505223 
736	 0.246555652591003 
737	 0.245416775256698 
738	 0.244358074058729 
739	 0.243364536405315 
740	 0.2422870094506 
741	 0.241215906383386 
742	 0.240156585191425 
743	 0.239106575540495 
744	 0.238097539510406 
745	 0.237027222228915 
746	 0.235936376481175 
747	 0.234919947603561 
748	 0.233929146116478 
749	 0.232873446165514 
750	 0.231794042055215 
751	 0.230886084443816 
752	 0.229899778218014 
753	 0.228823652442009 
754	 0.227724758473979 
755	 0.2267179495709 
756	 0.225779707733019 
757	 0.22482336368206 
758	 0.223762267631178 
759	 0.222759366723567 
760	 0.221808489056398 
761	 0.220876419976543 
762	 0.219919183121002 
763	 0.218983561615016 
764	 0.21804096706295 
765	 0.217066075811658 
766	 0.216077611953019 
767	 0.215182940084325 
768	 0.214319254069186 
769	 0.213365153303917 
770	 0.212471683742767 
771	 0.211615653107686 
772	 0.210758334930734 
773	 0.209865046016472 
774	 0.209030976132982 
775	 0.208208939065812 
776	 0.207351510743029 
777	 0.206500656168868 
778	 0.205658551956399 
779	 0.204843390676897 
780	 0.204069172226542 
781	 0.203289255551579 
782	 0.202517710745102 
783	 0.201752700915978 
784	 0.200976009275337 
785	 0.200244232886016 
786	 0.199527411758398 
787	 0.198799976642924 
788	 0.198087320646798 
789	 0.197396645579196 
790	 0.196721515917148 
791	 0.196047506562989 
792	 0.195347879600149 
793	 0.194684186078593 
794	 0.194069522957698 
795	 0.193465490676584 
796	 0.192784556731691 
797	 0.192139888608007 
798	 0.191584745586505 
799	 0.191006700883949 
800	 0.190424903846244 
801	 0.189861646303153 
802	 0.189331219607633 
803	 0.188809063206097 
804	 0.188258950218781 
805	 0.187717931273587 
806	 0.187251599908885 
807	 0.186741202311468 
808	 0.186218410797603 
809	 0.185727830165914 
810	 0.185303269415716 
811	 0.184830712612907 
812	 0.184349164205846 
813	 0.18391768678142 
814	 0.18355266565626 
815	 0.183187025880336 
816	 0.182796530497006 
817	 0.182385163302739 
818	 0.181979573447322 
819	 0.18162722749772 
820	 0.181303196591698 
821	 0.180932240330661 
822	 0.180621563850993 
823	 0.180286470417969 
824	 0.179916758250996 
825	 0.179667811824132 
826	 0.17938662093009 
827	 0.17907652369811 
828	 0.178779939252692 
829	 0.178519638392647 
830	 0.178233470320502 
831	 0.177949939791847 
832	 0.177733361853495 
833	 0.177577721832964 
834	 0.177367796074269 
835	 0.177111912082514 
836	 0.176931641054045 
837	 0.176735193083351 
838	 0.176554391994693 
839	 0.176387823239437 
840	 0.176143967152827 
841	 0.175987795937307 
842	 0.175892983366691 
843	 0.175782110327491 
844	 0.175598464859598 
845	 0.17545920834995 
846	 0.175362296464132 
847	 0.175263301145366 
848	 0.175242726618588 
849	 0.175180712246166 
850	 0.175067142008619 
851	 0.174990606455065 
852	 0.174920892026922 
853	 0.174855054122248 
854	 0.174807301673142 
855	 0.174810498933945 
856	 0.174763680071218 
857	 0.174734260815067 
858	 0.174777493047311 
859	 0.174816477876306 
860	 0.174835695709271 
861	 0.174839954877308 
862	 0.174843398916505 
863	 0.174842573705619 
864	 0.174887404438945 
865	 0.174970283752756 
866	 0.175051016549412 
867	 0.175150611716121 
868	 0.175238515531969 
869	 0.175314584191426 
870	 0.175413106275876 
871	 0.175546251345185 
872	 0.175687155534855 
873	 0.175812489946323 
874	 0.175916796030225 
875	 0.176094030579191 
876	 0.176269082227792 
877	 0.176385339450775 
878	 0.176547422859722 
879	 0.176736440204781 
880	 0.176965483746425 
881	 0.17723397493564 
882	 0.177464032090444 
883	 0.177654805852779 
884	 0.177839453786531 
885	 0.178068965679774 
886	 0.178379716650028 
887	 0.178692148727343 
888	 0.178939832782838 
889	 0.179110048957176 
890	 0.179482952229933 
891	 0.179843212087679 
892	 0.180107708782354 
893	 0.180436873809453 
894	 0.180792848175629 
895	 0.181137624542316 
896	 0.181471650355325 
897	 0.181866502454921 
898	 0.182264773718554 
899	 0.182655522431142 
900	 0.183028544790555 
901	 0.183329811106881 
902	 0.183742890488268 
903	 0.184246299550886 
904	 0.184749926052667 
905	 0.185228140874866 
906	 0.185666715345985 
907	 0.186096388317458 
908	 0.186561336467045 
909	 0.187051439258253 
910	 0.187544633722575 
911	 0.188034318820037 
912	 0.188531585250781 
913	 0.189080373704567 
914	 0.189675539294792 
915	 0.190260845349588 
916	 0.190764899254199 
917	 0.191336676248956 
918	 0.191959447116771 
919	 0.192585067378116 
920	 0.193165042250731 
921	 0.193810795550483 
922	 0.194472943404052 
923	 0.19509763434 
924	 0.195674313380368 
925	 0.196279428377995 
926	 0.196959928964169 
927	 0.197686679745097 
928	 0.198313945191162 
929	 0.199046397850836 
930	 0.199834237632701 
931	 0.200604449416916 
932	 0.201398578987389 
933	 0.202130149198377 
934	 0.202799010499226 
935	 0.203469932133336 
936	 0.204310562233442 
937	 0.205055648653442 
938	 0.205760697143471 
939	 0.20655363458827 
940	 0.207398187473197 
941	 0.20826378126077 
942	 0.209141962255396 
943	 0.210024611571212 
944	 0.210861150778065 
945	 0.21166153139344 
946	 0.212489118461895 
947	 0.213393463644671 
948	 0.214268453303879 
949	 0.215147667746976 
950	 0.216036242803491 
951	 0.216921461932559 
952	 0.217792024606162 
953	 0.218580059132849 
954	 0.219367933827287 
955	 0.220304207005057 
956	 0.221409668244291 
957	 0.222414492617781 
958	 0.22332562534195 
959	 0.224298269641396 
960	 0.2251918897905 
961	 0.226083530696491 
962	 0.227023067824801 
963	 0.2280044614384 
964	 0.228883152423578 
965	 0.22990279791852 
966	 0.23099937332299 
967	 0.231942093994316 
968	 0.232925800699475 
969	 0.233975421147833 
970	 0.235055422788669 
971	 0.236118123874455 
972	 0.237287073871701 
973	 0.238507930428519 
974	 0.239605963680894 
975	 0.240464170300503 
976	 0.241662252685534 
977	 0.242941272245274 
978	 0.244101397351898 
979	 0.245119360283102 
980	 0.246438679930343 
981	 0.24769764086484 
982	 0.248817709772701 
983	 0.249951676702041 
984	 0.251250192073764 
985	 0.252408097570387 
986	 0.253546219006892 
987	 0.254937827311043 
988	 0.25627595744321 
989	 0.25744021704607 
990	 0.258597583472793 
991	 0.259991977690275 
992	 0.261515446914688 
993	 0.262774435653961 
994	 0.264019383817589 
995	 0.265562596516866 
996	 0.266669770004653 
997	 0.268023465463365 
998	 0.269452594377237 
999	 0.270660499751506 
1000	 0.272211381853227 
1001	 0.276764468210007 
1002	 0.278121890682684 
1003	 0.279553254104542 
1004	 0.280983936290812 
1005	 0.282438606342342 
1006	 0.283857746826936 
1007	 0.285287241312632 
1008	 0.286683990645189 
1009	 0.288041853932857 
1010	 0.289536564281007 
1011	 0.291036673994579 
1012	 0.292505753742928 
1013	 0.294007657986554 
1014	 0.29542448879061 
1015	 0.296845017930583 
1016	 0.298309086687356 
1017	 0.299775468103638 
1018	 0.301228209881225 
1019	 0.302736751761692 
1020	 0.304253236527071 
1021	 0.305667435831103 
1022	 0.307096968883275 
1023	 0.308558807497876 
1024	 0.30999070354917 
1025	 0.311478178852105 
1026	 0.312952022570622 
1027	 0.314392526315318 
1028	 0.315841545445755 
1029	 0.317255217315444 
1030	 0.318726893556679 
1031	 0.320156948676049 
1032	 0.321565323104276 
1033	 0.322905550217144 
1034	 0.324347432666559 
1035	 0.325748144559345 
1036	 0.327105389804369 
1037	 0.328568896000544 
1038	 0.330027387620707 
1039	 0.331432846949483 
1040	 0.332865591555291 
1041	 0.334279286322035 
1042	 0.335623505876754 
1043	 0.336964493506472 
1044	 0.338314790516417 
1045	 0.339671810288026 
1046	 0.341022753787573 
1047	 0.342347016703276 
1048	 0.343666503739915 
1049	 0.34505669135071 
1050	 0.346437353747438 
1051	 0.347804201143941 
1052	 0.349196656795827 
1053	 0.350531760458465 
1054	 0.351861939884638 
1055	 0.353187447300357 
1056	 0.354454402545512 
1057	 0.355737783907126 
1058	 0.356981889162186 
1059	 0.358250291543995 
1060	 0.359509282006306 
1061	 0.360837350900166 
1062	 0.362145638955281 
1063	 0.363455511601099 
1064	 0.364808238116406 
1065	 0.366083227893886 
1066	 0.367354009961413 
1067	 0.368612116863328 
1068	 0.369828471877399 
1069	 0.371092070733693 
1070	 0.372346373466454 
1071	 0.373598684030703 
1072	 0.374839146295391 
1073	 0.376089863208294 
1074	 0.377324411618223 
1075	 0.378547863239356 
1076	 0.379751733261233 
1077	 0.380923546490835 
1078	 0.382006446400951 
1079	 0.383124369546421 
1080	 0.384277209758228 
1081	 0.385414103019326 
1082	 0.386578440184807 
1083	 0.38772051524465 
1084	 0.388823178080953 
1085	 0.389939250589397 
1086	 0.391108404762735 
1087	 0.392162829536277 
1088	 0.393127565166319 
1089	 0.394178353710625 
1090	 0.395155264107056 
1091	 0.396077121062323 
1092	 0.397087100068024 
1093	 0.398027762506417 
1094	 0.398968727236267 
1095	 0.399984026654672 
1096	 0.400954082415299 
1097	 0.401854702541265 
1098	 0.402745783191058 
1099	 0.403602426336236 
1100	 0.404433145609916 
1101	 0.405229235770132 
1102	 0.406041403511297 
1103	 0.406862154988195 
1104	 0.407612652591442 
1105	 0.408353595174031 
1106	 0.409101990666925 
1107	 0.40984107463434 
1108	 0.410575380606749 
1109	 0.411276639874832 
1110	 0.411959395614607 
1111	 0.41261719702745 
1112	 0.413228192513567 
1113	 0.413812707066006 
1114	 0.414371770264978 
1115	 0.414944687174641 
1116	 0.41548862151368 
1117	 0.416035345973887 
1118	 0.416589869196523 
1119	 0.417156510717051 
1120	 0.417718331340334 
1121	 0.418184875455984 
1122	 0.418648907672353 
1123	 0.419131266906604 
1124	 0.419552359472782 
1125	 0.419934886033021 
1126	 0.420281860270824 
1127	 0.420608950570965 
1128	 0.420874133414198 
1129	 0.421100505921724 
1130	 0.421280347143632 
1131	 0.421446186304943 
1132	 0.421511426989747 
1133	 0.421510901231499 
1134	 0.421455072169431 
1135	 0.421340320031038 
1136	 0.421149487313703 
1137	 0.420900712834293 
1138	 0.420600557441221 
1139	 0.420210402319226 
1140	 0.419765157979529 
1141	 0.419189354326592 
1142	 0.418535632028112 
1143	 0.417774890933989 
1144	 0.416906211215742 
1145	 0.415950402028175 
1146	 0.414863098605998 
1147	 0.413780615364628 
1148	 0.412580523101621 
1149	 0.411426939711924 
1150	 0.410259531578624 
1151	 0.409124310452775 
1152	 0.407983374129638 
1153	 0.406901948075442 
1154	 0.40589392713609 
1155	 0.404904770543622 
1156	 0.404052780166087 
1157	 0.4032898470912 
1158	 0.402589661691644 
1159	 0.401976617929496 
1160	 0.40143789822526 
1161	 0.400958252082378 
1162	 0.400555359505666 
1163	 0.400242267446019 
1164	 0.399980535932876 
1165	 0.399783218046474 
1166	 0.399641489412732 
1167	 0.399534352219596 
1168	 0.399468359941497 
1169	 0.399418895061961 
1170	 0.399391443396736 
1171	 0.399391315396441 
1172	 0.399424298012836 
1173	 0.399471587614069 
1174	 0.399523306317186 
1175	 0.399629205818495 
1176	 0.399753890608971 
1177	 0.399932882501598 
1178	 0.400188120791293 
1179	 0.400429417146049 
1180	 0.400688697284087 
1181	 0.400975944514005 
1182	 0.401280153235415 
1183	 0.401599693156106 
1184	 0.401917683215037 
1185	 0.402270712410307 
1186	 0.402590895655118 
1187	 0.402905356551457 
1188	 0.403195151334234 
1189	 0.403473148684756 
1190	 0.403746166284626 
1191	 0.403993567670359 
1192	 0.404244209698937 
1193	 0.404498935708099 
1194	 0.404743422785517 
1195	 0.404982455290842 
1196	 0.405207309494245 
1197	 0.405410479865655 
1198	 0.405628152758664 
1199	 0.405845979802055 
1200	 0.406054214615505 
1201	 0.406270333724083 
1202	 0.406500115257282 
1203	 0.406721750394284 
1204	 0.40692373201091 
1205	 0.407159485567791 
1206	 0.407423700316885 
1207	 0.407665224028672 
1208	 0.407931062408984 
1209	 0.408158413736332 
1210	 0.408354529612629 
1211	 0.408551338548994 
1212	 0.408720485429897 
1213	 0.408906191469451 
1214	 0.4091045292027 
1215	 0.409288750703359 
1216	 0.40946928691219 
1217	 0.409656695921026 
1218	 0.409824758828349 
1219	 0.409978507030666 
1220	 0.410126540584868 
1221	 0.410265963071363 
1222	 0.410402750137927 
1223	 0.410528636245189 
1224	 0.410654688849815 
1225	 0.410786818577811 
1226	 0.410900998408363 
1227	 0.410993845952935 
1228	 0.411100504609545 
1229	 0.411208894927607 
1230	 0.411309282757309 
1231	 0.411425366369413 
1232	 0.411519979350744 
1233	 0.411600798130644 
1234	 0.41165042328381 
1235	 0.411738920501442 
1236	 0.411835406244711 
1237	 0.411921982558891 
1238	 0.412036401664924 
1239	 0.412112291584322 
1240	 0.412155277361217 
1241	 0.412210642875081 
1242	 0.412259461077669 
1243	 0.412305714701761 
1244	 0.412343750582154 
1245	 0.41239087709052 
1246	 0.412441616264922 
1247	 0.412489630248279 
1248	 0.412549674001882 
1249	 0.412599557656 
1250	 0.412639740968824 
1251	 0.412659964205105 
1252	 0.412658835806428 
1253	 0.412630155849302 
1254	 0.412612315575122 
1255	 0.412582390699003 
1256	 0.412544895278084 
1257	 0.412510146610607 
1258	 0.412460820549292 
1259	 0.412382138986163 
1260	 0.41232282641855 
1261	 0.412274592037677 
1262	 0.41221278769891 
1263	 0.412148682202237 
1264	 0.412083706161173 
1265	 0.412017991638975 
1266	 0.41193738524748 
1267	 0.411861479411719 
1268	 0.41176472480111 
1269	 0.411649647991815 
1270	 0.411503991824769 
1271	 0.411378808379655 
1272	 0.411253372351131 
1273	 0.411111473452574 
1274	 0.410978581487401 
1275	 0.410813352731695 
1276	 0.410618182486624 
1277	 0.410423088676848 
1278	 0.410224726554576 
1279	 0.409999199032403 
1280	 0.409751876291416 
1281	 0.409501044780117 
1282	 0.409235901780442 
1283	 0.408954444519241 
1284	 0.408670362872768 
1285	 0.408359311538105 
1286	 0.408037911813564 
1287	 0.407718162542209 
1288	 0.407374573765069 
1289	 0.407028493736628 
1290	 0.406654556239302 
1291	 0.406244689493373 
1292	 0.405844627508495 
1293	 0.405457285205183 
1294	 0.405016365824114 
1295	 0.404545170511292 
1296	 0.404069084270693 
1297	 0.40355930131936 
1298	 0.40303989695872 
1299	 0.402527405836805 
1300	 0.401980955028375 
1301	 0.401405652768387 
1302	 0.400811249541498 
1303	 0.400189703491896 
1304	 0.399569410146349 
1305	 0.398932211621778 
1306	 0.398244634621349 
1307	 0.397528311222354 
1308	 0.396784891117038 
1309	 0.396020371010384 
1310	 0.395236290469769 
1311	 0.394397864839069 
1312	 0.393532105882541 
1313	 0.392632697716036 
1314	 0.391683984766912 
1315	 0.390708696027079 
1316	 0.389735882472903 
1317	 0.38868795576957 
1318	 0.387580041102881 
1319	 0.386448682545418 
1320	 0.385272995335578 
1321	 0.384066733912164 
1322	 0.38285286642559 
1323	 0.38157977882053 
1324	 0.380223107979218 
1325	 0.378821451243595 
1326	 0.377404769581296 
1327	 0.375961594741366 
1328	 0.374500830524732 
1329	 0.373053722948363 
1330	 0.371530766617799 
1331	 0.369952484855278 
1332	 0.368350348679127 
1333	 0.366693430680681 
1334	 0.365050596351875 
1335	 0.363385316582952 
1336	 0.361727356758295 
1337	 0.360070335239401 
1338	 0.358422921613602 
1339	 0.356765899804437 
1340	 0.355117912306792 
1341	 0.353452155292443 
1342	 0.351838252606871 
1343	 0.350226062212684 
1344	 0.348681430525221 
1345	 0.347145510802989 
1346	 0.345674182121396 
1347	 0.34426955087546 
1348	 0.342859759745457 
1349	 0.341509393945668 
1350	 0.340199722154709 
1351	 0.338908351191459 
1352	 0.337635673945168 
1353	 0.336384059661518 
1354	 0.335160206933907 
1355	 0.333959652769262 
1356	 0.332775223303586 
1357	 0.331601593767466 
1358	 0.330475718623757 
1359	 0.329312891839422 
1360	 0.328137064012715 
1361	 0.326964805886918 
1362	 0.325796737219143 
1363	 0.324614415767599 
1364	 0.323445115233939 
1365	 0.322239132114959 
1366	 0.321022031503239 
1367	 0.319767105398809 
1368	 0.318486700944732 
1369	 0.317196418667881 
1370	 0.315830595355806 
1371	 0.314415344308314 
1372	 0.312946978264415 
1373	 0.311385335547952 
1374	 0.309746504586258 
1375	 0.308053103163624 
1376	 0.306229162843586 
1377	 0.304316688364008 
1378	 0.302268062630318 
1379	 0.300104039580781 
1380	 0.297827843460273 
1381	 0.295441160698899 
1382	 0.29291020822652 
1383	 0.290272293046088 
1384	 0.287500444347492 
1385	 0.284607004498453 
1386	 0.281595701609921 
1387	 0.278462669368934 
1388	 0.275228697065845 
1389	 0.271901310832914 
1390	 0.268408546653353 
1391	 0.264803227636326 
1392	 0.261084496803834 
1393	 0.257269305195359 
1394	 0.253390647145414 
1395	 0.249392066153446 
1396	 0.245402253792516 
1397	 0.241401527712414 
1398	 0.237317943680043 
1399	 0.233286502170531 
1400	 0.229246147836624 
1401	 0.225292907350471 
1402	 0.221327142158519 
1403	 0.21750702895709 
1404	 0.213748694853561 
1405	 0.210162660808972 
1406	 0.206657999563348 
1407	 0.203317240996702 
1408	 0.200097187417135 
1409	 0.197083101679909 
1410	 0.194220203331529 
1411	 0.191546832094757 
1412	 0.189061739900448 
1413	 0.186775181487891 
1414	 0.184639902241553 
1415	 0.182593539128098 
1416	 0.180729904821023 
1417	 0.178976784209359 
1418	 0.177307088821159 
1419	 0.175780475388762 
1420	 0.174317761421378 
1421	 0.172928872295437 
1422	 0.17163061489826 
1423	 0.170387174029589 
1424	 0.169209668727259 
1425	 0.168104000491536 
1426	 0.16705741392783 
1427	 0.166081110411891 
1428	 0.165141176372725 
1429	 0.164268737358709 
1430	 0.163419960778359 
1431	 0.162618924765564 
1432	 0.161827825224446 
1433	 0.161066593090018 
1434	 0.160327080484471 
1435	 0.159613440181728 
1436	 0.158908947451278 
1437	 0.158227951850999 
1438	 0.157564308608521 
1439	 0.15692220904453 
1440	 0.156267204427226 
1441	 0.155637804490843 
1442	 0.155025592497281 
1443	 0.154413019304931 
1444	 0.153834362834557 
1445	 0.153285130144921 
1446	 0.152781320207032 
1447	 0.152324788094601 
1448	 0.151916381259165 
1449	 0.151591759896539 
1450	 0.151325541475361 
1451	 0.15113070655874 
1452	 0.151005660475992 
1453	 0.150954240014618 
1454	 0.150977375337302 
1455	 0.151049239669749 
1456	 0.151213609430041 
1457	 0.151377863355632 
1458	 0.151601745392172 
1459	 0.151805076876216 
1460	 0.152041611957274 
1461	 0.152238852055229 
1462	 0.152429674398255 
1463	 0.152597733679536 
1464	 0.152742027282134 
1465	 0.152874397374608 
1466	 0.152985680107828 
1467	 0.15309318664304 
1468	 0.153175221193889 
1469	 0.153271855419833 
1470	 0.15337311013567 
1471	 0.153468123304877 
1472	 0.153569749841415 
1473	 0.153674816043453 
1474	 0.153762468653608 
1475	 0.153867137930624 
1476	 0.153983706098701 
1477	 0.154106362589337 
1478	 0.154246812064279 
1479	 0.154384219141957 
1480	 0.154526890999938 
1481	 0.154682644803627 
1482	 0.154843270546244 
1483	 0.15500837745867 
1484	 0.155196125364665 
1485	 0.155395372048348 
1486	 0.155601626655966 
1487	 0.155835108843834 
1488	 0.156052486238263 
1489	 0.156266841841559 
1490	 0.156488838672202 
1491	 0.15671463644729 
1492	 0.156936052066188 
1493	 0.157160370727026 
1494	 0.15737993018725 
1495	 0.157597566173662 
1496	 0.157807618041172 
1497	 0.158024646416382 
1498	 0.158221414707578 
1499	 0.158394967878791 
1500	 0.158577917375855 
1501	 0.158758834362144 
1502	 0.158925310015873 
1503	 0.159090175351063 
1504	 0.159246712122805 
1505	 0.159389938249699 
1506	 0.159529444612172 
1507	 0.159674073737856 
1508	 0.159820100193921 
1509	 0.159953506910103 
1510	 0.160079833874164 
1511	 0.160203531118611 
1512	 0.160319943690945 
1513	 0.1604341579367 
1514	 0.160563923045972 
1515	 0.16069515531391 
1516	 0.160819958020407 
1517	 0.160928645111423 
1518	 0.161023943058866 
1519	 0.161124672497835 
1520	 0.161214703453772 
1521	 0.161309031177705 
1522	 0.161408196006687 
1523	 0.161508300375773 
1524	 0.161606027599498 
1525	 0.161698465884851 
1526	 0.161796268628113 
1527	 0.161882614040607 
1528	 0.161960033910161 
1529	 0.162031790556373 
1530	 0.162104605674471 
1531	 0.162165647862745 
1532	 0.16220663149125 
1533	 0.162256574811933 
1534	 0.162300471032956 
1535	 0.162349077364931 
1536	 0.162406416912696 
1537	 0.162455025052163 
1538	 0.162508370897839 
1539	 0.162548204989589 
1540	 0.162569897318295 
1541	 0.162601174876279 
1542	 0.162626899546151 
1543	 0.162654648572647 
1544	 0.162699396261365 
1545	 0.162730947088161 
1546	 0.162759247446743 
1547	 0.162771083544458 
1548	 0.16278753064089 
1549	 0.162772862051666 
1550	 0.162770855800062 
1551	 0.16278839241857 
1552	 0.162798259595674 
1553	 0.162813073498173 
1554	 0.162808007601289 
1555	 0.162783882129953 
1556	 0.162775616662824 
1557	 0.162756107912862 
1558	 0.162726154999695 
1559	 0.162715142448968 
1560	 0.162699224509205 
1561	 0.16267343428954 
1562	 0.162659086401663 
1563	 0.162662889919247 
1564	 0.162641422240414 
1565	 0.162613476383235 
1566	 0.162575216944429 
1567	 0.162518315980352 
1568	 0.162472228016307 
1569	 0.162418423865196 
1570	 0.162378802973887 
1571	 0.162348606935313 
1572	 0.162318792961755 
1573	 0.162294181554647 
1574	 0.162270563952982 
1575	 0.162262088239006 
1576	 0.162224125382772 
1577	 0.162174410845686 
1578	 0.16212409068409 
1579	 0.162051856099656 
1580	 0.161989526103438 
1581	 0.161932522983972 
1582	 0.161876406726885 
1583	 0.161823947084104 
1584	 0.161758443877711 
1585	 0.161692041210271 
1586	 0.161620587451058 
1587	 0.161531932002895 
1588	 0.161451492792447 
1589	 0.161378574009577 
1590	 0.161299809864968 
1591	 0.161227233773801 
1592	 0.161134840531213 
1593	 0.161019045219309 
1594	 0.160919570707088 
1595	 0.160816131452192 
1596	 0.160713755905035 
1597	 0.160632593024242 
1598	 0.160532443378786 
1599	 0.160417999101202 
1600	 0.160300133558366 
1601	 0.160166655787253 
1602	 0.160044469118359 
1603	 0.159926730820637 
1604	 0.159803478188221 
1605	 0.159690010924704 
1606	 0.15956364626729 
1607	 0.159424047121274 
1608	 0.159282937315016 
1609	 0.159145148433957 
1610	 0.158999602029216 
1611	 0.158832972068631 
1612	 0.158669071005134 
1613	 0.158510274125371 
1614	 0.158342018238317 
1615	 0.158182033086131 
1616	 0.158028596030429 
1617	 0.157861270943993 
1618	 0.157689460149447 
1619	 0.157530692882569 
1620	 0.157369237978199 
1621	 0.157200307921303 
1622	 0.157030221806303 
1623	 0.156847303396301 
1624	 0.156650402841984 
1625	 0.156465274860058 
1626	 0.156273343504747 
1627	 0.156093682159231 
1628	 0.155929869044854 
1629	 0.155747573479009 
1630	 0.155556526089307 
1631	 0.155378278111281 
1632	 0.155202266189355 
1633	 0.155015268084239 
1634	 0.154836246495945 
1635	 0.154641354901435 
1636	 0.154426206332918 
1637	 0.154219616762746 
1638	 0.154014373791239 
1639	 0.15380486653804 
1640	 0.153586266463838 
1641	 0.15338174760687 
1642	 0.153184630851051 
1643	 0.152980421018369 
1644	 0.152780091347923 
1645	 0.152576366134342 
1646	 0.152356030589598 
1647	 0.152165287088178 
1648	 0.152000183414126 
1649	 0.151809228173249 
1650	 0.151627507569004 
1651	 0.151425242758115 
1652	 0.151195662638135 
1653	 0.150976622487783 
1654	 0.150751957020888 
1655	 0.150538149223461 
1656	 0.15032182295016 
1657	 0.150118648183651 
1658	 0.14994316081128 
1659	 0.149731166656648 
1660	 0.149502832345748 
1661	 0.14928566823202 
1662	 0.149049188388184 
1663	 0.148829563033425 
1664	 0.148634346966061 
1665	 0.148418995509486 
1666	 0.148185457380614 
1667	 0.147974019855098 
1668	 0.147771570279286 
1669	 0.147563807576502 
1670	 0.147367050438197 
1671	 0.147164164366689 
1672	 0.146947665275615 
1673	 0.146747319794798 
1674	 0.146556547187205 
1675	 0.146367697145876 
1676	 0.14619721706539 
1677	 0.146000761182815 
1678	 0.145793533946287 
1679	 0.145589290547138 
1680	 0.145357048379826 
1681	 0.145159537277291 
1682	 0.144979266158293 
1683	 0.144806531069592 
1684	 0.144669610907747 
1685	 0.14449313621321 
1686	 0.144301662184048 
1687	 0.144116098623739 
1688	 0.143907762969721 
1689	 0.143715560233637 
1690	 0.143538826785898 
1691	 0.143359747707523 
1692	 0.14318158124761 
1693	 0.142999450404747 
1694	 0.142828786300452 
1695	 0.142637841277825 
1696	 0.142416379582895 
1697	 0.142230391437919 
1698	 0.142055916843812 
1699	 0.141875669732342 
1700	 0.141711983970959 
1701	 0.141545930578567 
1702	 0.141370272283211 
1703	 0.141198714549947 
1704	 0.141054091998865 
1705	 0.140869985101699 
1706	 0.14065030038019 
1707	 0.140460081856071 
1708	 0.140264750856468 
1709	 0.140076143814356 
1710	 0.139900176802687 
1711	 0.139730689970674 
1712	 0.139563883565432 
1713	 0.139392136776831 
1714	 0.139242148962639 
1715	 0.139064415272489 
1716	 0.138848705096937 
1717	 0.138676903782894 
1718	 0.138522558733449 
1719	 0.138357054418953 
1720	 0.138205941544315 
1721	 0.138053146930793 
1722	 0.137885389507028 
1723	 0.137729513779445 
1724	 0.137595829581234 
1725	 0.137447062972833 
1726	 0.13728625604732 
1727	 0.137134774491135 
1728	 0.136985929100251 
1729	 0.136837464864232 
1730	 0.136696496557246 
1731	 0.136542423436759 
1732	 0.136376054311289 
1733	 0.136229224358268 
1734	 0.136087438777267 
1735	 0.135937207561315 
1736	 0.135796106700324 
1737	 0.135650991496596 
1738	 0.135484164273841 
1739	 0.135349823512117 
1740	 0.135241736123776 
1741	 0.135117372499763 
1742	 0.134996243251368 
1743	 0.134881089991178 
1744	 0.134772501967708 
1745	 0.134632664524351 
1746	 0.134489990688687 
1747	 0.134293256749423 
1748	 0.134121215634613 
1749	 0.133960568490013 
1750	 0.133827356177238 
1751	 0.133721238850022 
1752	 0.133597984512391 
1753	 0.133487521929446 
1754	 0.133365785651657 
1755	 0.133213775479059 
1756	 0.133065339419152 
1757	 0.132913886514525 
1758	 0.132763862919466 
1759	 0.132647455229525 
1760	 0.132547933433475 
1761	 0.132431738819408 
1762	 0.13231462938285 
1763	 0.132199474599889 
1764	 0.13207905054374 
1765	 0.131971928563944 
1766	 0.1318467011233 
1767	 0.131707721830816 
1768	 0.131594114230077 
1769	 0.13147427037236 
1770	 0.131370393345755 
1771	 0.131291313692359 
1772	 0.131187785096638 
1773	 0.131083176488857 
1774	 0.130997444483709 
1775	 0.130890790146686 
1776	 0.130771406498295 
1777	 0.130646591330511 
1778	 0.130541844202911 
1779	 0.130476692160515 
1780	 0.130382311614471 
1781	 0.130300465189001 
1782	 0.130230892112589 
1783	 0.130131858007174 
1784	 0.130049856047805 
1785	 0.129968478740361 
1786	 0.129901486550346 
1787	 0.129858206673032 
1788	 0.12979605825113 
1789	 0.129740437380065 
1790	 0.129681276719265 
1791	 0.12960453783378 
1792	 0.129531448864761 
1793	 0.129460362969469 
1794	 0.129391284080371 
1795	 0.129302464782062 
1796	 0.129243311969142 
1797	 0.129225619519899 
1798	 0.129185167642714 
1799	 0.129140392675982 
1800	 0.129102970421709 
1801	 0.129004478846379 
1802	 0.128998527715279 
1803	 0.12898967811928 
1804	 0.1289852900542 
1805	 0.128990160539546 
1806	 0.128988606444719 
1807	 0.128972788069563 
1808	 0.12895706738922 
1809	 0.128946840854389 
1810	 0.128929336584853 
1811	 0.128899876816516 
1812	 0.128876217889285 
1813	 0.12884900400139 
1814	 0.12883764546991 
1815	 0.128832886521224 
1816	 0.128801579884683 
1817	 0.12877410700917 
1818	 0.128733447023663 
1819	 0.128712801991079 
1820	 0.128700369197651 
1821	 0.128686977633871 
1822	 0.128665100374516 
1823	 0.128641765146748 
1824	 0.128589407894448 
1825	 0.128513574091456 
1826	 0.128476314994563 
1827	 0.128461588925862 
1828	 0.128416637759229 
1829	 0.128369515140702 
1830	 0.128330093004485 
1831	 0.128287429416863 
1832	 0.1282065541693 
1833	 0.128153731850038 
1834	 0.128099528626921 
1835	 0.128040936540315 
1836	 0.127972872143405 
1837	 0.127935731680304 
1838	 0.127912527526881 
1839	 0.12785455270862 
1840	 0.127778682789761 
1841	 0.12771120630544 
1842	 0.12762806696325 
1843	 0.127518004744901 
1844	 0.127419845685846 
1845	 0.127321397512843 
1846	 0.127171103337254 
1847	 0.127019631086161 
1848	 0.126893680413437 
1849	 0.126735592862168 
1850	 0.126572867412411 
1851	 0.126414553024112 
1852	 0.12625696836818 
1853	 0.126054527980496 
1854	 0.125844941445772 
1855	 0.125646684337208 
1856	 0.125407126463993 
1857	 0.125118120425102 
1858	 0.124812469708391 
1859	 0.124488456723355 
1860	 0.124149720822476 
1861	 0.123781535971483 
1862	 0.123429148343794 
1863	 0.12308805930741 
1864	 0.122714051066061 
1865	 0.122296011707584 
1866	 0.12182873401369 
1867	 0.121328488455569 
1868	 0.120780097660892 
1869	 0.120189782961669 
1870	 0.119590439653511 
1871	 0.118946678353233 
1872	 0.118258840831228 
1873	 0.117535342837452 
1874	 0.116790333726902 
1875	 0.115985229159014 
1876	 0.115145473895812 
1877	 0.114262004415939 
1878	 0.113335700045339 
1879	 0.112397186358077 
1880	 0.111393520763463 
1881	 0.110329704384413 
1882	 0.10923407858025 
1883	 0.108098710395585 
1884	 0.106884858376068 
1885	 0.105663747819546 
1886	 0.104427112142255 
1887	 0.103096172621182 
1888	 0.101728690041387 
1889	 0.100326185118608 
1890	 9.88864002623453E-02 
1891	 9.74688615702932E-02 
1892	 9.60331200853521E-02 
1893	 9.46312731275795E-02 
1894	 9.32461482451693E-02 
1895	 9.18709790601594E-02 
1896	 9.04698591862361E-02 
1897	 8.91172197821657E-02 
1898	 8.77750740688018E-02 
1899	 8.64382393690348E-02 
1900	 8.51924976702049E-02 
1901	 8.39848547501012E-02 
1902	 0.082844363139442 
1903	 8.17710493676113E-02 
1904	 8.07499873064766E-02 
1905	 7.97686618412658E-02 
1906	 7.88904057949117E-02 
1907	 7.80724189962636E-02 
1908	 7.73104049597948E-02 
1909	 7.66263713000605E-02 
1910	 7.59781308035892E-02 
1911	 7.53710261516532E-02 
1912	 7.48064325407645E-02 
1913	 7.42663423382155E-02 
1914	 7.37586798203295E-02 
1915	 7.32879801416981E-02 
1916	 7.28554199913879E-02 
1917	 7.24369532246021E-02 
1918	 0.072056862424057 
1919	 7.17063186287324E-02 
1920	 7.13789711564268E-02 
1921	 7.10535058350218E-02 
1922	 7.07312292264929E-02 
1923	 7.04333139582158E-02 
1924	 7.01726630932769E-02 
1925	 6.99308431071441E-02 
1926	 6.97292410374406E-02 
1927	 6.95782664104312E-02 
1928	 6.94353054310344E-02 
1929	 6.93109409765663E-02 
1930	 6.91818783126886E-02 
1931	 6.90598900788243E-02 
1932	 0.06896878143152 
1933	 6.88853290898891E-02 
1934	 6.88068349080659E-02 
1935	 6.87584255707938E-02 
1936	 6.87375941040461E-02 
1937	 6.87183221353724E-02 
1938	 0.068712831464904 
1939	 6.87312461891861E-02 
1940	 6.87556782334213E-02 
1941	 6.88098952339405E-02 
1942	 6.88929462245094E-02 
1943	 6.89808436935888E-02 
1944	 6.90862217563132E-02 
1945	 6.92073901668065E-02 
1946	 6.93316486629479E-02 
1947	 6.94638763981346E-02 
1948	 6.96084265834306E-02 
1949	 6.97528986777413E-02 
1950	 6.99250510923438E-02 
1951	 7.01222218944135E-02 
1952	 7.03283459241093E-02 
1953	 7.05454377086722E-02 
1954	 7.07499245232875E-02 
1955	 7.09162489610688E-02 
1956	 0.071087582179666 
1957	 7.12705281013733E-02 
1958	 7.14602378499999E-02 
1959	 0.07162618799295 
1960	 7.18003877330968E-02 
1961	 7.19588024890756E-02 
1962	 7.20760602894511E-02 
1963	 7.22196321249694E-02 
1964	 7.23678723578379E-02 
1965	 7.25207949210337E-02 
1966	 7.27043599756899E-02 
1967	 7.28964243145584E-02 
1968	 7.30749584644795E-02 
1969	 7.32671103838547E-02 
1970	 7.34450728284093E-02 
1971	 7.35971449834195E-02 
1972	 7.37692149435859E-02 
1973	 7.39517597630484E-02 
1974	 7.41364749583829E-02 
1975	 7.43275585587612E-02 
1976	 7.45146087794676E-02 
1977	 7.47150725955771E-02 
1978	 7.49014899113308E-02 
1979	 7.50821009600708E-02 
1980	 7.52781997563241E-02 
1981	 7.54748200567623E-02 
1982	 7.56714979967873E-02 
1983	 0.075874790640456 
1984	 7.60892820819051E-02 
1985	 7.62989394566689E-02 
1986	 7.65195844964844E-02 
1987	 7.67230883268904E-02 
1988	 7.69129588975822E-02 
1989	 0.077107120117817 
1990	 7.73067272242892E-02 
1991	 7.74977359754486E-02 
1992	 7.77042169966869E-02 
1993	 0.077935316192426 
1994	 7.81425007542513E-02 
1995	 7.83375366305804E-02 
1996	 7.85431323077643E-02 
1997	 7.87567200124576E-02 
1998	 7.89526851698025E-02 
1999	 0.079145847756368 
2000	 7.93367788966449E-02 
2001	 7.95187036616741E-02 
2002	 7.96842487313011E-02 
2003	 7.98588790142731E-02 
2004	 8.00494902066417E-02 
2005	 8.02297298340028E-02 
2006	 8.04053216536651E-02 
2007	 8.05843664450229E-02 
2008	 8.07578734447953E-02 
2009	 8.09420595008522E-02 
2010	 8.11398617367425E-02 
2011	 0.081326536303744 
2012	 8.15134523108432E-02 
2013	 8.16994280905305E-02 
2014	 8.18834657281451E-02 
2015	 0.082050314494462 
2016	 0.082234080382274 
2017	 8.24454341129583E-02 
2018	 0.082637482087407 
2019	 8.28375624172938E-02 
2020	 8.30192203389808E-02 
2021	 8.31821355847614E-02 
2022	 8.33564548038496E-02 
2023	 8.35175657176072E-02 
2024	 8.36996152871092E-02 
2025	 8.39013722074672E-02 
2026	 8.40906285023664E-02 
2027	 8.42753978871206E-02 
2028	 8.44788387057632E-02 
2029	 8.46750541706598E-02 
2030	 8.48716153537878E-02 
2031	 0.085058027010831 
2032	 8.52431197297294E-02 
2033	 8.54269531674107E-02 
2034	 8.56013152412993E-02 
2035	 8.57742656415453E-02 
2036	 8.59534325092111E-02 
2037	 8.61239863444228E-02 
2038	 8.62789345014639E-02 
2039	 8.64407381049749E-02 
2040	 8.66113439345877E-02 
2041	 8.67684152110134E-02 
2042	 8.69257266452166E-02 
2043	 8.70739093921331E-02 
2044	 8.72352745659978E-02 
2045	 8.74016576357359E-02 
2046	 8.75626448194292E-02 
2047	 8.77324901831327E-02 
2048	 8.78916413334962E-02 
2049	 8.80349198506192E-02 
2050	 8.81874373379007E-02 
2051	 8.83436813203987E-02 
2052	 8.84991515681664E-02 
2053	 8.86620050877834E-02 
2054	 8.88152453949115E-02 
2055	 8.89590418174919E-02 
2056	 8.91059824549295E-02 
2057	 8.92557484243431E-02 
2058	 8.94044077245132E-02 
2059	 8.95446762877933E-02 
2060	 8.96849193003883E-02 
2061	 8.98270647463422E-02 
2062	 8.99601387856201E-02 
2063	 0.09009955487001 
2064	 9.02497945100132E-02 
2065	 9.03919452546029E-02 
2066	 9.05324361998187E-02 
2067	 9.06650862726749E-02 
2068	 9.07901241040733E-02 
2069	 9.09208944065467E-02 
2070	 9.10431197479724E-02 
2071	 9.11547700250421E-02 
2072	 0.091276899879179 
2073	 9.13969602111595E-02 
2074	 9.15256806573895E-02 
2075	 9.16633939908902E-02 
2076	 0.09179485498918 
2077	 0.091932409611495 
2078	 9.20625958036822E-02 
2079	 9.21818526234756E-02 
2080	 9.23096783729515E-02 
2081	 9.24441109400481E-02 
2082	 9.25714292176144E-02 
2083	 9.26973665598713E-02 
2084	 0.092825769318568 
2085	 9.29490295325677E-02 
2086	 9.30653374185795E-02 
2087	 9.31826493243509E-02 
2088	 9.32949655131562E-02 
2089	 9.34179746245567E-02 
2090	 9.35568563314076E-02 
2091	 9.36658405772682E-02 
2092	 9.37692874230771E-02 
2093	 9.38678974757103E-02 
2094	 9.39159924756034E-02 
2095	 9.40138714323119E-02 
2096	 9.41455611991622E-02 
2097	 9.42705609540914E-02 
2098	 9.44142872164178E-02 
2099	 9.45683079073349E-02 
2100	 9.46900965987183E-02 
2101	 9.47945801028815E-02 
2102	 9.49023397414896E-02 
2103	 9.49916663051224E-02 
2104	 9.50948285094864E-02 
2105	 9.51955409570618E-02 
2106	 0.095310597721517 
2107	 9.54381379753752E-02 
2108	 9.55607748306538E-02 
2109	 9.56917072266547E-02 
2110	 9.58217059011028E-02 
2111	 9.59462051988222E-02 
2112	 9.60749084588067E-02 
2113	 0.096201957355413 
2114	 9.63470548854951E-02 
2115	 9.64802429385219E-02 
2116	 9.66202633502874E-02 
2117	 9.67330714335056E-02 
2118	 9.68246056939069E-02 
2119	 9.69373875781608E-02 
2120	 9.70466958380108E-02 
2121	 9.71511895877612E-02 
2122	 9.72764813257665E-02 
2123	 9.73757475381601E-02 
2124	 9.74344232491671E-02 
2125	 9.75237056562373E-02 
2126	 0.097620522131493 
2127	 9.77216641443563E-02 
2128	 9.78467764270892E-02 
2129	 9.79545317460823E-02 
2130	 9.80637335888006E-02 
2131	 9.81579889072851E-02 
2132	 9.82400836347963E-02 
2133	 9.83066234394363E-02 
2134	 0.098377527189667 
2135	 9.84427788817942E-02 
2136	 0.098494779603603 
2137	 9.85339467189603E-02 
2138	 9.85842087827246E-02 
2139	 9.86284046955926E-02 
2140	 9.86709982093414E-02 
2141	 9.87368051055366E-02 
2142	 9.87701101224413E-02 
2143	 9.87745480888433E-02 
2144	 9.87849893040748E-02 
2145	 9.87769402438356E-02 
2146	 9.87785206461116E-02 
2147	 9.87908751129746E-02 
2148	 9.87888046737392E-02 
2149	 9.87994521640684E-02 
2150	 9.88241819985793E-02 
2151	 9.88224904611561E-02 
2152	 9.88089990084263E-02 
2153	 9.88054420758956E-02 
2154	 9.87845617646111E-02 
2155	 9.87798836613234E-02 
2156	 9.88088523403605E-02 
2157	 9.88010497990127E-02 
2158	 9.87811882524801E-02 
2159	 0.098752187382318 
2160	 9.86919816503458E-02 
2161	 0.098644686297591 
2162	 9.85873167011498E-02 
2163	 9.85468081081646E-02 
2164	 9.85027806820772E-02 
2165	 9.85013029977802E-02 
2166	 9.84690254709486E-02 
2167	 9.84422069033776E-02 
2168	 9.84059548211553E-02 
2169	 9.83525483307207E-02 
2170	 9.83096562525011E-02 
2171	 9.82719026340973E-02 
2172	 9.82330578480711E-02 
2173	 9.81950842544121E-02 
2174	 9.81544803181018E-02 
2175	 9.81146705097371E-02 
2176	 9.80718799633147E-02 
2177	 9.80173157237938E-02 
2178	 9.79760748004647E-02 
2179	 9.79522832914278E-02 
2180	 0.097912005137778 
2181	 9.78854185561097E-02 
2182	 0.097832549781046 
2183	 9.77385587132353E-02 
2184	 9.76548928455378E-02 
2185	 9.75956809532192E-02 
2186	 9.75397708800871E-02 
2187	 9.74824198841821E-02 
2188	 9.74528847713429E-02 
2189	 9.74005666889275E-02 
2190	 9.73213013087565E-02 
2191	 9.72664618542216E-02 
2192	 9.72206027174294E-02 
2193	 9.71827091788242E-02 
2194	 9.71550099870452E-02 
2195	 9.71263558250655E-02 
2196	 0.097125384128018 
2197	 9.70873395437966E-02 
2198	 9.70167881954866E-02 
2199	 0.096966450903668 
2200	 9.69089481372584E-02 
2201	 9.68502965501478E-02 
2202	 9.68028758525856E-02 
2203	 9.67582077881839E-02 
2204	 9.67064666521761E-02 
2205	 9.66395547195789E-02 
2206	 0.09658217008849 
2207	 9.65253996697709E-02 
2208	 9.64846440704869E-02 
2209	 9.64446498291385E-02 
2210	 9.64177722156045E-02 
2211	 9.64204283992222E-02 
2212	 9.64006017664635E-02 
2213	 9.63686357163523E-02 
2214	 9.63518448715946E-02 
2215	 0.096340123443196 
2216	 9.63209932967397E-02 
2217	 9.63095267517321E-02 
2218	 0.096292929214966 
2219	 9.62706241836417E-02 
2220	 0.096243181944802 
2221	 0.096206496618431 
2222	 9.61783562418641E-02 
2223	 9.61680792377886E-02 
2224	 9.61444837636256E-02 
2225	 0.096137200112531 
2226	 9.61559180593704E-02 
2227	 9.61555295859481E-02 
2228	 9.61501324954224E-02 
2229	 9.61410651399352E-02 
2230	 9.61296534808247E-02 
2231	 0.09611391197888 
2232	 9.60917846994623E-02 
2233	 9.60677490273362E-02 
2234	 9.60462977307994E-02 
2235	 9.60153366298956E-02 
2236	 9.59697336772316E-02 
2237	 9.59305889995674E-02 
2238	 9.58922998744174E-02 
2239	 9.58477841057566E-02 
2240	 9.58025932660971E-02 
2241	 9.57575452260717E-02 
2242	 9.57061588105531E-02 
2243	 0.095658154501006 
2244	 9.56112397062249E-02 
2245	 9.55654298152448E-02 
2246	 9.55304899453151E-02 
2247	 9.54759174776778E-02 
2248	 9.54354734290622E-02 
2249	 9.54131801103437E-02 
2250	 9.53535333610445E-02 
2251	 9.52763843864766E-02 
2252	 9.52036637094322E-02 
2253	 9.50930007082373E-02 
2254	 9.50374370946331E-02 
2255	 9.50194172109832E-02 
2256	 0.094980863974399 
2257	 9.49643560468859E-02 
2258	 9.49287231771595E-02 
2259	 9.48767944854819E-02 
2260	 9.48217708705988E-02 
2261	 9.47547342611015E-02 
2262	 9.47005261921554E-02 
2263	 9.46482872366027E-02 
2264	 9.45917255058954E-02 
2265	 9.45489374372598E-02 
2266	 0.094496338686115 
2267	 9.44489298291486E-02 
2268	 9.43682366124113E-02 
2269	 9.42629377012181E-02 
2270	 9.41509514363649E-02 
2271	 0.094045360844542 
2272	 9.39423058317514E-02 
2273	 9.39108376501019E-02 
2274	 9.38814943353399E-02 
2275	 9.38045952633419E-02 
2276	 9.37048702756377E-02 
2277	 9.36218446913813E-02 
2278	 9.35090053154691E-02 
2279	 9.34194718670895E-02 
2280	 9.33629783398133E-02 
2281	 9.32712914763396E-02 
2282	 9.31503569974058E-02 
2283	 9.30570171395836E-02 
2284	 9.29864317926275E-02 
2285	 9.28763654856795E-02 
2286	 9.27552729622337E-02 
2287	 9.26330993662663E-02 
2288	 9.24700438492081E-02 
2289	 9.23379107483705E-02 
2290	 0.092233358541189 
2291	 9.21198868660864E-02 
2292	 0.092011593187021 
2293	 9.18921236320024E-02 
2294	 9.17700391987895E-02 
2295	 9.16366622087652E-02 
2296	 0.091483024639765 
2297	 9.13380728744668E-02 
2298	 9.12124516720438E-02 
2299	 9.11088120653345E-02 
2300	 9.09934451402073E-02 
2301	 9.08826570781688E-02 
2302	 9.07313104543651E-02 
2303	 9.05426186367497E-02 
2304	 9.04229342638023E-02 
2305	 0.090288825422784 
2306	 9.01326319829961E-02 
2307	 8.99814910447836E-02 
2308	 8.98394142303505E-02 
2309	 8.96676853434589E-02 
2310	 8.95068629116212E-02 
2311	 8.93786442187985E-02 
2312	 8.92250852820148E-02 
2313	 8.90454113452017E-02 
2314	 8.88687162389911E-02 
2315	 8.86970275737956E-02 
2316	 8.85197398023846E-02 
2317	 8.83113775994907E-02 
2318	 8.81374631668345E-02 
2319	 8.79890144777335E-02 
2320	 8.78282393568472E-02 
2321	 8.76850771313249E-02 
2322	 8.75357418500125E-02 
2323	 8.73645922652805E-02 
2324	 8.72129815229457E-02 
2325	 8.70788499099951E-02 
2326	 8.69242110775528E-02 
2327	 8.67589238684537E-02 
2328	 8.66288451197448E-02 
2329	 8.64582829992195E-02 
2330	 8.62851730414123E-02 
2331	 8.61003798502217E-02 
2332	 8.59048189748561E-02 
2333	 8.57371274006155E-02 
2334	 8.55486219807101E-02 
2335	 8.53948194804718E-02 
2336	 8.52611109510211E-02 
2337	 8.50872619256055E-02 
2338	 8.49148101257677E-02 
2339	 8.47381682889338E-02 
2340	 0.084560887167043 
2341	 8.43674980723089E-02 
2342	 8.42085155433911E-02 
2343	 8.40398160464024E-02 
2344	 8.38269862737697E-02 
2345	 8.36577785945141E-02 
2346	 8.35132711573478E-02 
2347	 8.33399250919198E-02 
2348	 0.083187901482785 
2349	 8.29941892889778E-02 
2350	 8.27721558963802E-02 
2351	 8.25413537043563E-02 
2352	 8.22786340567719E-02 
2353	 8.20381032060105E-02 
2354	 8.17790958693407E-02 
2355	 8.15545095964953E-02 
2356	 8.13466497878823E-02 
2357	 8.11359753477351E-02 
2358	 8.09616247307543E-02 
2359	 8.07562350838315E-02 
2360	 8.05650179038527E-02 
2361	 8.03314669293809E-02 
2362	 8.00309319714364E-02 
2363	 0.079773614770198 
2364	 7.94767217119496E-02 
2365	 7.92451551955859E-02 
2366	 7.90922950572411E-02 
2367	 7.89173818895601E-02 
2368	 0.078774909632158 
2369	 0.078615473098437 
2370	 7.84735509320206E-02 
2371	 7.82710165235647E-02 
2372	 7.80285680250883E-02 
2373	 7.77388963953061E-02 
2374	 7.74072774778439E-02 
2375	 7.71572138391272E-02 
2376	 7.69412907334536E-02 
2377	 7.66946905393217E-02 
2378	 0.076535706146826 
2379	 7.63374948430629E-02 
2380	 0.07610842551565 
2381	 7.59259979321448E-02 
2382	 7.57066692965928E-02 
2383	 7.54659347991095E-02 
2384	 7.51660520170247E-02 
2385	 7.49137441998416E-02 
2386	 7.47295267366846E-02 
2387	 7.44870564846424E-02 
2388	 7.42470955180668E-02 
2389	 7.41016196129382E-02 
2390	 0.07387040032313 
2391	 7.36438451503074E-02 
2392	 7.36004116742771E-02 
2393	 7.33964236407159E-02 
2394	 7.31511305205388E-02 
2395	 7.29623688469188E-02 
2396	 0.072632693122539 
2397	 7.23491520964638E-02 
2398	 7.20694944769683E-02 
2399	 7.18208442204139E-02 
2400	 7.17522580600503E-02 
2401	 7.16705223473398E-02 
2402	 7.15538510516544E-02 
2403	 7.14653871026412E-02 
2404	 7.13225509594834E-02 
2405	 7.11558285345821E-02 
2406	 7.10241181773589E-02 
2407	 7.08698072298247E-02 
2408	 7.07092479520567E-02 
2409	 7.05157037106425E-02 
2410	 7.03100925060349E-02 
2411	 7.02082088993273E-02 
2412	 7.00541977225597E-02 
2413	 6.98808366363555E-02 
2414	 6.97325842301332E-02 
2415	 6.95644991785331E-02 
2416	 6.93943944918225E-02 
2417	 6.91595726307495E-02 
2418	 6.89685833722942E-02 
2419	 6.88415601606001E-02 
2420	 6.86651800685269E-02 
2421	 6.84506057908129E-02 
2422	 6.83293188391733E-02 
2423	 6.82527589181645E-02 
2424	 6.81099328446977E-02 
2425	 6.80153350959114E-02 
2426	 0.067826043663635 
2427	 0.06751242406904 
2428	 6.72700364244312E-02 
2429	 6.70269536158305E-02 
2430	 6.68376286303372E-02 
2431	 6.66768854221565E-02 
2432	 6.65375623738236E-02 
2433	 6.64518911027989E-02 
2434	 0.066284707599182 
2435	 6.61020127069726E-02 
2436	 6.59563134460702E-02 
2437	 6.57895928650379E-02 
2438	 6.56420983775587E-02 
2439	 6.55489106251529E-02 
2440	 0.065395321801922 
2441	 6.52052150879523E-02 
2442	 0.065014063624586 
2443	 6.47769794653142E-02 
2444	 6.45950138122975E-02 
2445	 0.064445542218492 
2446	 6.42589308603608E-02 
2447	 6.41246016251138E-02 
2448	 6.39115977975349E-02 
2449	 6.35823448208741E-02 
2450	 6.32913337365267E-02 
2451	 6.29519217266158E-02 
2452	 0.062737298961904 
2453	 6.25778971000381E-02 
2454	 6.24674698206778E-02 
2455	 6.25367669093461E-02 
2456	 6.24887010690632E-02 
2457	 6.24433494716447E-02 
2458	 6.22698926946973E-02 
2459	 0.061915561436879 
2460	 6.16761976126363E-02 
2461	 0.061411239417861 
2462	 6.12436441665204E-02 
2463	 6.11555290809587E-02 
2464	 6.11051603244422E-02 
2465	 6.11412092558117E-02 
2466	 0.061059266066827 
2467	 6.10699461567613E-02 
2468	 6.08691159663708E-02 
2469	 6.03970000136209E-02 
2470	 6.00256960697344E-02 
2471	 5.97138078415277E-02 
2472	 0.059519990016339 
2473	 0.059628605439457 
2474	 5.96676850186152E-02 
2475	 5.95200621726917E-02 
2476	 5.95600125313571E-02 
2477	 5.93976096839162E-02 
2478	 5.90459763889559E-02 
2479	 5.88557871657655E-02 
2480	 5.86920556020751E-02 
2481	 5.83876454886897E-02 
2482	 5.82276916512335E-02 
2483	 5.82324415393281E-02 
2484	 5.81060064884787E-02 
2485	 0.058003973147317 
2486	 5.78056710978155E-02 
2487	 5.75611040946781E-02 
2488	 5.74405329510401E-02 
2489	 0.05719562495516 
2490	 5.72257456245534E-02 
2491	 0.057405066843812 
2492	 5.71294797435631E-02 
2493	 5.69571481332385E-02 
2494	 0.056884112864117 
2495	 5.64827653161303E-02 
2496	 5.62655939853118E-02 
2497	 5.61437543424662E-02 
2498	 5.57368705113427E-02 
2499	 5.55575728997346E-02 
2500	 0.055469776573995 
