Wavelength	lmw-9-300002.asd
350	 6.03452631295069E-02 
351	 6.71152787662584E-02 
352	 6.24852087939436E-02 
353	 4.83162663383245E-02 
354	 5.12691063492821E-02 
355	 4.72268317383829E-02 
356	 4.36516986928191E-02 
357	 4.93361411439779E-02 
358	 4.76066670954226E-02 
359	 4.38597280608984E-02 
360	 4.06146974867267E-02 
361	 3.83272876864628E-02 
362	 3.96017485543448E-02 
363	 4.55126308471898E-02 
364	 0.050896037022859 
365	 4.07513766573428E-02 
366	 3.79094762266685E-02 
367	 3.95998909370536E-02 
368	 3.84075663275693E-02 
369	 3.95958891590678E-02 
370	 4.11805270576739E-02 
371	 4.10283917019912E-02 
372	 0.037986212896033 
373	 0.041618525645267 
374	 4.45780710775792E-02 
375	 4.34287852759977E-02 
376	 4.54893675657645E-02 
377	 0.042011545463804 
378	 3.88735444619794E-02 
379	 4.25350912060274E-02 
380	 4.27256188193134E-02 
381	 4.14740247445469E-02 
382	 4.19115492184156E-02 
383	 4.67360124321339E-02 
384	 4.67733632313738E-02 
385	 4.54728028855917E-02 
386	 4.58978898801083E-02 
387	 4.68263129685558E-02 
388	 4.66862028227736E-02 
389	 4.69512564736541E-02 
390	 4.88492764911574E-02 
391	 4.71870862365324E-02 
392	 4.72656590171273E-02 
393	 0.049661384384515 
394	 5.07977371706608E-02 
395	 5.32559192705595E-02 
396	 5.54994708528949E-02 
397	 5.66347253336812E-02 
398	 5.85271465288311E-02 
399	 6.02297443069012E-02 
400	 6.21854973672732E-02 
401	 6.47854766049414E-02 
402	 6.52781170702647E-02 
403	 6.63090915287338E-02 
404	 6.86070691284526E-02 
405	 7.07137636024727E-02 
406	 7.35453625568711E-02 
407	 7.59331496410838E-02 
408	 7.71683316893728E-02 
409	 7.85790313948743E-02 
410	 7.96272101936143E-02 
411	 8.10764966015361E-02 
412	 8.37229667807587E-02 
413	 8.42498424951227E-02 
414	 8.46400369161409E-02 
415	 8.56326912818551E-02 
416	 8.57696445807318E-02 
417	 8.65577099973461E-02 
418	 8.74794913546643E-02 
419	 8.77975210470997E-02 
420	 8.77792200470413E-02 
421	 8.72839605362236E-02 
422	 0.08696045260353 
423	 8.76812405043717E-02 
424	 8.68275401553324E-02 
425	 8.63123844102685E-02 
426	 8.69708232586351E-02 
427	 8.66300365103491E-02 
428	 0.086846345829748 
429	 8.75849852802311E-02 
430	 8.84388068360494E-02 
431	 8.97451971820909E-02 
432	 9.15436704149066E-02 
433	 9.38869928939288E-02 
434	 9.68460075640007E-02 
435	 0.100283933074994 
436	 0.104126999961641 
437	 0.108304887697259 
438	 0.112675733744332 
439	 0.117255871291393 
440	 0.121813179243296 
441	 0.126050749432389 
442	 0.130284736917902 
443	 0.134682895610997 
444	 0.13902820806947 
445	 0.142538804398846 
446	 0.146173889160749 
447	 0.149982187248736 
448	 0.153754000683428 
449	 0.157402751477414 
450	 0.161247566435021 
451	 0.165067884412292 
452	 0.168248545142677 
453	 0.171380338652287 
454	 0.174535804290286 
455	 0.177667796160029 
456	 0.180654644669487 
457	 0.183689100348496 
458	 0.186765438273199 
459	 0.189776262288845 
460	 0.192649339910927 
461	 0.19549884501937 
462	 0.198437433396531 
463	 0.201556916258129 
464	 0.204219672629465 
465	 0.206781612065149 
466	 0.209671363085657 
467	 0.212432466602625 
468	 0.214866672830242 
469	 0.217221563419436 
470	 0.22003841266264 
471	 0.22266889484174 
472	 0.225061352230293 
473	 0.227320912164996 
474	 0.229641735190942 
475	 0.231946892611766 
476	 0.234217734401748 
477	 0.236471899527644 
478	 0.238858406494345 
479	 0.240954004207432 
480	 0.242704872303212 
481	 0.244626828897518 
482	 0.246543926672241 
483	 0.248355682375152 
484	 0.24999678655957 
485	 0.251496373919029 
486	 0.252981722188309 
487	 0.254403461848627 
488	 0.255588005224884 
489	 0.256847412100239 
490	 0.257955164610043 
491	 0.258857625138167 
492	 0.260242292605287 
493	 0.260906719495413 
494	 0.261208684850871 
495	 0.262119772499248 
496	 0.263134014710873 
497	 0.26372806052508 
498	 0.263885800215414 
499	 0.264330243011971 
500	 0.264623396414759 
501	 0.264779516824591 
502	 0.264934811673654 
503	 0.265207508028659 
504	 0.265267980776739 
505	 0.265197665455133 
506	 0.265434725694443 
507	 0.265578236163907 
508	 0.265579028795736 
509	 0.265461146571664 
510	 0.265238024854882 
511	 0.264982187113589 
512	 0.264709260940267 
513	 0.264421614977467 
514	 0.264320576014738 
515	 0.26420695188375 
516	 0.263985719149407 
517	 0.263821821787343 
518	 0.26353383600902 
519	 0.263143412731546 
520	 0.262763254949351 
521	 0.262591727582678 
522	 0.262403438958592 
523	 0.262120424150936 
524	 0.261843644796574 
525	 0.261551000941864 
526	 0.261273230214278 
527	 0.261040928728853 
528	 0.260858130476015 
529	 0.260684131524878 
530	 0.260503516370061 
531	 0.26032107728138 
532	 0.260172742569107 
533	 0.259954834010818 
534	 0.259691030299645 
535	 0.259735126833468 
536	 0.259670765253925 
537	 0.259548579261948 
538	 0.259559926472717 
539	 0.259513809746736 
540	 0.259414889846802 
541	 0.259340653422036 
542	 0.259443406482875 
543	 0.259560108532173 
544	 0.259650446045383 
545	 0.259715818376031 
546	 0.259770722516213 
547	 0.259863108827156 
548	 0.260007350154267 
549	 0.260189337123138 
550	 0.260447690637448 
551	 0.260705376338125 
552	 0.260907283506372 
553	 0.261093644585111 
554	 0.261354680736524 
555	 0.261720389174446 
556	 0.262165109253878 
557	 0.262515203797067 
558	 0.262886994646782 
559	 0.263362593891842 
560	 0.263911189960122 
561	 0.264460291820014 
562	 0.264996751297356 
563	 0.265529013944743 
564	 0.266039104626388 
565	 0.266558350943878 
566	 0.267079387056073 
567	 0.267551013654186 
568	 0.268121060976882 
569	 0.268726783676483 
570	 0.269325157137874 
571	 0.270134153069553 
572	 0.270923807844657 
573	 0.271673298079804 
574	 0.272501739056531 
575	 0.273233677710288 
576	 0.27408605735551 
577	 0.27517807191809 
578	 0.276298745500836 
579	 0.277422797564107 
580	 0.278613610864548 
581	 0.279946561219979 
582	 0.28124338028275 
583	 0.282405609263701 
584	 0.283442174812583 
585	 0.284505987527816 
586	 0.285429096008973 
587	 0.286335502117759 
588	 0.287385558331409 
589	 0.2885090502821 
590	 0.289703193943854 
591	 0.29089414419781 
592	 0.291960768284666 
593	 0.293109930173202 
594	 0.294296700142718 
595	 0.295476397305506 
596	 0.296743674362124 
597	 0.298119549106861 
598	 0.299513744086054 
599	 0.300797277652892 
600	 0.302076492558955 
601	 0.303262409693854 
602	 0.304405520283097 
603	 0.305874453588939 
604	 0.307163219966426 
605	 0.308330863185358 
606	 0.309615319941453 
607	 0.311035647706525 
608	 0.31242435499241 
609	 0.313686844268749 
610	 0.314830966755597 
611	 0.315944557703138 
612	 0.31707518608564 
613	 0.318218464111763 
614	 0.3192525390281 
615	 0.320307764415962 
616	 0.321389926537385 
617	 0.322412057118427 
618	 0.323370893584057 
619	 0.324352169539582 
620	 0.325380401511034 
621	 0.326322044373456 
622	 0.327155667408446 
623	 0.327982736103216 
624	 0.328914451558349 
625	 0.329711393996536 
626	 0.330484005943442 
627	 0.331288169710469 
628	 0.332069315669238 
629	 0.332827817977905 
630	 0.333560722555452 
631	 0.334269429868312 
632	 0.334964895891812 
633	 0.335613138408515 
634	 0.336202350270755 
635	 0.336744182822647 
636	 0.337284927056854 
637	 0.337827508997815 
638	 0.338357883758934 
639	 0.338837635372975 
640	 0.339378656114977 
641	 0.339881019399359 
642	 0.34019330941669 
643	 0.340598623842343 
644	 0.340976076347394 
645	 0.341274409035395 
646	 0.341598658267067 
647	 0.341898886732296 
648	 0.34216366347348 
649	 0.342395929388982 
650	 0.342618582216185 
651	 0.342783813545449 
652	 0.342910136455031 
653	 0.343069124943173 
654	 0.343179172057683 
655	 0.343272647264546 
656	 0.343362557785188 
657	 0.343355674236934 
658	 0.343342429751438 
659	 0.343337794464091 
660	 0.343319874535025 
661	 0.343292205462801 
662	 0.343189908456439 
663	 0.343002725542875 
664	 0.342802352247292 
665	 0.342700626431492 
666	 0.342567581801103 
667	 0.342290235008767 
668	 0.342145034678859 
669	 0.34197992604833 
670	 0.341720297805581 
671	 0.341372851829553 
672	 0.340997342263539 
673	 0.340661677565369 
674	 0.340364039813687 
675	 0.339934370707223 
676	 0.339554182611428 
677	 0.33916244328373 
678	 0.338639074248141 
679	 0.338247929789893 
680	 0.337801240755673 
681	 0.337242941427875 
682	 0.336735894856071 
683	 0.336275626750857 
684	 0.335814530424664 
685	 0.335296765367179 
686	 0.334693920399596 
687	 0.334059864043943 
688	 0.333419695768356 
689	 0.332777286962881 
690	 0.332144781550393 
691	 0.331549005446309 
692	 0.330976363316642 
693	 0.33033349962216 
694	 0.329622745426302 
695	 0.328897225779947 
696	 0.328207786567931 
697	 0.327463430803824 
698	 0.326722975201346 
699	 0.325997713886632 
700	 0.325243012078808 
701	 0.324500240006503 
702	 0.323756011318195 
703	 0.322983000341277 
704	 0.322141512215595 
705	 0.321308823371706 
706	 0.320509156497765 
707	 0.319729677859606 
708	 0.318913571694867 
709	 0.318065143384442 
710	 0.317224406141763 
711	 0.316472246615243 
712	 0.315622493498967 
713	 0.314702168540467 
714	 0.31381265715191 
715	 0.313105357392014 
716	 0.312268087021463 
717	 0.311274897067512 
718	 0.310324924144384 
719	 0.309554808269372 
720	 0.308735137237045 
721	 0.307761418482026 
722	 0.306871393837154 
723	 0.305959025775377 
724	 0.305032254474607 
725	 0.304129450060951 
726	 0.303264407665089 
727	 0.302365873849807 
728	 0.301428201739037 
729	 0.300510029094416 
730	 0.299626324447118 
731	 0.298722123157281 
732	 0.297761345598601 
733	 0.296762614915903 
734	 0.295931160281727 
735	 0.295115167297776 
736	 0.294088844013305 
737	 0.293189117427523 
738	 0.292285850698842 
739	 0.291338732984337 
740	 0.290439931096453 
741	 0.289568697378524 
742	 0.288694747161196 
743	 0.287805528098196 
744	 0.28695193945714 
745	 0.286035559582933 
746	 0.285106001775557 
747	 0.284259092801657 
748	 0.283367374847698 
749	 0.282508853041349 
750	 0.281706777156196 
751	 0.280896248175467 
752	 0.280028551257764 
753	 0.279145650743326 
754	 0.278298270134847 
755	 0.277487482873862 
756	 0.276759148798483 
757	 0.276017286776689 
758	 0.275134405132835 
759	 0.274314896639445 
760	 0.27355323553689 
761	 0.272820322767212 
762	 0.272084739346932 
763	 0.271378943307868 
764	 0.270644546768699 
765	 0.269860536253614 
766	 0.269167316234538 
767	 0.268518938444407 
768	 0.267847054070528 
769	 0.267098204640175 
770	 0.266405044524945 
771	 0.26580352360782 
772	 0.265241729344234 
773	 0.264582742814019 
774	 0.263997918281365 
775	 0.263427061253288 
776	 0.26280335704255 
777	 0.262182280660206 
778	 0.261587568112522 
779	 0.261050675931584 
780	 0.260576212755968 
781	 0.260001354354229 
782	 0.259491383462015 
783	 0.259048067737817 
784	 0.258487854169066 
785	 0.258008806329937 
786	 0.257582162505188 
787	 0.257156924427769 
788	 0.256736066523463 
789	 0.256364561649363 
790	 0.255958612530013 
791	 0.255448270654961 
792	 0.255091468324785 
793	 0.254771212587296 
794	 0.254435802695851 
795	 0.254103416862616 
796	 0.253697853998033 
797	 0.253311733679531 
798	 0.253026798692378 
799	 0.252865149003696 
800	 0.252601025396596 
801	 0.252267705340249 
802	 0.251974587746692 
803	 0.25175948695084 
804	 0.251601499744615 
805	 0.251427530123787 
806	 0.251157984098401 
807	 0.250924303334592 
808	 0.25073206318804 
809	 0.250555767341676 
810	 0.250350901333435 
811	 0.250199762394956 
812	 0.250037737276986 
813	 0.249840106966592 
814	 0.249777078053122 
815	 0.249788105984989 
816	 0.249760448578147 
817	 0.249599594326394 
818	 0.249427657766414 
819	 0.249353557134885 
820	 0.249348019300987 
821	 0.249279298220853 
822	 0.249292796751336 
823	 0.24927684701813 
824	 0.249192915657519 
825	 0.249181424582643 
826	 0.249162414487036 
827	 0.249159472121317 
828	 0.249209592292485 
829	 0.249323116114042 
830	 0.249313446388001 
831	 0.249245320914473 
832	 0.249293414639526 
833	 0.249448616132078 
834	 0.249558408463043 
835	 0.249584785801429 
836	 0.249613722775035 
837	 0.249700676630356 
838	 0.249833505055476 
839	 0.24997307475225 
840	 0.25006082190856 
841	 0.250165957173251 
842	 0.25028795339414 
843	 0.250408621135907 
844	 0.250506134336192 
845	 0.250716338842233 
846	 0.250976191037995 
847	 0.251159021050483 
848	 0.251379076690501 
849	 0.251586040706603 
850	 0.251755367081709 
851	 0.251897186568058 
852	 0.252029396198235 
853	 0.252260401404109 
854	 0.252577695858389 
855	 0.252786170982384 
856	 0.253100436463889 
857	 0.253364834060405 
858	 0.253489760444138 
859	 0.253778951617107 
860	 0.254019426658218 
861	 0.254264168289089 
862	 0.254608418085989 
863	 0.254905619637539 
864	 0.255257573170732 
865	 0.255614660349289 
866	 0.255860975679934 
867	 0.256138236734708 
868	 0.256426283729533 
869	 0.25674112174218 
870	 0.257135473877696 
871	 0.257458374697121 
872	 0.257803782647678 
873	 0.258205657034605 
874	 0.258537441017954 
875	 0.25888597108011 
876	 0.25922821333178 
877	 0.259556281983151 
878	 0.259964930737012 
879	 0.260462816796574 
880	 0.260959429695371 
881	 0.26137163025038 
882	 0.261815930577015 
883	 0.262204877572212 
884	 0.262556766585449 
885	 0.262951883333146 
886	 0.263436469375588 
887	 0.263965063445721 
888	 0.264435332080449 
889	 0.264752128230401 
890	 0.265264787319426 
891	 0.265797833669696 
892	 0.266246484793169 
893	 0.26668846976073 
894	 0.267234256381197 
895	 0.267772965641595 
896	 0.268230027594471 
897	 0.268676679575162 
898	 0.269343696629147 
899	 0.26994527031691 
900	 0.270281478715727 
901	 0.270737112283345 
902	 0.271363953948346 
903	 0.272028890046019 
904	 0.272599081593104 
905	 0.273257767405907 
906	 0.27389438490148 
907	 0.274429896935126 
908	 0.274866986738351 
909	 0.275481886138999 
910	 0.276156109252805 
911	 0.276811144756651 
912	 0.277419554805771 
913	 0.278001018244351 
914	 0.278640677232655 
915	 0.279331719841324 
916	 0.279985165383004 
917	 0.280594741381131 
918	 0.281164415464777 
919	 0.281750206914844 
920	 0.282448463526196 
921	 0.28321266614173 
922	 0.283910312504919 
923	 0.284510907061559 
924	 0.285150553499407 
925	 0.285776526097818 
926	 0.286450330994693 
927	 0.287188034771343 
928	 0.287885304413019 
929	 0.288663645192885 
930	 0.289446532888523 
931	 0.290158556563328 
932	 0.290851528359429 
933	 0.291492203069281 
934	 0.292191345508591 
935	 0.293028984249655 
936	 0.293894959650046 
937	 0.294671558782365 
938	 0.295338202147367 
939	 0.295968617627124 
940	 0.296783698310545 
941	 0.297598145627531 
942	 0.298448062112648 
943	 0.299355550785555 
944	 0.2999158342001 
945	 0.300629931181175 
946	 0.301480562555221 
947	 0.302236281577607 
948	 0.302950980190535 
949	 0.303587371211617 
950	 0.304265570146805 
951	 0.30510928784151 
952	 0.305881494275885 
953	 0.306472510171724 
954	 0.307036927296438 
955	 0.307817900586334 
956	 0.308711720155396 
957	 0.309368224589996 
958	 0.309869289386333 
959	 0.310521649569323 
960	 0.311165904573044 
961	 0.31199324180147 
962	 0.312874023427929 
963	 0.313528253272883 
964	 0.314143212561959 
965	 0.314967577676184 
966	 0.315914758007858 
967	 0.316735878279588 
968	 0.317706147334436 
969	 0.318625054590862 
970	 0.319531991795835 
971	 0.320589187922207 
972	 0.321543505116543 
973	 0.322609855934975 
974	 0.323659471083845 
975	 0.324425193249451 
976	 0.325370403118045 
977	 0.326241129535636 
978	 0.32707886979858 
979	 0.328081858424635 
980	 0.329002977786194 
981	 0.329996818598817 
982	 0.330975510489105 
983	 0.331773755294077 
984	 0.332701820123156 
985	 0.333681636515849 
986	 0.334749211268336 
987	 0.335932809803065 
988	 0.336895305699905 
989	 0.337682580260631 
990	 0.338545955560263 
991	 0.33968516153718 
992	 0.340659910318279 
993	 0.341549837304673 
994	 0.342481078585925 
995	 0.343553195171155 
996	 0.344721213878029 
997	 0.345763995689989 
998	 0.346845122507108 
999	 0.348125665094059 
1000	 0.349191759477169 
1001	 0.354282960680944 
1002	 0.355326672227901 
1003	 0.356330225933164 
1004	 0.357360962997779 
1005	 0.358406568336648 
1006	 0.359436496557001 
1007	 0.360458968935182 
1008	 0.36151928179729 
1009	 0.362529452889108 
1010	 0.363494870985758 
1011	 0.364495577126954 
1012	 0.365505661641259 
1013	 0.366487565368891 
1014	 0.367485526476114 
1015	 0.368529790176543 
1016	 0.369547034405924 
1017	 0.370544698152494 
1018	 0.371555744949152 
1019	 0.372561134132757 
1020	 0.373454545906453 
1021	 0.374354738690174 
1022	 0.375336548454809 
1023	 0.376331770081198 
1024	 0.377313172558467 
1025	 0.378234120547535 
1026	 0.37913034395993 
1027	 0.380020103486577 
1028	 0.380891707207887 
1029	 0.381838672996201 
1030	 0.382776299341325 
1031	 0.383669406921237 
1032	 0.384510959316866 
1033	 0.385416214610239 
1034	 0.386291085107515 
1035	 0.387126896841564 
1036	 0.388007697282537 
1037	 0.388854937722198 
1038	 0.389755236146095 
1039	 0.390702032605273 
1040	 0.39159064471823 
1041	 0.392483329107478 
1042	 0.393357741957028 
1043	 0.394158259657788 
1044	 0.394963731132798 
1045	 0.395765814101418 
1046	 0.396579743477137 
1047	 0.397325034723808 
1048	 0.398156064088465 
1049	 0.399011036134649 
1050	 0.399768467445124 
1051	 0.400584763131066 
1052	 0.401343134044939 
1053	 0.402051862348628 
1054	 0.402895630427143 
1055	 0.403756669723404 
1056	 0.404565955243934 
1057	 0.405351464036581 
1058	 0.406122608314591 
1059	 0.406866171885945 
1060	 0.407543060898633 
1061	 0.408263341645784 
1062	 0.40903392122213 
1063	 0.409865020059356 
1064	 0.41072796313098 
1065	 0.411507171996622 
1066	 0.4122815985387 
1067	 0.413064559694742 
1068	 0.413798501832846 
1069	 0.41463704783781 
1070	 0.415411581145787 
1071	 0.416133643327252 
1072	 0.416886182729981 
1073	 0.417633756729121 
1074	 0.418376952499328 
1075	 0.419132112046258 
1076	 0.419904428412639 
1077	 0.420643324054304 
1078	 0.421355892201364 
1079	 0.422090521142332 
1080	 0.422830220192415 
1081	 0.423516560474174 
1082	 0.424204518705958 
1083	 0.424882860495234 
1084	 0.425503839701384 
1085	 0.426178683650103 
1086	 0.426922952996155 
1087	 0.427582659590355 
1088	 0.428223098138637 
1089	 0.428848217409047 
1090	 0.429397324472608 
1091	 0.42988827467392 
1092	 0.430386698731903 
1093	 0.430883247854993 
1094	 0.43141456126255 
1095	 0.431932507476173 
1096	 0.432423206937946 
1097	 0.432896625637461 
1098	 0.433333614891612 
1099	 0.433729582747204 
1100	 0.434123676034112 
1101	 0.434490088443987 
1102	 0.434853460920764 
1103	 0.435235890654745 
1104	 0.435548114041967 
1105	 0.435822026110925 
1106	 0.436120470032315 
1107	 0.436360832322673 
1108	 0.436587730573757 
1109	 0.436834504471528 
1110	 0.437032405026946 
1111	 0.437217306150942 
1112	 0.437384642572253 
1113	 0.437540251963574 
1114	 0.437673511706261 
1115	 0.437812045793788 
1116	 0.437945825144175 
1117	 0.438060482103657 
1118	 0.438188332898353 
1119	 0.438252808924481 
1120	 0.438306247395843 
1121	 0.438366294030827 
1122	 0.438351805242381 
1123	 0.438331086935904 
1124	 0.438299639559372 
1125	 0.43824700016315 
1126	 0.438163030872512 
1127	 0.438080356280919 
1128	 0.437945056381816 
1129	 0.437775647652901 
1130	 0.437577129440993 
1131	 0.437354046186073 
1132	 0.437085856367936 
1133	 0.436806652448898 
1134	 0.436447535320962 
1135	 0.436038643442216 
1136	 0.435603243192155 
1137	 0.435068889605172 
1138	 0.43443786917456 
1139	 0.433737070193114 
1140	 0.432977334370346 
1141	 0.432098757557947 
1142	 0.431154663187427 
1143	 0.430084960886991 
1144	 0.428903840714219 
1145	 0.427636022353959 
1146	 0.426232013036094 
1147	 0.424819840845142 
1148	 0.423273942925995 
1149	 0.421792900629634 
1150	 0.420276815351418 
1151	 0.4188123079393 
1152	 0.417378641974005 
1153	 0.416066989258083 
1154	 0.414901285617954 
1155	 0.413784634688459 
1156	 0.412923140542885 
1157	 0.412207237866904 
1158	 0.411690763675248 
1159	 0.411405902406341 
1160	 0.411194142969665 
1161	 0.411179725040647 
1162	 0.411180228419164 
1163	 0.411340569139359 
1164	 0.411431891930179 
1165	 0.411554038277688 
1166	 0.411677363726703 
1167	 0.411722318922024 
1168	 0.411723953542899 
1169	 0.411734576911619 
1170	 0.411735766771974 
1171	 0.411690936548734 
1172	 0.411627764321739 
1173	 0.411544240083339 
1174	 0.411401824611552 
1175	 0.411284394422976 
1176	 0.411173549288262 
1177	 0.411051385246023 
1178	 0.410909184198948 
1179	 0.410783431104236 
1180	 0.410669632812409 
1181	 0.410542781282942 
1182	 0.410416095026732 
1183	 0.410299729602066 
1184	 0.410147606458523 
1185	 0.409957813949557 
1186	 0.409809691058664 
1187	 0.409671782233628 
1188	 0.409511633988697 
1189	 0.409365185807457 
1190	 0.409201711900197 
1191	 0.409009673207808 
1192	 0.408823741224329 
1193	 0.408635338472071 
1194	 0.408455583712388 
1195	 0.408270036202783 
1196	 0.40808717219951 
1197	 0.407912692020989 
1198	 0.407744255626358 
1199	 0.40757789164967 
1200	 0.407398828777027 
1201	 0.407252212500325 
1202	 0.40712425563919 
1203	 0.406999891575175 
1204	 0.406897359527795 
1205	 0.406780600332787 
1206	 0.406655447220807 
1207	 0.406550083344116 
1208	 0.40645120271692 
1209	 0.406353990734935 
1210	 0.406274974534999 
1211	 0.406188490830232 
1212	 0.406100045632569 
1213	 0.40600726709189 
1214	 0.405903958398539 
1215	 0.405815126325346 
1216	 0.405730857854564 
1217	 0.405647687635306 
1218	 0.405563660027926 
1219	 0.40548499039483 
1220	 0.405415910274844 
1221	 0.405341207561541 
1222	 0.405281406773339 
1223	 0.405251292516104 
1224	 0.405197580721078 
1225	 0.405143624429485 
1226	 0.405076294804366 
1227	 0.405001773074186 
1228	 0.404914909430163 
1229	 0.404805597260781 
1230	 0.404705760851641 
1231	 0.4045942334091 
1232	 0.404492211377226 
1233	 0.404395948025287 
1234	 0.404308309762497 
1235	 0.404221336185595 
1236	 0.404141238602933 
1237	 0.404055905162838 
1238	 0.403977213035726 
1239	 0.403883891640923 
1240	 0.40376787092187 
1241	 0.40368082703569 
1242	 0.403615343608968 
1243	 0.403522192054599 
1244	 0.403425284634114 
1245	 0.403336966364335 
1246	 0.403234194769532 
1247	 0.403129928759524 
1248	 0.403024886304587 
1249	 0.402946529371981 
1250	 0.402857789972469 
1251	 0.402751898960161 
1252	 0.402632414256103 
1253	 0.402510640150725 
1254	 0.402388050308589 
1255	 0.402253549939761 
1256	 0.402098187182793 
1257	 0.401942723256656 
1258	 0.401776534791193 
1259	 0.401558729676992 
1260	 0.401383779543404 
1261	 0.401238485309122 
1262	 0.401081599796578 
1263	 0.400927593209933 
1264	 0.400774653176748 
1265	 0.400624592067403 
1266	 0.400469697363125 
1267	 0.400308598102293 
1268	 0.400168156749605 
1269	 0.399999310888017 
1270	 0.399808185589994 
1271	 0.399644905608604 
1272	 0.399478742632023 
1273	 0.399321146632082 
1274	 0.399199431170343 
1275	 0.399033574158812 
1276	 0.398846344244492 
1277	 0.398663469817427 
1278	 0.398474728531192 
1279	 0.398265344909505 
1280	 0.398056381343021 
1281	 0.397821757224399 
1282	 0.397563585436337 
1283	 0.397289523741352 
1284	 0.397002891934203 
1285	 0.396688278311708 
1286	 0.396376727778072 
1287	 0.396037744291807 
1288	 0.395690793857469 
1289	 0.39533332522571 
1290	 0.394970065235413 
1291	 0.394580146372779 
1292	 0.39421281408276 
1293	 0.393861243532026 
1294	 0.39348521487395 
1295	 0.393106580937254 
1296	 0.39271999432673 
1297	 0.392319387540646 
1298	 0.391912214572824 
1299	 0.391512813218559 
1300	 0.391082955201779 
1301	 0.390639821524593 
1302	 0.390173065542381 
1303	 0.389676680212238 
1304	 0.3891790750599 
1305	 0.388680264337429 
1306	 0.388140336550395 
1307	 0.38757505299694 
1308	 0.386995729863482 
1309	 0.386376773746676 
1310	 0.385720256790937 
1311	 0.38503091570841 
1312	 0.38432172362822 
1313	 0.383567958559938 
1314	 0.382764122353183 
1315	 0.381951687752832 
1316	 0.381130036304254 
1317	 0.380252190977407 
1318	 0.379354631268534 
1319	 0.378403850193775 
1320	 0.377389779456805 
1321	 0.376364592977396 
1322	 0.375338740584079 
1323	 0.374236465791412 
1324	 0.37307351013118 
1325	 0.371887743968763 
1326	 0.370645923603157 
1327	 0.369369179891167 
1328	 0.368080536288306 
1329	 0.366765776522121 
1330	 0.365398582614212 
1331	 0.363990971004595 
1332	 0.362535949112878 
1333	 0.361014066843301 
1334	 0.359519112741524 
1335	 0.358000662678348 
1336	 0.356477662788862 
1337	 0.354965608507494 
1338	 0.353439645777287 
1339	 0.351872614559424 
1340	 0.350329488825729 
1341	 0.348782151131665 
1342	 0.347264867934971 
1343	 0.345742615886729 
1344	 0.344279513772231 
1345	 0.342821976228834 
1346	 0.34138460939555 
1347	 0.339994992819525 
1348	 0.338607759854757 
1349	 0.337258072212918 
1350	 0.335938815912918 
1351	 0.334637208627951 
1352	 0.333359478915355 
1353	 0.332084756206535 
1354	 0.330816883106934 
1355	 0.329583744668232 
1356	 0.328368890086918 
1357	 0.327155502272965 
1358	 0.325968936373512 
1359	 0.324781602672255 
1360	 0.323588352046076 
1361	 0.322412949178485 
1362	 0.321276931773286 
1363	 0.320116339956604 
1364	 0.318955421378581 
1365	 0.317777974237148 
1366	 0.316590651734508 
1367	 0.315391400183326 
1368	 0.314189210384579 
1369	 0.312993990443883 
1370	 0.311740439690791 
1371	 0.310441552374065 
1372	 0.309104417288586 
1373	 0.307685951104288 
1374	 0.306198381590156 
1375	 0.304660137965256 
1376	 0.303023401882229 
1377	 0.301316957231823 
1378	 0.29948550645223 
1379	 0.297550423175726 
1380	 0.295538348835805 
1381	 0.293443121480919 
1382	 0.291209500147717 
1383	 0.28890677036166 
1384	 0.286461555702893 
1385	 0.283916895668149 
1386	 0.281206717575069 
1387	 0.278401709750473 
1388	 0.275418620901459 
1389	 0.272297974648312 
1390	 0.268946187669773 
1391	 0.265460079339706 
1392	 0.261754021525919 
1393	 0.257875459700107 
1394	 0.253900883640421 
1395	 0.249703094343725 
1396	 0.245436010235201 
1397	 0.241129047523789 
1398	 0.236667553445445 
1399	 0.232260019562137 
1400	 0.22778582841436 
1401	 0.223442180560929 
1402	 0.21904796830193 
1403	 0.2148886483009 
1404	 0.210793341183095 
1405	 0.206993032943449 
1406	 0.203307945538301 
1407	 0.199945199878639 
1408	 0.196807429718858 
1409	 0.194000315352557 
1410	 0.19149574131825 
1411	 0.189249793947118 
1412	 0.18730820615817 
1413	 0.185626815993048 
1414	 0.184168021995848 
1415	 0.182843523580137 
1416	 0.181676067304004 
1417	 0.18059267171674 
1418	 0.179533256786057 
1419	 0.178528806320345 
1420	 0.177495514730823 
1421	 0.176477525174511 
1422	 0.175482578234647 
1423	 0.17446465676819 
1424	 0.173453514788345 
1425	 0.172457432303771 
1426	 0.171458883105065 
1427	 0.170433777151623 
1428	 0.169453953606191 
1429	 0.168496313052527 
1430	 0.167563801736925 
1431	 0.16665482402431 
1432	 0.165756813512517 
1433	 0.164879619470124 
1434	 0.164014828690916 
1435	 0.163167064477468 
1436	 0.162330938945184 
1437	 0.161513659717617 
1438	 0.16070458476927 
1439	 0.159914445518636 
1440	 0.159104605425901 
1441	 0.158321701888205 
1442	 0.1575365578128 
1443	 0.156743325341326 
1444	 0.155984017790593 
1445	 0.155225207346497 
1446	 0.154479423825545 
1447	 0.153763250601331 
1448	 0.153058572305568 
1449	 0.152368431699659 
1450	 0.151698061073875 
1451	 0.151057143543896 
1452	 0.150434401698986 
1453	 0.14983832738263 
1454	 0.149271737822871 
1455	 0.148733249075333 
1456	 0.14823147325214 
1457	 0.147718377100962 
1458	 0.147232704879935 
1459	 0.146729258741543 
1460	 0.146216724167505 
1461	 0.145704842836633 
1462	 0.145192288536435 
1463	 0.14468410912523 
1464	 0.144164091295566 
1465	 0.143659260524898 
1466	 0.143154596632409 
1467	 0.142672180394314 
1468	 0.142192968788736 
1469	 0.141748678101021 
1470	 0.141327188013311 
1471	 0.140934385630153 
1472	 0.140567900013196 
1473	 0.140223470965693 
1474	 0.139910921971203 
1475	 0.139636289133239 
1476	 0.139416160211542 
1477	 0.139229589135094 
1478	 0.139077069616001 
1479	 0.138967176650076 
1480	 0.138877627459331 
1481	 0.138820387400618 
1482	 0.138781322062279 
1483	 0.138772872683368 
1484	 0.138777218403414 
1485	 0.138798310035654 
1486	 0.138839021797665 
1487	 0.138909975677787 
1488	 0.138978113361899 
1489	 0.139061647750338 
1490	 0.139149097423022 
1491	 0.139248543316167 
1492	 0.139338228376656 
1493	 0.139432276974816 
1494	 0.139522777063088 
1495	 0.139603159742897 
1496	 0.139689532465803 
1497	 0.139784715890751 
1498	 0.139872061105834 
1499	 0.139965550443227 
1500	 0.140040403957404 
1501	 0.140102051723725 
1502	 0.140160844081881 
1503	 0.140207389572956 
1504	 0.140247247885368 
1505	 0.140298099867237 
1506	 0.140335840460057 
1507	 0.140369133993334 
1508	 0.140400497253208 
1509	 0.140419433068133 
1510	 0.140439694141633 
1511	 0.140448309433955 
1512	 0.140457379544774 
1513	 0.140468652451662 
1514	 0.140465856437418 
1515	 0.14047382879432 
1516	 0.140485552591413 
1517	 0.140486511268101 
1518	 0.140486943677368 
1519	 0.140478946339446 
1520	 0.140459775947792 
1521	 0.140437470673766 
1522	 0.140412732292557 
1523	 0.140381118926713 
1524	 0.140336671708759 
1525	 0.140305918603499 
1526	 0.140281350510482 
1527	 0.140243607662552 
1528	 0.140207199365899 
1529	 0.14016477274859 
1530	 0.140110052687135 
1531	 0.140055197854546 
1532	 0.14001312640626 
1533	 0.139941485628519 
1534	 0.139839567680344 
1535	 0.13975439129813 
1536	 0.13966048171154 
1537	 0.139572631963304 
1538	 0.139501397635385 
1539	 0.139415136999804 
1540	 0.139320116375266 
1541	 0.139222191895297 
1542	 0.139117813963786 
1543	 0.139013669712509 
1544	 0.138912130849048 
1545	 0.13879755631719 
1546	 0.138671538537478 
1547	 0.138551581582307 
1548	 0.138415690244955 
1549	 0.138272468486263 
1550	 0.13815918947827 
1551	 0.13804624781213 
1552	 0.13791763221376 
1553	 0.137803952317875 
1554	 0.137684107776047 
1555	 0.137535996072217 
1556	 0.137409408619196 
1557	 0.137284279932614 
1558	 0.137123597024364 
1559	 0.13697839139732 
1560	 0.136837154627076 
1561	 0.136699319695304 
1562	 0.136548145190626 
1563	 0.136400533675904 
1564	 0.136249694815226 
1565	 0.136085858892618 
1566	 0.135924065541496 
1567	 0.13576879487473 
1568	 0.135607412269867 
1569	 0.135428653635396 
1570	 0.135273675436882 
1571	 0.135134917303217 
1572	 0.134982220115887 
1573	 0.134834065138359 
1574	 0.134681460834358 
1575	 0.13452191106693 
1576	 0.134362179898946 
1577	 0.134206716893947 
1578	 0.134041483134451 
1579	 0.133861045026353 
1580	 0.133694396765629 
1581	 0.133528926202598 
1582	 0.133367028356818 
1583	 0.133214820318887 
1584	 0.133057787165709 
1585	 0.132908252742947 
1586	 0.132742414795697 
1587	 0.132560712848509 
1588	 0.132390896207889 
1589	 0.132212974022417 
1590	 0.132042423335275 
1591	 0.131890618580449 
1592	 0.131728225549901 
1593	 0.131553215994666 
1594	 0.131390370064767 
1595	 0.13123463712962 
1596	 0.131072419606856 
1597	 0.130926698015489 
1598	 0.130757287943599 
1599	 0.130568706997368 
1600	 0.130379736755531 
1601	 0.13016448694793 
1602	 0.12997024118045 
1603	 0.129788171506189 
1604	 0.12960416503335 
1605	 0.129431223779577 
1606	 0.129256844121305 
1607	 0.129085092819889 
1608	 0.128900375772914 
1609	 0.128725471074934 
1610	 0.128557569130945 
1611	 0.128390939916285 
1612	 0.128227690793611 
1613	 0.128048452320075 
1614	 0.127853495853599 
1615	 0.127673175240227 
1616	 0.127502619236245 
1617	 0.12733327892631 
1618	 0.127175363671143 
1619	 0.126988718184615 
1620	 0.12677566605229 
1621	 0.126579351844109 
1622	 0.126379284884415 
1623	 0.126182206197161 
1624	 0.125994562257558 
1625	 0.125787955872197 
1626	 0.125566788656428 
1627	 0.125366295064093 
1628	 0.125166131709109 
1629	 0.1249634292027 
1630	 0.124770964495021 
1631	 0.124576140724139 
1632	 0.124371231339557 
1633	 0.124176221660896 
1634	 0.123998209596038 
1635	 0.12379999419412 
1636	 0.123595428963939 
1637	 0.123380872555489 
1638	 0.123151522894537 
1639	 0.122936276949702 
1640	 0.122717468391558 
1641	 0.122503195266708 
1642	 0.122302880436781 
1643	 0.122084434276872 
1644	 0.121853479781387 
1645	 0.121630450990409 
1646	 0.121406117137052 
1647	 0.121179732079679 
1648	 0.120954012331543 
1649	 0.120730449330268 
1650	 0.12050383036855 
1651	 0.120279006738646 
1652	 0.120068793774476 
1653	 0.1198304862922 
1654	 0.119570649634913 
1655	 0.11932766013718 
1656	 0.119079559025598 
1657	 0.118829040218862 
1658	 0.118587389588656 
1659	 0.118339649001214 
1660	 0.118074543801612 
1661	 0.117826056704397 
1662	 0.117595012758986 
1663	 0.117347304611874 
1664	 0.117089896596616 
1665	 0.116844578214235 
1666	 0.116587504939938 
1667	 0.11635890290872 
1668	 0.116173391014679 
1669	 0.115937349578811 
1670	 0.115682001790343 
1671	 0.11544611742253 
1672	 0.115195641306695 
1673	 0.114944753990338 
1674	 0.114721302859532 
1675	 0.114471079227225 
1676	 0.114176764316819 
1677	 0.113923263787234 
1678	 0.11368408559353 
1679	 0.113451656569601 
1680	 0.113255409925636 
1681	 0.113013771480153 
1682	 0.11274478396543 
1683	 0.112500933100394 
1684	 0.112238801759738 
1685	 0.111995997604482 
1686	 0.111789384254513 
1687	 0.111560382413761 
1688	 0.111310288882345 
1689	 0.111086868683982 
1690	 0.110886397757024 
1691	 0.110659208353745 
1692	 0.110435072182228 
1693	 0.110199106950494 
1694	 0.109935140905036 
1695	 0.109688202211637 
1696	 0.109438773859749 
1697	 0.109211234482225 
1698	 0.10899675366721 
1699	 0.108781557565972 
1700	 0.108591124659392 
1701	 0.108377455699552 
1702	 0.1081479780884 
1703	 0.107926975059127 
1704	 0.107701562179831 
1705	 0.107482037453856 
1706	 0.107268790621782 
1707	 0.107051638658702 
1708	 0.106838307588396 
1709	 0.106619620543639 
1710	 0.106387614557164 
1711	 0.106175761047226 
1712	 0.105968283984859 
1713	 0.105765129429469 
1714	 0.105578471387018 
1715	 0.105386654679302 
1716	 0.105194098669201 
1717	 0.105003537093062 
1718	 0.104810375955626 
1719	 0.104634505317255 
1720	 0.104468510110146 
1721	 0.104296827658932 
1722	 0.104139808276102 
1723	 0.103968704620595 
1724	 0.103783837383478 
1725	 0.103605436041942 
1726	 0.103418484683672 
1727	 0.103254449924892 
1728	 0.103104323254691 
1729	 0.102947453714072 
1730	 0.102810930909577 
1731	 0.102650810175823 
1732	 0.102463367000831 
1733	 0.102306411333874 
1734	 0.1021612851995 
1735	 0.102004434135482 
1736	 0.101852921490217 
1737	 0.101706956124174 
1738	 0.101553468650799 
1739	 0.101411366261483 
1740	 0.101283934990668 
1741	 0.101153298017534 
1742	 0.101008867117548 
1743	 0.100896133284091 
1744	 0.100819686977197 
1745	 0.100703717883907 
1746	 0.100587577246546 
1747	 0.100468668878632 
1748	 0.100318160580008 
1749	 0.100189783575927 
1750	 0.100062604740485 
1751	 9.99180373875924E-02 
1752	 9.97930782838792E-02 
1753	 9.97007862872982E-02 
1754	 9.96050025757717E-02 
1755	 9.95126973488435E-02 
1756	 9.94118567320422E-02 
1757	 9.92957182987805E-02 
1758	 9.91838696343859E-02 
1759	 9.90564283057945E-02 
1760	 9.89497174378433E-02 
1761	 9.88471406549383E-02 
1762	 9.87403774325016E-02 
1763	 9.86651555566577E-02 
1764	 9.85664699850098E-02 
1765	 9.84332931781465E-02 
1766	 9.83152507888221E-02 
1767	 9.81987598275137E-02 
1768	 9.80834709587644E-02 
1769	 9.80040601408385E-02 
1770	 9.79252179547927E-02 
1771	 9.78369372537896E-02 
1772	 9.77431256987185E-02 
1773	 9.76277171316246E-02 
1774	 9.75073290032798E-02 
1775	 9.73997317081667E-02 
1776	 9.73065472384174E-02 
1777	 9.72210501285874E-02 
1778	 9.71517531126709E-02 
1779	 9.70775058803254E-02 
1780	 9.69921966935751E-02 
1781	 9.69079066244807E-02 
1782	 9.68442998394475E-02 
1783	 9.67835689993509E-02 
1784	 9.67084469008455E-02 
1785	 9.66282122511996E-02 
1786	 9.65551285714189E-02 
1787	 9.64888248267512E-02 
1788	 9.64118036618496E-02 
1789	 9.63436136407394E-02 
1790	 9.62619219641634E-02 
1791	 9.61367027516108E-02 
1792	 9.60485257268119E-02 
1793	 9.59805524180278E-02 
1794	 9.59235453811286E-02 
1795	 9.58882667135852E-02 
1796	 9.58472950049132E-02 
1797	 9.58085245971249E-02 
1798	 9.57607115069289E-02 
1799	 9.57214037234454E-02 
1800	 9.56727047915873E-02 
1801	 9.51948574697546E-02 
1802	 9.51310304243115E-02 
1803	 9.50861365737953E-02 
1804	 9.50971234516895E-02 
1805	 9.51268027457617E-02 
1806	 9.51452854908301E-02 
1807	 9.51581079365641E-02 
1808	 9.51611843789246E-02 
1809	 9.51425796181767E-02 
1810	 9.51186162793137E-02 
1811	 9.50815233685829E-02 
1812	 9.50677216306385E-02 
1813	 9.50531696039348E-02 
1814	 9.50297071226225E-02 
1815	 9.50100189017219E-02 
1816	 9.49819233160238E-02 
1817	 9.49538669150566E-02 
1818	 9.49026486628996E-02 
1819	 9.48755188150983E-02 
1820	 9.48685646092861E-02 
1821	 9.48449732574314E-02 
1822	 9.48204573352003E-02 
1823	 9.48075913750025E-02 
1824	 9.47842563463633E-02 
1825	 9.47810107118391E-02 
1826	 9.47849905258289E-02 
1827	 9.47704246383864E-02 
1828	 9.47494855814612E-02 
1829	 9.47242405539586E-02 
1830	 9.46866962091418E-02 
1831	 9.46353987114916E-02 
1832	 9.45922295270151E-02 
1833	 9.45175444283105E-02 
1834	 9.44529821296514E-02 
1835	 9.43900272013443E-02 
1836	 9.43198365974431E-02 
1837	 9.42854017616592E-02 
1838	 0.094244067046917 
1839	 9.42067704781281E-02 
1840	 0.094179506438701 
1841	 9.41542863713666E-02 
1842	 9.40985268570719E-02 
1843	 9.40495138280169E-02 
1844	 9.39909465181081E-02 
1845	 9.38886152034959E-02 
1846	 9.37898332938884E-02 
1847	 9.36975713695762E-02 
1848	 9.35945319422136E-02 
1849	 9.34979230830568E-02 
1850	 9.33941621928563E-02 
1851	 9.32838879911189E-02 
1852	 9.31795505246523E-02 
1853	 9.30797887145636E-02 
1854	 9.29468189106455E-02 
1855	 0.092811632983901 
1856	 0.092653624966574 
1857	 9.24530772372048E-02 
1858	 9.22713232771516E-02 
1859	 9.20890449920241E-02 
1860	 9.18844646431283E-02 
1861	 9.16670013198112E-02 
1862	 9.14393037118924E-02 
1863	 0.091189941139647 
1864	 9.09578088485335E-02 
1865	 9.07158168404322E-02 
1866	 9.04205999909993E-02 
1867	 9.01192091351148E-02 
1868	 8.97750481023624E-02 
1869	 8.93857173842665E-02 
1870	 8.90246509099495E-02 
1871	 8.86166568349171E-02 
1872	 8.81853185117684E-02 
1873	 8.77027973808704E-02 
1874	 8.72211519546398E-02 
1875	 8.67286607234402E-02 
1876	 8.62584491053811E-02 
1877	 8.57871041667195E-02 
1878	 8.52753621016395E-02 
1879	 8.47150623003172E-02 
1880	 8.41038667923092E-02 
1881	 8.34247702326795E-02 
1882	 8.27332712653236E-02 
1883	 0.0820118293382 
1884	 8.12417214413684E-02 
1885	 8.04388134824453E-02 
1886	 7.96029900288737E-02 
1887	 7.87022343142501E-02 
1888	 7.77435506426292E-02 
1889	 7.67486142317556E-02 
1890	 7.57238749714162E-02 
1891	 7.46708087798354E-02 
1892	 7.35871316087002E-02 
1893	 7.24652118417011E-02 
1894	 7.13169316525425E-02 
1895	 7.01131749099628E-02 
1896	 6.88599224635152E-02 
1897	 6.76277085737104E-02 
1898	 6.63868415434973E-02 
1899	 0.065148505808476 
1900	 6.39552036206783E-02 
1901	 6.27990954123038E-02 
1902	 6.17416726006653E-02 
1903	 6.07608729603214E-02 
1904	 0.059854125229729 
1905	 5.90260084414979E-02 
1906	 5.82753250931987E-02 
1907	 0.057595100658241 
1908	 5.69905604154158E-02 
1909	 0.056483255149571 
1910	 5.60646233361958E-02 
1911	 5.56908908081864E-02 
1912	 5.53625324424751E-02 
1913	 0.055051959068815 
1914	 5.47930149085659E-02 
1915	 5.45160649411495E-02 
1916	 5.42659568652759E-02 
1917	 5.39986124974599E-02 
1918	 5.37085087057173E-02 
1919	 5.34322046345342E-02 
1920	 5.31784940532408E-02 
1921	 5.29468002393113E-02 
1922	 5.27459382680692E-02 
1923	 5.25414339366052E-02 
1924	 5.23298378777824E-02 
1925	 5.21049937308927E-02 
1926	 5.19027974398251E-02 
1927	 5.17028597029961E-02 
1928	 5.15131669117423E-02 
1929	 0.05134051566196 
1930	 5.11737324418987E-02 
1931	 5.10043288588069E-02 
1932	 5.08371119098843E-02 
1933	 5.06799266750936E-02 
1934	 5.05390647317675E-02 
1935	 5.03980816118036E-02 
1936	 5.02569779360564E-02 
1937	 0.050129447768674 
1938	 5.00150597831744E-02 
1939	 4.98999440190323E-02 
1940	 4.97811606701701E-02 
1941	 4.96934457452319E-02 
1942	 4.96030596578439E-02 
1943	 4.95036245156663E-02 
1944	 0.049447371043967 
1945	 4.93945207525729E-02 
1946	 4.93458444892393E-02 
1947	 4.93143154420659E-02 
1948	 4.92843656894369E-02 
1949	 4.92567063196361E-02 
1950	 4.92314232337798E-02 
1951	 4.92189844692947E-02 
1952	 4.92037435115995E-02 
1953	 0.049169668388085 
1954	 4.91330466782424E-02 
1955	 4.90902442174893E-02 
1956	 4.90387227513294E-02 
1957	 4.90002064800325E-02 
1958	 4.89635310497596E-02 
1959	 4.89331460156685E-02 
1960	 0.048916035088199 
1961	 4.88917103883086E-02 
1962	 4.88655013878906E-02 
1963	 4.88417422273317E-02 
1964	 4.88080062102473E-02 
1965	 4.87935259941012E-02 
1966	 4.87805919655046E-02 
1967	 0.04877810271279 
1968	 4.87865212155301E-02 
1969	 4.88016397772449E-02 
1970	 0.048830260571847 
1971	 4.88815115560073E-02 
1972	 4.89217172688021E-02 
1973	 4.89667791385391E-02 
1974	 0.049018799109846 
1975	 4.90696025254555E-02 
1976	 4.91207636029544E-02 
1977	 4.91867918613935E-02 
1978	 4.92550178691489E-02 
1979	 4.93443829263066E-02 
1980	 4.94504953977657E-02 
1981	 4.95514082118284E-02 
1982	 4.96687763062587E-02 
1983	 4.97784912164156E-02 
1984	 4.98678166385119E-02 
1985	 4.99886050619554E-02 
1986	 5.01421165000247E-02 
1987	 0.050277032042672 
1988	 5.04193657118358E-02 
1989	 5.05618722488795E-02 
1990	 5.06726961064145E-02 
1991	 5.07832916000857E-02 
1992	 5.08964191350001E-02 
1993	 5.09953319903683E-02 
1994	 0.051117766377564 
1995	 5.12618820865242E-02 
1996	 5.13827371549867E-02 
1997	 5.15020334905689E-02 
1998	 5.16278206921531E-02 
1999	 5.17439383418033E-02 
2000	 5.18613554787365E-02 
2001	 5.19911051983469E-02 
2002	 5.21116053132362E-02 
2003	 5.22354011282363E-02 
2004	 5.23591228649231E-02 
2005	 0.052481660921005 
2006	 5.26240089557418E-02 
2007	 0.052736900903024 
2008	 5.28167935187405E-02 
2009	 5.29254707718958E-02 
2010	 5.30346475020706E-02 
2011	 5.31472342279173E-02 
2012	 0.053288461701648 
2013	 5.34075226447029E-02 
2014	 5.35094920505995E-02 
2015	 5.36054300360584E-02 
2016	 0.053737433081951 
2017	 5.38635238611501E-02 
2018	 5.39794622740115E-02 
2019	 0.054105764503542 
2020	 5.42263992134586E-02 
2021	 5.43253890355354E-02 
2022	 0.054435022446104 
2023	 5.45605477452277E-02 
2024	 5.46776344129361E-02 
2025	 5.47862697685064E-02 
2026	 5.48952111028335E-02 
2027	 0.054997028608592 
2028	 5.51110090369663E-02 
2029	 0.055233681747659 
2030	 5.53647038599798E-02 
2031	 5.54798674430318E-02 
2032	 5.56030502142636E-02 
2033	 5.57177905583103E-02 
2034	 5.58074861089111E-02 
2035	 5.59165090185318E-02 
2036	 5.60487526211973E-02 
2037	 5.61569339650498E-02 
2038	 5.62579650832427E-02 
2039	 5.63557223106389E-02 
2040	 5.64344575742221E-02 
2041	 5.65243457702781E-02 
2042	 5.66135221026186E-02 
2043	 5.67032395028542E-02 
2044	 5.67978218084312E-02 
2045	 5.68923165180882E-02 
2046	 0.056996762440842 
2047	 5.71141441736022E-02 
2048	 5.72199913668888E-02 
2049	 5.73286969497127E-02 
2050	 5.74342143835889E-02 
2051	 5.75276214812566E-02 
2052	 5.76302322169753E-02 
2053	 5.77470840694839E-02 
2054	 5.78499021149682E-02 
2055	 5.79452525646315E-02 
2056	 5.80450875038385E-02 
2057	 0.058136865879454 
2058	 5.82177324480497E-02 
2059	 5.83051379472649E-02 
2060	 5.83937262385463E-02 
2061	 5.84805842923221E-02 
2062	 5.85575068992531E-02 
2063	 5.86506859691559E-02 
2064	 5.87573304211803E-02 
2065	 0.058853694822338 
2066	 5.89605873534767E-02 
2067	 5.90573929877057E-02 
2068	 5.91403328984391E-02 
2069	 5.92239060286286E-02 
2070	 5.93114433397683E-02 
2071	 5.94022500802151E-02 
2072	 5.94838872763588E-02 
2073	 5.95650878378984E-02 
2074	 5.96408405549263E-02 
2075	 5.96917715994492E-02 
2076	 5.97816606321087E-02 
2077	 5.99122522608849E-02 
2078	 5.99934753343111E-02 
2079	 6.00597403520476E-02 
2080	 6.01426114251126E-02 
2081	 6.01931351976971E-02 
2082	 6.02638261913971E-02 
2083	 6.03621277208772E-02 
2084	 6.04703253256299E-02 
2085	 6.05699895307669E-02 
2086	 6.06624590737017E-02 
2087	 6.07580078937646E-02 
2088	 6.08598589226625E-02 
2089	 0.060958749164676 
2090	 6.10570976997993E-02 
2091	 6.11449674524643E-02 
2092	 6.12264669271512E-02 
2093	 6.13176856973167E-02 
2094	 6.13999407512411E-02 
2095	 6.14891081277651E-02 
2096	 6.15900849699572E-02 
2097	 6.16914787712111E-02 
2098	 6.17946571752286E-02 
2099	 6.18950634190995E-02 
2100	 6.19963641629726E-02 
2101	 6.21089833968662E-02 
2102	 6.22028106560311E-02 
2103	 6.22679590334282E-02 
2104	 6.23789249027795E-02 
2105	 6.25177180080058E-02 
2106	 6.26257550957186E-02 
2107	 6.27439096137365E-02 
2108	 6.28578490863725E-02 
2109	 6.29326361218582E-02 
2110	 6.30405024082494E-02 
2111	 6.31791123845207E-02 
2112	 6.33136241402739E-02 
2113	 6.34723513887977E-02 
2114	 6.35926370624326E-02 
2115	 6.37331579024783E-02 
2116	 6.38838724629285E-02 
2117	 6.40136778886141E-02 
2118	 0.064138731149568 
2119	 6.42581896107747E-02 
2120	 6.43585841748955E-02 
2121	 6.44737489427606E-02 
2122	 6.45885792759271E-02 
2123	 6.47085655663149E-02 
2124	 6.48418006933797E-02 
2125	 6.49631769059488E-02 
2126	 6.50786481093967E-02 
2127	 6.51985905528498E-02 
2128	 6.53204028622041E-02 
2129	 6.54332058047872E-02 
2130	 6.55421191137075E-02 
2131	 6.56598310040486E-02 
2132	 6.57569160065077E-02 
2133	 6.58308402643481E-02 
2134	 6.59265223013673E-02 
2135	 6.60187600898264E-02 
2136	 6.61229318244698E-02 
2137	 6.62576880783535E-02 
2138	 6.63539856102208E-02 
2139	 6.64317581544613E-02 
2140	 0.066517028584757 
2141	 6.65888756023742E-02 
2142	 6.66581797693951E-02 
2143	 6.67272050119465E-02 
2144	 0.066802321176441 
2145	 6.68763702813656E-02 
2146	 6.69411120621027E-02 
2147	 6.70077035188345E-02 
2148	 6.70807469687345E-02 
2149	 6.71350145503198E-02 
2150	 6.71655684877621E-02 
2151	 6.72125941561013E-02 
2152	 6.72633441163752E-02 
2153	 6.73076291723901E-02 
2154	 6.73532699895337E-02 
2155	 6.73939758082976E-02 
2156	 6.74271695361371E-02 
2157	 6.74635880664738E-02 
2158	 6.75112079298379E-02 
2159	 6.75349065472296E-02 
2160	 0.067545578330172 
2161	 6.75540605106811E-02 
2162	 6.75298753036745E-02 
2163	 6.75321378571307E-02 
2164	 6.75328682257498E-02 
2165	 6.75643635267004E-02 
2166	 6.75994032239311E-02 
2167	 6.76681256557951E-02 
2168	 6.76850768797163E-02 
2169	 6.76904978132076E-02 
2170	 6.76949604102019E-02 
2171	 6.76658748065451E-02 
2172	 6.76611894775076E-02 
2173	 0.067679386679014 
2174	 6.76762335502175E-02 
2175	 0.067650825439539 
2176	 0.067647907997814 
2177	 6.76578400821343E-02 
2178	 6.76565448443154E-02 
2179	 6.76706305044108E-02 
2180	 6.76682464017134E-02 
2181	 6.76271558650114E-02 
2182	 6.76150319570273E-02 
2183	 6.76125969199797E-02 
2184	 6.76190005963056E-02 
2185	 6.76257763734243E-02 
2186	 6.76528405001096E-02 
2187	 6.76628139874104E-02 
2188	 6.76721864312313E-02 
2189	 6.76609924449262E-02 
2190	 6.76284677347013E-02 
2191	 6.76224877364399E-02 
2192	 6.76043562883025E-02 
2193	 6.76068216026258E-02 
2194	 6.76538714109565E-02 
2195	 6.76624108893353E-02 
2196	 6.76567731250724E-02 
2197	 6.76490614110083E-02 
2198	 0.06761079528436 
2199	 6.75998446985219E-02 
2200	 6.76043307831182E-02 
2201	 6.76054377014825E-02 
2202	 6.76095458295052E-02 
2203	 6.76294205761252E-02 
2204	 6.76509725661486E-02 
2205	 6.76726400936393E-02 
2206	 6.76988511321123E-02 
2207	 6.77417949972193E-02 
2208	 6.77694467363841E-02 
2209	 6.77938085373776E-02 
2210	 6.78077885073104E-02 
2211	 6.78055533117778E-02 
2212	 0.067821792773524 
2213	 6.78338337095072E-02 
2214	 6.78558032499968E-02 
2215	 0.067903275506115 
2216	 6.79325859297176E-02 
2217	 6.79543945630517E-02 
2218	 6.79766283326276E-02 
2219	 6.79959224360186E-02 
2220	 0.068009869843188 
2221	 6.80099762927522E-02 
2222	 6.80243488712087E-02 
2223	 6.80500766007379E-02 
2224	 6.80807266196014E-02 
2225	 6.81139449659152E-02 
2226	 6.81713206860046E-02 
2227	 6.81979392195468E-02 
2228	 6.82091205640594E-02 
2229	 6.82250812337861E-02 
2230	 6.82364080056128E-02 
2231	 0.068241835833253 
2232	 6.82291303215851E-02 
2233	 6.82481639594664E-02 
2234	 6.82856501454867E-02 
2235	 6.83043022155345E-02 
2236	 6.83350559032936E-02 
2237	 6.83582798770221E-02 
2238	 0.068361487106145 
2239	 6.83701707743317E-02 
2240	 0.068390485988091 
2241	 6.84050541221837E-02 
2242	 6.84180263880332E-02 
2243	 6.84153858895281E-02 
2244	 6.84152755725357E-02 
2245	 6.83934476684881E-02 
2246	 0.068345036673825 
2247	 6.83062228939213E-02 
2248	 6.82870915881806E-02 
2249	 6.82784250138573E-02 
2250	 6.82721591540544E-02 
2251	 0.068284509216253 
2252	 6.82803216541417E-02 
2253	 6.82691127132158E-02 
2254	 6.82594642189384E-02 
2255	 0.068251412432653 
2256	 6.82370906494328E-02 
2257	 6.82241627597268E-02 
2258	 6.81926020510456E-02 
2259	 6.81468537980703E-02 
2260	 6.81083893469887E-02 
2261	 6.80513002384322E-02 
2262	 6.80185042673889E-02 
2263	 6.80085483296156E-02 
2264	 6.79779140449973E-02 
2265	 0.067952072632044 
2266	 6.79139017610747E-02 
2267	 6.78637912800562E-02 
2268	 6.78075818969646E-02 
2269	 6.77294511918809E-02 
2270	 6.76673238763898E-02 
2271	 6.76369403417601E-02 
2272	 0.067605040219372 
2273	 6.75950463608428E-02 
2274	 6.75768543932748E-02 
2275	 6.75341867308314E-02 
2276	 6.74592057495818E-02 
2277	 0.067400942580909 
2278	 6.73488118172152E-02 
2279	 6.72659002954363E-02 
2280	 6.71750254614991E-02 
2281	 0.06706379297324 
2282	 6.69035411547254E-02 
2283	 6.67923661412109E-02 
2284	 6.66923076748282E-02 
2285	 6.65939309661664E-02 
2286	 6.65255741257293E-02 
2287	 6.64285022346999E-02 
2288	 6.63045940934518E-02 
2289	 6.62079938114559E-02 
2290	 0.066129076644679 
2291	 6.60323952251479E-02 
2292	 0.065945991896642 
2293	 6.58447041204389E-02 
2294	 6.57052859304346E-02 
2295	 6.55847291005307E-02 
2296	 6.54689540682278E-02 
2297	 6.53710069046813E-02 
2298	 6.52549845702263E-02 
2299	 6.51594492608957E-02 
2300	 6.50572152814457E-02 
2301	 6.49375350414306E-02 
2302	 6.47867250238979E-02 
2303	 6.46223791853072E-02 
2304	 6.44551936861852E-02 
2305	 6.42656747413988E-02 
2306	 6.41140045044453E-02 
2307	 6.39810657228607E-02 
2308	 6.38675025870088E-02 
2309	 6.37888535733215E-02 
2310	 6.36691477031509E-02 
2311	 6.35551792799799E-02 
2312	 6.34228468652226E-02 
2313	 0.063257341086814 
2314	 6.31115756815705E-02 
2315	 6.29666539491793E-02 
2316	 6.28175943391005E-02 
2317	 6.26612398412769E-02 
2318	 6.25205758024849E-02 
2319	 6.24100874054111E-02 
2320	 6.22621465708937E-02 
2321	 0.062106218151583 
2322	 0.061941778456304 
2323	 6.17101569101179E-02 
2324	 0.061551252113463 
2325	 6.14397983004784E-02 
2326	 6.13063329838938E-02 
2327	 6.12075708403251E-02 
2328	 6.10955637061902E-02 
2329	 6.09428053085798E-02 
2330	 6.07688704194237E-02 
2331	 0.060569586779437 
2332	 6.04029334493505E-02 
2333	 6.02379509714812E-02 
2334	 6.00796904284193E-02 
2335	 0.059946887083655 
2336	 0.059817945273749 
2337	 5.96916723889247E-02 
2338	 5.95441418984333E-02 
2339	 5.94151966616699E-02 
2340	 5.92476831551792E-02 
2341	 5.90282806677734E-02 
2342	 5.88801192819561E-02 
2343	 5.87354971911878E-02 
2344	 5.85822480300403E-02 
2345	 5.84295448770699E-02 
2346	 5.83087703364645E-02 
2347	 5.81169061136639E-02 
2348	 5.78636956671685E-02 
2349	 5.76781480365205E-02 
2350	 5.74959496141848E-02 
2351	 5.72932809322428E-02 
2352	 0.05711836773657 
2353	 5.69266600040371E-02 
2354	 5.67094948845142E-02 
2355	 5.65084378970226E-02 
2356	 5.63225607970552E-02 
2357	 0.056114691184284 
2358	 5.58427070354141E-02 
2359	 5.56542785614553E-02 
2360	 5.55542784035129E-02 
2361	 5.53940575303825E-02 
2362	 5.52619110856484E-02 
2363	 5.50863542470296E-02 
2364	 5.48151570690388E-02 
2365	 0.054582635920076 
2366	 0.054372932842463 
2367	 5.41555537931171E-02 
2368	 5.39579165077526E-02 
2369	 5.37531787225975E-02 
2370	 5.35619453682743E-02 
2371	 5.32974148112438E-02 
2372	 5.30975415267328E-02 
2373	 5.28221848936552E-02 
2374	 5.25696817176112E-02 
2375	 5.24220250564125E-02 
2376	 5.22005774287293E-02 
2377	 5.19930105851527E-02 
2378	 5.18006261761019E-02 
2379	 5.15690012862456E-02 
2380	 5.13369089047962E-02 
2381	 5.11507381920048E-02 
2382	 5.10010594697339E-02 
2383	 0.050801053556424 
2384	 5.06340747282519E-02 
2385	 5.04513739237085E-02 
2386	 5.02189294115552E-02 
2387	 5.00299827311204E-02 
2388	 4.98341696838528E-02 
2389	 4.96482376383552E-02 
2390	 4.94345983792263E-02 
2391	 4.91902240995228E-02 
2392	 4.89125554658384E-02 
2393	 4.86767400937563E-02 
2394	 4.85425911623425E-02 
2395	 4.83807180738409E-02 
2396	 4.82907103086459E-02 
2397	 4.82091577569898E-02 
2398	 4.80082711535888E-02 
2399	 0.04775842981422 
2400	 4.75364079975642E-02 
2401	 4.73314837737219E-02 
2402	 0.04712150196838 
2403	 4.69460822963979E-02 
2404	 4.67606209688846E-02 
2405	 4.65792880399232E-02 
2406	 4.62657238914759E-02 
2407	 4.60094874209441E-02 
2408	 4.58834312772841E-02 
2409	 4.56228997949257E-02 
2410	 4.54934598145553E-02 
2411	 4.54075516325697E-02 
2412	 4.52833123275163E-02 
2413	 4.52386468879155E-02 
2414	 4.51246719888014E-02 
2415	 4.49572721665199E-02 
2416	 4.47320666397014E-02 
2417	 4.43034071865347E-02 
2418	 4.40992758565028E-02 
2419	 4.39660230259158E-02 
2420	 4.38627145733581E-02 
2421	 4.39381489482479E-02 
2422	 4.38634329742151E-02 
2423	 4.37254715560073E-02 
2424	 4.35832974083351E-02 
2425	 4.33869423983392E-02 
2426	 4.31968868498549E-02 
2427	 4.29597260023063E-02 
2428	 4.28400196825067E-02 
2429	 4.27800414367542E-02 
2430	 4.26596469131695E-02 
2431	 4.26286816498238E-02 
2432	 0.042475863089912 
2433	 4.21771377611482E-02 
2434	 4.20033327046833E-02 
2435	 4.18011961500815E-02 
2436	 4.17329964821154E-02 
2437	 4.18532332730128E-02 
2438	 0.041807027727217 
2439	 4.17922114766237E-02 
2440	 4.16609607966711E-02 
2441	 4.13093811318106E-02 
2442	 4.11207898958536E-02 
2443	 4.09833549385859E-02 
2444	 4.08480069655879E-02 
2445	 0.040796034688519 
2446	 4.06478090892862E-02 
2447	 4.04096195984022E-02 
2448	 4.02709766725795E-02 
2449	 4.01667804883508E-02 
2450	 0.040102153364029 
2451	 4.01416263676973E-02 
2452	 4.00557645614811E-02 
2453	 3.98674731707203E-02 
2454	 3.97340360302148E-02 
2455	 3.95328990004841E-02 
2456	 3.94838785271696E-02 
2457	 3.96354537819983E-02 
2458	 3.95854055670084E-02 
2459	 3.95530296182391E-02 
2460	 3.94049521577705E-02 
2461	 3.90211660297438E-02 
2462	 3.88360923910775E-02 
2463	 3.86611424126669E-02 
2464	 3.85691723051638E-02 
2465	 3.86725527097846E-02 
2466	 3.85429069430028E-02 
2467	 3.82531497215944E-02 
2468	 3.81342909093186E-02 
2469	 3.80198969468252E-02 
2470	 3.78068023981943E-02 
2471	 3.79323830215708E-02 
2472	 3.79414245726402E-02 
2473	 0.037721019793939 
2474	 0.037646678750319 
2475	 3.73980006968151E-02 
2476	 3.71772117054832E-02 
2477	 3.70908803975887E-02 
2478	 3.69631513326159E-02 
2479	 3.70916061773522E-02 
2480	 3.71354699044736E-02 
2481	 3.70535415027485E-02 
2482	 3.71110917056615E-02 
2483	 3.69128981093826E-02 
2484	 3.66527710337501E-02 
2485	 3.64998476182662E-02 
2486	 3.63246783121283E-02 
2487	 3.62592122886905E-02 
2488	 3.62314863106068E-02 
2489	 3.62877413835029E-02 
2490	 3.63681008240812E-02 
2491	 3.63791447268093E-02 
2492	 3.62636399621219E-02 
2493	 3.61118457519092E-02 
2494	 0.036084708392032 
2495	 3.59937370783729E-02 
2496	 3.60378416456701E-02 
2497	 3.61457360064515E-02 
2498	 3.60927142792495E-02 
2499	 3.60371932222586E-02 
2500	 3.58210894910632E-02 
