Wavelength	lmw-9-100000.asd
350	 8.89025062357939E-02 
351	 9.75438936407011E-02 
352	 9.19406340653238E-02 
353	 7.28853071601935E-02 
354	 0.091887360534422 
355	 9.02373641315971E-02 
356	 8.09801662103954E-02 
357	 8.66404869160617E-02 
358	 9.19503544614683E-02 
359	 9.01879435438094E-02 
360	 8.58324248640411E-02 
361	 8.86158293344964E-02 
362	 0.084439692834126 
363	 7.85494080445885E-02 
364	 7.65443248997721E-02 
365	 8.12091934698646E-02 
366	 8.22530276763729E-02 
367	 8.13150112847696E-02 
368	 8.25534914720656E-02 
369	 8.59308239854097E-02 
370	 8.43919170174343E-02 
371	 8.00586637781102E-02 
372	 0.080598358643817 
373	 7.91916058106319E-02 
374	 7.74039281139997E-02 
375	 7.72899591867723E-02 
376	 8.01652150097797E-02 
377	 8.04558348793601E-02 
378	 7.97797573542415E-02 
379	 8.06617943425777E-02 
380	 7.93364647474555E-02 
381	 7.76790589728275E-02 
382	 7.71467294491892E-02 
383	 7.84567806968848E-02 
384	 0.079884623534478 
385	 8.00331846355373E-02 
386	 7.90288248142071E-02 
387	 7.98182422510346E-02 
388	 7.86838554934125E-02 
389	 7.74835135616691E-02 
390	 7.85660319516087E-02 
391	 0.077534685740183 
392	 7.82327918709712E-02 
393	 8.05469486395939E-02 
394	 8.09127048334478E-02 
395	 8.01920752363278E-02 
396	 7.97538039654061E-02 
397	 8.03417296044439E-02 
398	 8.13303511664057E-02 
399	 8.15427542090699E-02 
400	 8.17089324674495E-02 
401	 8.28994883911619E-02 
402	 8.38522342135778E-02 
403	 8.35195980977379E-02 
404	 8.20752867704876E-02 
405	 8.08668653981194E-02 
406	 8.24563215051496E-02 
407	 0.08458881287376 
408	 8.48459509748881E-02 
409	 0.082438752187419 
410	 8.26411662152255E-02 
411	 8.42870181415398E-02 
412	 8.38016134075507E-02 
413	 8.46671944920274E-02 
414	 8.45301805918984E-02 
415	 8.32363828797581E-02 
416	 8.40146006511536E-02 
417	 8.38311581991618E-02 
418	 8.34282331605636E-02 
419	 8.37537620296153E-02 
420	 8.33115254583085E-02 
421	 8.23474371337472E-02 
422	 8.14754262516537E-02 
423	 8.13715869821496E-02 
424	 8.07808227952452E-02 
425	 0.080406032451365 
426	 0.080427353432045 
427	 7.95720182433449E-02 
428	 7.91975429526628E-02 
429	 7.90625824949703E-02 
430	 7.86698277956186E-02 
431	 7.90044935338366E-02 
432	 7.91938955556427E-02 
433	 7.91592846869003E-02 
434	 7.96325824890821E-02 
435	 8.04285601482207E-02 
436	 8.11202722935589E-02 
437	 8.15368356972077E-02 
438	 8.22579828875981E-02 
439	 8.31888144992205E-02 
440	 0.084258441698481 
441	 8.53882772370653E-02 
442	 0.086424044477852 
443	 8.77388895404292E-02 
444	 8.93001689022661E-02 
445	 9.03939346448636E-02 
446	 9.15800184724692E-02 
447	 9.30255401651972E-02 
448	 9.46523857832239E-02 
449	 9.58537642002239E-02 
450	 9.72165683074092E-02 
451	 9.90066958197151E-02 
452	 0.101140936065711 
453	 0.10283859467708 
454	 0.104310289285782 
455	 0.105888252674571 
456	 0.107723091390443 
457	 0.109607960693317 
458	 0.11143841649491 
459	 0.113197385271479 
460	 0.115142794596378 
461	 0.117147257046313 
462	 0.119176693481581 
463	 0.121375522712881 
464	 0.123520475191172 
465	 0.125892116116743 
466	 0.1286338020698 
467	 0.130775188461999 
468	 0.133064009566029 
469	 0.135574560874101 
470	 0.137851416987391 
471	 0.140593590631964 
472	 0.143361057418891 
473	 0.145873168427243 
474	 0.148677132816328 
475	 0.151381100391996 
476	 0.15399935067138 
477	 0.156726236799254 
478	 0.15968215953456 
479	 0.162607551250612 
480	 0.165379791451928 
481	 0.168116672375785 
482	 0.170960475781521 
483	 0.173735781073524 
484	 0.176282399771153 
485	 0.178908518905738 
486	 0.181483130293698 
487	 0.183994864827099 
488	 0.18652996025373 
489	 0.188843800563555 
490	 0.191151652116074 
491	 0.19352350818747 
492	 0.195446343286871 
493	 0.197419645636043 
494	 0.199355630413708 
495	 0.20098173920863 
496	 0.202882980905027 
497	 0.204517578194501 
498	 0.205736546429521 
499	 0.207125045791705 
500	 0.208426559629501 
501	 0.209549890649811 
502	 0.210507034807075 
503	 0.211595125893657 
504	 0.212431222049465 
505	 0.213050859842639 
506	 0.213867876171066 
507	 0.21460715878598 
508	 0.215225147573874 
509	 0.215708031570725 
510	 0.215956499715678 
511	 0.21639531211218 
512	 0.21692193650199 
513	 0.217186725700782 
514	 0.217423427503194 
515	 0.217672587112871 
516	 0.217933700810811 
517	 0.218180672741476 
518	 0.218371320755322 
519	 0.218492258597299 
520	 0.218562072417924 
521	 0.218678723396689 
522	 0.218831461313365 
523	 0.21901196272268 
524	 0.219219484423105 
525	 0.219168958939941 
526	 0.219109086140599 
527	 0.219278134838817 
528	 0.219497124995288 
529	 0.219700061191398 
530	 0.219826888575798 
531	 0.219849354850356 
532	 0.220017177264806 
533	 0.220235893939275 
534	 0.220428456374112 
535	 0.220677658688404 
536	 0.220807146020262 
537	 0.22097041984489 
538	 0.221373246195774 
539	 0.221626061003725 
540	 0.221835270225837 
541	 0.22210018172311 
542	 0.22245564435446 
543	 0.222808111088854 
544	 0.223179571191339 
545	 0.223603684229784 
546	 0.224033680828023 
547	 0.224431173565288 
548	 0.224819047960301 
549	 0.225269728271806 
550	 0.225785250566944 
551	 0.226304354023283 
552	 0.226817153237158 
553	 0.227500963627711 
554	 0.228062848146874 
555	 0.228581764571251 
556	 0.229299141625053 
557	 0.22998707644839 
558	 0.230687093179793 
559	 0.231425623407475 
560	 0.232148889799184 
561	 0.232895511700843 
562	 0.233646506126425 
563	 0.23436115210561 
564	 0.23498987073534 
565	 0.235618983393152 
566	 0.236280544614304 
567	 0.236938599101731 
568	 0.237824436280225 
569	 0.238776934041793 
570	 0.239635319882116 
571	 0.240582892774256 
572	 0.241535363243447 
573	 0.2424849336649 
574	 0.24347069054567 
575	 0.2443827798006 
576	 0.245338408123493 
577	 0.246381638185034 
578	 0.247317786700505 
579	 0.248234455172171 
580	 0.249147002559646 
581	 0.250043516666356 
582	 0.250891357204183 
583	 0.251817719701238 
584	 0.252815227907074 
585	 0.253672320962113 
586	 0.254592968893078 
587	 0.255574365979542 
588	 0.256567064684771 
589	 0.257596417234794 
590	 0.2586888288373 
591	 0.25982360155939 
592	 0.260945649091286 
593	 0.262141259462228 
594	 0.263346728420891 
595	 0.264487761473315 
596	 0.26554810210285 
597	 0.266517150550975 
598	 0.267472895814418 
599	 0.268516678673462 
600	 0.269441369401996 
601	 0.270356442335161 
602	 0.271350048516887 
603	 0.272417878406147 
604	 0.273489072353712 
605	 0.274487573568838 
606	 0.275393781992466 
607	 0.276473021999881 
608	 0.277576827391505 
609	 0.27862897265877 
610	 0.279666346748419 
611	 0.280649235376218 
612	 0.281596869268674 
613	 0.282529517790742 
614	 0.283436491288729 
615	 0.284269287822796 
616	 0.285076548278095 
617	 0.285960670058307 
618	 0.286846592894975 
619	 0.287722847566015 
620	 0.288573380730098 
621	 0.289347636170352 
622	 0.290039208847097 
623	 0.290761300981718 
624	 0.291625440952164 
625	 0.292368569451218 
626	 0.293047407818902 
627	 0.293743962527123 
628	 0.294536610552365 
629	 0.295250813363033 
630	 0.295905009644887 
631	 0.296566693248678 
632	 0.297259589607671 
633	 0.297926944333118 
634	 0.298533300486261 
635	 0.299073122232478 
636	 0.299681186144465 
637	 0.300271553996604 
638	 0.300784555925462 
639	 0.301322346458055 
640	 0.301871773088019 
641	 0.302419575360978 
642	 0.302942332134727 
643	 0.303371570566546 
644	 0.30383881245935 
645	 0.304353028402927 
646	 0.304716542045736 
647	 0.305127206718815 
648	 0.305525660861268 
649	 0.305830836638861 
650	 0.306209735840467 
651	 0.306475864233788 
652	 0.306663048108048 
653	 0.306988500758831 
654	 0.307267768333048 
655	 0.307446781199905 
656	 0.307560450767808 
657	 0.307811093307603 
658	 0.307998015115037 
659	 0.308072794227223 
660	 0.308073539902016 
661	 0.308089437494447 
662	 0.308108237295276 
663	 0.308100215017209 
664	 0.308025780052134 
665	 0.307984190533125 
666	 0.307933760603736 
667	 0.307809452260728 
668	 0.307628513145073 
669	 0.307453216399536 
670	 0.307272782572429 
671	 0.30701588553858 
672	 0.30666541873792 
673	 0.306322305073254 
674	 0.306021648309666 
675	 0.305585775177998 
676	 0.305191063097156 
677	 0.304813195238832 
678	 0.304354312389309 
679	 0.303870957851507 
680	 0.303342897671453 
681	 0.302786347666597 
682	 0.302271788012097 
683	 0.301694210523684 
684	 0.301083312444951 
685	 0.300474727329269 
686	 0.299783228985912 
687	 0.299096050514525 
688	 0.298419857809906 
689	 0.297702460933912 
690	 0.296925809867765 
691	 0.296153347952057 
692	 0.295425792481388 
693	 0.294731299262315 
694	 0.293866328026648 
695	 0.292928852960178 
696	 0.292088133784201 
697	 0.291206519636449 
698	 0.290348456813339 
699	 0.28950184323242 
700	 0.288569917484837 
701	 0.287659355731992 
702	 0.286734789902214 
703	 0.285771064470088 
704	 0.284862990924713 
705	 0.28390978474393 
706	 0.282910552005066 
707	 0.281918137622287 
708	 0.280934320948661 
709	 0.279975317675878 
710	 0.279029037353201 
711	 0.278042520473751 
712	 0.276967117129437 
713	 0.275848734392077 
714	 0.274772203266798 
715	 0.273872939255156 
716	 0.272856761019994 
717	 0.271711447372642 
718	 0.270638150050371 
719	 0.269688672481166 
720	 0.268687603469232 
721	 0.267554202179392 
722	 0.266442368126209 
723	 0.265388776690045 
724	 0.264333478967099 
725	 0.263215993478748 
726	 0.262187695896839 
727	 0.261147850869325 
728	 0.260051466119911 
729	 0.258922429119119 
730	 0.257864425627718 
731	 0.256781645060182 
732	 0.255626097842068 
733	 0.254545159500771 
734	 0.253552788070798 
735	 0.252544225070064 
736	 0.251393831098727 
737	 0.250186524641534 
738	 0.249082840659422 
739	 0.248065130863412 
740	 0.246924520028444 
741	 0.245842640649207 
742	 0.244752126340722 
743	 0.243617796236972 
744	 0.242651400045551 
745	 0.241574273975732 
746	 0.240423990863928 
747	 0.239368315919712 
748	 0.238319149384214 
749	 0.237234614344532 
750	 0.236145079114359 
751	 0.23515824945911 
752	 0.234155927317466 
753	 0.233064284725986 
754	 0.231897404255418 
755	 0.230885819800414 
756	 0.229908719465427 
757	 0.228884682898842 
758	 0.227785359479282 
759	 0.226801385983807 
760	 0.225823549736109 
761	 0.224806063252407 
762	 0.223818424482712 
763	 0.222862061885186 
764	 0.221885718396038 
765	 0.220867978334011 
766	 0.219905544047279 
767	 0.218978411651178 
768	 0.218032555510957 
769	 0.217021725345867 
770	 0.216084791673226 
771	 0.215210706792982 
772	 0.214339805907499 
773	 0.213379517685602 
774	 0.212527545641195 
775	 0.211685255003501 
776	 0.210763634141377 
777	 0.209885883403426 
778	 0.209034636371856 
779	 0.208208653214344 
780	 0.207404326800599 
781	 0.206579475475064 
782	 0.205768385566773 
783	 0.204967880184602 
784	 0.204135913194805 
785	 0.203344972259303 
786	 0.202619086416236 
787	 0.201939986653013 
788	 0.20121918159472 
789	 0.20049009408561 
790	 0.199745588427924 
791	 0.198986811464588 
792	 0.198312642619568 
793	 0.197668848956544 
794	 0.19702324175235 
795	 0.196370150649799 
796	 0.195679922056753 
797	 0.195016698630541 
798	 0.194404149777427 
799	 0.193765193685094 
800	 0.193179701160071 
801	 0.192631285371631 
802	 0.192082611545086 
803	 0.191546147796397 
804	 0.190974400611369 
805	 0.190390703939568 
806	 0.189857998200025 
807	 0.189347171974177 
808	 0.188848670999597 
809	 0.188362598291634 
810	 0.187897502907525 
811	 0.18740980972879 
812	 0.186925625021334 
813	 0.186476356513193 
814	 0.18606106564056 
815	 0.185693562194717 
816	 0.185306872082836 
817	 0.18483888031214 
818	 0.184430551264419 
819	 0.184071199812675 
820	 0.183730345394682 
821	 0.183373208100049 
822	 0.18303785269064 
823	 0.182689607151905 
824	 0.182338053643387 
825	 0.18208093531135 
826	 0.181754978398625 
827	 0.181398764480934 
828	 0.181091940755276 
829	 0.180857915020642 
830	 0.180578313679663 
831	 0.180268509794274 
832	 0.180010736365772 
833	 0.17984293535254 
834	 0.179632099294056 
835	 0.179387039112699 
836	 0.179244108370251 
837	 0.179020288179106 
838	 0.17878877349561 
839	 0.178605710161499 
840	 0.178425317188582 
841	 0.178262690994908 
842	 0.178116104467139 
843	 0.177974941947449 
844	 0.177809986171226 
845	 0.177699467545496 
846	 0.177622889056064 
847	 0.177525936999769 
848	 0.177462422570043 
849	 0.177374777409047 
850	 0.177257458912177 
851	 0.177154302488145 
852	 0.177069883762113 
853	 0.17702756029074 
854	 0.177027460265142 
855	 0.177035198074116 
856	 0.176986968854119 
857	 0.176930716574335 
858	 0.17692545756405 
859	 0.176990687849434 
860	 0.177012413924862 
861	 0.177005643309849 
862	 0.177022948765919 
863	 0.177039197784557 
864	 0.177109980772903 
865	 0.177194804689688 
866	 0.177221612294473 
867	 0.17735458874914 
868	 0.177468517156881 
869	 0.177531071984323 
870	 0.177628547924243 
871	 0.177753830258131 
872	 0.177879854399034 
873	 0.178005938052128 
874	 0.178179407729572 
875	 0.178330315935711 
876	 0.178464443117087 
877	 0.178611227290336 
878	 0.178809348646141 
879	 0.178998396533378 
880	 0.179226120924568 
881	 0.179526380645803 
882	 0.179718531378621 
883	 0.17993208908779 
884	 0.180189097484631 
885	 0.180446502103925 
886	 0.180696681491615 
887	 0.180964445391179 
888	 0.181224992753425 
889	 0.181435342068513 
890	 0.181826532659386 
891	 0.182180724576903 
892	 0.182442843573373 
893	 0.182822923704716 
894	 0.183205093951382 
895	 0.183572333940976 
896	 0.183921064800835 
897	 0.184239028512298 
898	 0.18466242913836 
899	 0.185131478451784 
900	 0.185538841064608 
901	 0.185788255875948 
902	 0.18616782403613 
903	 0.186692623296613 
904	 0.187262738268373 
905	 0.187784832504012 
906	 0.188255845478028 
907	 0.188678437102166 
908	 0.189088680697936 
909	 0.189645028212075 
910	 0.190248148970949 
911	 0.190816554209817 
912	 0.191309542589929 
913	 0.191782238214059 
914	 0.192332895040049 
915	 0.19295997387404 
916	 0.193575128726286 
917	 0.194189310484424 
918	 0.194792964640246 
919	 0.19538660421081 
920	 0.195985531755373 
921	 0.196672405202059 
922	 0.197362016611667 
923	 0.198005106488449 
924	 0.198651411230975 
925	 0.199277139570093 
926	 0.199960823979376 
927	 0.200704787735923 
928	 0.20134039149209 
929	 0.202052040070595 
930	 0.202866683521128 
931	 0.203728153171018 
932	 0.204501957961358 
933	 0.205298589600282 
934	 0.206087563950036 
935	 0.206851616501331 
936	 0.207749836939913 
937	 0.208383578624355 
938	 0.209041359815822 
939	 0.210028262723268 
940	 0.210863894253215 
941	 0.211740766833789 
942	 0.21264007298769 
943	 0.213491886786674 
944	 0.214351343408661 
945	 0.215244768024565 
946	 0.216142535018267 
947	 0.217021111761357 
948	 0.218021221441309 
949	 0.218926286635801 
950	 0.219750941251934 
951	 0.22064190721724 
952	 0.221711543891376 
953	 0.222598585510712 
954	 0.223323363577148 
955	 0.224166217301134 
956	 0.225421613955826 
957	 0.226459223749902 
958	 0.227296574441848 
959	 0.228314320771434 
960	 0.229265615396504 
961	 0.230227302621945 
962	 0.23122882257798 
963	 0.232242564494842 
964	 0.233184400477426 
965	 0.234231214404553 
966	 0.23538660212043 
967	 0.236512598827199 
968	 0.237470315285201 
969	 0.238487300102926 
970	 0.239666756036858 
971	 0.240934452141868 
972	 0.241917424649825 
973	 0.24296949316524 
974	 0.244145116582156 
975	 0.245299399268727 
976	 0.246668347473345 
977	 0.247861702734556 
978	 0.248928714931718 
979	 0.250163855741456 
980	 0.25131713461977 
981	 0.252575844211554 
982	 0.253889745999826 
983	 0.255088353502508 
984	 0.256276909687293 
985	 0.257471736895047 
986	 0.258843060439777 
987	 0.260480712441009 
988	 0.261733565392776 
989	 0.26287791770691 
990	 0.264179303499542 
991	 0.265727593543696 
992	 0.267023559077595 
993	 0.268382467930796 
994	 0.269827143503246 
995	 0.271230817074953 
996	 0.272530396474289 
997	 0.273886421138763 
998	 0.275262937723436 
999	 0.276641743480704 
1000	 0.278374569198495 
1001	 0.282827931404322 
1002	 0.284277103317883 
1003	 0.28568690378544 
1004	 0.287171602398022 
1005	 0.288772105813781 
1006	 0.290291311789304 
1007	 0.291767624068701 
1008	 0.293330374448662 
1009	 0.294878166256956 
1010	 0.296314885833733 
1011	 0.297762392497402 
1012	 0.299266914541005 
1013	 0.300811746998882 
1014	 0.302306389538297 
1015	 0.303820131460965 
1016	 0.305361903297022 
1017	 0.306882174834302 
1018	 0.308338351028492 
1019	 0.309887528159198 
1020	 0.311485452740999 
1021	 0.313004379650077 
1022	 0.314506883439695 
1023	 0.315989674792949 
1024	 0.31744981839987 
1025	 0.318927211434895 
1026	 0.320453432206053 
1027	 0.321983873153967 
1028	 0.32345697177641 
1029	 0.324952898869791 
1030	 0.326479551519524 
1031	 0.327964807312853 
1032	 0.329421217968555 
1033	 0.330914044640833 
1034	 0.332425143436558 
1035	 0.33387926587779 
1036	 0.335345165302181 
1037	 0.336796654585148 
1038	 0.338266865697621 
1039	 0.339734511726483 
1040	 0.341130891473952 
1041	 0.342596043553685 
1042	 0.34402977176063 
1043	 0.345410296795016 
1044	 0.346810152317558 
1045	 0.348251555214467 
1046	 0.349631407066248 
1047	 0.351013861357042 
1048	 0.352438336566165 
1049	 0.353814276212737 
1050	 0.355217722728079 
1051	 0.356652283693408 
1052	 0.35801188610709 
1053	 0.359370301069019 
1054	 0.360779337962077 
1055	 0.362169803168138 
1056	 0.363533306122875 
1057	 0.364890881134986 
1058	 0.366261670169867 
1059	 0.367618054577344 
1060	 0.368942457731262 
1061	 0.370268477862539 
1062	 0.371624026285977 
1063	 0.372931091953691 
1064	 0.37421054412235 
1065	 0.375516401757183 
1066	 0.376815910511838 
1067	 0.378127707184646 
1068	 0.379477516011189 
1069	 0.380799359701741 
1070	 0.382099107138944 
1071	 0.383378002809974 
1072	 0.384664361321444 
1073	 0.38593570657109 
1074	 0.387197720334267 
1075	 0.388458761447807 
1076	 0.389689089265507 
1077	 0.390920642619447 
1078	 0.392074483875769 
1079	 0.393239401743816 
1080	 0.394437651742095 
1081	 0.39558564942852 
1082	 0.396770915038693 
1083	 0.397928039275444 
1084	 0.399052708965209 
1085	 0.400188137523439 
1086	 0.401343528765484 
1087	 0.402442487032448 
1088	 0.40350767502617 
1089	 0.404596966386833 
1090	 0.405625071257423 
1091	 0.406610232442603 
1092	 0.407631724737722 
1093	 0.408615226845165 
1094	 0.409603336441573 
1095	 0.410591953435286 
1096	 0.411513260104375 
1097	 0.412423781666198 
1098	 0.413317098137112 
1099	 0.414175531871814 
1100	 0.415034603246566 
1101	 0.415892223453833 
1102	 0.416733118186781 
1103	 0.417588101324197 
1104	 0.418366175311471 
1105	 0.419124257370187 
1106	 0.419883256900414 
1107	 0.420622700562049 
1108	 0.421349015370292 
1109	 0.422053112373687 
1110	 0.422782434541115 
1111	 0.423441160515637 
1112	 0.424011083757056 
1113	 0.424651907713356 
1114	 0.425309398370408 
1115	 0.425923158484368 
1116	 0.426580255651447 
1117	 0.427174294013399 
1118	 0.427730187729252 
1119	 0.4282192861105 
1120	 0.428705584285776 
1121	 0.429208009942268 
1122	 0.429666797525524 
1123	 0.430103652008527 
1124	 0.430522879865558 
1125	 0.430936801563783 
1126	 0.431290077865141 
1127	 0.431620429546642 
1128	 0.431901727568446 
1129	 0.432145795932713 
1130	 0.432332004500825 
1131	 0.432507352064254 
1132	 0.43259058989854 
1133	 0.432613921111711 
1134	 0.432569414915654 
1135	 0.432483846967187 
1136	 0.432277515987022 
1137	 0.432011387514837 
1138	 0.431686074615432 
1139	 0.431270660693971 
1140	 0.430803224208712 
1141	 0.43019515270152 
1142	 0.429497041156344 
1143	 0.428699193396725 
1144	 0.427777550067895 
1145	 0.426790051958764 
1146	 0.425696359430679 
1147	 0.424589631724389 
1148	 0.423378095710794 
1149	 0.42218723723673 
1150	 0.420954307486568 
1151	 0.419754937445156 
1152	 0.418586629377711 
1153	 0.417447325890766 
1154	 0.416380580087379 
1155	 0.415345238931879 
1156	 0.414433286534009 
1157	 0.413565766210675 
1158	 0.412823828889046 
1159	 0.412202639902436 
1160	 0.411641595909978 
1161	 0.411164036419533 
1162	 0.410750939243404 
1163	 0.410441211995914 
1164	 0.41014444722096 
1165	 0.409889123562012 
1166	 0.409684412420258 
1167	 0.409502693197859 
1168	 0.409384488109034 
1169	 0.409303445760537 
1170	 0.409289466687785 
1171	 0.409267453233905 
1172	 0.409272544709037 
1173	 0.409294857741455 
1174	 0.409311889390936 
1175	 0.409390668054544 
1176	 0.409497232157527 
1177	 0.409653521422772 
1178	 0.409864914209791 
1179	 0.41010062836452 
1180	 0.410398024262276 
1181	 0.410683473371812 
1182	 0.410981648177733 
1183	 0.411296286857264 
1184	 0.411618465358125 
1185	 0.411959646903673 
1186	 0.412266999066699 
1187	 0.412579784640424 
1188	 0.412875395554194 
1189	 0.41314991471105 
1190	 0.413410830734471 
1191	 0.413671149456344 
1192	 0.413913999678526 
1193	 0.414115956579185 
1194	 0.41433787827716 
1195	 0.414575949135664 
1196	 0.414791235819907 
1197	 0.415001573409745 
1198	 0.415202546987714 
1199	 0.415392372621552 
1200	 0.415551660896708 
1201	 0.415752507691735 
1202	 0.415961298298149 
1203	 0.41617635249512 
1204	 0.41641085176668 
1205	 0.416642633070652 
1206	 0.416882441895506 
1207	 0.417109678640834 
1208	 0.417348167806308 
1209	 0.417566609171184 
1210	 0.417765703809842 
1211	 0.417964503090642 
1212	 0.418162066231077 
1213	 0.418346018507172 
1214	 0.418517871259047 
1215	 0.418687003993832 
1216	 0.41884941348942 
1217	 0.419000582861229 
1218	 0.419152188254517 
1219	 0.419303828945535 
1220	 0.419445553403176 
1221	 0.419579094459554 
1222	 0.419711242266737 
1223	 0.419843766447308 
1224	 0.419961541518547 
1225	 0.420062388730583 
1226	 0.42017535253544 
1227	 0.420283896706272 
1228	 0.42039274287561 
1229	 0.420521618274319 
1230	 0.420627826225071 
1231	 0.420730534018691 
1232	 0.420810649396782 
1233	 0.420874081932803 
1234	 0.420906575043974 
1235	 0.420974070173076 
1236	 0.421034625385595 
1237	 0.421107219253983 
1238	 0.421215755295891 
1239	 0.421288460482662 
1240	 0.421350321216097 
1241	 0.421396500719757 
1242	 0.42141970554212 
1243	 0.421453219044324 
1244	 0.421469325133916 
1245	 0.421501089447326 
1246	 0.421542677237402 
1247	 0.421587420878482 
1248	 0.421646334343653 
1249	 0.421700345924037 
1250	 0.42173892911855 
1251	 0.421756186397922 
1252	 0.42174846817195 
1253	 0.421693930937713 
1254	 0.421670863732297 
1255	 0.42165260419473 
1256	 0.421611206677129 
1257	 0.421571886081912 
1258	 0.421517072343695 
1259	 0.421423748106799 
1260	 0.421355419963447 
1261	 0.421295491540344 
1262	 0.42123200558672 
1263	 0.421182525954427 
1264	 0.421115312204322 
1265	 0.421037890150427 
1266	 0.4209567424148 
1267	 0.420876220816466 
1268	 0.420778075969055 
1269	 0.420654561848351 
1270	 0.420510275712916 
1271	 0.420379000070423 
1272	 0.42023503451632 
1273	 0.420074252469213 
1274	 0.419924363449637 
1275	 0.419743336726091 
1276	 0.419531373739821 
1277	 0.419306431029703 
1278	 0.419065744640142 
1279	 0.418821831915804 
1280	 0.418550643211281 
1281	 0.418284509379263 
1282	 0.418041782297577 
1283	 0.417757180433658 
1284	 0.417454494254645 
1285	 0.417122998095741 
1286	 0.416768569856181 
1287	 0.416430033101432 
1288	 0.41606924126634 
1289	 0.415705565174207 
1290	 0.415314959593555 
1291	 0.414897621351295 
1292	 0.41448318629021 
1293	 0.414071816542839 
1294	 0.41362207869661 
1295	 0.413159623932024 
1296	 0.412668545012972 
1297	 0.412146009450378 
1298	 0.411599591960073 
1299	 0.411025301003878 
1300	 0.41044434505316 
1301	 0.409839575168361 
1302	 0.409217359294603 
1303	 0.408585289181072 
1304	 0.407945759470102 
1305	 0.407276041075056 
1306	 0.40659090199096 
1307	 0.405856787719402 
1308	 0.405081385882864 
1309	 0.404281334926487 
1310	 0.403433205323123 
1311	 0.402568975565898 
1312	 0.401707146438948 
1313	 0.400774428125244 
1314	 0.399797741467098 
1315	 0.39878438156844 
1316	 0.397718519839976 
1317	 0.396631765956343 
1318	 0.395539218902044 
1319	 0.39437552246504 
1320	 0.393162234584005 
1321	 0.391922336602223 
1322	 0.390653915099048 
1323	 0.389316108555917 
1324	 0.387940640113339 
1325	 0.386534376865226 
1326	 0.385081798522699 
1327	 0.383593321072992 
1328	 0.382083105992592 
1329	 0.38056640407923 
1330	 0.378996805271127 
1331	 0.377387730879098 
1332	 0.375743921612866 
1333	 0.374056752423513 
1334	 0.372362606795554 
1335	 0.370616133701595 
1336	 0.368912412805954 
1337	 0.367216429959493 
1338	 0.365531148498373 
1339	 0.363872820549938 
1340	 0.362190205330091 
1341	 0.360455409687091 
1342	 0.358796637400389 
1343	 0.357134213371274 
1344	 0.35555062579083 
1345	 0.354010498322295 
1346	 0.352528740118364 
1347	 0.351092201071808 
1348	 0.349660958483026 
1349	 0.348259291250334 
1350	 0.346902475980916 
1351	 0.345586743398614 
1352	 0.344303737452964 
1353	 0.343034376750629 
1354	 0.341814448549712 
1355	 0.340590776710749 
1356	 0.339361428352992 
1357	 0.338157546246384 
1358	 0.336993892236589 
1359	 0.335808752840024 
1360	 0.334636649856608 
1361	 0.333445185129542 
1362	 0.332237864027642 
1363	 0.331035441008427 
1364	 0.329854412205742 
1365	 0.328621326517198 
1366	 0.327375742431941 
1367	 0.326111703788296 
1368	 0.324791783244437 
1369	 0.323455077486362 
1370	 0.322076314975137 
1371	 0.32064035899758 
1372	 0.319156191773435 
1373	 0.317592585458293 
1374	 0.315939415176612 
1375	 0.314230346919077 
1376	 0.312383189365739 
1377	 0.310442276876316 
1378	 0.308360877151034 
1379	 0.306152096155983 
1380	 0.303840834662965 
1381	 0.301422170014315 
1382	 0.298853287306761 
1383	 0.296178530702474 
1384	 0.293371374977133 
1385	 0.290453135231492 
1386	 0.287389783888536 
1387	 0.284188277069183 
1388	 0.280892161912168 
1389	 0.277487407054376 
1390	 0.273911653398796 
1391	 0.270255375343891 
1392	 0.266485253007836 
1393	 0.262592514551263 
1394	 0.25863197729261 
1395	 0.25455080823509 
1396	 0.250459013570692 
1397	 0.246353124697534 
1398	 0.242159025911102 
1399	 0.238026779794423 
1400	 0.233878218002476 
1401	 0.229815443374236 
1402	 0.225751123686696 
1403	 0.221820324689193 
1404	 0.217938297136404 
1405	 0.214235508828352 
1406	 0.210601374607245 
1407	 0.207157860359808 
1408	 0.203851567898464 
1409	 0.200744458025902 
1410	 0.197809984384145 
1411	 0.195051249949436 
1412	 0.192468321504257 
1413	 0.190079034718691 
1414	 0.18785960862141 
1415	 0.185754288223342 
1416	 0.183815782208674 
1417	 0.182004468293446 
1418	 0.180286379967383 
1419	 0.178686855618968 
1420	 0.177179876681313 
1421	 0.175759280470281 
1422	 0.174409768723432 
1423	 0.173118410047894 
1424	 0.171892407346193 
1425	 0.170734157289677 
1426	 0.169635140821917 
1427	 0.168610098109167 
1428	 0.167616711159076 
1429	 0.16668698736107 
1430	 0.165782997409305 
1431	 0.164917264190855 
1432	 0.164078437844866 
1433	 0.163280445484457 
1434	 0.162499627891592 
1435	 0.161754367905529 
1436	 0.161013489642159 
1437	 0.160293362048861 
1438	 0.159586530906833 
1439	 0.158890380904946 
1440	 0.15820322616224 
1441	 0.157544051910514 
1442	 0.156881697098239 
1443	 0.156226167629405 
1444	 0.155608092567316 
1445	 0.155006422606499 
1446	 0.154454993151253 
1447	 0.1539639154692 
1448	 0.153522353090634 
1449	 0.153144868930296 
1450	 0.152845516929695 
1451	 0.152640135867128 
1452	 0.152518892741412 
1453	 0.152461733456119 
1454	 0.152514893024079 
1455	 0.152580356307047 
1456	 0.15270200023721 
1457	 0.152848236886644 
1458	 0.15305332987693 
1459	 0.153242367038469 
1460	 0.153475051683772 
1461	 0.153669764613001 
1462	 0.153861609304214 
1463	 0.154029821937898 
1464	 0.154180326291092 
1465	 0.154308958818132 
1466	 0.154409879965459 
1467	 0.154509558838737 
1468	 0.154591073666976 
1469	 0.154670204908297 
1470	 0.154746158545138 
1471	 0.154808826185875 
1472	 0.154874275738199 
1473	 0.154947917823063 
1474	 0.155036301945397 
1475	 0.155132840984602 
1476	 0.15522233288017 
1477	 0.155314313904715 
1478	 0.155419381717907 
1479	 0.155531927383513 
1480	 0.155661942489598 
1481	 0.155802265223246 
1482	 0.155943869496617 
1483	 0.156082133721768 
1484	 0.156251787506163 
1485	 0.15643840064376 
1486	 0.156629735748767 
1487	 0.15684571037649 
1488	 0.157055094695851 
1489	 0.157267066967902 
1490	 0.157477434157174 
1491	 0.157701486727434 
1492	 0.15790573917811 
1493	 0.158095780958855 
1494	 0.158289716866577 
1495	 0.158473381268028 
1496	 0.158662586811555 
1497	 0.158863997312687 
1498	 0.159049546643189 
1499	 0.159228567829324 
1500	 0.159403697133815 
1501	 0.159575360049069 
1502	 0.159731396409945 
1503	 0.15987853697003 
1504	 0.160019292240529 
1505	 0.160149453343334 
1506	 0.160258659319398 
1507	 0.160366681156118 
1508	 0.16049193141601 
1509	 0.160608219342374 
1510	 0.160715511921548 
1511	 0.160832906526266 
1512	 0.160942328435679 
1513	 0.161050336936023 
1514	 0.161165266158815 
1515	 0.161273168914958 
1516	 0.161377223235187 
1517	 0.161478765450237 
1518	 0.161574114610866 
1519	 0.161671085049678 
1520	 0.161771823225518 
1521	 0.161858154038732 
1522	 0.161940097637986 
1523	 0.162010724321589 
1524	 0.162058835222643 
1525	 0.16213098459906 
1526	 0.162205965326418 
1527	 0.162283821353105 
1528	 0.162387968863778 
1529	 0.162458655070921 
1530	 0.162513830593454 
1531	 0.162562712812446 
1532	 0.162590296896886 
1533	 0.162622786299135 
1534	 0.162650561894049 
1535	 0.162685905575567 
1536	 0.162725508549784 
1537	 0.162757451410894 
1538	 0.162796442017 
1539	 0.162817678850594 
1540	 0.162814966319011 
1541	 0.162830383595121 
1542	 0.16284626269349 
1543	 0.162859685084748 
1544	 0.162884885259058 
1545	 0.162903853057886 
1546	 0.162916928461084 
1547	 0.162930937260483 
1548	 0.162940302446425 
1549	 0.162925061166574 
1550	 0.162915969825604 
1551	 0.162909616376884 
1552	 0.162882469495496 
1553	 0.16287892440957 
1554	 0.162868254404268 
1555	 0.162828174519161 
1556	 0.162815959084765 
1557	 0.162809091069752 
1558	 0.162786641736134 
1559	 0.162779170759522 
1560	 0.162757257574099 
1561	 0.162727865604994 
1562	 0.162690877412284 
1563	 0.162645763608231 
1564	 0.162605255441609 
1565	 0.162558213272842 
1566	 0.162519245670555 
1567	 0.162488321805046 
1568	 0.162449739863259 
1569	 0.162403839372847 
1570	 0.162368092701199 
1571	 0.162342057728722 
1572	 0.162298859038353 
1573	 0.162256570538491 
1574	 0.16220914575321 
1575	 0.162143963715783 
1576	 0.162085360439385 
1577	 0.16203319692812 
1578	 0.161974132067865 
1579	 0.161906792904259 
1580	 0.161844672323781 
1581	 0.161785028332495 
1582	 0.161719478232136 
1583	 0.161658420633003 
1584	 0.161585974970971 
1585	 0.161507203962053 
1586	 0.161422295124073 
1587	 0.161321123947886 
1588	 0.161229832005129 
1589	 0.161141282209069 
1590	 0.161044830791642 
1591	 0.160952041506183 
1592	 0.160855360788373 
1593	 0.160743792904946 
1594	 0.160641847970902 
1595	 0.160555183151009 
1596	 0.160447365185593 
1597	 0.160330224011559 
1598	 0.160214402699678 
1599	 0.160081390096965 
1600	 0.159956274479959 
1601	 0.159844354145053 
1602	 0.159721183951181 
1603	 0.159598348200755 
1604	 0.159464848559038 
1605	 0.159311393613373 
1606	 0.159166313801476 
1607	 0.159019638738645 
1608	 0.15887409742129 
1609	 0.158720076968535 
1610	 0.158583512830473 
1611	 0.158430316224101 
1612	 0.158251680902286 
1613	 0.158081626388798 
1614	 0.157909211029955 
1615	 0.157729335972855 
1616	 0.157560340949126 
1617	 0.157401897743327 
1618	 0.157221893890877 
1619	 0.157040047959004 
1620	 0.156869552967867 
1621	 0.15668255161784 
1622	 0.156480485296 
1623	 0.156291165698484 
1624	 0.156100288593565 
1625	 0.155911695431694 
1626	 0.155729306174613 
1627	 0.155539980609136 
1628	 0.155351267941923 
1629	 0.155154960699973 
1630	 0.154950923084167 
1631	 0.154752608470415 
1632	 0.154549431595998 
1633	 0.154351336210605 
1634	 0.154158552151562 
1635	 0.153964133370899 
1636	 0.153773748700991 
1637	 0.153570420996738 
1638	 0.15337225026408 
1639	 0.1531475207496 
1640	 0.152890306920163 
1641	 0.152667740598511 
1642	 0.152439572772612 
1643	 0.152228587259229 
1644	 0.152051743126674 
1645	 0.151845887320869 
1646	 0.151625031012019 
1647	 0.151421779017412 
1648	 0.151220563081812 
1649	 0.151017034817129 
1650	 0.150828776870035 
1651	 0.15061940897336 
1652	 0.150396465252269 
1653	 0.150172296583724 
1654	 0.149932096094243 
1655	 0.149712422225626 
1656	 0.149500821092737 
1657	 0.149281274254177 
1658	 0.149070805406293 
1659	 0.148852925425775 
1660	 0.148620403653256 
1661	 0.148399013347175 
1662	 0.148189204487598 
1663	 0.147966786460776 
1664	 0.147735533414143 
1665	 0.147513417803187 
1666	 0.14728376832448 
1667	 0.14707170399529 
1668	 0.146879550762791 
1669	 0.146673299009106 
1670	 0.146475622751827 
1671	 0.146261633398294 
1672	 0.146025781301285 
1673	 0.145811624371824 
1674	 0.145602516235266 
1675	 0.145391446777046 
1676	 0.1451946264183 
1677	 0.144984750599794 
1678	 0.144756906872498 
1679	 0.144548905531063 
1680	 0.144351043656705 
1681	 0.144146985742012 
1682	 0.143944935857916 
1683	 0.143750356064616 
1684	 0.143560350036977 
1685	 0.143359329296276 
1686	 0.143159438307162 
1687	 0.142964093811964 
1688	 0.142751685292501 
1689	 0.142562284688336 
1690	 0.14240273378501 
1691	 0.142218323726419 
1692	 0.142035522209403 
1693	 0.141838473907891 
1694	 0.141609766348447 
1695	 0.141417198124894 
1696	 0.141235579727709 
1697	 0.141054470307292 
1698	 0.14090104511876 
1699	 0.140722505452742 
1700	 0.140521324715738 
1701	 0.140340434019448 
1702	 0.140164890166353 
1703	 0.139988447441792 
1704	 0.139832292522209 
1705	 0.139645318508962 
1706	 0.139438740765104 
1707	 0.139237354839218 
1708	 0.139012362689468 
1709	 0.138815126134642 
1710	 0.13863251084467 
1711	 0.138450612702315 
1712	 0.138285391402358 
1713	 0.138109347592315 
1714	 0.137922349536855 
1715	 0.137750856085831 
1716	 0.1375908622896 
1717	 0.137418474793571 
1718	 0.137249026136817 
1719	 0.137080656830032 
1720	 0.136902169237594 
1721	 0.136729871926713 
1722	 0.136556550399494 
1723	 0.136408614041785 
1724	 0.136276540916466 
1725	 0.136125018928955 
1726	 0.135993330419682 
1727	 0.135836045763561 
1728	 0.135640963589494 
1729	 0.13548283631889 
1730	 0.135342494716852 
1731	 0.135187541306799 
1732	 0.135037971612402 
1733	 0.134883078094475 
1734	 0.134718071201872 
1735	 0.134558457420631 
1736	 0.134397370430811 
1737	 0.134245589792972 
1738	 0.134098142869078 
1739	 0.133950317997181 
1740	 0.133806993650445 
1741	 0.13367351061016 
1742	 0.133540833973143 
1743	 0.133414502042411 
1744	 0.133308228344063 
1745	 0.133179262050375 
1746	 0.133042728832928 
1747	 0.13287631501479 
1748	 0.13272888080718 
1749	 0.132587566183983 
1750	 0.132448715567802 
1751	 0.132333814941367 
1752	 0.132207339446772 
1753	 0.132061828862056 
1754	 0.131933997889832 
1755	 0.131821371168302 
1756	 0.131703208058482 
1757	 0.131591171674753 
1758	 0.131469898600066 
1759	 0.13130553998662 
1760	 0.131149908576967 
1761	 0.131009539544398 
1762	 0.130875563411173 
1763	 0.130782696135986 
1764	 0.130677610889262 
1765	 0.130565974110746 
1766	 0.130444143668787 
1767	 0.130280548858211 
1768	 0.130142737334276 
1769	 0.13003775165581 
1770	 0.129928348951599 
1771	 0.129816399785054 
1772	 0.129733535611601 
1773	 0.12963303099685 
1774	 0.129515518270347 
1775	 0.129460073788159 
1776	 0.129377945161889 
1777	 0.129251157994282 
1778	 0.129143582651119 
1779	 0.129030766812226 
1780	 0.128917713094023 
1781	 0.128843198194498 
1782	 0.128786867588583 
1783	 0.12867313340926 
1784	 0.128601282606228 
1785	 0.128548829993641 
1786	 0.128483597641853 
1787	 0.128448593755874 
1788	 0.128389535628427 
1789	 0.128290114448537 
1790	 0.128221919926201 
1791	 0.128180384465833 
1792	 0.128121958098354 
1793	 0.128061189657524 
1794	 0.128001125098031 
1795	 0.127932268723369 
1796	 0.127871592347626 
1797	 0.127809817946169 
1798	 0.127761853117951 
1799	 0.127719294061512 
1800	 0.12767563253809 
1801	 0.127878478195589 
1802	 0.127845313771527 
1803	 0.127814917752848 
1804	 0.127777864917511 
1805	 0.127770583502668 
1806	 0.127770546917195 
1807	 0.127782353050377 
1808	 0.127770058966458 
1809	 0.127734817811968 
1810	 0.127704568053645 
1811	 0.12766740224565 
1812	 0.127628943945016 
1813	 0.127596894452787 
1814	 0.127586903779492 
1815	 0.127569584194912 
1816	 0.12753466864834 
1817	 0.127508034103388 
1818	 0.127480469760548 
1819	 0.127456704791178 
1820	 0.127434664127805 
1821	 0.127418033504692 
1822	 0.127400892871879 
1823	 0.127353392246621 
1824	 0.127305041002983 
1825	 0.12727980209498 
1826	 0.127247253822178 
1827	 0.127210700928755 
1828	 0.127175935065892 
1829	 0.127159084241554 
1830	 0.127099107468399 
1831	 0.127009148934263 
1832	 0.126940076840997 
1833	 0.126863310706857 
1834	 0.126787441927556 
1835	 0.126751314338233 
1836	 0.126698505405048 
1837	 0.126644304701302 
1838	 0.126586434601973 
1839	 0.126523464852985 
1840	 0.126453069357415 
1841	 0.126402391342918 
1842	 0.126324171921382 
1843	 0.126240723409865 
1844	 0.126153402988776 
1845	 0.126044541797382 
1846	 0.125944401430014 
1847	 0.125835219406803 
1848	 0.125707507167712 
1849	 0.125564524107215 
1850	 0.125414481443565 
1851	 0.125252471083446 
1852	 0.125076241460193 
1853	 0.124889922018378 
1854	 0.124691173929271 
1855	 0.124456174836306 
1856	 0.124216066452045 
1857	 0.123958947788567 
1858	 0.123675156574411 
1859	 0.123400219253324 
1860	 0.123089685917424 
1861	 0.122749976100399 
1862	 0.122381636597394 
1863	 0.122011329414951 
1864	 0.121622129918047 
1865	 0.121225060781578 
1866	 0.120794262449719 
1867	 0.12033683931886 
1868	 0.119847414651772 
1869	 0.119302440410903 
1870	 0.11873280744412 
1871	 0.118123036489216 
1872	 0.117484148401295 
1873	 0.116787621908616 
1874	 0.116051886685327 
1875	 0.115290847641782 
1876	 0.114500984018162 
1877	 0.113684990341916 
1878	 0.112842300903533 
1879	 0.111956044989283 
1880	 0.111004840714931 
1881	 0.109980896754662 
1882	 0.108933406907434 
1883	 0.107836161871809 
1884	 0.106682616313754 
1885	 0.10553184051567 
1886	 0.104380373656255 
1887	 0.103162969464028 
1888	 0.101922315876896 
1889	 0.10061842600261 
1890	 9.92630476850808E-02 
1891	 9.79286399728251E-02 
1892	 9.65564492403135E-02 
1893	 0.095207487644955 
1894	 9.38726693705631E-02 
1895	 9.25463600035054E-02 
1896	 9.11778927066021E-02 
1897	 8.98648187119877E-02 
1898	 8.85402733510027E-02 
1899	 8.72196820475006E-02 
1900	 8.59952799107687E-02 
1901	 8.47983661166702E-02 
1902	 8.36712638602387E-02 
1903	 8.26279406986842E-02 
1904	 0.081631392900001 
1905	 8.06738860500743E-02 
1906	 7.97977111879193E-02 
1907	 7.89873476972713E-02 
1908	 7.82163430141034E-02 
1909	 7.75288417636729E-02 
1910	 7.68654122843593E-02 
1911	 7.62322893612907E-02 
1912	 7.56662672125515E-02 
1913	 7.51221225781802E-02 
1914	 0.074599574966383 
1915	 7.41277226158475E-02 
1916	 7.37104714460273E-02 
1917	 7.33071241550708E-02 
1918	 7.29400937791903E-02 
1919	 7.25814092846697E-02 
1920	 0.072228147089619 
1921	 7.18979965557337E-02 
1922	 7.15773493475454E-02 
1923	 7.12797416263896E-02 
1924	 7.10040504246805E-02 
1925	 7.07519724583808E-02 
1926	 0.070514363218121 
1927	 7.02889420678341E-02 
1928	 7.00972462640664E-02 
1929	 6.99248577539133E-02 
1930	 0.069776544994514 
1931	 6.96470960403161E-02 
1932	 6.95319957691217E-02 
1933	 6.94485369732612E-02 
1934	 6.93772783246617E-02 
1935	 6.93175704864462E-02 
1936	 6.92817869313569E-02 
1937	 6.92559422071613E-02 
1938	 6.92312284899756E-02 
1939	 6.92264351642488E-02 
1940	 6.92443358032948E-02 
1941	 6.92683746229545E-02 
1942	 0.069292072558234 
1943	 6.93606711425989E-02 
1944	 6.94593965056887E-02 
1945	 6.95568679622912E-02 
1946	 6.96722675904705E-02 
1947	 6.98207615977145E-02 
1948	 6.99570625353461E-02 
1949	 7.00934968884432E-02 
1950	 7.02435238076475E-02 
1951	 7.04069011958643E-02 
1952	 7.05535572574942E-02 
1953	 7.07339763790952E-02 
1954	 7.09295311429049E-02 
1955	 7.10946512343595E-02 
1956	 7.12778563287511E-02 
1957	 7.14408580218047E-02 
1958	 7.15819728315108E-02 
1959	 7.17222261076612E-02 
1960	 7.18528643029166E-02 
1961	 7.19878196604188E-02 
1962	 7.21231423763007E-02 
1963	 7.22533598589677E-02 
1964	 7.23772658228388E-02 
1965	 7.25086409138301E-02 
1966	 7.26517291697664E-02 
1967	 7.27905627487633E-02 
1968	 7.29298665379637E-02 
1969	 7.30820268352937E-02 
1970	 7.32303829929238E-02 
1971	 7.33649505674599E-02 
1972	 7.35137651931201E-02 
1973	 7.36786076718834E-02 
1974	 7.38328227463747E-02 
1975	 7.39852692123806E-02 
1976	 7.41381872967072E-02 
1977	 7.42864494060473E-02 
1978	 7.44516687690378E-02 
1979	 7.46285414640802E-02 
1980	 7.48182222173129E-02 
1981	 0.07500182603854 
1982	 7.51836607226291E-02 
1983	 7.53799467686425E-02 
1984	 7.55919726295975E-02 
1985	 7.57880880208447E-02 
1986	 7.59894296832565E-02 
1987	 7.61848367092828E-02 
1988	 7.63732588540643E-02 
1989	 7.65513825561712E-02 
1990	 7.67094467260275E-02 
1991	 7.68991012510735E-02 
1992	 7.70833451550473E-02 
1993	 7.72600855986551E-02 
1994	 7.74406119455324E-02 
1995	 7.76333109402303E-02 
1996	 7.78214924896847E-02 
1997	 7.80105997891964E-02 
1998	 7.81902013504577E-02 
1999	 7.83700968551569E-02 
2000	 7.85472137823152E-02 
2001	 7.87125962211231E-02 
2002	 7.88774675791419E-02 
2003	 7.90435995897718E-02 
2004	 7.92159086302923E-02 
2005	 7.93856588948584E-02 
2006	 0.079553986416639 
2007	 7.97182475297513E-02 
2008	 7.98833378392678E-02 
2009	 8.00455305477198E-02 
2010	 0.080195088113901 
2011	 8.03599394417664E-02 
2012	 8.05347247432086E-02 
2013	 8.07049179233796E-02 
2014	 8.08847750915693E-02 
2015	 8.10562998860896E-02 
2016	 8.12181355709415E-02 
2017	 8.13839663923447E-02 
2018	 8.15509300646535E-02 
2019	 8.17144407042185E-02 
2020	 8.18909435901636E-02 
2021	 0.082078445922274 
2022	 8.22559207041217E-02 
2023	 8.24513213300917E-02 
2024	 8.26149825993681E-02 
2025	 8.27384012746895E-02 
2026	 8.28946932599132E-02 
2027	 8.30500666433509E-02 
2028	 8.32134767506423E-02 
2029	 8.33781929363836E-02 
2030	 8.35646783541553E-02 
2031	 8.37372113567839E-02 
2032	 8.39010987237378E-02 
2033	 8.40655162644362E-02 
2034	 8.42401017340777E-02 
2035	 8.44003058688027E-02 
2036	 8.45415913347835E-02 
2037	 8.46926143413183E-02 
2038	 8.48525007003513E-02 
2039	 8.49976253762785E-02 
2040	 8.51324541369212E-02 
2041	 0.085272519543627 
2042	 8.54076461103959E-02 
2043	 8.55369746946138E-02 
2044	 8.56923241503454E-02 
2045	 8.58753651402807E-02 
2046	 0.086035659049262 
2047	 8.62086228011762E-02 
2048	 8.63599739204748E-02 
2049	 8.64937673433215E-02 
2050	 8.66269609273861E-02 
2051	 8.67452733909607E-02 
2052	 8.68710756313692E-02 
2053	 8.69868488680696E-02 
2054	 8.71155476028338E-02 
2055	 8.72550135353031E-02 
2056	 8.73965433990619E-02 
2057	 8.75374331023062E-02 
2058	 8.76915671705981E-02 
2059	 0.087825263353651 
2060	 8.79465801960415E-02 
2061	 8.80738240408832E-02 
2062	 8.81876890411557E-02 
2063	 8.83171387601713E-02 
2064	 8.84618058994057E-02 
2065	 8.85957738515712E-02 
2066	 8.87436113584991E-02 
2067	 8.88689278870201E-02 
2068	 8.89665795484973E-02 
2069	 0.08907705015187 
2070	 8.91941940044299E-02 
2071	 8.93008818872773E-02 
2072	 8.94267442003655E-02 
2073	 8.95781089948114E-02 
2074	 8.97102933432365E-02 
2075	 8.98409414803376E-02 
2076	 8.99696408013016E-02 
2077	 9.00962647537441E-02 
2078	 9.02151778276045E-02 
2079	 9.03324257772721E-02 
2080	 9.04433520589535E-02 
2081	 9.05356023934559E-02 
2082	 9.06435550139491E-02 
2083	 0.090767718443098 
2084	 9.08659951833237E-02 
2085	 9.09839866378037E-02 
2086	 9.11163669059782E-02 
2087	 9.12345183535375E-02 
2088	 9.13518831887526E-02 
2089	 9.14647413154547E-02 
2090	 9.15731899125951E-02 
2091	 9.16763577021278E-02 
2092	 9.17730302588177E-02 
2093	 9.18712759618306E-02 
2094	 9.19551477158372E-02 
2095	 9.20575214115448E-02 
2096	 9.21835116498737E-02 
2097	 9.22882086155191E-02 
2098	 9.23886412841161E-02 
2099	 9.24893271822284E-02 
2100	 9.25899977671841E-02 
2101	 9.26705448737787E-02 
2102	 0.092776233992057 
2103	 9.28984001431891E-02 
2104	 9.30191046639895E-02 
2105	 9.31537984390322E-02 
2106	 9.32696645262983E-02 
2107	 9.33836461818789E-02 
2108	 9.34932723847914E-02 
2109	 9.35789926094527E-02 
2110	 9.36846207538355E-02 
2111	 9.38020632362529E-02 
2112	 9.39183483171237E-02 
2113	 9.40414052996216E-02 
2114	 9.41643371137898E-02 
2115	 9.42880073021764E-02 
2116	 9.44127704023093E-02 
2117	 9.45346682077711E-02 
2118	 9.46640850143952E-02 
2119	 9.47751171108535E-02 
2120	 9.48768797795845E-02 
2121	 9.49763525024148E-02 
2122	 9.50622286469348E-02 
2123	 9.51531526344716E-02 
2124	 9.52329955335911E-02 
2125	 9.53314086622523E-02 
2126	 0.095448444739473 
2127	 9.55484379665481E-02 
2128	 9.56575583509414E-02 
2129	 9.57565797063596E-02 
2130	 9.58375443157749E-02 
2131	 9.59188393640791E-02 
2132	 9.59918130469962E-02 
2133	 9.60591224757066E-02 
2134	 9.61316787781937E-02 
2135	 9.62045768335151E-02 
2136	 9.62603270805154E-02 
2137	 9.63148381497809E-02 
2138	 9.63621299947041E-02 
2139	 9.63930388756258E-02 
2140	 9.64201251511825E-02 
2141	 9.64426165534101E-02 
2142	 0.096466757744297 
2143	 9.64742896005121E-02 
2144	 9.64928497259515E-02 
2145	 9.65339678359307E-02 
2146	 0.096555704624631 
2147	 9.65621783510237E-02 
2148	 9.65755457834925E-02 
2149	 9.65861806246392E-02 
2150	 9.65841390981602E-02 
2151	 0.096593904432662 
2152	 9.66201717372962E-02 
2153	 9.66248385440808E-02 
2154	 9.66302744648194E-02 
2155	 9.66156910474921E-02 
2156	 9.65786301201219E-02 
2157	 9.65464484424201E-02 
2158	 9.64991781384292E-02 
2159	 9.64592479419483E-02 
2160	 9.64254985213406E-02 
2161	 0.096386185605591 
2162	 0.096347929044718 
2163	 9.63039562563515E-02 
2164	 9.62529036724425E-02 
2165	 0.09620072671413 
2166	 9.61499214632839E-02 
2167	 0.096089141631115 
2168	 9.60488933997536E-02 
2169	 9.60203212270836E-02 
2170	 0.095985750545271 
2171	 0.095959500225862 
2172	 9.59326808031863E-02 
2173	 0.095905364779188 
2174	 9.58735845257481E-02 
2175	 9.58478658879824E-02 
2176	 9.58135016357735E-02 
2177	 9.57666625461588E-02 
2178	 9.57247943586158E-02 
2179	 9.56923819283116E-02 
2180	 9.56444220990983E-02 
2181	 9.55818976672066E-02 
2182	 0.095525569743087 
2183	 9.54689459752043E-02 
2184	 9.53954089337157E-02 
2185	 9.53410809523694E-02 
2186	 9.52925638630179E-02 
2187	 9.52548454110729E-02 
2188	 9.52236714852057E-02 
2189	 9.52011872899035E-02 
2190	 9.52091391799791E-02 
2191	 0.095181368357158 
2192	 9.51413096444458E-02 
2193	 9.51013382873935E-02 
2194	 9.50364371533902E-02 
2195	 9.49861676154374E-02 
2196	 9.49521098029771E-02 
2197	 9.49069886530236E-02 
2198	 9.48415778959445E-02 
2199	 9.48000135866481E-02 
2200	 9.47814947425172E-02 
2201	 9.47438246274236E-02 
2202	 9.47016766892061E-02 
2203	 9.46798538698074E-02 
2204	 9.46354730630854E-02 
2205	 0.094569814024197 
2206	 9.45048047441525E-02 
2207	 9.44213694583979E-02 
2208	 9.43833568020476E-02 
2209	 9.43552523406206E-02 
2210	 9.43345363271106E-02 
2211	 9.43547240165664E-02 
2212	 0.094354007854865 
2213	 9.43413051706156E-02 
2214	 9.43315564183189E-02 
2215	 9.43298278381102E-02 
2216	 9.43229592921276E-02 
2217	 9.43208823844072E-02 
2218	 9.42953838191999E-02 
2219	 9.42465282221896E-02 
2220	 9.42171052051755E-02 
2221	 9.41830831540846E-02 
2222	 9.41427687242461E-02 
2223	 9.41096359090353E-02 
2224	 9.41047834235136E-02 
2225	 9.40956701078755E-02 
2226	 9.40807150664218E-02 
2227	 9.40735191197007E-02 
2228	 9.40847163765547E-02 
2229	 0.094085519527237 
2230	 9.40899195581859E-02 
2231	 9.40770954610196E-02 
2232	 9.40636366288814E-02 
2233	 9.40348609300671E-02 
2234	 9.39657205838347E-02 
2235	 9.39371258642545E-02 
2236	 9.39242187199375E-02 
2237	 9.39068329616844E-02 
2238	 9.39250140308819E-02 
2239	 9.39025839289127E-02 
2240	 9.38443002721271E-02 
2241	 9.38068945660527E-02 
2242	 9.37626902642183E-02 
2243	 9.37178806183183E-02 
2244	 9.36792096568347E-02 
2245	 9.36421071910197E-02 
2246	 9.36176816548727E-02 
2247	 9.35905388669579E-02 
2248	 9.35564935300096E-02 
2249	 9.35354416259002E-02 
2250	 9.34938805415116E-02 
2251	 9.34220869007221E-02 
2252	 9.33890234043989E-02 
2253	 0.093376866511944 
2254	 9.33489939374314E-02 
2255	 0.093339952830935 
2256	 9.32921087313715E-02 
2257	 0.093206260432524 
2258	 9.31495681861431E-02 
2259	 9.30872115362093E-02 
2260	 9.30378536030506E-02 
2261	 9.30236021529924E-02 
2262	 9.29736035184528E-02 
2263	 9.29047638221395E-02 
2264	 9.28308568800774E-02 
2265	 9.27273891833613E-02 
2266	 9.26457841442482E-02 
2267	 9.25720559052192E-02 
2268	 9.25042979276045E-02 
2269	 9.24533712374056E-02 
2270	 0.092397202305532 
2271	 9.23321661477644E-02 
2272	 9.22457670856823E-02 
2273	 9.21407421641437E-02 
2274	 9.20406387760143E-02 
2275	 9.19348443262148E-02 
2276	 9.18112782231237E-02 
2277	 9.17219681339791E-02 
2278	 9.16406082491495E-02 
2279	 9.15644406913552E-02 
2280	 9.15404424436161E-02 
2281	 0.091445170817153 
2282	 9.13024776480552E-02 
2283	 9.11891325007204E-02 
2284	 9.10365613427837E-02 
2285	 9.09261590520187E-02 
2286	 9.08837837347743E-02 
2287	 9.07821538517494E-02 
2288	 9.06720259066234E-02 
2289	 9.05414243311806E-02 
2290	 9.03235315430497E-02 
2291	 9.01919647640953E-02 
2292	 9.01175998056075E-02 
2293	 9.00075647601893E-02 
2294	 8.99412782308514E-02 
2295	 8.98485368722695E-02 
2296	 8.97382069872767E-02 
2297	 8.95800656658334E-02 
2298	 8.94184140474854E-02 
2299	 8.92380758636351E-02 
2300	 8.90531125124777E-02 
2301	 8.89079504252281E-02 
2302	 8.87837137186538E-02 
2303	 8.86733021710106E-02 
2304	 8.85510904618674E-02 
2305	 8.83776598660471E-02 
2306	 8.82248662989155E-02 
2307	 8.80539789749185E-02 
2308	 8.79286312668853E-02 
2309	 8.78400816191843E-02 
2310	 8.77125611546125E-02 
2311	 8.75921373618805E-02 
2312	 0.087458301767434 
2313	 8.72983243311678E-02 
2314	 8.71388451553274E-02 
2315	 8.69745184948528E-02 
2316	 8.68235801694917E-02 
2317	 8.66530831881291E-02 
2318	 8.65043250961092E-02 
2319	 8.64119886287396E-02 
2320	 8.62631208328131E-02 
2321	 8.61024519032732E-02 
2322	 8.59179964861376E-02 
2323	 8.56522730174154E-02 
2324	 8.54559036150594E-02 
2325	 0.085293650228114 
2326	 8.51053745071289E-02 
2327	 8.49222965195237E-02 
2328	 8.47821478369939E-02 
2329	 8.45713046481775E-02 
2330	 8.43829349090848E-02 
2331	 0.084238519153717 
2332	 8.40927215648674E-02 
2333	 0.083979815232161 
2334	 8.38851237484928E-02 
2335	 8.37798309590711E-02 
2336	 8.36480513889013E-02 
2337	 8.34590906116338E-02 
2338	 8.32449771709415E-02 
2339	 8.30119378786254E-02 
2340	 8.28011747674056E-02 
2341	 8.26764798832177E-02 
2342	 8.25482999497548E-02 
2343	 0.082405422414934 
2344	 8.22699831400917E-02 
2345	 8.20946987369761E-02 
2346	 8.18616380489761E-02 
2347	 8.16621675203313E-02 
2348	 8.14696416998493E-02 
2349	 8.12548119227945E-02 
2350	 8.10381268522263E-02 
2351	 0.080798780485593 
2352	 8.05129628616421E-02 
2353	 8.02884153571485E-02 
2354	 8.00967959642922E-02 
2355	 7.98715046696133E-02 
2356	 7.96457607514282E-02 
2357	 7.94448437739685E-02 
2358	 7.92191706324082E-02 
2359	 7.90266408883342E-02 
2360	 7.89192222105689E-02 
2361	 7.87302715634656E-02 
2362	 7.84918856245809E-02 
2363	 7.82820921168131E-02 
2364	 0.078033132212784 
2365	 7.78346000058583E-02 
2366	 7.76944530814871E-02 
2367	 7.74920653342999E-02 
2368	 0.077300718640413 
2369	 7.70824497703627E-02 
2370	 7.68034873167864E-02 
2371	 7.65564150764118E-02 
2372	 7.63173705147886E-02 
2373	 7.60789584242051E-02 
2374	 7.58734939176475E-02 
2375	 7.56737202891497E-02 
2376	 7.55084780844889E-02 
2377	 7.53038242571516E-02 
2378	 7.50560294025038E-02 
2379	 7.48289623880645E-02 
2380	 7.46152047321522E-02 
2381	 7.43988756887402E-02 
2382	 7.41740640473253E-02 
2383	 7.39586271179326E-02 
2384	 7.37083380657007E-02 
2385	 7.34756692375829E-02 
2386	 7.33650846828575E-02 
2387	 7.31951418242224E-02 
2388	 0.07293952406416 
2389	 7.27066313375699E-02 
2390	 7.24414229874025E-02 
2391	 0.072228236553375 
2392	 7.21088269406822E-02 
2393	 7.19782785906009E-02 
2394	 7.17708665573361E-02 
2395	 7.15506096643839E-02 
2396	 0.071347094046005 
2397	 7.11702285218163E-02 
2398	 7.10520910451047E-02 
2399	 7.08816992729099E-02 
2400	 7.06907964741203E-02 
2401	 7.04858486576202E-02 
2402	 7.02103034370174E-02 
2403	 7.00417938138816E-02 
2404	 6.99342071842822E-02 
2405	 6.97860106770982E-02 
2406	 0.069696918637034 
2407	 6.95803381035862E-02 
2408	 6.94420130190806E-02 
2409	 6.93458244466167E-02 
2410	 6.91745327330233E-02 
2411	 6.89354530936777E-02 
2412	 6.87161660054977E-02 
2413	 6.85256309683171E-02 
2414	 6.83659337542839E-02 
2415	 6.82923221325908E-02 
2416	 6.81928104463358E-02 
2417	 6.81142678432238E-02 
2418	 6.79639647159721E-02 
2419	 6.77586546094869E-02 
2420	 6.75666964453908E-02 
2421	 6.73495758162923E-02 
2422	 6.71748978539301E-02 
2423	 6.70372041588946E-02 
2424	 6.68891378690738E-02 
2425	 6.67309951374894E-02 
2426	 6.65515346806396E-02 
2427	 6.63439829250732E-02 
2428	 6.62335270686791E-02 
2429	 0.066177190282014 
2430	 6.60877153340415E-02 
2431	 6.60639346715072E-02 
2432	 6.59347967884259E-02 
2433	 6.57219296029847E-02 
2434	 6.55654306902603E-02 
2435	 6.53913615107698E-02 
2436	 6.52388382916076E-02 
2437	 6.51209719779373E-02 
2438	 6.49482506539631E-02 
2439	 6.47492094070162E-02 
2440	 6.46114868053563E-02 
2441	 6.44456323742368E-02 
2442	 6.43132881447886E-02 
2443	 6.42536411463403E-02 
2444	 6.41065650907288E-02 
2445	 6.39865074615603E-02 
2446	 6.38011825974366E-02 
2447	 6.35072443444521E-02 
2448	 6.32904804576936E-02 
2449	 6.30568079270612E-02 
2450	 0.062879842969685 
2451	 6.27814087115858E-02 
2452	 6.26247343945485E-02 
2453	 6.24197187882018E-02 
2454	 6.22111535532005E-02 
2455	 6.20171325605994E-02 
2456	 6.18609001902614E-02 
2457	 6.17220819834503E-02 
2458	 6.15909846626527E-02 
2459	 6.15075844368832E-02 
2460	 6.13336808290023E-02 
2461	 6.10512201033756E-02 
2462	 6.09414061326958E-02 
2463	 6.08678675831615E-02 
2464	 6.07999072660445E-02 
2465	 6.09489634060767E-02 
2466	 6.08490638220285E-02 
2467	 6.05788283877995E-02 
2468	 6.03371374934028E-02 
2469	 5.99110401012736E-02 
2470	 5.96901689220651E-02 
2471	 5.96303068020681E-02 
2472	 5.95061429169569E-02 
2473	 5.93494597494514E-02 
2474	 5.91562109878726E-02 
2475	 5.89746220272557E-02 
2476	 5.89769742346483E-02 
2477	 5.91072762125664E-02 
2478	 5.91775052102599E-02 
2479	 5.90392221025177E-02 
2480	 5.87950122902832E-02 
2481	 5.86885446782955E-02 
2482	 5.85030324423688E-02 
2483	 5.82748235593641E-02 
2484	 5.82578640426071E-02 
2485	 5.79840534818666E-02 
2486	 5.76959580276713E-02 
2487	 5.76971023334218E-02 
2488	 5.73419238417354E-02 
2489	 5.70995224489475E-02 
2490	 5.71583673366377E-02 
2491	 5.70161928788949E-02 
2492	 5.70568040833473E-02 
2493	 5.70324233019272E-02 
2494	 5.67353930446562E-02 
2495	 5.65547160601923E-02 
2496	 0.056424807353949 
2497	 5.63769368485788E-02 
2498	 5.65515674578041E-02 
2499	 5.66199379619926E-02 
2500	 5.63761194838251E-02 
