Wavelength	lmw-9-100003.asd
350	 9.48108017436825E-02 
351	 9.45074590726808E-02 
352	 9.28110507984764E-02 
353	 9.61043421339318E-02 
354	 9.80660255797818E-02 
355	 0.097123383166105 
356	 9.69860409209476E-02 
357	 9.98943961004704E-02 
358	 9.73307776261217E-02 
359	 9.37356231177317E-02 
360	 9.02751591288972E-02 
361	 8.62480994231535E-02 
362	 8.65490633177065E-02 
363	 8.75361191501379E-02 
364	 8.64249382510115E-02 
365	 8.32283114909069E-02 
366	 7.92528419272109E-02 
367	 7.93330891179665E-02 
368	 8.50315167169257E-02 
369	 8.27720264755921E-02 
370	 8.25753381534512E-02 
371	 8.48566068897782E-02 
372	 8.35304803240692E-02 
373	 8.27148197540696E-02 
374	 8.19812399518074E-02 
375	 8.09836629044926E-02 
376	 8.07640854942553E-02 
377	 7.64225510202435E-02 
378	 7.39868598504568E-02 
379	 7.92688050028031E-02 
380	 8.33230287241721E-02 
381	 8.25490268131921E-02 
382	 8.00374065715056E-02 
383	 8.27955182967454E-02 
384	 8.24559766986018E-02 
385	 0.081204263751817 
386	 8.09967300729264E-02 
387	 8.03914446162552E-02 
388	 7.98097406212473E-02 
389	 7.92058203460144E-02 
390	 7.84235196352833E-02 
391	 7.70440959767615E-02 
392	 0.077912720692137 
393	 0.080711500118585 
394	 8.24079588693475E-02 
395	 8.21562775637268E-02 
396	 8.14775296648545E-02 
397	 8.16060893513325E-02 
398	 8.23173335230789E-02 
399	 8.27159884310615E-02 
400	 8.35099245473742E-02 
401	 8.52645805089644E-02 
402	 0.084341950395679 
403	 8.26808684443604E-02 
404	 8.20818174614356E-02 
405	 8.36426125807347E-02 
406	 0.083718721201576 
407	 8.40426681445752E-02 
408	 8.55518857055502E-02 
409	 8.41308262189367E-02 
410	 8.36971416393629E-02 
411	 8.45359675799129E-02 
412	 8.51878038240857E-02 
413	 8.52715780031592E-02 
414	 8.47640474899299E-02 
415	 8.40881020727695E-02 
416	 8.41350335713673E-02 
417	 8.42050388940634E-02 
418	 8.40331603920473E-02 
419	 8.36090590746715E-02 
420	 8.34133793986755E-02 
421	 8.27563892322042E-02 
422	 8.20883926394394E-02 
423	 8.24122266445511E-02 
424	 8.22435241949423E-02 
425	 0.081511888182784 
426	 8.06367103883218E-02 
427	 8.05612798079894E-02 
428	 8.04681635456568E-02 
429	 8.02775179551369E-02 
430	 0.080116151034151 
431	 7.98822349355074E-02 
432	 0.079768799682463 
433	 7.99003482988314E-02 
434	 8.03171028989623E-02 
435	 0.080981133767637 
436	 0.081874756432336 
437	 8.28380404128103E-02 
438	 8.32409700406334E-02 
439	 8.41104200882682E-02 
440	 0.085336986687894 
441	 0.086299442333598 
442	 8.73139555683493E-02 
443	 0.088544397610784 
444	 8.99175622650748E-02 
445	 9.10203170357927E-02 
446	 0.092423273909976 
447	 9.38636510546037E-02 
448	 0.09506795918148 
449	 9.68235772085146E-02 
450	 9.83259667280079E-02 
451	 9.96736039132656E-02 
452	 0.101694183627043 
453	 0.10328655916892 
454	 0.104677602228388 
455	 0.106245356481502 
456	 0.108156888891525 
457	 0.110089308832643 
458	 0.111887071505163 
459	 0.113562360375193 
460	 0.115734529960661 
461	 0.11782311430428 
462	 0.119665056134957 
463	 0.121820301382695 
464	 0.124051467013667 
465	 0.126306330925699 
466	 0.128614809170876 
467	 0.13120039960573 
468	 0.133473544288854 
469	 0.135566581380892 
470	 0.138159178691456 
471	 0.140750311886097 
472	 0.143227697752505 
473	 0.145658889509137 
474	 0.148372756789094 
475	 0.151051942792251 
476	 0.153701657923991 
477	 0.156481744714099 
478	 0.159604759185671 
479	 0.16241211898102 
480	 0.16478690396693 
481	 0.167448680133725 
482	 0.17031166868503 
483	 0.17317948143687 
484	 0.17588294207054 
485	 0.178631719048159 
486	 0.181058384341984 
487	 0.183223561017697 
488	 0.185547743310772 
489	 0.188059455187267 
490	 0.190463817286462 
491	 0.192577415882795 
492	 0.194627745598785 
493	 0.196526110924398 
494	 0.198349688997173 
495	 0.200219938208259 
496	 0.201998792254966 
497	 0.203514762197128 
498	 0.20483026682634 
499	 0.206363395873521 
500	 0.207634694622952 
501	 0.208662212203706 
502	 0.209593878164165 
503	 0.210417150303845 
504	 0.211360558546367 
505	 0.212335771413589 
506	 0.21298435071954 
507	 0.213571557482715 
508	 0.214126981797274 
509	 0.214669517901604 
510	 0.215356588482989 
511	 0.215730349188982 
512	 0.215838422002565 
513	 0.216014738956324 
514	 0.216460555795228 
515	 0.216796136892924 
516	 0.216909973351545 
517	 0.217267498240739 
518	 0.217508192156673 
519	 0.217606569791658 
520	 0.217655308975904 
521	 0.217736496625264 
522	 0.217924993552268 
523	 0.218140528832522 
524	 0.218153399602863 
525	 0.21828989045177 
526	 0.218475538544306 
527	 0.218595321901906 
528	 0.218713369996209 
529	 0.218767247688759 
530	 0.218792079972093 
531	 0.218883722729155 
532	 0.219021472114024 
533	 0.219308871459983 
534	 0.219708914004362 
535	 0.21985666957726 
536	 0.219983401787668 
537	 0.220225393668344 
538	 0.220627730554379 
539	 0.220866985354962 
540	 0.22108458099498 
541	 0.221364366917431 
542	 0.221659417880698 
543	 0.22206751211802 
544	 0.222469923892283 
545	 0.222761574201527 
546	 0.223129264627452 
547	 0.223581769909344 
548	 0.224076122232729 
549	 0.22453489255835 
550	 0.225006502483284 
551	 0.225532384725917 
552	 0.226117338431273 
553	 0.226674993608494 
554	 0.227268265066026 
555	 0.227875260187137 
556	 0.228451687769822 
557	 0.229178033590724 
558	 0.229904382494671 
559	 0.230566751385842 
560	 0.231317371042776 
561	 0.232070581910591 
562	 0.232804353272037 
563	 0.233510174804783 
564	 0.234133390060387 
565	 0.234769310993586 
566	 0.235463785342555 
567	 0.236197435612619 
568	 0.237004829250678 
569	 0.237893950099611 
570	 0.238847371297462 
571	 0.239805810272519 
572	 0.240700323523536 
573	 0.241581515215645 
574	 0.242570783613325 
575	 0.243513606815804 
576	 0.244501596964903 
577	 0.245550217524658 
578	 0.246404609607732 
579	 0.247355148796499 
580	 0.248320563363427 
581	 0.249113023012272 
582	 0.249979619713513 
583	 0.250917395827823 
584	 0.25186677419059 
585	 0.252725847381725 
586	 0.253592751669673 
587	 0.254548793896849 
588	 0.255623061614668 
589	 0.256659477607812 
590	 0.257701138124631 
591	 0.258765673929699 
592	 0.259849085282477 
593	 0.261065069266271 
594	 0.262298207978926 
595	 0.263435961743022 
596	 0.264500979711354 
597	 0.265521027678035 
598	 0.266485957750142 
599	 0.267380625586753 
600	 0.268304918192722 
601	 0.269238512136537 
602	 0.270192508890198 
603	 0.271278375277714 
604	 0.272311385835937 
605	 0.273280055946366 
606	 0.27424864081862 
607	 0.275312700906066 
608	 0.276369917467543 
609	 0.277388762567175 
610	 0.278432977803342 
611	 0.279445144990336 
612	 0.280422539575265 
613	 0.281365488947209 
614	 0.282254920212879 
615	 0.283056463733672 
616	 0.283831155260788 
617	 0.284691231770573 
618	 0.285558079715737 
619	 0.286405995396214 
620	 0.287228980494563 
621	 0.288048256782056 
622	 0.288778829671506 
623	 0.289490903881828 
624	 0.29028810260686 
625	 0.291017555563946 
626	 0.291732776852216 
627	 0.29245940392231 
628	 0.293162565360374 
629	 0.293900936193539 
630	 0.294627073842516 
631	 0.29528832100672 
632	 0.295922891380522 
633	 0.296541327859756 
634	 0.297128188615005 
635	 0.297656796118492 
636	 0.298261151044649 
637	 0.298876946464711 
638	 0.299437410280561 
639	 0.299959958576867 
640	 0.300457364135587 
641	 0.300957224425338 
642	 0.301482101178224 
643	 0.3019777966581 
644	 0.302435579923863 
645	 0.302844118358157 
646	 0.303176092863001 
647	 0.303595898775567 
648	 0.304004184355186 
649	 0.304294177746798 
650	 0.304696696381158 
651	 0.304983299742316 
652	 0.305171854199772 
653	 0.305489347863098 
654	 0.305752421818398 
655	 0.305929615831973 
656	 0.306052919400777 
657	 0.306243217380192 
658	 0.306400552978932 
659	 0.306494738562199 
660	 0.306538318623967 
661	 0.306604384650287 
662	 0.306622095736643 
663	 0.306568573531584 
664	 0.30650981271578 
665	 0.306433299793506 
666	 0.306317955380357 
667	 0.306155766013261 
668	 0.306000933191539 
669	 0.305882912261422 
670	 0.305725414226193 
671	 0.305382866699321 
672	 0.305030073200355 
673	 0.304735508825272 
674	 0.304476558610824 
675	 0.304065971085923 
676	 0.303615844500711 
677	 0.303181107838607 
678	 0.302774740522883 
679	 0.302296460350862 
680	 0.301744323017141 
681	 0.301156259097136 
682	 0.300607648411744 
683	 0.300067711489829 
684	 0.299509860344209 
685	 0.298906904667161 
686	 0.298226494571063 
687	 0.297521545367959 
688	 0.296812821228867 
689	 0.296092152029685 
690	 0.29529171670825 
691	 0.294537768485497 
692	 0.29386964319071 
693	 0.293104412844788 
694	 0.292251287792129 
695	 0.291380375599799 
696	 0.290559924045482 
697	 0.28967945396342 
698	 0.288797224187002 
699	 0.287934888893569 
700	 0.287065927125763 
701	 0.286154389558562 
702	 0.285196631415191 
703	 0.284222232773071 
704	 0.283334736368826 
705	 0.282394909146328 
706	 0.281399118815358 
707	 0.280411564443355 
708	 0.279384667819258 
709	 0.278409853566251 
710	 0.277494995607689 
711	 0.276509047435801 
712	 0.275474346537019 
713	 0.27439664641223 
714	 0.273313410722796 
715	 0.272398855722519 
716	 0.271411042156532 
717	 0.270304408570299 
718	 0.269194224077746 
719	 0.26821364521331 
720	 0.267202034873754 
721	 0.266087643568504 
722	 0.265050184930523 
723	 0.264015436471492 
724	 0.262932640330486 
725	 0.261796025710611 
726	 0.260795560456729 
727	 0.259771830962992 
728	 0.25867178923912 
729	 0.257560088133277 
730	 0.256489179208245 
731	 0.255414224525221 
732	 0.254310994931169 
733	 0.253247109022562 
734	 0.252237209682977 
735	 0.251193967773556 
736	 0.250025326434988 
737	 0.248879013259142 
738	 0.247824262394007 
739	 0.246815881012021 
740	 0.245698551902396 
741	 0.244608009692886 
742	 0.243519956049372 
743	 0.2424168228572 
744	 0.241402897923956 
745	 0.240308662465442 
746	 0.239196181366419 
747	 0.238204601275979 
748	 0.237176703508212 
749	 0.236060101230165 
750	 0.234930143722904 
751	 0.233993922381672 
752	 0.233014965344871 
753	 0.231940204647305 
754	 0.230808549813567 
755	 0.229787852074375 
756	 0.228799214297093 
757	 0.227773455390326 
758	 0.226678618347284 
759	 0.225702313270829 
760	 0.224767846042898 
761	 0.223805622101107 
762	 0.222790974489173 
763	 0.221833613110968 
764	 0.220874088038971 
765	 0.219861800316814 
766	 0.218885738205089 
767	 0.217959069146383 
768	 0.217033082387236 
769	 0.21604964527994 
770	 0.215135526693359 
771	 0.214263396724389 
772	 0.213386192391291 
773	 0.212455536051089 
774	 0.211588372279347 
775	 0.210740428078446 
776	 0.209864827794791 
777	 0.209010855025564 
778	 0.208175428880067 
779	 0.207363169211898 
780	 0.20656874747966 
781	 0.205711605125094 
782	 0.204895178562727 
783	 0.204138205829119 
784	 0.203360398706698 
785	 0.202605105501444 
786	 0.201871472566526 
787	 0.201141452530438 
788	 0.200366409844704 
789	 0.199664557147821 
790	 0.198990168100039 
791	 0.198262318981078 
792	 0.197568773853208 
793	 0.196910363413248 
794	 0.196286025526874 
795	 0.195687074334786 
796	 0.194976331303602 
797	 0.194300232966567 
798	 0.193728935222312 
799	 0.19311090526862 
800	 0.192532906844297 
801	 0.191973256072653 
802	 0.191400904257575 
803	 0.190879225050815 
804	 0.190345022195605 
805	 0.189794443538822 
806	 0.189263406305681 
807	 0.188755182500173 
808	 0.188255322974808 
809	 0.187756844640805 
810	 0.187264613946553 
811	 0.186791304010529 
812	 0.186326839576304 
813	 0.185878896219259 
814	 0.185525266281271 
815	 0.185151645502967 
816	 0.184740516451297 
817	 0.184319976968161 
818	 0.183905875237434 
819	 0.183526568930742 
820	 0.183177896046975 
821	 0.1828308713601 
822	 0.182515107762555 
823	 0.182176777556566 
824	 0.181816130224151 
825	 0.181538520412478 
826	 0.181247911754732 
827	 0.18092991257621 
828	 0.180604130602743 
829	 0.180318040196496 
830	 0.180042044945966 
831	 0.179781110435252 
832	 0.179555061949236 
833	 0.179374966026965 
834	 0.179162537217984 
835	 0.178925749391564 
836	 0.178750920903811 
837	 0.178566551084919 
838	 0.178349057196674 
839	 0.178113098670096 
840	 0.177921688110106 
841	 0.177761674604567 
842	 0.177631263390953 
843	 0.17751174995746 
844	 0.177319328129409 
845	 0.17722913740781 
846	 0.177180860594596 
847	 0.17704534506378 
848	 0.177001841117789 
849	 0.176923972076092 
850	 0.176800833463279 
851	 0.176726936519178 
852	 0.176643310531215 
853	 0.176601870605807 
854	 0.176595275383026 
855	 0.176514988015933 
856	 0.176497863065526 
857	 0.176493364264254 
858	 0.176463037213472 
859	 0.176520185226994 
860	 0.176551401513516 
861	 0.176553288064832 
862	 0.176565391912667 
863	 0.176618946136567 
864	 0.176704442312158 
865	 0.176775890797335 
866	 0.176791667396564 
867	 0.176893069737004 
868	 0.176988756738732 
869	 0.177064428945611 
870	 0.177199533928541 
871	 0.177352793715457 
872	 0.177475270117763 
873	 0.177571879561198 
874	 0.17773233218308 
875	 0.17785651608249 
876	 0.177999391949548 
877	 0.178199734294893 
878	 0.17835078743811 
879	 0.178521318153102 
880	 0.1787488065445 
881	 0.179034908510304 
882	 0.179296043174276 
883	 0.179527875772054 
884	 0.179746814734435 
885	 0.179981189212793 
886	 0.180247963661866 
887	 0.180554695453956 
888	 0.180827793512315 
889	 0.180973071863581 
890	 0.181359323921407 
891	 0.181736298959657 
892	 0.181991995737723 
893	 0.182290444169698 
894	 0.182685524770779 
895	 0.183094480781621 
896	 0.183445775931999 
897	 0.183744389052566 
898	 0.184185937545188 
899	 0.184636004802742 
900	 0.184972760722572 
901	 0.185350479166652 
902	 0.185763441139555 
903	 0.18622734315223 
904	 0.186737603935687 
905	 0.187218265743406 
906	 0.18769867825731 
907	 0.188155569212533 
908	 0.188575560243793 
909	 0.189119816783577 
910	 0.189650833771202 
911	 0.19014702907442 
912	 0.190671879352027 
913	 0.191223696215544 
914	 0.191828479511774 
915	 0.192433945309306 
916	 0.192947833302357 
917	 0.193562201308063 
918	 0.194197932098965 
919	 0.194814668142158 
920	 0.195454071613847 
921	 0.196107694984582 
922	 0.19673711770013 
923	 0.197356836183217 
924	 0.198058312858854 
925	 0.198667425464693 
926	 0.199295749361797 
927	 0.200005672540636 
928	 0.200655919820432 
929	 0.201400813408385 
930	 0.202207834109126 
931	 0.203021453341729 
932	 0.203859629567737 
933	 0.204632099524837 
934	 0.205340901684022 
935	 0.206057273724514 
936	 0.20697588382287 
937	 0.207608845637739 
938	 0.208214693870314 
939	 0.209129364288163 
940	 0.210019561097599 
941	 0.210939978205325 
942	 0.211839600546609 
943	 0.212676136441251 
944	 0.213577783162871 
945	 0.214445819703431 
946	 0.215301983405182 
947	 0.216195724511484 
948	 0.217029772826926 
949	 0.217935860900701 
950	 0.218852448508573 
951	 0.219677947931193 
952	 0.220655065389961 
953	 0.221517294458677 
954	 0.222318182047318 
955	 0.223274602226945 
956	 0.224353096794028 
957	 0.225367922913558 
958	 0.226312165708808 
959	 0.227275561901867 
960	 0.228141513723756 
961	 0.229138590794841 
962	 0.230234760955294 
963	 0.231230922147883 
964	 0.232131401145531 
965	 0.233092901561979 
966	 0.234156209570767 
967	 0.235258624542849 
968	 0.2363114180183 
969	 0.237398972453157 
970	 0.238479407072289 
971	 0.239466877828017 
972	 0.240616094280607 
973	 0.241770157668986 
974	 0.24290748412808 
975	 0.244111730183406 
976	 0.245398615421051 
977	 0.246622147629697 
978	 0.247705739292623 
979	 0.248705652647551 
980	 0.25003994306396 
981	 0.251312163823587 
982	 0.252451169544314 
983	 0.253622762515953 
984	 0.254837123095096 
985	 0.256218344358364 
986	 0.257621329365378 
987	 0.25883165708402 
988	 0.260104897266587 
989	 0.261400373428848 
990	 0.262704738814514 
991	 0.26402971554238 
992	 0.265388022436618 
993	 0.266857591314577 
994	 0.268301783655552 
995	 0.269555831767622 
996	 0.270737916846385 
997	 0.272207934995919 
998	 0.273733791016158 
999	 0.275055866883474 
1000	 0.276730853192146 
1001	 0.281179238710429 
1002	 0.282614561327704 
1003	 0.284055969115885 
1004	 0.285495418522415 
1005	 0.286926612154801 
1006	 0.288423297215571 
1007	 0.289955131696413 
1008	 0.291480358332027 
1009	 0.2929832437966 
1010	 0.294400875046657 
1011	 0.295806684000464 
1012	 0.297242533511875 
1013	 0.298740037768824 
1014	 0.300273807592376 
1015	 0.301810051798028 
1016	 0.303322958359491 
1017	 0.30484445227299 
1018	 0.306347000429228 
1019	 0.307906709889635 
1020	 0.309448785934414 
1021	 0.310976314337163 
1022	 0.312493962551635 
1023	 0.313918801397611 
1024	 0.315319101619104 
1025	 0.316759020434448 
1026	 0.318230178022838 
1027	 0.319757786609214 
1028	 0.321309366106903 
1029	 0.322783171142375 
1030	 0.324253479177619 
1031	 0.325702827345822 
1032	 0.327108213895908 
1033	 0.328508147742685 
1034	 0.330012011474909 
1035	 0.33144454601558 
1036	 0.332899023499901 
1037	 0.334390587175409 
1038	 0.335776667784315 
1039	 0.337219028661921 
1040	 0.338702159813848 
1041	 0.34014206176374 
1042	 0.341614843151275 
1043	 0.343003062696021 
1044	 0.344390216959698 
1045	 0.34572628291169 
1046	 0.347115375220242 
1047	 0.348469672992439 
1048	 0.349947458322107 
1049	 0.351427417205512 
1050	 0.352783854315045 
1051	 0.354185311687294 
1052	 0.355502943508008 
1053	 0.356750807078269 
1054	 0.358107192961086 
1055	 0.359466787334199 
1056	 0.360790862814254 
1057	 0.362139410031467 
1058	 0.363524004081349 
1059	 0.364872937751081 
1060	 0.366206485268812 
1061	 0.367539040305251 
1062	 0.368862125587556 
1063	 0.370158492142724 
1064	 0.371418292783712 
1065	 0.372712529418813 
1066	 0.374005034605903 
1067	 0.375309192424609 
1068	 0.376637769085162 
1069	 0.377902546026533 
1070	 0.379190995313641 
1071	 0.380480593439903 
1072	 0.381766529470555 
1073	 0.383072754017252 
1074	 0.384336920536931 
1075	 0.385599865354877 
1076	 0.386764448177367 
1077	 0.387916426297918 
1078	 0.389086581606177 
1079	 0.390220416578213 
1080	 0.391375253986948 
1081	 0.392539431899159 
1082	 0.393698567556484 
1083	 0.394855746960979 
1084	 0.396037255532156 
1085	 0.397167859051028 
1086	 0.398281125034117 
1087	 0.399349995221222 
1088	 0.400352195166107 
1089	 0.401405963007509 
1090	 0.402483003396117 
1091	 0.403502306648015 
1092	 0.404497557916748 
1093	 0.40549409848939 
1094	 0.406453936531138 
1095	 0.407382695887446 
1096	 0.408310972143198 
1097	 0.409219937190547 
1098	 0.410112418374457 
1099	 0.410969169636037 
1100	 0.411815460325417 
1101	 0.412667576768849 
1102	 0.413489100363865 
1103	 0.414284181618414 
1104	 0.415043375758331 
1105	 0.415819082243938 
1106	 0.416574092165449 
1107	 0.417292209429257 
1108	 0.418011529917104 
1109	 0.418715625381773 
1110	 0.419397224321832 
1111	 0.420073847023477 
1112	 0.420765144831173 
1113	 0.421398568242941 
1114	 0.421984017093626 
1115	 0.422589364572136 
1116	 0.423183199685551 
1117	 0.423749993533656 
1118	 0.424315021909897 
1119	 0.424874789437815 
1120	 0.425386669747834 
1121	 0.425864479930836 
1122	 0.426361127588069 
1123	 0.426823392537843 
1124	 0.427248958324143 
1125	 0.42767237907854 
1126	 0.428016577215915 
1127	 0.428302198124891 
1128	 0.428563450272016 
1129	 0.428784394859461 
1130	 0.428969481462593 
1131	 0.429167628498843 
1132	 0.429248683674323 
1133	 0.429259960094195 
1134	 0.429211182489452 
1135	 0.429082012877053 
1136	 0.428916909009596 
1137	 0.428679784453721 
1138	 0.428362709613379 
1139	 0.427946907265853 
1140	 0.427453902250348 
1141	 0.426841550790172 
1142	 0.426133669450013 
1143	 0.42534488818254 
1144	 0.4244528281266 
1145	 0.423493111217595 
1146	 0.422436216413532 
1147	 0.42135744830347 
1148	 0.420174106878226 
1149	 0.419012296441266 
1150	 0.417814792145556 
1151	 0.416636343735432 
1152	 0.415462191831633 
1153	 0.414337448725366 
1154	 0.413283416568734 
1155	 0.412239643005316 
1156	 0.411350165660605 
1157	 0.410535898159029 
1158	 0.409823622972691 
1159	 0.409246324984211 
1160	 0.408695122965167 
1161	 0.40819158134003 
1162	 0.407778320768633 
1163	 0.407447602265586 
1164	 0.4071576311451 
1165	 0.406938346167073 
1166	 0.406780616904851 
1167	 0.406643734296399 
1168	 0.406508058603676 
1169	 0.406424749017317 
1170	 0.406385271918802 
1171	 0.406362855923883 
1172	 0.406368169662013 
1173	 0.406402246612854 
1174	 0.406443923644347 
1175	 0.406543737475267 
1176	 0.406681627859065 
1177	 0.406858876669202 
1178	 0.407092053666627 
1179	 0.407338838721139 
1180	 0.407635770773633 
1181	 0.407922843971284 
1182	 0.408210402659529 
1183	 0.408533758872733 
1184	 0.408848452335664 
1185	 0.409166945944388 
1186	 0.409482627107236 
1187	 0.409820178192408 
1188	 0.410122054896275 
1189	 0.410424542141503 
1190	 0.410682858798683 
1191	 0.410893559649946 
1192	 0.411126069663339 
1193	 0.411330643550925 
1194	 0.411554030993931 
1195	 0.411814149737074 
1196	 0.412038731778731 
1197	 0.412240842149401 
1198	 0.412447556909799 
1199	 0.41264796427269 
1200	 0.412824543569096 
1201	 0.413033370236388 
1202	 0.413255020325123 
1203	 0.4134763387981 
1204	 0.413708924868457 
1205	 0.413939179763905 
1206	 0.414165935504258 
1207	 0.414405236637643 
1208	 0.414673099519837 
1209	 0.414903173862329 
1210	 0.415132175006217 
1211	 0.415340440022544 
1212	 0.415505076607202 
1213	 0.415686040867213 
1214	 0.415876793855603 
1215	 0.416050451027993 
1216	 0.416216653966373 
1217	 0.416383416670912 
1218	 0.416532073931278 
1219	 0.416659478801709 
1220	 0.416794529178628 
1221	 0.416918332598338 
1222	 0.417055327318743 
1223	 0.417204145005833 
1224	 0.417336509841079 
1225	 0.417471811877348 
1226	 0.417596235336755 
1227	 0.417707004373949 
1228	 0.417814018057058 
1229	 0.417914005171314 
1230	 0.418015136945796 
1231	 0.418107156022627 
1232	 0.418201716687765 
1233	 0.418297312348505 
1234	 0.418402463472062 
1235	 0.418484887184249 
1236	 0.418560903479291 
1237	 0.418629005356957 
1238	 0.418679152009964 
1239	 0.41873725649713 
1240	 0.418792072753993 
1241	 0.418848741057304 
1242	 0.41892359760453 
1243	 0.41896229815216 
1244	 0.418974815746053 
1245	 0.419001104876867 
1246	 0.418987675502082 
1247	 0.419015414941988 
1248	 0.419083420904209 
1249	 0.41914576820586 
1250	 0.419216607266049 
1251	 0.419271417350935 
1252	 0.419280326468872 
1253	 0.419245685003266 
1254	 0.419228567786097 
1255	 0.419191705267054 
1256	 0.419146166008267 
1257	 0.419101874260465 
1258	 0.419045527859332 
1259	 0.418950693190538 
1260	 0.418884596849354 
1261	 0.418838649530738 
1262	 0.418778905434009 
1263	 0.418728395508217 
1264	 0.418659691001294 
1265	 0.41856722829823 
1266	 0.418485917738513 
1267	 0.418410673428025 
1268	 0.418331706435879 
1269	 0.418210643687428 
1270	 0.418069720631491 
1271	 0.417943401046274 
1272	 0.417787129834163 
1273	 0.417636453870922 
1274	 0.417527083195889 
1275	 0.417350789993679 
1276	 0.417122079094073 
1277	 0.416907515780567 
1278	 0.416685322122607 
1279	 0.416437845825591 
1280	 0.416178624020559 
1281	 0.415904631489706 
1282	 0.41559519289072 
1283	 0.415290258493423 
1284	 0.41498610225844 
1285	 0.414666256662158 
1286	 0.414329075200288 
1287	 0.414014366917939 
1288	 0.413686091034906 
1289	 0.413370138941212 
1290	 0.412998130947035 
1291	 0.412602329892176 
1292	 0.412193308398897 
1293	 0.411755279853755 
1294	 0.411295023376539 
1295	 0.410824057081999 
1296	 0.41032951969043 
1297	 0.409801090590009 
1298	 0.409253625843275 
1299	 0.408688551182383 
1300	 0.408113262899719 
1301	 0.407505176804397 
1302	 0.406896257661435 
1303	 0.406293546313894 
1304	 0.405677769638004 
1305	 0.405016033694904 
1306	 0.40432451177349 
1307	 0.403578588862623 
1308	 0.402798151336333 
1309	 0.402003563782572 
1310	 0.401187326467365 
1311	 0.400335407032936 
1312	 0.399467046654762 
1313	 0.398556146022619 
1314	 0.397624061096702 
1315	 0.396631009063005 
1316	 0.395591340283411 
1317	 0.394522701598399 
1318	 0.393420556868534 
1319	 0.392264427936933 
1320	 0.391076408246531 
1321	 0.389849303101296 
1322	 0.388580261257927 
1323	 0.387256769612466 
1324	 0.385919563127466 
1325	 0.384519437313175 
1326	 0.383079837139495 
1327	 0.381642487638325 
1328	 0.380148923240148 
1329	 0.378642477078576 
1330	 0.377074399254749 
1331	 0.37544470173268 
1332	 0.373803994022864 
1333	 0.372118248231906 
1334	 0.370444974091447 
1335	 0.368757232380272 
1336	 0.367080914755761 
1337	 0.365404640700841 
1338	 0.363725204506181 
1339	 0.362035783889767 
1340	 0.360364332350291 
1341	 0.358663180908288 
1342	 0.357027462177921 
1343	 0.355413999306887 
1344	 0.353856807624393 
1345	 0.352319264474376 
1346	 0.350848570819555 
1347	 0.34941147195117 
1348	 0.347986771944624 
1349	 0.346601829309851 
1350	 0.345245025274804 
1351	 0.34393152506854 
1352	 0.342654666762296 
1353	 0.341397164166081 
1354	 0.340183399688124 
1355	 0.338967222818943 
1356	 0.33776296536739 
1357	 0.336560046571187 
1358	 0.335368613005904 
1359	 0.334184873352571 
1360	 0.333018833629113 
1361	 0.331839820534655 
1362	 0.330682755210131 
1363	 0.329489087329302 
1364	 0.328281055516714 
1365	 0.327046793279956 
1366	 0.325791353641129 
1367	 0.324518359704501 
1368	 0.323231184099828 
1369	 0.321920419537543 
1370	 0.320556946631715 
1371	 0.319164425329139 
1372	 0.317719325336938 
1373	 0.316177446999582 
1374	 0.31452778614196 
1375	 0.312800030984961 
1376	 0.310945976745593 
1377	 0.308974389770259 
1378	 0.306893616024772 
1379	 0.304710306476273 
1380	 0.302414396228476 
1381	 0.300022415019702 
1382	 0.297468694754527 
1383	 0.294798493992586 
1384	 0.291999116915353 
1385	 0.289079159820615 
1386	 0.286031428149235 
1387	 0.282867485371276 
1388	 0.279590938180335 
1389	 0.276203180165493 
1390	 0.272639067320914 
1391	 0.269002626461114 
1392	 0.265243121359902 
1393	 0.261379321602911 
1394	 0.257470635927937 
1395	 0.253428025198889 
1396	 0.249369035483374 
1397	 0.245304787540696 
1398	 0.241161845199327 
1399	 0.237065635007404 
1400	 0.232951343921383 
1401	 0.228926155295162 
1402	 0.224886122168233 
1403	 0.220995272228557 
1404	 0.217166705005643 
1405	 0.213505272433668 
1406	 0.209914844532113 
1407	 0.206513465268956 
1408	 0.203248438242684 
1409	 0.200173056484826 
1410	 0.197259854699866 
1411	 0.194535446280979 
1412	 0.191987134162619 
1413	 0.189629594244018 
1414	 0.187452463221528 
1415	 0.18536566637886 
1416	 0.183433968164828 
1417	 0.181615120686781 
1418	 0.179889397741178 
1419	 0.178313377925288 
1420	 0.176832921720839 
1421	 0.17545613416908 
1422	 0.17415204866318 
1423	 0.172881180734858 
1424	 0.171670502624245 
1425	 0.170501131338213 
1426	 0.169413025658456 
1427	 0.168402154501105 
1428	 0.167427092486054 
1429	 0.166530546177064 
1430	 0.165647344134219 
1431	 0.1647966269638 
1432	 0.163975481907951 
1433	 0.163187015513398 
1434	 0.162422802014056 
1435	 0.161709908729836 
1436	 0.160983723971157 
1437	 0.160265260000378 
1438	 0.159573268622002 
1439	 0.158901310788271 
1440	 0.158207164323533 
1441	 0.157558193695172 
1442	 0.156915410007321 
1443	 0.156263356047475 
1444	 0.155665507588485 
1445	 0.155082205343142 
1446	 0.154542201498828 
1447	 0.154074124279728 
1448	 0.153647408725094 
1449	 0.153293802277119 
1450	 0.153014285085607 
1451	 0.152811839126115 
1452	 0.152673327088856 
1453	 0.152618212220307 
1454	 0.152664499163766 
1455	 0.152735532734049 
1456	 0.152885659299209 
1457	 0.153043759040396 
1458	 0.153252323639171 
1459	 0.153457768296098 
1460	 0.153716809302623 
1461	 0.15391283956662 
1462	 0.154096024580814 
1463	 0.154257151804235 
1464	 0.15438217130411 
1465	 0.154502737261175 
1466	 0.154618514980268 
1467	 0.154714489538202 
1468	 0.154767413686324 
1469	 0.154841928419786 
1470	 0.154915872716645 
1471	 0.154991449868117 
1472	 0.155068397346778 
1473	 0.155155101172576 
1474	 0.155247191541706 
1475	 0.155344504638841 
1476	 0.155461142022161 
1477	 0.155591523419708 
1478	 0.155702458691516 
1479	 0.155819764853914 
1480	 0.155949243264225 
1481	 0.156070180724823 
1482	 0.156221768813216 
1483	 0.156397850237131 
1484	 0.156569700011924 
1485	 0.156759208202527 
1486	 0.156947489636632 
1487	 0.157127640645632 
1488	 0.157334765498785 
1489	 0.157561119053449 
1490	 0.157781096345683 
1491	 0.1580320919482 
1492	 0.158242407495721 
1493	 0.158426030167163 
1494	 0.158624400753117 
1495	 0.158807622508191 
1496	 0.158997191600606 
1497	 0.159205350336605 
1498	 0.159393560498466 
1499	 0.159567449055152 
1500	 0.159746313959473 
1501	 0.159925777750465 
1502	 0.16009192537594 
1503	 0.160261191402422 
1504	 0.160405474844675 
1505	 0.160533582302865 
1506	 0.160668954594681 
1507	 0.160800352716561 
1508	 0.16092553563195 
1509	 0.161046248906911 
1510	 0.161171689525362 
1511	 0.161282355933489 
1512	 0.161391692880739 
1513	 0.161515675613636 
1514	 0.161627730120727 
1515	 0.161727800832854 
1516	 0.161824574031669 
1517	 0.161924630316985 
1518	 0.162010293856783 
1519	 0.162107876493417 
1520	 0.162230440486602 
1521	 0.162316493051654 
1522	 0.162379350939609 
1523	 0.16245939019353 
1524	 0.162527203679779 
1525	 0.1626017931428 
1526	 0.162696953107817 
1527	 0.162769773504842 
1528	 0.162826683590654 
1529	 0.162892691916427 
1530	 0.162956795439879 
1531	 0.163013039390287 
1532	 0.163076425004957 
1533	 0.163119143200106 
1534	 0.163136806102976 
1535	 0.163173651096959 
1536	 0.163207615195893 
1537	 0.163242782375235 
1538	 0.163293661317964 
1539	 0.163331917759146 
1540	 0.163363523341925 
1541	 0.163388010356098 
1542	 0.163403540562876 
1543	 0.16342066558052 
1544	 0.163430570955201 
1545	 0.163443598955027 
1546	 0.163461265983809 
1547	 0.1634746991456 
1548	 0.163482241511736 
1549	 0.163484127816054 
1550	 0.163490221065705 
1551	 0.163492610854841 
1552	 0.16348386659701 
1553	 0.163486959818565 
1554	 0.163485512485773 
1555	 0.163468961664537 
1556	 0.163459326075372 
1557	 0.163436673106247 
1558	 0.163398372518399 
1559	 0.163368435900405 
1560	 0.163352752798627 
1561	 0.163352022789881 
1562	 0.163329608801306 
1563	 0.163315021400574 
1564	 0.163282489453238 
1565	 0.163222217912245 
1566	 0.16317993479872 
1567	 0.163145430298206 
1568	 0.163101667903301 
1569	 0.163049708099808 
1570	 0.163009868221077 
1571	 0.162978467856936 
1572	 0.16293286965058 
1573	 0.162890960729319 
1574	 0.162838827487831 
1575	 0.162760718508025 
1576	 0.162705077142232 
1577	 0.162669197300311 
1578	 0.162612703346715 
1579	 0.162549727769491 
1580	 0.162493990639008 
1581	 0.162430254698023 
1582	 0.162366534925615 
1583	 0.162317160294155 
1584	 0.162251631178122 
1585	 0.162169966291958 
1586	 0.162090991058801 
1587	 0.16201137655753 
1588	 0.161926419989897 
1589	 0.161833112889565 
1590	 0.161745444692055 
1591	 0.161665665942747 
1592	 0.161570782912359 
1593	 0.161466448246198 
1594	 0.161364888528484 
1595	 0.161249949306496 
1596	 0.161139174394083 
1597	 0.161043315008475 
1598	 0.16093662738521 
1599	 0.160824765584782 
1600	 0.160707020401244 
1601	 0.160574134165635 
1602	 0.160448353164255 
1603	 0.160323428875332 
1604	 0.160196066835023 
1605	 0.160081106729539 
1606	 0.159951819421266 
1607	 0.159817127855167 
1608	 0.159668249231012 
1609	 0.159503652671771 
1610	 0.159331160759376 
1611	 0.159160574121623 
1612	 0.158989829030223 
1613	 0.158829808603401 
1614	 0.158668336126927 
1615	 0.158499314445062 
1616	 0.158335375737334 
1617	 0.158178838482181 
1618	 0.158011150769569 
1619	 0.157834509456195 
1620	 0.157650741558536 
1621	 0.157467812149526 
1622	 0.157270770314791 
1623	 0.157092206336458 
1624	 0.156927717572924 
1625	 0.156743320833099 
1626	 0.15656028722542 
1627	 0.15635901377283 
1628	 0.156133815377549 
1629	 0.155934400805445 
1630	 0.155736594014133 
1631	 0.15554041633744 
1632	 0.155359284540126 
1633	 0.155164397990924 
1634	 0.154953773648486 
1635	 0.154762952848416 
1636	 0.154589481235337 
1637	 0.154387306213531 
1638	 0.154179651765502 
1639	 0.153974507885507 
1640	 0.153746500698256 
1641	 0.15354024596047 
1642	 0.153357315081776 
1643	 0.153150376383488 
1644	 0.152929101369638 
1645	 0.152725417590554 
1646	 0.152521584832458 
1647	 0.152319144782359 
1648	 0.152135934334425 
1649	 0.15192854677169 
1650	 0.151703932718728 
1651	 0.151487658730095 
1652	 0.151269755009517 
1653	 0.151043941925029 
1654	 0.150810448041724 
1655	 0.150589288799522 
1656	 0.150364005797597 
1657	 0.150146706180125 
1658	 0.149949145676034 
1659	 0.149732259327276 
1660	 0.149505247628303 
1661	 0.149281765936746 
1662	 0.149050324755283 
1663	 0.148827999802323 
1664	 0.148607699193002 
1665	 0.148393526137001 
1666	 0.148186188247526 
1667	 0.147978232816462 
1668	 0.147781236372843 
1669	 0.147568638043533 
1670	 0.14734721991574 
1671	 0.147131193972132 
1672	 0.146902426110631 
1673	 0.146693734087853 
1674	 0.146503616166824 
1675	 0.146301917360338 
1676	 0.146101264624093 
1677	 0.145904498824536 
1678	 0.145704535368472 
1679	 0.145507793100073 
1680	 0.145325356678803 
1681	 0.145125564940354 
1682	 0.144912759519317 
1683	 0.144707275693238 
1684	 0.144487728010428 
1685	 0.144292502111163 
1686	 0.144114308563921 
1687	 0.14393178328429 
1688	 0.143769862927212 
1689	 0.143583697764829 
1690	 0.1433814537208 
1691	 0.143186085091213 
1692	 0.142974639448129 
1693	 0.14278701524209 
1694	 0.142618261559344 
1695	 0.142440924809065 
1696	 0.142276024658256 
1697	 0.142095095646894 
1698	 0.141903566397811 
1699	 0.141711242914934 
1700	 0.141506061603261 
1701	 0.141316188783135 
1702	 0.14113163749708 
1703	 0.140946909990467 
1704	 0.140772727623354 
1705	 0.140592183018582 
1706	 0.140405511094259 
1707	 0.140221306887439 
1708	 0.140033218917539 
1709	 0.139857880306399 
1710	 0.139695653577275 
1711	 0.139523122403578 
1712	 0.139351809884767 
1713	 0.139178253622875 
1714	 0.138997398848265 
1715	 0.138814074582142 
1716	 0.138632165967562 
1717	 0.138452538158639 
1718	 0.13826709225055 
1719	 0.138086266009036 
1720	 0.137905472401857 
1721	 0.137741172486318 
1722	 0.137579049653162 
1723	 0.137427313853198 
1724	 0.137302660443068 
1725	 0.137153871471664 
1726	 0.137002792287209 
1727	 0.136841479703601 
1728	 0.136658113436332 
1729	 0.136498626418697 
1730	 0.136340367958411 
1731	 0.136197249352204 
1732	 0.136083181214787 
1733	 0.135934871288232 
1734	 0.135775811312069 
1735	 0.135619041657064 
1736	 0.135442043608863 
1737	 0.135287182204079 
1738	 0.13515107261797 
1739	 0.135001519125283 
1740	 0.13484220979873 
1741	 0.134705071698182 
1742	 0.134577795863232 
1743	 0.134443375358438 
1744	 0.134320416977017 
1745	 0.13419230011059 
1746	 0.134058012746722 
1747	 0.133920187263963 
1748	 0.133785010212297 
1749	 0.133643347898718 
1750	 0.133499934611462 
1751	 0.133366201065188 
1752	 0.133252074338511 
1753	 0.13314489551383 
1754	 0.133009394552787 
1755	 0.132871225701837 
1756	 0.132722960700289 
1757	 0.132577254851826 
1758	 0.132448772148035 
1759	 0.132327750100344 
1760	 0.132219138638872 
1761	 0.13208638934278 
1762	 0.131951401991983 
1763	 0.131833820342095 
1764	 0.131706789957287 
1765	 0.131587338684576 
1766	 0.131448241718273 
1767	 0.131259744441258 
1768	 0.131122683428795 
1769	 0.131024261188916 
1770	 0.130918526703501 
1771	 0.13087053848926 
1772	 0.130794992523052 
1773	 0.130680004584192 
1774	 0.130601387484175 
1775	 0.130507714771328 
1776	 0.130379805574058 
1777	 0.130251844321132 
1778	 0.130133892662091 
1779	 0.130024011729347 
1780	 0.129945414016761 
1781	 0.129884404314517 
1782	 0.12981636663965 
1783	 0.129756158016075 
1784	 0.129698506305059 
1785	 0.129651664009815 
1786	 0.129579202858096 
1787	 0.129491563457684 
1788	 0.129431608812493 
1789	 0.129370792506924 
1790	 0.129299669821838 
1791	 0.12925611414657 
1792	 0.129174230801828 
1793	 0.129034923758441 
1794	 0.128957615724341 
1795	 0.128894811981476 
1796	 0.128839883564766 
1797	 0.12882737219829 
1798	 0.128798731218723 
1799	 0.12877151627039 
1800	 0.12873748229078 
1801	 0.128820702084709 
1802	 0.128792248265737 
1803	 0.128764288996472 
1804	 0.128747392751132 
1805	 0.128742457231685 
1806	 0.128753559227522 
1807	 0.128757208950888 
1808	 0.128754762056106 
1809	 0.128752435435879 
1810	 0.128724579351968 
1811	 0.128666775410564 
1812	 0.128648860237385 
1813	 0.12861259841562 
1814	 0.128563490418951 
1815	 0.128546120601058 
1816	 0.128513928759644 
1817	 0.128485942678198 
1818	 0.128455382588982 
1819	 0.128431484228323 
1820	 0.128415786384158 
1821	 0.128391043187352 
1822	 0.128365273434896 
1823	 0.12833222944381 
1824	 0.128263461081418 
1825	 0.128207455495585 
1826	 0.128179343704349 
1827	 0.128152962314453 
1828	 0.12810741014027 
1829	 0.128074382408999 
1830	 0.128024675794513 
1831	 0.127957433863409 
1832	 0.127854118499588 
1833	 0.12778299487689 
1834	 0.12774230436998 
1835	 0.127690344793167 
1836	 0.127665568703265 
1837	 0.127648874553443 
1838	 0.127592526395647 
1839	 0.127532561211122 
1840	 0.12746220395994 
1841	 0.127385421535326 
1842	 0.127289487052416 
1843	 0.127198326415168 
1844	 0.127099953571618 
1845	 0.126973316885861 
1846	 0.126844217861448 
1847	 0.126724158860883 
1848	 0.126591749485483 
1849	 0.126455353730051 
1850	 0.126309942666678 
1851	 0.126167405155043 
1852	 0.125992207403124 
1853	 0.125783957496573 
1854	 0.125577388011412 
1855	 0.125356185517079 
1856	 0.125108389837139 
1857	 0.124860810675199 
1858	 0.124593659522248 
1859	 0.12430758756449 
1860	 0.123992752437712 
1861	 0.123659118183059 
1862	 0.123290205495509 
1863	 0.122907131697651 
1864	 0.122493398494284 
1865	 0.12204271285937 
1866	 0.12159314096852 
1867	 0.12111902763654 
1868	 0.120599974010259 
1869	 0.120054062920655 
1870	 0.119472094847296 
1871	 0.11885368037608 
1872	 0.118195004119445 
1873	 0.117507448327834 
1874	 0.116800644249997 
1875	 0.116044093854061 
1876	 0.115256749933009 
1877	 0.114432668785551 
1878	 0.113531294872355 
1879	 0.112617210561543 
1880	 0.11165567254894 
1881	 0.11063465681688 
1882	 0.109578362283903 
1883	 0.10849511507584 
1884	 0.107346026080016 
1885	 0.106149689434961 
1886	 0.104940035577324 
1887	 0.103674448478672 
1888	 0.102373751169198 
1889	 0.101035992153958 
1890	 9.96839116872099E-02 
1891	 9.83297362139563E-02 
1892	 9.69408104274005E-02 
1893	 9.55724642199154E-02 
1894	 9.42119914321151E-02 
1895	 9.28397409189268E-02 
1896	 9.14542824455897E-02 
1897	 9.01237324177266E-02 
1898	 8.87894334687552E-02 
1899	 8.74826304884252E-02 
1900	 8.62362412928288E-02 
1901	 8.50107287893417E-02 
1902	 8.38769615453339E-02 
1903	 8.28237686108067E-02 
1904	 8.18220726387212E-02 
1905	 8.08815797218644E-02 
1906	 8.00237457640206E-02 
1907	 7.92120897998461E-02 
1908	 7.84301832637586E-02 
1909	 7.77205863973849E-02 
1910	 7.70672586528393E-02 
1911	 7.64560743486806E-02 
1912	 7.58842433708113E-02 
1913	 7.53442811008529E-02 
1914	 7.48487622416114E-02 
1915	 7.43741427781041E-02 
1916	 7.39297015730357E-02 
1917	 7.35115353727987E-02 
1918	 7.31290930786991E-02 
1919	 7.27458337619743E-02 
1920	 7.24036170429437E-02 
1921	 7.20966023810179E-02 
1922	 0.071798798678381 
1923	 7.15393087764666E-02 
1924	 7.12880376101548E-02 
1925	 0.071053447461924 
1926	 0.070834354448017 
1927	 7.06323607695983E-02 
1928	 7.04417734389022E-02 
1929	 7.02783626372067E-02 
1930	 7.01348201967999E-02 
1931	 6.99929466757651E-02 
1932	 6.98770186454151E-02 
1933	 6.97877483828256E-02 
1934	 6.97019951342981E-02 
1935	 6.96420899666274E-02 
1936	 6.96106133982053E-02 
1937	 6.95913220379792E-02 
1938	 6.95928470871114E-02 
1939	 6.96069371671282E-02 
1940	 6.96368639104759E-02 
1941	 6.96820162356539E-02 
1942	 6.97548975944062E-02 
1943	 6.98250824978498E-02 
1944	 6.98999132174497E-02 
1945	 7.00030114920412E-02 
1946	 0.070114423061158 
1947	 7.02337460239571E-02 
1948	 7.03599048111107E-02 
1949	 7.05037083595376E-02 
1950	 7.06506114241727E-02 
1951	 7.08041990120199E-02 
1952	 7.09569539595556E-02 
1953	 7.11063872636575E-02 
1954	 7.12855208044403E-02 
1955	 7.14646506134702E-02 
1956	 7.16279756971387E-02 
1957	 7.17973210856104E-02 
1958	 7.19837292304452E-02 
1959	 7.21452143985142E-02 
1960	 7.22902898350449E-02 
1961	 7.24374857184283E-02 
1962	 7.25750164506125E-02 
1963	 7.27148321280838E-02 
1964	 7.28498116185555E-02 
1965	 7.29906835481266E-02 
1966	 7.31312204185688E-02 
1967	 7.32830634124401E-02 
1968	 7.34313615058821E-02 
1969	 7.35806006023941E-02 
1970	 7.37369369626257E-02 
1971	 7.38946080767358E-02 
1972	 7.40537567570121E-02 
1973	 7.42224934528947E-02 
1974	 7.43896680062643E-02 
1975	 7.45603422504888E-02 
1976	 7.47203312929133E-02 
1977	 0.074895510724062 
1978	 7.50630265892994E-02 
1979	 7.52247194010066E-02 
1980	 0.075437765300201 
1981	 7.56394972915422E-02 
1982	 7.58627407666831E-02 
1983	 7.60597259235009E-02 
1984	 0.076246232815441 
1985	 7.64399046139752E-02 
1986	 7.66206922470942E-02 
1987	 7.68104853737691E-02 
1988	 7.70173160333584E-02 
1989	 7.72185498738488E-02 
1990	 7.74050616499779E-02 
1991	 7.75897325870937E-02 
1992	 7.77674781834733E-02 
1993	 7.79345482991929E-02 
1994	 0.078107770660575 
1995	 7.82683456529861E-02 
1996	 7.84518089902401E-02 
1997	 0.078646766880829 
1998	 7.88461721070431E-02 
1999	 7.90751462753839E-02 
2000	 7.92769522557285E-02 
2001	 7.94766443389254E-02 
2002	 7.96593299106989E-02 
2003	 7.98285097281799E-02 
2004	 7.99941150632409E-02 
2005	 8.01571904995145E-02 
2006	 8.03127733735027E-02 
2007	 8.04729112157367E-02 
2008	 8.06245094427566E-02 
2009	 8.07892588873167E-02 
2010	 8.09672513347662E-02 
2011	 8.11380630679986E-02 
2012	 8.13039749601062E-02 
2013	 8.14810008606675E-02 
2014	 8.16607383999289E-02 
2015	 8.18449990040453E-02 
2016	 8.20336109607394E-02 
2017	 8.22177907501102E-02 
2018	 8.23881250807275E-02 
2019	 8.25344007325401E-02 
2020	 8.27021305296348E-02 
2021	 8.28693481526188E-02 
2022	 8.30431659117489E-02 
2023	 8.32432749193906E-02 
2024	 8.34131900882253E-02 
2025	 8.35634875682937E-02 
2026	 8.37246845173049E-02 
2027	 8.38689898164872E-02 
2028	 8.40218015314025E-02 
2029	 8.41971293213228E-02 
2030	 8.44026908134194E-02 
2031	 8.45740055718118E-02 
2032	 8.47453022476506E-02 
2033	 8.49104628317842E-02 
2034	 8.50552010181141E-02 
2035	 8.52099823105576E-02 
2036	 8.53654220676416E-02 
2037	 8.55306973330783E-02 
2038	 8.57103986861242E-02 
2039	 8.58677054472803E-02 
2040	 8.60137489164346E-02 
2041	 8.61716925042266E-02 
2042	 8.63200713126274E-02 
2043	 8.64796627854089E-02 
2044	 8.66392927517794E-02 
2045	 8.68253557320241E-02 
2046	 8.69820605621119E-02 
2047	 8.71262905913138E-02 
2048	 8.72631098737011E-02 
2049	 8.73803579198504E-02 
2050	 8.75139225083533E-02 
2051	 8.76501142035556E-02 
2052	 8.77780354146633E-02 
2053	 8.78967749886793E-02 
2054	 8.80368479028682E-02 
2055	 8.81823129813436E-02 
2056	 8.83316377082201E-02 
2057	 8.84709152902674E-02 
2058	 8.86327905340585E-02 
2059	 8.87619259042596E-02 
2060	 0.088852579314579 
2061	 8.89702325492605E-02 
2062	 8.90904512908048E-02 
2063	 8.92176138670019E-02 
2064	 8.93648084073539E-02 
2065	 8.94899129379346E-02 
2066	 8.96018289508136E-02 
2067	 8.97218591819953E-02 
2068	 0.089828317906513 
2069	 0.089945981766985 
2070	 9.00712600520066E-02 
2071	 9.02142818328241E-02 
2072	 0.090342876722477 
2073	 9.04697077042852E-02 
2074	 9.05956581201709E-02 
2075	 9.07186952552019E-02 
2076	 9.08425186533357E-02 
2077	 0.090971428222984 
2078	 9.10904136187386E-02 
2079	 9.12006641287133E-02 
2080	 9.13144063733303E-02 
2081	 9.14087616106956E-02 
2082	 9.15284589039617E-02 
2083	 9.16712682130745E-02 
2084	 9.18072688071663E-02 
2085	 0.091941847299568 
2086	 9.20974995540386E-02 
2087	 9.22180466422799E-02 
2088	 9.23127311282059E-02 
2089	 9.24215835729964E-02 
2090	 9.25262563340098E-02 
2091	 9.26236563080799E-02 
2092	 9.27195172820778E-02 
2093	 9.28151601320616E-02 
2094	 9.28928335737979E-02 
2095	 9.29866433750224E-02 
2096	 0.093087189221337 
2097	 0.093196689423606 
2098	 9.33165043217416E-02 
2099	 9.34396123514715E-02 
2100	 9.35626500269032E-02 
2101	 9.36969940774495E-02 
2102	 0.093814057803535 
2103	 9.39099968960827E-02 
2104	 9.40429118770811E-02 
2105	 9.42042401284755E-02 
2106	 0.094327436169191 
2107	 9.44619279623877E-02 
2108	 9.45754152731222E-02 
2109	 9.46279250894045E-02 
2110	 9.47266244660904E-02 
2111	 0.094857349936236 
2112	 9.49711104596513E-02 
2113	 9.50896184755941E-02 
2114	 9.52079373528059E-02 
2115	 9.53265067318008E-02 
2116	 9.54375118348622E-02 
2117	 9.55519550182146E-02 
2118	 0.095676163474871 
2119	 9.57884215882713E-02 
2120	 9.58876386241952E-02 
2121	 9.59963438622333E-02 
2122	 9.61102419731998E-02 
2123	 9.62174779858865E-02 
2124	 9.63217167953579E-02 
2125	 9.64286609603049E-02 
2126	 0.096540660651623 
2127	 9.66396780995105E-02 
2128	 9.67430449832088E-02 
2129	 9.68295337152278E-02 
2130	 9.68923402440946E-02 
2131	 9.69554773079237E-02 
2132	 9.70235888025282E-02 
2133	 9.70928735467071E-02 
2134	 9.71511262364494E-02 
2135	 9.72085848902619E-02 
2136	 9.72605923066096E-02 
2137	 9.73024777638464E-02 
2138	 9.73384710513043E-02 
2139	 9.73665056180904E-02 
2140	 9.74040769280635E-02 
2141	 9.74384862849787E-02 
2142	 9.74707550976417E-02 
2143	 0.097529643404328 
2144	 9.75527291677098E-02 
2145	 9.75320125800754E-02 
2146	 9.75362476313719E-02 
2147	 9.75370515265716E-02 
2148	 9.75369237541529E-02 
2149	 9.75426831397782E-02 
2150	 9.75680427766008E-02 
2151	 9.75799547463564E-02 
2152	 0.097580768389142 
2153	 9.75907760502712E-02 
2154	 9.76290061548752E-02 
2155	 9.76154639053314E-02 
2156	 9.75627886028602E-02 
2157	 9.75374961708256E-02 
2158	 9.74936481972184E-02 
2159	 9.74593752844716E-02 
2160	 9.74696080490408E-02 
2161	 9.74356061768127E-02 
2162	 9.73527986801103E-02 
2163	 9.72975868209435E-02 
2164	 9.72252717721067E-02 
2165	 9.71734523677914E-02 
2166	 9.71505748464561E-02 
2167	 9.71753122434096E-02 
2168	 9.71489206298523E-02 
2169	 9.71208002665572E-02 
2170	 9.70936806329361E-02 
2171	 9.70443948002594E-02 
2172	 9.69973667315139E-02 
2173	 9.69622371388432E-02 
2174	 9.69202539100187E-02 
2175	 9.68628066599324E-02 
2176	 9.68090421728822E-02 
2177	 9.67598290087662E-02 
2178	 9.67095613081891E-02 
2179	 9.66458211716824E-02 
2180	 9.65930099913822E-02 
2181	 9.65633757707445E-02 
2182	 9.65172769913074E-02 
2183	 9.64676297836698E-02 
2184	 0.096404753178206 
2185	 9.63529612782496E-02 
2186	 9.62914270659359E-02 
2187	 9.62415200685426E-02 
2188	 9.62051732106917E-02 
2189	 9.61622995405182E-02 
2190	 9.61200333692878E-02 
2191	 9.60762932469538E-02 
2192	 9.60274160286312E-02 
2193	 9.59884499848952E-02 
2194	 0.095967533923817 
2195	 9.59166539634824E-02 
2196	 9.58560160274638E-02 
2197	 9.57953762755915E-02 
2198	 0.095700567687981 
2199	 9.56297041048705E-02 
2200	 9.55764349434285E-02 
2201	 0.095524550444933 
2202	 9.54692813011177E-02 
2203	 9.54333471396046E-02 
2204	 9.54081055077828E-02 
2205	 9.54012689210477E-02 
2206	 0.095372056835254 
2207	 9.53548074168248E-02 
2208	 9.53177561218492E-02 
2209	 9.52532369961759E-02 
2210	 0.095204301012634 
2211	 9.51464314129489E-02 
2212	 9.51114173478317E-02 
2213	 9.50885146794602E-02 
2214	 9.50704558753407E-02 
2215	 9.50774059033082E-02 
2216	 9.50692992477769E-02 
2217	 9.50490756550187E-02 
2218	 9.50403509611611E-02 
2219	 9.50448909634337E-02 
2220	 9.50344799692769E-02 
2221	 9.50243116816567E-02 
2222	 9.50064555467123E-02 
2223	 9.49798578565411E-02 
2224	 9.49637424183041E-02 
2225	 0.094951479568071 
2226	 9.49585550850301E-02 
2227	 9.49339287569091E-02 
2228	 9.48924873923994E-02 
2229	 9.48641252240483E-02 
2230	 9.48232676201072E-02 
2231	 9.47972489711875E-02 
2232	 9.47876015304236E-02 
2233	 9.47704770727099E-02 
2234	 9.47511726237017E-02 
2235	 9.47351569975199E-02 
2236	 9.47248814882123E-02 
2237	 9.47066847656114E-02 
2238	 9.46863808493127E-02 
2239	 9.46652095379863E-02 
2240	 9.46502666908319E-02 
2241	 0.094617893254278 
2242	 9.45605844737904E-02 
2243	 9.45238580738103E-02 
2244	 9.44933211172817E-02 
2245	 9.44504193462748E-02 
2246	 9.44146177284928E-02 
2247	 9.43865032956296E-02 
2248	 9.43480724472116E-02 
2249	 9.42843655027126E-02 
2250	 9.42497855885008E-02 
2251	 9.42492229830532E-02 
2252	 9.41983499520697E-02 
2253	 9.41221547732781E-02 
2254	 9.40695901974661E-02 
2255	 9.39890346387299E-02 
2256	 9.39471661531051E-02 
2257	 9.39478655903023E-02 
2258	 9.39272494748578E-02 
2259	 9.39192845282481E-02 
2260	 9.38833107242167E-02 
2261	 9.38428130619248E-02 
2262	 9.37832580147977E-02 
2263	 9.36993322736937E-02 
2264	 9.36061301749783E-02 
2265	 9.34690969415663E-02 
2266	 9.33756930116987E-02 
2267	 9.32970270525864E-02 
2268	 9.32207374305192E-02 
2269	 9.31789754425541E-02 
2270	 0.093120640315411 
2271	 9.30673358267659E-02 
2272	 9.30016358276402E-02 
2273	 9.29155664203392E-02 
2274	 9.28427728112401E-02 
2275	 9.27367797267988E-02 
2276	 0.092585175237484 
2277	 9.24714939005651E-02 
2278	 9.23634773746067E-02 
2279	 9.22500133529733E-02 
2280	 9.21372377164695E-02 
2281	 9.20401740948556E-02 
2282	 9.19580257321147E-02 
2283	 9.18499889603837E-02 
2284	 9.17395057427997E-02 
2285	 9.16356787151066E-02 
2286	 9.15109320246466E-02 
2287	 9.13957752053098E-02 
2288	 0.091309918843315 
2289	 9.12032252054845E-02 
2290	 9.10769177781565E-02 
2291	 9.09554047392249E-02 
2292	 9.08254823411971E-02 
2293	 9.07012053213751E-02 
2294	 9.05880359571714E-02 
2295	 9.04631565051655E-02 
2296	 9.03247480556253E-02 
2297	 9.02042180756004E-02 
2298	 9.01113440313234E-02 
2299	 8.99629596324374E-02 
2300	 8.98209987325723E-02 
2301	 8.97219147213579E-02 
2302	 8.95902249512587E-02 
2303	 8.94395218171942E-02 
2304	 8.93046471638179E-02 
2305	 0.089142748615293 
2306	 8.89590947090974E-02 
2307	 8.87207068105571E-02 
2308	 8.85635897812115E-02 
2309	 8.84274617230307E-02 
2310	 8.82732876951609E-02 
2311	 8.81600392550961E-02 
2312	 8.80374476200389E-02 
2313	 8.78886217782292E-02 
2314	 8.77431458580261E-02 
2315	 8.76433326923294E-02 
2316	 8.74778536928167E-02 
2317	 8.72434122997473E-02 
2318	 8.70614243124463E-02 
2319	 8.68808758271927E-02 
2320	 8.66905590295191E-02 
2321	 8.65228784520896E-02 
2322	 8.63405880692301E-02 
2323	 0.086124904606377 
2324	 8.59445702214207E-02 
2325	 8.57696678697555E-02 
2326	 8.56042051735842E-02 
2327	 8.54529267824608E-02 
2328	 8.53244129484529E-02 
2329	 8.51939035017147E-02 
2330	 8.51020061431477E-02 
2331	 8.49663844922438E-02 
2332	 8.47993424524231E-02 
2333	 8.46243746397329E-02 
2334	 8.44437953593509E-02 
2335	 0.08431623634009 
2336	 8.41863654970897E-02 
2337	 8.40654106721839E-02 
2338	 8.39485390152728E-02 
2339	 8.37551497686811E-02 
2340	 8.35786088679138E-02 
2341	 8.33931206279688E-02 
2342	 8.31622644554165E-02 
2343	 8.29946991219849E-02 
2344	 8.28329482276043E-02 
2345	 0.082650817368486 
2346	 8.24698498329059E-02 
2347	 8.22761164557894E-02 
2348	 8.20669146387796E-02 
2349	 8.18536553257512E-02 
2350	 8.16333189030462E-02 
2351	 8.14073862007235E-02 
2352	 8.11596194067037E-02 
2353	 8.09401639400933E-02 
2354	 8.07247108799175E-02 
2355	 8.05136335357372E-02 
2356	 8.03217996187138E-02 
2357	 8.01229931164713E-02 
2358	 7.99229443049735E-02 
2359	 7.97345355647974E-02 
2360	 7.95723504597212E-02 
2361	 7.93689729306979E-02 
2362	 7.91377402538959E-02 
2363	 7.89332002219251E-02 
2364	 7.87277167078046E-02 
2365	 7.84956546886942E-02 
2366	 7.82626829562006E-02 
2367	 7.80400921563879E-02 
2368	 7.77848591885872E-02 
2369	 7.75399607101556E-02 
2370	 7.73187857835849E-02 
2371	 7.71070268415492E-02 
2372	 7.68502523166304E-02 
2373	 7.66679594087088E-02 
2374	 7.65339024618993E-02 
2375	 7.62937975670353E-02 
2376	 7.60409356005218E-02 
2377	 7.57665873605729E-02 
2378	 7.55100035192559E-02 
2379	 7.53048123428494E-02 
2380	 7.50594310579805E-02 
2381	 7.49072894595962E-02 
2382	 7.47608553688455E-02 
2383	 7.46126532710731E-02 
2384	 7.45098262725723E-02 
2385	 7.43447666761418E-02 
2386	 7.40852621751576E-02 
2387	 7.37671790474005E-02 
2388	 7.34876130791926E-02 
2389	 7.32355403879454E-02 
2390	 7.30328910919668E-02 
2391	 7.28457449461049E-02 
2392	 7.25988530916334E-02 
2393	 7.24308124840028E-02 
2394	 7.22908516914715E-02 
2395	 7.20905163360754E-02 
2396	 7.19522313527196E-02 
2397	 7.18083710338837E-02 
2398	 7.16341210644251E-02 
2399	 7.14955401853352E-02 
2400	 7.13246937285646E-02 
2401	 7.10896871408024E-02 
2402	 7.08150871672036E-02 
2403	 7.05730317834008E-02 
2404	 7.04059973515626E-02 
2405	 7.02480862119965E-02 
2406	 7.01231377601839E-02 
2407	 0.070041824804581 
2408	 6.98878422347179E-02 
2409	 6.97048001108813E-02 
2410	 6.95449664947649E-02 
2411	 6.93261414262555E-02 
2412	 6.91160849103237E-02 
2413	 6.89919688733419E-02 
2414	 6.88522920682828E-02 
2415	 6.87159250624488E-02 
2416	 6.86033107767995E-02 
2417	 6.85448032880752E-02 
2418	 0.068372691495596 
2419	 6.81642108287062E-02 
2420	 6.79703044831974E-02 
2421	 6.76733685581109E-02 
2422	 6.75145888350761E-02 
2423	 6.74462309999391E-02 
2424	 6.73328545994452E-02 
2425	 6.72833009768617E-02 
2426	 6.71836363094796E-02 
2427	 6.70575466043018E-02 
2428	 6.69047067897692E-02 
2429	 6.67152836174857E-02 
2430	 6.65010625258889E-02 
2431	 6.61924374982638E-02 
2432	 6.60361718441339E-02 
2433	 6.60013792594015E-02 
2434	 0.06586756146718 
2435	 6.57561986091652E-02 
2436	 6.56311080832839E-02 
2437	 6.54620163009489E-02 
2438	 6.52333933625071E-02 
2439	 6.49950865801615E-02 
2440	 6.47980558332852E-02 
2441	 6.44793233007241E-02 
2442	 6.42653746909861E-02 
2443	 6.42164052212113E-02 
2444	 6.40353041401967E-02 
2445	 6.37875206998658E-02 
2446	 0.063613541079381 
2447	 6.33920790560997E-02 
2448	 6.32827305003077E-02 
2449	 6.32779940018531E-02 
2450	 6.32343787120409E-02 
2451	 0.063311739793175 
2452	 6.31867163856089E-02 
2453	 6.29747363174273E-02 
2454	 6.27353455489074E-02 
2455	 6.22449873020356E-02 
2456	 6.20209426953118E-02 
2457	 6.19698906027776E-02 
2458	 6.17998965227491E-02 
2459	 6.17376726382614E-02 
2460	 0.061620517688578 
2461	 0.061366272354812 
2462	 6.11393936094419E-02 
2463	 6.08696971820532E-02 
2464	 6.06962618686361E-02 
2465	 6.05821378340873E-02 
2466	 6.04670854518565E-02 
2467	 6.05312674620528E-02 
2468	 6.04686090511097E-02 
2469	 6.02159018185825E-02 
2470	 6.00482099581604E-02 
2471	 5.98662266227031E-02 
2472	 5.95585946687215E-02 
2473	 5.94993683402513E-02 
2474	 5.94421768084847E-02 
2475	 5.92131432456454E-02 
2476	 5.90542890245662E-02 
2477	 5.88989345729917E-02 
2478	 5.88639193191376E-02 
2479	 5.89570056907104E-02 
2480	 5.88229603183751E-02 
2481	 5.86347591956507E-02 
2482	 5.84953711224125E-02 
2483	 5.81852235192164E-02 
2484	 5.79819087880891E-02 
2485	 5.80141853529343E-02 
2486	 5.79512290393864E-02 
2487	 0.057842124276246 
2488	 5.78964969051988E-02 
2489	 5.78361582823556E-02 
2490	 5.76441104597696E-02 
2491	 5.73759860536865E-02 
2492	 5.69952321181096E-02 
2493	 5.68538655174658E-02 
2494	 5.68150595600015E-02 
2495	 5.68902030626501E-02 
2496	 5.71342542619378E-02 
2497	 5.69094319910592E-02 
2498	 5.63452706726066E-02 
2499	 0.055919877212351 
2500	 5.55994997848469E-02 
