Wavelength	lmw-9-100001.asd
350	 0.115105572333293 
351	 0.112307917959204 
352	 9.95029845162492E-02 
353	 8.90162591635615E-02 
354	 8.87589447286623E-02 
355	 8.86624939184097E-02 
356	 0.090275893268144 
357	 9.52282901286863E-02 
358	 9.38908542008832E-02 
359	 8.96352789362052E-02 
360	 8.62572074633286E-02 
361	 8.69290815784056E-02 
362	 8.82495672301369E-02 
363	 8.81714797550564E-02 
364	 8.65448009820894E-02 
365	 0.085641552034486 
366	 8.47998921986752E-02 
367	 8.35791625517181E-02 
368	 8.22834201784095E-02 
369	 8.43825940038606E-02 
370	 8.39016122486416E-02 
371	 8.15014044615857E-02 
372	 8.21616436441644E-02 
373	 8.32229343635092E-02 
374	 8.38353919807519E-02 
375	 0.083459499214173 
376	 8.15408954277639E-02 
377	 8.01964557839315E-02 
378	 8.07760858802726E-02 
379	 8.28617906388151E-02 
380	 8.01384210620024E-02 
381	 7.76764250326207E-02 
382	 7.81480589887836E-02 
383	 8.15083236963915E-02 
384	 8.28777836114273E-02 
385	 8.09652639409671E-02 
386	 7.74335449791744E-02 
387	 7.81645794603961E-02 
388	 7.99816074818119E-02 
389	 8.07303831927357E-02 
390	 7.94815654771761E-02 
391	 7.94042310296614E-02 
392	 8.09579864030339E-02 
393	 8.25775160531424E-02 
394	 8.14409135066683E-02 
395	 8.06023593542556E-02 
396	 0.080200461640231 
397	 8.02817549524577E-02 
398	 8.20315701904819E-02 
399	 8.26534074431204E-02 
400	 8.32622445583984E-02 
401	 8.54312256691423E-02 
402	 8.45283018283455E-02 
403	 8.38344485199087E-02 
404	 8.42603036047131E-02 
405	 8.39037333286766E-02 
406	 8.36370237186911E-02 
407	 8.43294010583745E-02 
408	 8.56922944900055E-02 
409	 8.44122726945717E-02 
410	 8.36463874867893E-02 
411	 0.083887770065774 
412	 8.43414346970542E-02 
413	 8.50762426179204E-02 
414	 8.48897743143818E-02 
415	 8.39093670858319E-02 
416	 8.40044504011402E-02 
417	 0.084129749574705 
418	 8.40950071193382E-02 
419	 8.38494270472916E-02 
420	 0.083109483897236 
421	 8.20606487573163E-02 
422	 8.14975205550547E-02 
423	 8.22986597922771E-02 
424	 0.08196543487068 
425	 8.10965462334734E-02 
426	 8.03851848562168E-02 
427	 7.99006834136266E-02 
428	 7.96226300150273E-02 
429	 7.94307247508332E-02 
430	 7.92577919056627E-02 
431	 7.95261388469318E-02 
432	 7.96124218583729E-02 
433	 7.96172737704575E-02 
434	 8.03259726867721E-02 
435	 0.081006763848496 
436	 8.14990431700201E-02 
437	 8.18901119662783E-02 
438	 8.25361661959005E-02 
439	 8.35823282610194E-02 
440	 8.49235605534431E-02 
441	 8.62762410132223E-02 
442	 8.71410058042958E-02 
443	 8.82008102610038E-02 
444	 8.96561097764386E-02 
445	 9.08229951375512E-02 
446	 0.091873248255161 
447	 9.32644715736788E-02 
448	 9.51943897627756E-02 
449	 9.63763400099537E-02 
450	 9.79072272832992E-02 
451	 9.98796877598859E-02 
452	 0.101510356455676 
453	 0.103056970306091 
454	 0.104607736010848 
455	 0.106218332600115 
456	 0.107901105740872 
457	 0.109762662779383 
458	 0.111688676727104 
459	 0.11351676562567 
460	 0.11560685646953 
461	 0.117596482798346 
462	 0.119486118749068 
463	 0.121867165517883 
464	 0.124066381070024 
465	 0.126217122965801 
466	 0.128573670593598 
467	 0.130917944780317 
468	 0.133335202397901 
469	 0.13578721438743 
470	 0.138151826964694 
471	 0.14068543367709 
472	 0.143361133325804 
473	 0.146092984093922 
474	 0.148771298316009 
475	 0.151429851790561 
476	 0.154092087099067 
477	 0.156806473106366 
478	 0.159804383003196 
479	 0.162686047818381 
480	 0.165346960171231 
481	 0.168169738096179 
482	 0.170919357529836 
483	 0.173670770683588 
484	 0.176472151213665 
485	 0.178944835043383 
486	 0.18142985914198 
487	 0.183943783897011 
488	 0.186248726285085 
489	 0.18873924767797 
490	 0.191114106342174 
491	 0.19319533832154 
492	 0.195420301605198 
493	 0.197352138513028 
494	 0.19908399575127 
495	 0.200923984392679 
496	 0.202755472805894 
497	 0.204371721405604 
498	 0.205719861412861 
499	 0.206980939389939 
500	 0.208232834825982 
501	 0.209317160664702 
502	 0.210131228025728 
503	 0.211153102440664 
504	 0.212109046295519 
505	 0.212948264805657 
506	 0.213835630304432 
507	 0.214573124865242 
508	 0.215115675274954 
509	 0.215506468437388 
510	 0.215936803587616 
511	 0.216206667727666 
512	 0.216411432851979 
513	 0.216778718209915 
514	 0.217207472445714 
515	 0.217587037094683 
516	 0.217835032802144 
517	 0.217896491560827 
518	 0.218059406262762 
519	 0.21830310427472 
520	 0.21849926210659 
521	 0.218577379645888 
522	 0.218643412104995 
523	 0.218749859697685 
524	 0.218881046632564 
525	 0.219011889408884 
526	 0.219124021760221 
527	 0.219226637749665 
528	 0.219420401652876 
529	 0.219506884470328 
530	 0.219554226178252 
531	 0.219780526043593 
532	 0.21993039751304 
533	 0.220145591529389 
534	 0.220471381258673 
535	 0.220644269254031 
536	 0.22070821569836 
537	 0.220818812919895 
538	 0.221136936651762 
539	 0.221491792515449 
540	 0.221774473736232 
541	 0.222008593810353 
542	 0.222381312879214 
543	 0.222719509929787 
544	 0.22307854662023 
545	 0.223527683548867 
546	 0.223946949070884 
547	 0.224332332505603 
548	 0.224721654281635 
549	 0.22518184354868 
550	 0.225679929490878 
551	 0.226239198837061 
552	 0.226841261429223 
553	 0.227325349265055 
554	 0.227867496967122 
555	 0.228520159880333 
556	 0.229252823390798 
557	 0.229936865485938 
558	 0.230603551559784 
559	 0.231291119336711 
560	 0.232015769637565 
561	 0.232740283926973 
562	 0.233454178042978 
563	 0.234156367512776 
564	 0.234845469729144 
565	 0.235461847697276 
566	 0.236060894993944 
567	 0.236824299953557 
568	 0.237694003139668 
569	 0.2385802514095 
570	 0.239440139913441 
571	 0.240432311277889 
572	 0.241390581922948 
573	 0.242325773352808 
574	 0.243356942529554 
575	 0.244240706273081 
576	 0.245170493418075 
577	 0.246232794965165 
578	 0.247122012140096 
579	 0.248034465513646 
580	 0.248964129756041 
581	 0.249836974139963 
582	 0.25069780484022 
583	 0.251610019521481 
584	 0.252568531970371 
585	 0.253474724503564 
586	 0.254433957581402 
587	 0.255423437140255 
588	 0.256403468601967 
589	 0.25743193570551 
590	 0.258513174409942 
591	 0.259631140872971 
592	 0.260758787011251 
593	 0.261940417582631 
594	 0.263117620102916 
595	 0.264238553771813 
596	 0.265331709390754 
597	 0.266338891083577 
598	 0.267282578792228 
599	 0.268231791483884 
600	 0.269192423870842 
601	 0.270165370218932 
602	 0.271151449785266 
603	 0.27216076665712 
604	 0.273201963565573 
605	 0.274197723986958 
606	 0.275101571606327 
607	 0.276206783382403 
608	 0.2772856720955 
609	 0.278281458280452 
610	 0.279365393634084 
611	 0.280388286689291 
612	 0.281333460994365 
613	 0.282224598687712 
614	 0.283122454619415 
615	 0.283932171477738 
616	 0.284714488450197 
617	 0.285616890932452 
618	 0.286476106526271 
619	 0.287339586042767 
620	 0.288224767533633 
621	 0.289011621748852 
622	 0.289744090084784 
623	 0.290474950718393 
624	 0.29124665607912 
625	 0.291969314847727 
626	 0.292677337404478 
627	 0.29340909538335 
628	 0.294194135382283 
629	 0.294922048290427 
630	 0.29558909127094 
631	 0.296230209112183 
632	 0.296885032753507 
633	 0.297553974095212 
634	 0.298198318033355 
635	 0.29875574351301 
636	 0.299283587625423 
637	 0.2998612606294 
638	 0.300494409926837 
639	 0.301005391105546 
640	 0.301492435666639 
641	 0.302012816366609 
642	 0.302582938875887 
643	 0.303048974336422 
644	 0.30350819771196 
645	 0.303977484515822 
646	 0.304317508802177 
647	 0.304738540317936 
648	 0.305142094274445 
649	 0.305412708369054 
650	 0.305769387551361 
651	 0.306082120091976 
652	 0.306336995483887 
653	 0.306621726775767 
654	 0.306814905125193 
655	 0.306994704953791 
656	 0.307219971118093 
657	 0.307412767643708 
658	 0.307585154449944 
659	 0.307680039672566 
660	 0.307643772004789 
661	 0.307686471105823 
662	 0.307720672457815 
663	 0.307693073167286 
664	 0.307643389983085 
665	 0.30756062913937 
666	 0.307453470690214 
667	 0.307331042603548 
668	 0.307184094307051 
669	 0.307011567882848 
670	 0.306810594541066 
671	 0.306571669374868 
672	 0.306179646579583 
673	 0.305819491608732 
674	 0.305575116374501 
675	 0.305169968468552 
676	 0.304739106594613 
677	 0.304329287656116 
678	 0.303935499873218 
679	 0.303459472030351 
680	 0.302904436712432 
681	 0.302315876669136 
682	 0.301779019421569 
683	 0.301255623304479 
684	 0.300672760128077 
685	 0.299992575907977 
686	 0.299329267053201 
687	 0.298663810496725 
688	 0.297969199255631 
689	 0.2972194024019 
690	 0.29644665261417 
691	 0.295705685101393 
692	 0.295000143835335 
693	 0.294232075045262 
694	 0.293396065351779 
695	 0.292519482992734 
696	 0.291642182111003 
697	 0.290771463134253 
698	 0.289920591817997 
699	 0.289063698265107 
700	 0.288139878249365 
701	 0.287242229918904 
702	 0.286284393448859 
703	 0.285244427898126 
704	 0.28439954936616 
705	 0.283471629628477 
706	 0.282448469851169 
707	 0.281455145813573 
708	 0.28046849565143 
709	 0.279517429188543 
710	 0.278580648286891 
711	 0.277558812949312 
712	 0.276496799191399 
713	 0.275397501511214 
714	 0.27429733093771 
715	 0.273416501734814 
716	 0.27243570599603 
717	 0.271315137677707 
718	 0.270232718091881 
719	 0.269273863028625 
720	 0.268257870295302 
721	 0.267107814430894 
722	 0.266011387003902 
723	 0.264972199763143 
724	 0.263923033475621 
725	 0.262803238806862 
726	 0.261748076738438 
727	 0.26070638942833 
728	 0.259634752223106 
729	 0.258512106174637 
730	 0.257437559138306 
731	 0.256353326950799 
732	 0.255227636357877 
733	 0.254156030176721 
734	 0.253148723900659 
735	 0.252112905554215 
736	 0.250948269496865 
737	 0.24978919993588 
738	 0.248711260545656 
739	 0.247682414970838 
740	 0.246564791009323 
741	 0.245473769681802 
742	 0.244378791373533 
743	 0.243265094985892 
744	 0.242254229170878 
745	 0.241178848040771 
746	 0.240066063788521 
747	 0.239019658992264 
748	 0.237966454004352 
749	 0.236891231428545 
750	 0.235820603493972 
751	 0.234821196279074 
752	 0.233787857459979 
753	 0.232707849967467 
754	 0.231609021957662 
755	 0.230562409189128 
756	 0.229589568089487 
757	 0.228594599393946 
758	 0.227466416245838 
759	 0.226449464791644 
760	 0.225491198913566 
761	 0.224531571994892 
762	 0.223540125741054 
763	 0.222559509398414 
764	 0.221570448289883 
765	 0.220564321379734 
766	 0.219596715580288 
767	 0.218678063957955 
768	 0.217761106603415 
769	 0.216788485683586 
770	 0.215863759262421 
771	 0.214963505292291 
772	 0.21405808207318 
773	 0.213127657260367 
774	 0.212266556966512 
775	 0.211417268085379 
776	 0.2105255594008 
777	 0.209639057517787 
778	 0.208793776548489 
779	 0.20798947188622 
780	 0.207197993892453 
781	 0.206353764963466 
782	 0.205540657892668 
783	 0.20476695629463 
784	 0.203955543782983 
785	 0.203173867490249 
786	 0.202422807587881 
787	 0.201689399810361 
788	 0.200959997846837 
789	 0.200244391247544 
790	 0.199526026490372 
791	 0.198795595456795 
792	 0.198123446265855 
793	 0.197476862340761 
794	 0.196832717028107 
795	 0.196181856232298 
796	 0.195508782598813 
797	 0.19486684708543 
798	 0.194262842912841 
799	 0.193597208682839 
800	 0.193017971957985 
801	 0.192486141446198 
802	 0.191926773326861 
803	 0.191373644742018 
804	 0.190805969723207 
805	 0.190233137982826 
806	 0.189683504975664 
807	 0.189155565554556 
808	 0.188664378650446 
809	 0.188204951398174 
810	 0.187744304078602 
811	 0.187256297042578 
812	 0.186760694383511 
813	 0.186293394546321 
814	 0.185900039822955 
815	 0.185555566800905 
816	 0.185176917992902 
817	 0.184705748696387 
818	 0.184339786701607 
819	 0.183987846770705 
820	 0.183606089520888 
821	 0.183213797324006 
822	 0.182898363812941 
823	 0.182577275227602 
824	 0.182221525036425 
825	 0.181931383216628 
826	 0.181643728593458 
827	 0.181321088282446 
828	 0.180972708328998 
829	 0.18073314781026 
830	 0.180459362567497 
831	 0.180163802644715 
832	 0.179930240785448 
833	 0.179771358842604 
834	 0.179552728605934 
835	 0.179282169192976 
836	 0.179099343717381 
837	 0.178900421204071 
838	 0.178691651093345 
839	 0.178492865304377 
840	 0.178315954277475 
841	 0.178171923906237 
842	 0.178033513082629 
843	 0.177879344184982 
844	 0.17774162453193 
845	 0.177620611172634 
846	 0.177527342253091 
847	 0.177466794525291 
848	 0.177394397397988 
849	 0.177289166429908 
850	 0.177166855154974 
851	 0.177072149424189 
852	 0.177026015127101 
853	 0.176972668724086 
854	 0.176911092489944 
855	 0.176932554944151 
856	 0.176913974019674 
857	 0.176870040164756 
858	 0.176843609677974 
859	 0.176859777578281 
860	 0.176897532959524 
861	 0.176913596312889 
862	 0.176885425947955 
863	 0.176901939912893 
864	 0.176977076006443 
865	 0.177085925354944 
866	 0.177184834315592 
867	 0.177287334743158 
868	 0.177372979146756 
869	 0.177453474534255 
870	 0.17757081448353 
871	 0.177694710422966 
872	 0.17781408262947 
873	 0.177927400450439 
874	 0.178042627410073 
875	 0.178228751842663 
876	 0.178429853584113 
877	 0.178589470223563 
878	 0.178732589938289 
879	 0.178908037744969 
880	 0.179153349238875 
881	 0.179461783596426 
882	 0.179693862524208 
883	 0.179923107528528 
884	 0.180150463798619 
885	 0.18035201379109 
886	 0.180627293936089 
887	 0.180920733903463 
888	 0.18117882833481 
889	 0.181385155069347 
890	 0.181751641229179 
891	 0.182073788776525 
892	 0.182317074487447 
893	 0.182711819671873 
894	 0.183097885762558 
895	 0.183470098668059 
896	 0.183831572483968 
897	 0.184147560811281 
898	 0.184567395100342 
899	 0.185013887100872 
900	 0.185392427607769 
901	 0.185722309859834 
902	 0.186153828185884 
903	 0.186680237760469 
904	 0.187218122310239 
905	 0.187651608583458 
906	 0.18813521930231 
907	 0.188621945094078 
908	 0.189024625522976 
909	 0.189590948696419 
910	 0.190135623714266 
911	 0.190644317079878 
912	 0.191209803886316 
913	 0.191724493913449 
914	 0.192272087037886 
915	 0.192869830868935 
916	 0.193466744970574 
917	 0.194094213554342 
918	 0.194701446838625 
919	 0.195280471465111 
920	 0.195884883448707 
921	 0.196616771203533 
922	 0.197294241210783 
923	 0.197871017313486 
924	 0.198561008308678 
925	 0.199175873243324 
926	 0.199833319974302 
927	 0.200578384026096 
928	 0.201210412683843 
929	 0.201963254545199 
930	 0.202781179685427 
931	 0.203574700195725 
932	 0.204362159383717 
933	 0.205156670754523 
934	 0.20597073722884 
935	 0.206793459538684 
936	 0.207561519714702 
937	 0.208195756300819 
938	 0.208874761048528 
939	 0.209763097395909 
940	 0.210667347674173 
941	 0.211583818820287 
942	 0.212463691917121 
943	 0.213291319889045 
944	 0.214212324392716 
945	 0.215145062966065 
946	 0.216050645284919 
947	 0.216920752544765 
948	 0.21777413390213 
949	 0.218665593991166 
950	 0.219559189156474 
951	 0.220419290249648 
952	 0.221471811786809 
953	 0.222313892517039 
954	 0.223075472210743 
955	 0.224117596651215 
956	 0.225208537585616 
957	 0.226214265900045 
958	 0.227126851006424 
959	 0.228032490035502 
960	 0.229030968896169 
961	 0.230020035045389 
962	 0.231006500274146 
963	 0.2320426969172 
964	 0.232960977578057 
965	 0.233971340008511 
966	 0.235088243820824 
967	 0.236183792138072 
968	 0.237256159912311 
969	 0.238332383861594 
970	 0.239387354535806 
971	 0.240395236901755 
972	 0.241569501253165 
973	 0.242750551129322 
974	 0.243961767282597 
975	 0.245295015116477 
976	 0.24638621622312 
977	 0.247535170692399 
978	 0.248707859310011 
979	 0.24972618100582 
980	 0.251083616221145 
981	 0.252357619805372 
982	 0.253533906353781 
983	 0.254839284847787 
984	 0.256105672301113 
985	 0.257399011327062 
986	 0.258675118124121 
987	 0.259876527498945 
988	 0.261228152841608 
989	 0.26256520153465 
990	 0.263915407808508 
991	 0.265357853621177 
992	 0.266669401021456 
993	 0.268047809671228 
994	 0.269422010152827 
995	 0.270664492792766 
996	 0.271964556307699 
997	 0.2734431761816 
998	 0.27493165680336 
999	 0.276276326680808 
1000	 0.277778223459982 
1001	 0.282478194899345 
1002	 0.283936386515688 
1003	 0.285399375449482 
1004	 0.286846261945894 
1005	 0.288275419909152 
1006	 0.289753708257979 
1007	 0.291252293421526 
1008	 0.292719375738896 
1009	 0.294200297218972 
1010	 0.29570195073129 
1011	 0.297215254344852 
1012	 0.298714847193847 
1013	 0.300188877725402 
1014	 0.301687514643727 
1015	 0.303201228348105 
1016	 0.304700785535236 
1017	 0.306223811448445 
1018	 0.307783012919595 
1019	 0.309353842494976 
1020	 0.31086687535468 
1021	 0.31235792911825 
1022	 0.313859108528852 
1023	 0.315320590737719 
1024	 0.316772270305477 
1025	 0.318266280529174 
1026	 0.319753768605287 
1027	 0.321256814344317 
1028	 0.322801604668195 
1029	 0.324315508734713 
1030	 0.325752231028485 
1031	 0.327193264408669 
1032	 0.328594059972297 
1033	 0.330037202392646 
1034	 0.331532274373645 
1035	 0.333046229997386 
1036	 0.334555802764862 
1037	 0.336053218383071 
1038	 0.337496294892569 
1039	 0.33891501319303 
1040	 0.340375008609236 
1041	 0.341797967762893 
1042	 0.343204099147144 
1043	 0.344578244170296 
1044	 0.345986604445047 
1045	 0.347410937603936 
1046	 0.348882605727072 
1047	 0.350255331539655 
1048	 0.351648714863976 
1049	 0.353080185323723 
1050	 0.354437885891076 
1051	 0.355827745910707 
1052	 0.357232665632358 
1053	 0.358567011017266 
1054	 0.359939673484902 
1055	 0.361304375536667 
1056	 0.362597377099239 
1057	 0.363947047344737 
1058	 0.365331913618633 
1059	 0.366670611270315 
1060	 0.367987366019987 
1061	 0.369355615410854 
1062	 0.370682683597104 
1063	 0.371993309364239 
1064	 0.373326225826585 
1065	 0.374700000114136 
1066	 0.376026332938805 
1067	 0.377277314926005 
1068	 0.378559858455495 
1069	 0.379822580305565 
1070	 0.381109333306268 
1071	 0.382457920690597 
1072	 0.383748259340942 
1073	 0.38501041831181 
1074	 0.386258665905226 
1075	 0.387474792821908 
1076	 0.388677826353555 
1077	 0.389887866903628 
1078	 0.39106084635914 
1079	 0.392255600566328 
1080	 0.393433549178398 
1081	 0.394531569888776 
1082	 0.395713676225467 
1083	 0.396866437922254 
1084	 0.397980096287207 
1085	 0.399113205101213 
1086	 0.40029690464691 
1087	 0.401371939757204 
1088	 0.402368775592783 
1089	 0.403438215097519 
1090	 0.404469165447829 
1091	 0.405495118122468 
1092	 0.406523361225107 
1093	 0.407501079833397 
1094	 0.408489878850087 
1095	 0.409468714140368 
1096	 0.410409823660239 
1097	 0.411351705233301 
1098	 0.412259978814997 
1099	 0.413102985529222 
1100	 0.413948217239885 
1101	 0.414812350318293 
1102	 0.415636739954277 
1103	 0.416427063880469 
1104	 0.41719508275699 
1105	 0.417978873082644 
1106	 0.418701556651729 
1107	 0.41942751983064 
1108	 0.420173171157453 
1109	 0.420857277137411 
1110	 0.421555585367093 
1111	 0.422236813833044 
1112	 0.422900038007246 
1113	 0.423540606127492 
1114	 0.424187090632751 
1115	 0.42479689817245 
1116	 0.425356742931043 
1117	 0.425927234994065 
1118	 0.426489926773124 
1119	 0.42704678108973 
1120	 0.427584964142294 
1121	 0.428137692866505 
1122	 0.428643318322487 
1123	 0.429074537587907 
1124	 0.429483758452424 
1125	 0.429848713627176 
1126	 0.430182754904392 
1127	 0.43049877660113 
1128	 0.43076761270028 
1129	 0.431001980304351 
1130	 0.431190771625831 
1131	 0.431368730141276 
1132	 0.431449635333033 
1133	 0.431481738627712 
1134	 0.431445878038713 
1135	 0.431350513641503 
1136	 0.431174863441519 
1137	 0.430937950352339 
1138	 0.430603730603168 
1139	 0.430186996721084 
1140	 0.429701529111832 
1141	 0.429089691202498 
1142	 0.42839563141293 
1143	 0.427600460226298 
1144	 0.426682867258484 
1145	 0.4257057975462 
1146	 0.424627356054683 
1147	 0.423522320661298 
1148	 0.42231168984105 
1149	 0.421131103483269 
1150	 0.419906936298173 
1151	 0.418707895491585 
1152	 0.417547046383851 
1153	 0.416412331906123 
1154	 0.415355573580285 
1155	 0.414319030219538 
1156	 0.413424466106313 
1157	 0.412596392765261 
1158	 0.411872655699104 
1159	 0.411275416219453 
1160	 0.410717893716473 
1161	 0.410229377144405 
1162	 0.409802358164473 
1163	 0.409438932087802 
1164	 0.409136530677729 
1165	 0.408900437114079 
1166	 0.408718871785043 
1167	 0.408556297635997 
1168	 0.4084234945395 
1169	 0.40833976853129 
1170	 0.408285916039625 
1171	 0.408256001742004 
1172	 0.408277837466164 
1173	 0.408313852738328 
1174	 0.408340712975922 
1175	 0.408438557717137 
1176	 0.408598270986841 
1177	 0.40876782324248 
1178	 0.408968259652411 
1179	 0.409201377158399 
1180	 0.409459715771383 
1181	 0.409741623445626 
1182	 0.410068831769999 
1183	 0.410412838702324 
1184	 0.410735118159082 
1185	 0.411070200691462 
1186	 0.411384800151731 
1187	 0.411692411960425 
1188	 0.411980397841183 
1189	 0.412256316718186 
1190	 0.412525556166689 
1191	 0.412784952636209 
1192	 0.413023793596029 
1193	 0.413249914977458 
1194	 0.413471230309794 
1195	 0.413660043326856 
1196	 0.413863133943769 
1197	 0.41407226268526 
1198	 0.414281224499636 
1199	 0.414491194133413 
1200	 0.414700511389636 
1201	 0.414914299529423 
1202	 0.415130407367853 
1203	 0.415350495271617 
1204	 0.415578718646585 
1205	 0.415797154195671 
1206	 0.416008287256372 
1207	 0.416232057503433 
1208	 0.416463090540428 
1209	 0.416684025764026 
1210	 0.41692770376589 
1211	 0.417136266427445 
1212	 0.417311807715792 
1213	 0.417494439707987 
1214	 0.417665540353672 
1215	 0.417832756088378 
1216	 0.417997092807309 
1217	 0.418166094293062 
1218	 0.41831925258374 
1219	 0.41845767341056 
1220	 0.41860247493151 
1221	 0.418743320766398 
1222	 0.418884355931411 
1223	 0.419038072428275 
1224	 0.419164252969493 
1225	 0.419277064614595 
1226	 0.419384684638547 
1227	 0.419467217915056 
1228	 0.419561293591089 
1229	 0.419663503731746 
1230	 0.419755144872113 
1231	 0.419848465526468 
1232	 0.41993017476946 
1233	 0.420003249652835 
1234	 0.420057016043859 
1235	 0.420135336294182 
1236	 0.420215243386687 
1237	 0.420298589988348 
1238	 0.420412792423001 
1239	 0.420480752831495 
1240	 0.420518187572673 
1241	 0.4205730808865 
1242	 0.420619649030394 
1243	 0.420659756775991 
1244	 0.420704899465361 
1245	 0.420745888550603 
1246	 0.420767357374558 
1247	 0.420796611750659 
1248	 0.420831514811173 
1249	 0.420875812227183 
1250	 0.420903316704087 
1251	 0.420926811393479 
1252	 0.420934549297789 
1253	 0.420936001804292 
1254	 0.420918408835998 
1255	 0.420881397805249 
1256	 0.420840710130053 
1257	 0.420792332936727 
1258	 0.420727189785871 
1259	 0.420630958430605 
1260	 0.420564972755258 
1261	 0.420496542817071 
1262	 0.420432574291554 
1263	 0.420410553583915 
1264	 0.420348357042214 
1265	 0.420255086290904 
1266	 0.420167485975612 
1267	 0.42007623372685 
1268	 0.419967909697765 
1269	 0.419847706160229 
1270	 0.419724265581712 
1271	 0.419592937175093 
1272	 0.419451216323007 
1273	 0.419283293978623 
1274	 0.419101955382067 
1275	 0.418912776649724 
1276	 0.418697167695253 
1277	 0.41847838022586 
1278	 0.418257663870863 
1279	 0.418030199753977 
1280	 0.41779967566516 
1281	 0.417539188987 
1282	 0.417272439589218 
1283	 0.416985620780625 
1284	 0.416659398672707 
1285	 0.41632820492048 
1286	 0.416020365513572 
1287	 0.415691017756764 
1288	 0.415340840034815 
1289	 0.414986243267515 
1290	 0.414600743151062 
1291	 0.414179447716793 
1292	 0.413762469414804 
1293	 0.413344363207579 
1294	 0.412894116309223 
1295	 0.41243434151668 
1296	 0.411934592372387 
1297	 0.411398326283801 
1298	 0.410850739769032 
1299	 0.410259919968972 
1300	 0.409683666793548 
1301	 0.409132778918848 
1302	 0.408520516169534 
1303	 0.407870969487884 
1304	 0.40723216615784 
1305	 0.406545891940846 
1306	 0.405814929817887 
1307	 0.405102833917748 
1308	 0.4043648124503 
1309	 0.403584292062548 
1310	 0.402784167457135 
1311	 0.401925022114241 
1312	 0.401015548701613 
1313	 0.4000909769453 
1314	 0.399140266109471 
1315	 0.398135108771294 
1316	 0.397109202061203 
1317	 0.396025092471803 
1318	 0.394881591543463 
1319	 0.393709928464649 
1320	 0.392511217015212 
1321	 0.391270176122613 
1322	 0.390001620678641 
1323	 0.388666168545683 
1324	 0.387326604336307 
1325	 0.385925369178398 
1326	 0.384485651089907 
1327	 0.383034075877249 
1328	 0.381502137041186 
1329	 0.379960662583017 
1330	 0.378386285723691 
1331	 0.376776363221054 
1332	 0.375140607993639 
1333	 0.373477978264204 
1334	 0.371798654866289 
1335	 0.370078792591759 
1336	 0.368385177097813 
1337	 0.36669081533202 
1338	 0.364997935031124 
1339	 0.363304615237035 
1340	 0.361615523895613 
1341	 0.359886114559312 
1342	 0.358234488497775 
1343	 0.356606362327855 
1344	 0.355027256722153 
1345	 0.353495248854929 
1346	 0.352017528316732 
1347	 0.350581685428594 
1348	 0.349161067033537 
1349	 0.347775451151252 
1350	 0.346407028675085 
1351	 0.345083421728128 
1352	 0.343781362085225 
1353	 0.342519287862412 
1354	 0.341317703283125 
1355	 0.340101803821405 
1356	 0.338894949083493 
1357	 0.337703087375867 
1358	 0.336532357057083 
1359	 0.335346682583513 
1360	 0.334183881289774 
1361	 0.332993054391021 
1362	 0.331782423957753 
1363	 0.330572375217136 
1364	 0.329365118722204 
1365	 0.328131420174752 
1366	 0.326902394015562 
1367	 0.32563621820496 
1368	 0.324332811851973 
1369	 0.32301540206974 
1370	 0.321631360583369 
1371	 0.32019797434573 
1372	 0.318723328533489 
1373	 0.317158948861496 
1374	 0.315495705821751 
1375	 0.313756828640668 
1376	 0.311912719278609 
1377	 0.309982604739733 
1378	 0.307905159591855 
1379	 0.305725046890023 
1380	 0.303419578787997 
1381	 0.300983312798273 
1382	 0.29841173816989 
1383	 0.295729392919861 
1384	 0.292924658694848 
1385	 0.290017023098271 
1386	 0.286963240555457 
1387	 0.283789529887119 
1388	 0.280507975318032 
1389	 0.277117967289569 
1390	 0.273530342211009 
1391	 0.269871626133452 
1392	 0.266098827216295 
1393	 0.262217160566123 
1394	 0.258294582134589 
1395	 0.254237099958668 
1396	 0.250163303187714 
1397	 0.246073970638392 
1398	 0.241888093082869 
1399	 0.237763684494308 
1400	 0.233620803056442 
1401	 0.229566580941123 
1402	 0.22550763184228 
1403	 0.221583045476579 
1404	 0.217703918508202 
1405	 0.214023588610776 
1406	 0.210426220122517 
1407	 0.207004380664766 
1408	 0.203730043352291 
1409	 0.200643596961214 
1410	 0.197709364512961 
1411	 0.194960421044395 
1412	 0.192391682215031 
1413	 0.19001896859216 
1414	 0.187803636244198 
1415	 0.185696419455226 
1416	 0.18376617139735 
1417	 0.181946789059813 
1418	 0.180235327367722 
1419	 0.178649011958624 
1420	 0.177129972422828 
1421	 0.175722350462312 
1422	 0.174386674949265 
1423	 0.173099093912993 
1424	 0.171883883577923 
1425	 0.170746114249709 
1426	 0.169655724910352 
1427	 0.168632499602471 
1428	 0.167651451495377 
1429	 0.166739002331026 
1430	 0.165843188405608 
1431	 0.164986308983741 
1432	 0.164149299093069 
1433	 0.163345102290203 
1434	 0.162559015979035 
1435	 0.16180412221761 
1436	 0.161064304421368 
1437	 0.16034453008297 
1438	 0.159638739333879 
1439	 0.158959799956792 
1440	 0.158271732562537 
1441	 0.15759475758767 
1442	 0.156930806003789 
1443	 0.156293301147619 
1444	 0.155694741346293 
1445	 0.155106826477012 
1446	 0.154573126202638 
1447	 0.154084828411177 
1448	 0.153641039488995 
1449	 0.153279918690828 
1450	 0.152989545221988 
1451	 0.152781144722925 
1452	 0.1526430530351 
1453	 0.152581522310721 
1454	 0.152616648053509 
1455	 0.152687980486223 
1456	 0.152844610468003 
1457	 0.152999873484393 
1458	 0.153212091464014 
1459	 0.153406623968231 
1460	 0.153627280043193 
1461	 0.15382033159838 
1462	 0.154019122842738 
1463	 0.154191279321956 
1464	 0.154345513533022 
1465	 0.154478166142612 
1466	 0.154594228858168 
1467	 0.154688865217369 
1468	 0.154737568913765 
1469	 0.154810652224057 
1470	 0.154883244952713 
1471	 0.154945423221952 
1472	 0.155026919004092 
1473	 0.155113379383155 
1474	 0.155181509988976 
1475	 0.155261207534211 
1476	 0.155351298904008 
1477	 0.155460810858579 
1478	 0.155572485771722 
1479	 0.155686694986379 
1480	 0.15582619992371 
1481	 0.155964259875985 
1482	 0.156116570386636 
1483	 0.156288249767762 
1484	 0.156466368374752 
1485	 0.156651321360679 
1486	 0.156839673944572 
1487	 0.157041524609415 
1488	 0.157249029888689 
1489	 0.157465160384999 
1490	 0.157674653169263 
1491	 0.157891185394276 
1492	 0.158100825466397 
1493	 0.158306653458117 
1494	 0.158503240825779 
1495	 0.158695953871992 
1496	 0.158889400055742 
1497	 0.159071209387317 
1498	 0.15925373579159 
1499	 0.159452301293201 
1500	 0.159628763237797 
1501	 0.15978732538569 
1502	 0.159946902630739 
1503	 0.160103686070958 
1504	 0.160240841027561 
1505	 0.160369787456955 
1506	 0.160503337714181 
1507	 0.160633745432242 
1508	 0.160749318406714 
1509	 0.160861827661318 
1510	 0.16097343475255 
1511	 0.161074457312114 
1512	 0.161171838626543 
1513	 0.161287558186744 
1514	 0.161408869808803 
1515	 0.161519964648414 
1516	 0.161639693100526 
1517	 0.161738616474563 
1518	 0.161817677656257 
1519	 0.161910385441583 
1520	 0.16200086993098 
1521	 0.1620901818827 
1522	 0.162193067308963 
1523	 0.162273755305019 
1524	 0.162331594863302 
1525	 0.162405331659253 
1526	 0.16248004313247 
1527	 0.162548721973473 
1528	 0.162627678197543 
1529	 0.162689469472226 
1530	 0.162734624244521 
1531	 0.16278528490951 
1532	 0.162836184166626 
1533	 0.162874161605013 
1534	 0.162900623256533 
1535	 0.162934770436922 
1536	 0.162961562785646 
1537	 0.162992035427563 
1538	 0.163040654710971 
1539	 0.163066996483322 
1540	 0.163071069702173 
1541	 0.163091826676515 
1542	 0.163111848512742 
1543	 0.163127067906872 
1544	 0.163151786351699 
1545	 0.163173438913481 
1546	 0.163188099339675 
1547	 0.163201644311381 
1548	 0.163222722971504 
1549	 0.163218046695966 
1550	 0.163206624479436 
1551	 0.163201385667414 
1552	 0.163179789144203 
1553	 0.163172727381865 
1554	 0.163162759700867 
1555	 0.163133009073974 
1556	 0.163107750738678 
1557	 0.163079985378678 
1558	 0.163068881352063 
1559	 0.163067146832539 
1560	 0.163048772027411 
1561	 0.163036304060028 
1562	 0.1630085785892 
1563	 0.162958785349936 
1564	 0.162921750115948 
1565	 0.162893308985041 
1566	 0.16285059555777 
1567	 0.16279482937766 
1568	 0.162753593476998 
1569	 0.162708654858315 
1570	 0.162672981971316 
1571	 0.162661809945694 
1572	 0.162619313555382 
1573	 0.162560108237245 
1574	 0.16250982684914 
1575	 0.162449382716392 
1576	 0.162391259146146 
1577	 0.162342530025033 
1578	 0.162284451170503 
1579	 0.162215612705066 
1580	 0.162151659103888 
1581	 0.162088619823167 
1582	 0.16202285424759 
1583	 0.161961351034951 
1584	 0.161887465503094 
1585	 0.161808903484894 
1586	 0.161726150050066 
1587	 0.161632868410972 
1588	 0.161535578744195 
1589	 0.161428572190456 
1590	 0.16132882532072 
1591	 0.161227180428087 
1592	 0.161129183697767 
1593	 0.161037672375069 
1594	 0.160945273435979 
1595	 0.160856299883987 
1596	 0.160760223052621 
1597	 0.160671482103707 
1598	 0.160566177904057 
1599	 0.160448297440201 
1600	 0.160324268882499 
1601	 0.160181231282358 
1602	 0.160044445970389 
1603	 0.159905191167678 
1604	 0.159764583842189 
1605	 0.159619906333149 
1606	 0.15948478183531 
1607	 0.1593547546071 
1608	 0.159228501710153 
1609	 0.159089413797889 
1610	 0.158941939492147 
1611	 0.158784469495568 
1612	 0.158608343998734 
1613	 0.158430285245718 
1614	 0.158258734044274 
1615	 0.158083566109551 
1616	 0.157908400248422 
1617	 0.157738117667706 
1618	 0.157565795926015 
1619	 0.15739229414788 
1620	 0.157226997048169 
1621	 0.157046307354689 
1622	 0.156868369315604 
1623	 0.156673981071889 
1624	 0.156455392602293 
1625	 0.15626204085732 
1626	 0.156077830138125 
1627	 0.155881010615323 
1628	 0.155691041592421 
1629	 0.155484297925579 
1630	 0.15525396682299 
1631	 0.15505231900368 
1632	 0.154855524333548 
1633	 0.154664216531866 
1634	 0.154492022944678 
1635	 0.154300279519225 
1636	 0.154108698237458 
1637	 0.153901320881604 
1638	 0.153676279884314 
1639	 0.15346422900421 
1640	 0.15324466139526 
1641	 0.153033721962858 
1642	 0.152834149338698 
1643	 0.152628160772829 
1644	 0.15241687527853 
1645	 0.152214178124485 
1646	 0.152020751470629 
1647	 0.151813696717789 
1648	 0.151604908443354 
1649	 0.151393446455807 
1650	 0.151170944179122 
1651	 0.150956079843784 
1652	 0.150749512083277 
1653	 0.15053022126228 
1654	 0.150302322008478 
1655	 0.150080718979801 
1656	 0.149854211391644 
1657	 0.149632432104702 
1658	 0.14941410157022 
1659	 0.149200525130166 
1660	 0.148995979287254 
1661	 0.148774878074204 
1662	 0.14854760170746 
1663	 0.148327835882991 
1664	 0.148094576954757 
1665	 0.147877089269441 
1666	 0.147680609038676 
1667	 0.147469976244347 
1668	 0.147253641670041 
1669	 0.147042245894786 
1670	 0.146830058628089 
1671	 0.14662071088495 
1672	 0.146419237498634 
1673	 0.146208707996798 
1674	 0.145995322156616 
1675	 0.145781221771299 
1676	 0.145560148655015 
1677	 0.145345329381307 
1678	 0.145130414175959 
1679	 0.144921542365599 
1680	 0.144720553957488 
1681	 0.144514016129406 
1682	 0.144300222770785 
1683	 0.144105423668964 
1684	 0.143916186335491 
1685	 0.143729812521223 
1686	 0.143573139075046 
1687	 0.143382457423332 
1688	 0.143161802653219 
1689	 0.142970099218253 
1690	 0.142780247830691 
1691	 0.142588781819126 
1692	 0.142424168467197 
1693	 0.142230448472248 
1694	 0.141998223283848 
1695	 0.141805801247975 
1696	 0.141624096174953 
1697	 0.141446005313361 
1698	 0.14129324572626 
1699	 0.141126843043667 
1700	 0.140966084328844 
1701	 0.140777261074623 
1702	 0.140567804713577 
1703	 0.140373885756287 
1704	 0.140163963015656 
1705	 0.139964985829055 
1706	 0.139776442113241 
1707	 0.139598698773831 
1708	 0.139432520814287 
1709	 0.139247386868731 
1710	 0.139069958359992 
1711	 0.138889523162301 
1712	 0.138683530557281 
1713	 0.138496082393593 
1714	 0.138318892111866 
1715	 0.138152153537294 
1716	 0.137994823993909 
1717	 0.137829745148766 
1718	 0.137687975597647 
1719	 0.137514972413683 
1720	 0.137301904337837 
1721	 0.137131261562338 
1722	 0.13697143612481 
1723	 0.1368090790637 
1724	 0.136665861175655 
1725	 0.136517363675332 
1726	 0.136363279508516 
1727	 0.136204188719368 
1728	 0.136048874609251 
1729	 0.135898642727219 
1730	 0.135735533287834 
1731	 0.135591465711 
1732	 0.135484007219777 
1733	 0.135325894839171 
1734	 0.135138668381463 
1735	 0.134978906008236 
1736	 0.134798824246489 
1737	 0.134640183487432 
1738	 0.134514399821289 
1739	 0.134369432862453 
1740	 0.134209749800659 
1741	 0.134079643842305 
1742	 0.133966491320446 
1743	 0.133846715559117 
1744	 0.133747553513073 
1745	 0.133611384429695 
1746	 0.133449854255743 
1747	 0.133306744849467 
1748	 0.133157515825115 
1749	 0.132993131378004 
1750	 0.132853571581284 
1751	 0.132726386185576 
1752	 0.132584068959656 
1753	 0.132466367840438 
1754	 0.132346979469414 
1755	 0.132183752456119 
1756	 0.132023485852745 
1757	 0.131880042220723 
1758	 0.131748131563467 
1759	 0.131623274620601 
1760	 0.131502769360586 
1761	 0.131383630402785 
1762	 0.131259364926086 
1763	 0.131137365488793 
1764	 0.131020685285553 
1765	 0.130921435103619 
1766	 0.130806765460058 
1767	 0.130673468258108 
1768	 0.130554602492367 
1769	 0.130430175695857 
1770	 0.130314209482659 
1771	 0.130207281261557 
1772	 0.130095776150761 
1773	 0.129997562350839 
1774	 0.129885492585399 
1775	 0.129791417246967 
1776	 0.129706006923213 
1777	 0.129584822075018 
1778	 0.129491234184737 
1779	 0.129410460017422 
1780	 0.129346972783259 
1781	 0.129304494721716 
1782	 0.129230145476451 
1783	 0.129165764931471 
1784	 0.129095593811391 
1785	 0.129006895081739 
1786	 0.128949649203876 
1787	 0.128919948445238 
1788	 0.128847203962575 
1789	 0.128770240554206 
1790	 0.128696743202899 
1791	 0.128578517472016 
1792	 0.128505333859611 
1793	 0.128485708681519 
1794	 0.128417644363003 
1795	 0.128320184399904 
1796	 0.128265767115779 
1797	 0.128212362416828 
1798	 0.128168281288846 
1799	 0.128166896524148 
1800	 0.128131349779019 
1801	 0.128229897972538 
1802	 0.128162258722329 
1803	 0.128146647886114 
1804	 0.128149843780266 
1805	 0.12816030335424 
1806	 0.128165577356995 
1807	 0.128160240586126 
1808	 0.128153652638483 
1809	 0.128147460563517 
1810	 0.128132840090837 
1811	 0.128111095083491 
1812	 0.128091731542996 
1813	 0.128061871148591 
1814	 0.12802074487778 
1815	 0.127960697160924 
1816	 0.127905819723899 
1817	 0.127858445142694 
1818	 0.127805962233602 
1819	 0.127764340776072 
1820	 0.127731443137724 
1821	 0.127698739279687 
1822	 0.127695435303095 
1823	 0.127707529755481 
1824	 0.127706954485072 
1825	 0.127677674437488 
1826	 0.127630871487733 
1827	 0.127559897340043 
1828	 0.127494163838142 
1829	 0.127439786040366 
1830	 0.127381894132121 
1831	 0.127312986750255 
1832	 0.127236480401131 
1833	 0.127189006429824 
1834	 0.127090735838261 
1835	 0.127026784994238 
1836	 0.126985528320054 
1837	 0.126931488245322 
1838	 0.126902668736267 
1839	 0.126853020919949 
1840	 0.126801300724559 
1841	 0.126728740089248 
1842	 0.12663285362677 
1843	 0.126516632580002 
1844	 0.126413016967044 
1845	 0.126314372131283 
1846	 0.126212244048064 
1847	 0.126137689584485 
1848	 0.126054898682519 
1849	 0.125916519359999 
1850	 0.125769379545968 
1851	 0.125611993665467 
1852	 0.125429892254106 
1853	 0.125222034008744 
1854	 0.125021305752579 
1855	 0.124790908850245 
1856	 0.124539742546364 
1857	 0.124276623853814 
1858	 0.124001890413391 
1859	 0.123721199422933 
1860	 0.123409027202704 
1861	 0.12307872472482 
1862	 0.122717555213372 
1863	 0.122331966338247 
1864	 0.121932883430477 
1865	 0.12152322978507 
1866	 0.121078150037983 
1867	 0.120607923114158 
1868	 0.120105896160288 
1869	 0.119545461981593 
1870	 0.118964487953542 
1871	 0.118342272618044 
1872	 0.117681994940969 
1873	 0.116968106668705 
1874	 0.116257911816395 
1875	 0.11550828312011 
1876	 0.11472290538393 
1877	 0.113929453433139 
1878	 0.113074625607408 
1879	 0.112176328007643 
1880	 0.111223875975693 
1881	 0.110210782989113 
1882	 0.109162284569396 
1883	 0.108062929803163 
1884	 0.106909514068213 
1885	 0.105762709841337 
1886	 0.104582852377865 
1887	 0.103341346004823 
1888	 0.102083738230661 
1889	 0.100758050722565 
1890	 9.93890285305732E-02 
1891	 9.80463199475727E-02 
1892	 9.66963458353171E-02 
1893	 9.53361037552697E-02 
1894	 9.39639352573201E-02 
1895	 9.26188214116283E-02 
1896	 9.12568550537387E-02 
1897	 8.99175093250193E-02 
1898	 8.86000164565146E-02 
1899	 8.73059574016226E-02 
1900	 8.60668302813462E-02 
1901	 8.48696352581572E-02 
1902	 8.37495758985633E-02 
1903	 8.27284683145175E-02 
1904	 8.17267042428454E-02 
1905	 8.07557438010895E-02 
1906	 7.98736684121928E-02 
1907	 7.90454041982896E-02 
1908	 7.82531220550107E-02 
1909	 7.75650902329716E-02 
1910	 7.69323034241362E-02 
1911	 7.63300876879845E-02 
1912	 7.57798434425209E-02 
1913	 7.52522478947166E-02 
1914	 7.47684397480225E-02 
1915	 7.42876635372152E-02 
1916	 7.38224644241791E-02 
1917	 7.33885724774776E-02 
1918	 7.29850866446045E-02 
1919	 7.26009514681897E-02 
1920	 7.22771842457895E-02 
1921	 7.19775871700342E-02 
1922	 0.071670476811112 
1923	 7.13698939672684E-02 
1924	 7.10937503847438E-02 
1925	 7.08094356147037E-02 
1926	 7.05801262850646E-02 
1927	 7.03885282804576E-02 
1928	 7.02253803904759E-02 
1929	 7.00792131568618E-02 
1930	 6.99456479867003E-02 
1931	 6.98175858750974E-02 
1932	 6.96935234012477E-02 
1933	 0.069595491315245 
1934	 6.95331849040997E-02 
1935	 6.94674279236773E-02 
1936	 6.94088209719663E-02 
1937	 0.069370483668556 
1938	 6.93349090323878E-02 
1939	 6.93261074093809E-02 
1940	 6.93330590976471E-02 
1941	 0.069377698819933 
1942	 6.94469590133386E-02 
1943	 6.95155998391757E-02 
1944	 6.96098511841299E-02 
1945	 6.97266191235035E-02 
1946	 6.98428449929386E-02 
1947	 6.99732612215712E-02 
1948	 7.01028375398855E-02 
1949	 7.02327403322427E-02 
1950	 7.03767850952687E-02 
1951	 7.05282675156578E-02 
1952	 7.06878593936997E-02 
1953	 7.08586085860554E-02 
1954	 7.10226857619103E-02 
1955	 7.12004698353992E-02 
1956	 0.071377832957229 
1957	 7.15413366709163E-02 
1958	 7.17069404788479E-02 
1959	 7.18595890647898E-02 
1960	 7.19931985813766E-02 
1961	 7.21286235264627E-02 
1962	 7.22546547651033E-02 
1963	 7.23905307706525E-02 
1964	 7.25257781892815E-02 
1965	 7.26558593728147E-02 
1966	 7.28165535964276E-02 
1967	 7.29769422574646E-02 
1968	 7.31274975843679E-02 
1969	 7.32838368124651E-02 
1970	 7.34346742650865E-02 
1971	 7.35753033603953E-02 
1972	 7.37163383803699E-02 
1973	 7.38445238393595E-02 
1974	 7.39956150040027E-02 
1975	 7.41565695063086E-02 
1976	 7.43096930799763E-02 
1977	 7.44959758793707E-02 
1978	 7.46764322369402E-02 
1979	 7.48497831808055E-02 
1980	 7.50425149873817E-02 
1981	 7.52310576975018E-02 
1982	 7.54227904148885E-02 
1983	 0.07561994370979 
1984	 0.075822029110109 
1985	 7.60227464998697E-02 
1986	 7.62417830263252E-02 
1987	 7.64362223834537E-02 
1988	 7.66127841925438E-02 
1989	 7.67964028278125E-02 
1990	 7.69704908753664E-02 
1991	 7.71394912993835E-02 
1992	 7.73210677620387E-02 
1993	 7.75169249092178E-02 
1994	 7.76973514793298E-02 
1995	 7.78704954197088E-02 
1996	 7.80549372075642E-02 
1997	 7.82375867365378E-02 
1998	 7.84274627914964E-02 
1999	 7.86295046262114E-02 
2000	 0.078826684057403 
2001	 0.079041511347144 
2002	 7.92290541391554E-02 
2003	 7.93798679305135E-02 
2004	 7.95457558165752E-02 
2005	 7.97038126571527E-02 
2006	 7.98328284404142E-02 
2007	 7.99845371571732E-02 
2008	 8.01497852599375E-02 
2009	 8.03112411049175E-02 
2010	 8.04736488217626E-02 
2011	 8.06370170982969E-02 
2012	 8.08108642992851E-02 
2013	 8.09773293116972E-02 
2014	 8.11331829738113E-02 
2015	 8.12937481662663E-02 
2016	 8.14572030574778E-02 
2017	 8.16261583756398E-02 
2018	 8.18060418646952E-02 
2019	 8.20063777726488E-02 
2020	 8.21838366049952E-02 
2021	 8.23656186344467E-02 
2022	 8.25345808623446E-02 
2023	 8.26781241945316E-02 
2024	 8.28402977472359E-02 
2025	 8.30130638531425E-02 
2026	 8.31733633206147E-02 
2027	 0.083332129444009 
2028	 8.34930736431115E-02 
2029	 8.36496597511562E-02 
2030	 0.083791556034682 
2031	 8.39511869523405E-02 
2032	 8.41176934344165E-02 
2033	 8.42881553594089E-02 
2034	 8.44628737645836E-02 
2035	 0.084641538910174 
2036	 8.48413328143722E-02 
2037	 8.50161151167719E-02 
2038	 8.51886927425258E-02 
2039	 8.53484296062379E-02 
2040	 8.54900182261719E-02 
2041	 8.56192710899479E-02 
2042	 8.57613374737205E-02 
2043	 8.59012401373111E-02 
2044	 8.60507807135662E-02 
2045	 0.086216738681277 
2046	 0.08636508544832 
2047	 8.65107425166051E-02 
2048	 8.66533238541538E-02 
2049	 8.67853539381829E-02 
2050	 8.69159515502511E-02 
2051	 8.70452816873887E-02 
2052	 8.71778858633859E-02 
2053	 8.73012603835639E-02 
2054	 8.74347793742292E-02 
2055	 8.75877581520648E-02 
2056	 8.77204292454552E-02 
2057	 8.78567318183969E-02 
2058	 8.79956308257177E-02 
2059	 8.81297978445375E-02 
2060	 8.82531533518496E-02 
2061	 0.088385723930487 
2062	 8.85224454355669E-02 
2063	 8.86567985355091E-02 
2064	 8.87995690575701E-02 
2065	 8.89301035275951E-02 
2066	 8.90519421091077E-02 
2067	 8.91744091906864E-02 
2068	 8.92826072543171E-02 
2069	 8.94059790820886E-02 
2070	 8.95267468868658E-02 
2071	 0.089647236403954 
2072	 0.089776572050766 
2073	 8.99184802718551E-02 
2074	 9.00419904944614E-02 
2075	 0.090165575130132 
2076	 9.02832087335758E-02 
2077	 9.03816507541516E-02 
2078	 0.090493153752105 
2079	 9.06118634282413E-02 
2080	 9.07270096391349E-02 
2081	 0.090844124584527 
2082	 9.09581393915674E-02 
2083	 9.10588232784188E-02 
2084	 9.11804167767339E-02 
2085	 9.12985387230306E-02 
2086	 9.14202993975699E-02 
2087	 9.15372395662157E-02 
2088	 9.16596901163597E-02 
2089	 9.17731789798827E-02 
2090	 9.18763486780382E-02 
2091	 0.091986603354588 
2092	 9.21015065996852E-02 
2093	 9.22092621807197E-02 
2094	 9.23207780642947E-02 
2095	 9.24187062750349E-02 
2096	 9.24954016140118E-02 
2097	 9.25867785356837E-02 
2098	 9.26542312029127E-02 
2099	 9.27685990362629E-02 
2100	 9.28799523255209E-02 
2101	 9.30147396481259E-02 
2102	 9.31290519818143E-02 
2103	 9.32414457353816E-02 
2104	 9.33580413520769E-02 
2105	 9.34684732292741E-02 
2106	 9.35841280073057E-02 
2107	 9.37170154895402E-02 
2108	 9.38338523514529E-02 
2109	 9.39358426232837E-02 
2110	 0.094045932346473 
2111	 9.41532541618072E-02 
2112	 9.42630266059383E-02 
2113	 9.43711867380118E-02 
2114	 9.44896864569014E-02 
2115	 9.46133228741179E-02 
2116	 9.47421903785348E-02 
2117	 9.48649059231991E-02 
2118	 9.49908437962802E-02 
2119	 9.51240809469976E-02 
2120	 9.52689409744328E-02 
2121	 9.53867625532317E-02 
2122	 9.55142056536082E-02 
2123	 9.56100447374815E-02 
2124	 9.56458202954316E-02 
2125	 0.095725497455635 
2126	 9.58179127714962E-02 
2127	 9.59054477018329E-02 
2128	 9.60199902243482E-02 
2129	 9.61128757549498E-02 
2130	 9.61872968645028E-02 
2131	 9.62573417125373E-02 
2132	 9.63331591913321E-02 
2133	 9.64090487330048E-02 
2134	 9.64763832577826E-02 
2135	 9.65506771877501E-02 
2136	 9.66022474674356E-02 
2137	 9.66223394548544E-02 
2138	 9.66691448061321E-02 
2139	 0.096726651311522 
2140	 0.096767772799386 
2141	 9.68187596634879E-02 
2142	 9.68554293347958E-02 
2143	 9.68801096587291E-02 
2144	 9.68871698522303E-02 
2145	 9.68641818936956E-02 
2146	 0.096865326479754 
2147	 9.68524546807435E-02 
2148	 9.68556948133815E-02 
2149	 9.68715621374913E-02 
2150	 9.69262447974025E-02 
2151	 9.69421158386602E-02 
2152	 9.69499299432655E-02 
2153	 9.69516119662529E-02 
2154	 9.69414372458669E-02 
2155	 9.69274955417693E-02 
2156	 9.69062671647946E-02 
2157	 9.68837949792234E-02 
2158	 9.68490216286116E-02 
2159	 9.68218990445301E-02 
2160	 9.68106031271115E-02 
2161	 9.67777053206414E-02 
2162	 9.67330272009685E-02 
2163	 9.66878220443699E-02 
2164	 9.66197721249165E-02 
2165	 9.65633124683293E-02 
2166	 0.096516299506942 
2167	 9.64798086717496E-02 
2168	 9.64370510017888E-02 
2169	 9.63966143508236E-02 
2170	 9.63596873580796E-02 
2171	 9.63259039796115E-02 
2172	 9.62864162028159E-02 
2173	 0.096257220189091 
2174	 0.096211375948603 
2175	 9.61410396439207E-02 
2176	 9.60915323287757E-02 
2177	 9.60505750720439E-02 
2178	 9.60017632737985E-02 
2179	 9.59544697983786E-02 
2180	 9.59112521493703E-02 
2181	 9.58637120921383E-02 
2182	 9.58167727344692E-02 
2183	 9.57701581403253E-02 
2184	 9.57388559197113E-02 
2185	 9.57009728007316E-02 
2186	 9.56603748389385E-02 
2187	 9.56170178829075E-02 
2188	 9.55768187135167E-02 
2189	 9.55323468065869E-02 
2190	 9.54805529161387E-02 
2191	 9.54319641480496E-02 
2192	 9.53931487227171E-02 
2193	 9.53365054893621E-02 
2194	 9.52521435581505E-02 
2195	 9.52008617530679E-02 
2196	 9.51606252757793E-02 
2197	 9.51147027941567E-02 
2198	 9.50929012827117E-02 
2199	 9.50581234013973E-02 
2200	 9.49967115718454E-02 
2201	 9.49572082004931E-02 
2202	 9.49348139484439E-02 
2203	 9.49037725573249E-02 
2204	 9.48854401162615E-02 
2205	 9.48890989573302E-02 
2206	 9.48519432025524E-02 
2207	 9.47994111385609E-02 
2208	 9.47554408968548E-02 
2209	 9.46783876180845E-02 
2210	 9.46455030403557E-02 
2211	 0.09465657463322 
2212	 9.46298554336286E-02 
2213	 9.45912193069176E-02 
2214	 9.45697182442661E-02 
2215	 9.45412492103141E-02 
2216	 9.45140927187683E-02 
2217	 9.45061318978486E-02 
2218	 9.44909886043515E-02 
2219	 0.094456646871148 
2220	 9.44352871994772E-02 
2221	 9.44169795069653E-02 
2222	 9.44227363611481E-02 
2223	 9.44032283138819E-02 
2224	 9.43957820235145E-02 
2225	 9.43883359063937E-02 
2226	 9.43862834157747E-02 
2227	 9.43647343680085E-02 
2228	 9.43342564438586E-02 
2229	 9.43187575992793E-02 
2230	 9.42984064152156E-02 
2231	 9.42769024786288E-02 
2232	 9.42692291742638E-02 
2233	 9.42536267106319E-02 
2234	 9.42096772895231E-02 
2235	 9.42015096714327E-02 
2236	 9.42416394408392E-02 
2237	 9.42286739462986E-02 
2238	 9.42119501306085E-02 
2239	 0.094175294715835 
2240	 9.40703703751367E-02 
2241	 9.40161355672721E-02 
2242	 9.39863001988705E-02 
2243	 9.39502167559274E-02 
2244	 9.39238596872958E-02 
2245	 9.39200361671544E-02 
2246	 9.38814613876122E-02 
2247	 9.38381268232123E-02 
2248	 0.093785742779072 
2249	 9.37141449991673E-02 
2250	 9.36618994093753E-02 
2251	 9.36027552131747E-02 
2252	 0.09356621786544 
2253	 9.35564351688626E-02 
2254	 9.35295219571145E-02 
2255	 9.35172719204575E-02 
2256	 0.093477954271355 
2257	 9.34075436139153E-02 
2258	 9.33665949967735E-02 
2259	 9.33290215088623E-02 
2260	 9.32806250646042E-02 
2261	 9.32432865270582E-02 
2262	 9.32035781519242E-02 
2263	 9.31760797397875E-02 
2264	 9.31053591105495E-02 
2265	 9.30087346100745E-02 
2266	 9.29244004475004E-02 
2267	 9.27751596428576E-02 
2268	 0.092682322154604 
2269	 9.26514038382857E-02 
2270	 9.26078709687299E-02 
2271	 9.25352545182587E-02 
2272	 9.24750739889605E-02 
2273	 9.23717450645151E-02 
2274	 9.22582466115619E-02 
2275	 9.21592117935404E-02 
2276	 9.20628197208932E-02 
2277	 9.19712782773579E-02 
2278	 9.18948458072249E-02 
2279	 9.17845874891605E-02 
2280	 0.091662364231496 
2281	 9.15468401324057E-02 
2282	 9.14120654913071E-02 
2283	 9.12885378839898E-02 
2284	 9.11679795898278E-02 
2285	 9.10576460919217E-02 
2286	 9.09576068019526E-02 
2287	 9.08412190424933E-02 
2288	 9.07246359632636E-02 
2289	 0.090621237159938 
2290	 9.05101919334059E-02 
2291	 9.03984577214882E-02 
2292	 9.03066299614883E-02 
2293	 9.02020443757755E-02 
2294	 9.00886787975242E-02 
2295	 8.99656170820587E-02 
2296	 8.98307441463768E-02 
2297	 8.97146623122507E-02 
2298	 8.95643219879926E-02 
2299	 8.93906068386288E-02 
2300	 8.92655004479379E-02 
2301	 8.91594390817734E-02 
2302	 8.90357009453653E-02 
2303	 8.89427666592098E-02 
2304	 8.88443463929048E-02 
2305	 8.86693512110743E-02 
2306	 8.84980312800157E-02 
2307	 8.82999423481935E-02 
2308	 8.81349478329517E-02 
2309	 8.79506506280107E-02 
2310	 0.087812488041118 
2311	 8.77297539188478E-02 
2312	 8.76070279957603E-02 
2313	 8.74937585267853E-02 
2314	 0.08734470058534 
2315	 8.71551400605692E-02 
2316	 8.70014118146032E-02 
2317	 8.68479492025218E-02 
2318	 8.66796520309874E-02 
2319	 8.65341867043916E-02 
2320	 8.63652988980443E-02 
2321	 8.61540531871719E-02 
2322	 0.085977177202245 
2323	 8.58141197537425E-02 
2324	 8.56390291106117E-02 
2325	 8.54657182114872E-02 
2326	 8.52999281700844E-02 
2327	 8.51273861759184E-02 
2328	 8.49768255878699E-02 
2329	 8.48039241244736E-02 
2330	 8.46065532834267E-02 
2331	 8.44506337050784E-02 
2332	 8.42828174681206E-02 
2333	 0.084118951280052 
2334	 8.39941720495058E-02 
2335	 0.083828903955149 
2336	 8.36660943678534E-02 
2337	 8.35398591125492E-02 
2338	 8.33733381205592E-02 
2339	 8.31729129857231E-02 
2340	 8.29869254911397E-02 
2341	 8.27914386843178E-02 
2342	 8.26212568614087E-02 
2343	 8.24863167703484E-02 
2344	 8.23027068457861E-02 
2345	 8.21309103403934E-02 
2346	 8.19654682825569E-02 
2347	 8.17798234917922E-02 
2348	 8.15886230401703E-02 
2349	 8.13871310802229E-02 
2350	 8.11371385176276E-02 
2351	 8.09462777714138E-02 
2352	 8.07869293131007E-02 
2353	 8.06051142208031E-02 
2354	 8.04706728739481E-02 
2355	 8.02806754430376E-02 
2356	 8.00332896191825E-02 
2357	 0.079807825187805 
2358	 7.95711014735345E-02 
2359	 7.93319339571371E-02 
2360	 0.079110888925691 
2361	 7.88579378136822E-02 
2362	 7.85540521123416E-02 
2363	 7.83102288644499E-02 
2364	 7.80534031020704E-02 
2365	 7.78445144858095E-02 
2366	 7.77298625391104E-02 
2367	 7.75689645359519E-02 
2368	 7.74208205949415E-02 
2369	 0.077243612255005 
2370	 7.70552004596557E-02 
2371	 0.076811986691225 
2372	 7.65644478264687E-02 
2373	 7.63437386528476E-02 
2374	 7.60888181962374E-02 
2375	 7.58316457611773E-02 
2376	 7.55648419791275E-02 
2377	 7.53308296920379E-02 
2378	 7.52048834355156E-02 
2379	 7.50097747877408E-02 
2380	 7.48029233139568E-02 
2381	 0.074574128869987 
2382	 7.42340302428662E-02 
2383	 7.39949333091004E-02 
2384	 7.38654351257351E-02 
2385	 7.36990344608559E-02 
2386	 7.35499044325254E-02 
2387	 7.33898329932126E-02 
2388	 7.30991395991713E-02 
2389	 7.28412387666831E-02 
2390	 7.26403807135874E-02 
2391	 7.24054313354013E-02 
2392	 7.22125223446492E-02 
2393	 7.20412791267998E-02 
2394	 7.18630769983506E-02 
2395	 7.16501912654113E-02 
2396	 7.14282599756432E-02 
2397	 7.12633250715036E-02 
2398	 0.071109770144639 
2399	 7.09111360761324E-02 
2400	 7.07398664755936E-02 
2401	 7.05739160435963E-02 
2402	 7.03051103193011E-02 
2403	 7.01130992956481E-02 
2404	 7.00466237989721E-02 
2405	 6.99361969060298E-02 
2406	 0.06984650612456 
2407	 6.97818154509175E-02 
2408	 0.069597425274499 
2409	 6.93548303696824E-02 
2410	 6.91487060168641E-02 
2411	 6.89742989146513E-02 
2412	 6.88164568784422E-02 
2413	 6.86763362637085E-02 
2414	 6.85478279703375E-02 
2415	 6.83341896600807E-02 
2416	 6.81404228001969E-02 
2417	 6.79109008828717E-02 
2418	 6.77821193430883E-02 
2419	 6.77073993886768E-02 
2420	 6.76128685645291E-02 
2421	 6.75660159405869E-02 
2422	 6.74907271543826E-02 
2423	 6.73909871275654E-02 
2424	 6.72633805974823E-02 
2425	 6.71601927771346E-02 
2426	 6.69996709289026E-02 
2427	 6.67934571516682E-02 
2428	 0.066629626573144 
2429	 6.64154600941607E-02 
2430	 6.62559298193944E-02 
2431	 6.61536978067972E-02 
2432	 6.59433671733362E-02 
2433	 6.56855096419203E-02 
2434	 6.55164208021646E-02 
2435	 6.53308009455433E-02 
2436	 0.065170883368291 
2437	 6.51032648101044E-02 
2438	 6.49704934813879E-02 
2439	 6.47948926305468E-02 
2440	 6.45994809645969E-02 
2441	 6.43981053652556E-02 
2442	 6.42545549132655E-02 
2443	 6.41163560499461E-02 
2444	 6.38983788096053E-02 
2445	 6.36269908922555E-02 
2446	 6.34603221399877E-02 
2447	 0.063282163331085 
2448	 6.31526042217221E-02 
2449	 6.31837187674228E-02 
2450	 6.30916878566434E-02 
2451	 6.29327776725177E-02 
2452	 6.28087324299537E-02 
2453	 6.26956879711297E-02 
2454	 0.062556433389558 
2455	 6.24074656371465E-02 
2456	 0.062124401404212 
2457	 6.16896586883536E-02 
2458	 0.061432173891535 
2459	 6.12074983725312E-02 
2460	 6.10572224738223E-02 
2461	 6.10437957603586E-02 
2462	 6.09558139293502E-02 
2463	 0.060821095260927 
2464	 6.06987233876158E-02 
2465	 0.060684271298936 
2466	 6.04823995700083E-02 
2467	 6.01019861963544E-02 
2468	 5.98714199747092E-02 
2469	 0.05954615496632 
2470	 5.95684114100898E-02 
2471	 5.96160967684775E-02 
2472	 5.95606675261845E-02 
2473	 5.96399897286027E-02 
2474	 5.95001674398536E-02 
2475	 5.92553814669077E-02 
2476	 5.92839351757655E-02 
2477	 5.91157502856634E-02 
2478	 5.89191023548719E-02 
2479	 5.88357738119916E-02 
2480	 5.85529674332196E-02 
2481	 5.84131110806113E-02 
2482	 5.83761242344444E-02 
2483	 5.82449784038595E-02 
2484	 5.83052799705207E-02 
2485	 5.82945154206715E-02 
2486	 5.81224535806451E-02 
2487	 5.81598026697833E-02 
2488	 5.80657240909373E-02 
2489	 5.77677215729035E-02 
2490	 5.76389937918706E-02 
2491	 5.74412090313946E-02 
2492	 5.71893712937731E-02 
2493	 5.70857068261952E-02 
2494	 5.69147800055918E-02 
2495	 5.67546044171045E-02 
2496	 5.65768655011014E-02 
2497	 0.056301679360367 
2498	 5.62491472805209E-02 
2499	 5.62707301349251E-02 
2500	 5.61958631056296E-02 
