Wavelength	lmw-9-300004.asd
350	 5.86139997122151E-02 
351	 5.94292543545534E-02 
352	 0.053062227722504 
353	 4.00361306317886E-02 
354	 4.19305981556595E-02 
355	 0.043614848569786 
356	 4.64128640783101E-02 
357	 5.22698122675086E-02 
358	 4.87991234805102E-02 
359	 4.44676157648214E-02 
360	 4.19876859403353E-02 
361	 4.01227890483508E-02 
362	 4.11814575850415E-02 
363	 4.39435038289372E-02 
364	 4.51712487204493E-02 
365	 3.84864607979671E-02 
366	 4.03435180170648E-02 
367	 4.32558853492643E-02 
368	 3.83576466347786E-02 
369	 3.89800063594026E-02 
370	 3.92512379742777E-02 
371	 3.76186736394752E-02 
372	 3.60677407017057E-02 
373	 3.71244568921657E-02 
374	 3.92010583965807E-02 
375	 4.05338957735981E-02 
376	 0.040063841604841 
377	 3.81725677948199E-02 
378	 3.79550071413564E-02 
379	 4.13646034689973E-02 
380	 4.28332914886499E-02 
381	 3.98065832193055E-02 
382	 3.70256778579842E-02 
383	 4.29727987158623E-02 
384	 4.34663155355671E-02 
385	 4.19282785542463E-02 
386	 4.21836861147448E-02 
387	 4.38494214206386E-02 
388	 4.50365647132193E-02 
389	 4.46850350124207E-02 
390	 0.043232081642868 
391	 0.046228838211239 
392	 0.049039876653026 
393	 5.03509756967157E-02 
394	 5.19147261715278E-02 
395	 0.051731852570896 
396	 5.16270982365605E-02 
397	 5.29761202574078E-02 
398	 5.50740455542077E-02 
399	 5.68306966134274E-02 
400	 5.89652560187059E-02 
401	 6.23631707440137E-02 
402	 0.064963769700444 
403	 6.57859159767599E-02 
404	 6.62796379815526E-02 
405	 6.99542076506054E-02 
406	 7.09551605956816E-02 
407	 7.23809179537711E-02 
408	 0.076127416480681 
409	 7.62828663679071E-02 
410	 7.75402629344879E-02 
411	 7.99661347453097E-02 
412	 8.14982840728182E-02 
413	 8.15752273050027E-02 
414	 8.24940495480874E-02 
415	 8.44531225499342E-02 
416	 0.084734414117365 
417	 8.49734145766649E-02 
418	 8.56379601054955E-02 
419	 8.65419989534349E-02 
420	 0.086356578228944 
421	 8.55977415950881E-02 
422	 8.51130144203105E-02 
423	 8.57162956192969E-02 
424	 8.57181753961645E-02 
425	 8.56001758285699E-02 
426	 8.57254839422607E-02 
427	 8.56866551859765E-02 
428	 0.085857121249695 
429	 8.65492743040565E-02 
430	 8.78843610055204E-02 
431	 8.91938446613913E-02 
432	 9.09601972598753E-02 
433	 9.32664081030197E-02 
434	 9.57886164240304E-02 
435	 9.93576866558406E-02 
436	 0.103520427683845 
437	 0.107727680907748 
438	 0.111769965557469 
439	 0.11621674258038 
440	 0.120890658692741 
441	 0.125263839807702 
442	 0.129415834944184 
443	 0.133715815411525 
444	 0.138052133684861 
445	 0.141522330600049 
446	 0.145451077444899 
447	 0.149478360875732 
448	 0.153033692851531 
449	 0.156889051211293 
450	 0.160632453629767 
451	 0.16413989908643 
452	 0.167579243366451 
453	 0.170997872220394 
454	 0.174273089510119 
455	 0.177393186010472 
456	 0.180691620886245 
457	 0.183963011489126 
458	 0.187006926165662 
459	 0.18972185182281 
460	 0.192758276246112 
461	 0.195700905300564 
462	 0.198460761751014 
463	 0.201530614098846 
464	 0.204698837337416 
465	 0.207535177156976 
466	 0.209879822168314 
467	 0.212891579714083 
468	 0.215629433002215 
469	 0.218008096310336 
470	 0.220647193555719 
471	 0.223302564157282 
472	 0.225862670762706 
473	 0.228304815592112 
474	 0.230779558096462 
475	 0.232987196893347 
476	 0.235065595971189 
477	 0.237321406247473 
478	 0.239732153341529 
479	 0.242018107381368 
480	 0.244027092077269 
481	 0.245815701745319 
482	 0.247573650733129 
483	 0.249229166638237 
484	 0.250756972254183 
485	 0.252707373954188 
486	 0.25428643486517 
487	 0.255424755675701 
488	 0.25667482077485 
489	 0.257990958594629 
490	 0.259224427425539 
491	 0.260320965213326 
492	 0.261564482626688 
493	 0.262423342709808 
494	 0.262923229513072 
495	 0.263399147155649 
496	 0.264277238547841 
497	 0.264955729491173 
498	 0.265264073203759 
499	 0.265818985607719 
500	 0.266214118900719 
501	 0.266411577571051 
502	 0.266517444854526 
503	 0.266786458768391 
504	 0.266932104698439 
505	 0.266948741716534 
506	 0.267085340605249 
507	 0.267016117352902 
508	 0.266973369775664 
509	 0.2670928247735 
510	 0.26698900465576 
511	 0.266656121818086 
512	 0.266294281442454 
513	 0.266173481525487 
514	 0.266049567953829 
515	 0.265880631533222 
516	 0.265678440842005 
517	 0.265511339972255 
518	 0.265233300974735 
519	 0.264829065802871 
520	 0.264401294827325 
521	 0.264402618690484 
522	 0.264304008281903 
523	 0.263953769278997 
524	 0.263648699189144 
525	 0.263398918876336 
526	 0.263141423811708 
527	 0.262842483349812 
528	 0.262631426426382 
529	 0.262466064320141 
530	 0.262309049300087 
531	 0.262134969741311 
532	 0.26203065553808 
533	 0.261902711222277 
534	 0.261722464934913 
535	 0.261657983029059 
536	 0.261525327915045 
537	 0.261384709388427 
538	 0.261358619026983 
539	 0.261290631812368 
540	 0.261263633527012 
541	 0.261285649449654 
542	 0.261238437353669 
543	 0.261330872218475 
544	 0.26153064928106 
545	 0.261726694982871 
546	 0.261789252292127 
547	 0.26186566935534 
548	 0.262000149973486 
549	 0.262144239948306 
550	 0.262351019037644 
551	 0.262591311503154 
552	 0.262836403615536 
553	 0.2630977669933 
554	 0.263370172155628 
555	 0.263702516010199 
556	 0.264146612134788 
557	 0.264510480137958 
558	 0.264894804108272 
559	 0.265369001783572 
560	 0.265895017462805 
561	 0.266399575418524 
562	 0.266903516513501 
563	 0.267452239024016 
564	 0.268021020939383 
565	 0.268533644943744 
566	 0.268984706540576 
567	 0.269450644257398 
568	 0.270063740823754 
569	 0.270719145808746 
570	 0.271326781987045 
571	 0.272057097210658 
572	 0.272862772023436 
573	 0.273682874770272 
574	 0.274455809599019 
575	 0.275224229603084 
576	 0.276146281013731 
577	 0.277269581528315 
578	 0.278373449766367 
579	 0.279499710528647 
580	 0.280686806116641 
581	 0.281964099973344 
582	 0.283264753655417 
583	 0.284454580765392 
584	 0.285491643304912 
585	 0.286472311366395 
586	 0.287383267252805 
587	 0.288324435257852 
588	 0.289396130183548 
589	 0.290579542968708 
590	 0.291765705730367 
591	 0.292915165129517 
592	 0.294061619499161 
593	 0.295230049979647 
594	 0.296409383532083 
595	 0.297619343653908 
596	 0.299008135647144 
597	 0.300334548652991 
598	 0.301615417625649 
599	 0.302988381850055 
600	 0.304254571697971 
601	 0.305459921995589 
602	 0.306692794491972 
603	 0.308083413492038 
604	 0.309414354373768 
605	 0.310678516856424 
606	 0.31195691414413 
607	 0.313353022229033 
608	 0.31475939733594 
609	 0.316072162233487 
610	 0.317214492806698 
611	 0.31837840341015 
612	 0.319549119873455 
613	 0.320666417049296 
614	 0.321711566408086 
615	 0.322783776519772 
616	 0.323863640696332 
617	 0.32485522004462 
618	 0.32589759658763 
619	 0.326952742183007 
620	 0.32796838024937 
621	 0.328916731722816 
622	 0.329777460458246 
623	 0.330635762673362 
624	 0.331581944791754 
625	 0.332411843096426 
626	 0.333187220564256 
627	 0.333965621821691 
628	 0.334767658693289 
629	 0.335547871077457 
630	 0.33631930804628 
631	 0.337089836719153 
632	 0.337778113578035 
633	 0.338414981173073 
634	 0.339008182148777 
635	 0.33955049099532 
636	 0.340116942691699 
637	 0.340692280803402 
638	 0.341237798684984 
639	 0.341691298318358 
640	 0.342209448121312 
641	 0.342711349544255 
642	 0.343051139034442 
643	 0.343523260155483 
644	 0.343944864911817 
645	 0.344233078867435 
646	 0.344511099272727 
647	 0.344839876031322 
648	 0.34513141244482 
649	 0.345298363174142 
650	 0.345460187798525 
651	 0.345649233043219 
652	 0.345855711276331 
653	 0.346034564770927 
654	 0.34616271203344 
655	 0.346245532411873 
656	 0.346298742863108 
657	 0.346343528206982 
658	 0.346381809733057 
659	 0.346388454553484 
660	 0.34633309462159 
661	 0.346263526214638 
662	 0.346138376985164 
663	 0.345954938928042 
664	 0.345774817029357 
665	 0.345681535235188 
666	 0.345535850234177 
667	 0.345235491856712 
668	 0.345122465713528 
669	 0.344942343285665 
670	 0.344642244349368 
671	 0.344345515599295 
672	 0.3439723549619 
673	 0.343571790305964 
674	 0.343195549815356 
675	 0.342861848565319 
676	 0.342480518119787 
677	 0.342041318211236 
678	 0.341580626861467 
679	 0.34118277318393 
680	 0.340696372834358 
681	 0.340115575765076 
682	 0.33964689084921 
683	 0.339178913563285 
684	 0.33867072104168 
685	 0.338105192082139 
686	 0.33748069300705 
687	 0.336859888993357 
688	 0.336264487871588 
689	 0.335676369048224 
690	 0.33497762420442 
691	 0.334318451969837 
692	 0.333759940716021 
693	 0.333113305364592 
694	 0.332382586778912 
695	 0.331648587669102 
696	 0.330982738868042 
697	 0.330203325032995 
698	 0.329426179277935 
699	 0.328708582758526 
700	 0.32802446835961 
701	 0.327230093665084 
702	 0.326399028575199 
703	 0.325602344981863 
704	 0.324748716761282 
705	 0.323970194408273 
706	 0.323228413856726 
707	 0.322405756832218 
708	 0.321535354236941 
709	 0.320667392472047 
710	 0.319837706356168 
711	 0.319058679933026 
712	 0.31819507077512 
713	 0.317251233471942 
714	 0.316304048062559 
715	 0.315540531492865 
716	 0.314713654803821 
717	 0.313772453129738 
718	 0.312828525896196 
719	 0.312032076526489 
720	 0.311204084974339 
721	 0.31025229866131 
722	 0.309343731683475 
723	 0.308387203011538 
724	 0.307413009810717 
725	 0.306489987001254 
726	 0.305682386704318 
727	 0.304801644954222 
728	 0.303827757709024 
729	 0.302905257564784 
730	 0.302018849489544 
731	 0.301089580368054 
732	 0.300082115415182 
733	 0.299074058286583 
734	 0.298225601036632 
735	 0.297403045182927 
736	 0.29640417192354 
737	 0.295458334472482 
738	 0.294523072856216 
739	 0.293593046729765 
740	 0.292720643715418 
741	 0.291827249667198 
742	 0.290924048682047 
743	 0.290032278091833 
744	 0.289149968817199 
745	 0.288210105519082 
746	 0.287274317869538 
747	 0.286439901945444 
748	 0.285582681039283 
749	 0.284726226095432 
750	 0.283892758438913 
751	 0.283084481929631 
752	 0.282180498373544 
753	 0.281278612539374 
754	 0.280468459258207 
755	 0.27965576696998 
756	 0.278922111874775 
757	 0.278185648027912 
758	 0.277314009767146 
759	 0.276445571787278 
760	 0.275665765309841 
761	 0.274956839019074 
762	 0.274183517518417 
763	 0.273469205880813 
764	 0.272731427247336 
765	 0.27192833205723 
766	 0.271275415375681 
767	 0.270630281031072 
768	 0.269934730364062 
769	 0.26918936316811 
770	 0.268465970569411 
771	 0.267825509582674 
772	 0.267249653770138 
773	 0.266632524444523 
774	 0.26603412093131 
775	 0.265442342256664 
776	 0.264836075972458 
777	 0.264202034685362 
778	 0.263627414373165 
779	 0.263104830251128 
780	 0.262580662230858 
781	 0.262027280388777 
782	 0.261531956712249 
783	 0.261072397321919 
784	 0.260513899953761 
785	 0.260030718161015 
786	 0.259609560551685 
787	 0.259200249619875 
788	 0.258751496904697 
789	 0.258374750693682 
790	 0.257985048249468 
791	 0.25748216466977 
792	 0.257088264197 
793	 0.256760708211022 
794	 0.256458122382111 
795	 0.256148871501862 
796	 0.255761257357046 
797	 0.25535995428452 
798	 0.25502668361025 
799	 0.254837110924876 
800	 0.254596832115213 
801	 0.254300257359494 
802	 0.254010072701514 
803	 0.253786300731267 
804	 0.253620259983858 
805	 0.253438489948733 
806	 0.253154056318789 
807	 0.252903902569485 
808	 0.252727585912645 
809	 0.252592081373784 
810	 0.252390276925266 
811	 0.252217305444824 
812	 0.252060007982896 
813	 0.251901112999271 
814	 0.251766682037541 
815	 0.251780180481096 
816	 0.251791768411047 
817	 0.251606926963918 
818	 0.251451014676186 
819	 0.251414512130022 
820	 0.251416232427414 
821	 0.251268387369555 
822	 0.251290099936203 
823	 0.251289221668061 
824	 0.251190633240527 
825	 0.251235816965869 
826	 0.251221399898381 
827	 0.251199535132102 
828	 0.251249460991677 
829	 0.2513182642734 
830	 0.251323998198406 
831	 0.251287177448522 
832	 0.251295810330049 
833	 0.251489503019345 
834	 0.251602796602299 
835	 0.251596827547245 
836	 0.251667459735579 
837	 0.251767183172722 
838	 0.251879862699259 
839	 0.251988362878243 
840	 0.252070370018631 
841	 0.252195004984847 
842	 0.252339035887055 
843	 0.252467439638596 
844	 0.252587167634955 
845	 0.252781289582784 
846	 0.253026105830723 
847	 0.253253009558719 
848	 0.253479676796994 
849	 0.253666914427225 
850	 0.253819483710538 
851	 0.253979744848789 
852	 0.254119850842337 
853	 0.254357996351051 
854	 0.254682773622923 
855	 0.25487712533641 
856	 0.255175748338866 
857	 0.25546227331834 
858	 0.255652590271274 
859	 0.255965288998988 
860	 0.256207168803744 
861	 0.256433383609136 
862	 0.256742109800627 
863	 0.257001139258963 
864	 0.257355845309997 
865	 0.257741259547599 
866	 0.257994918452404 
867	 0.258278059036381 
868	 0.258604226486681 
869	 0.258962514250719 
870	 0.259325889284522 
871	 0.25961277235274 
872	 0.259947738862987 
873	 0.26037079277802 
874	 0.260733499901231 
875	 0.261058904644715 
876	 0.261399987972429 
877	 0.261792844925954 
878	 0.262199272883437 
879	 0.262669924311212 
880	 0.263164361871665 
881	 0.263621423450341 
882	 0.264046733944258 
883	 0.264430566103535 
884	 0.264806384487565 
885	 0.265228619507117 
886	 0.265727326176942 
887	 0.266217004615872 
888	 0.266648690986133 
889	 0.267035083483015 
890	 0.26756339211281 
891	 0.268094605098641 
892	 0.268556851420134 
893	 0.269019105582788 
894	 0.269498232565602 
895	 0.269987876429099 
896	 0.270491873045558 
897	 0.271042198080418 
898	 0.271689323567906 
899	 0.272259317695625 
900	 0.272655300659796 
901	 0.273119982520984 
902	 0.273745018081142 
903	 0.274395781026001 
904	 0.27493486237513 
905	 0.275559912204868 
906	 0.276269389761066 
907	 0.27688074856775 
908	 0.277251280446647 
909	 0.277856677872444 
910	 0.278565762482232 
911	 0.279260363130176 
912	 0.279868681066011 
913	 0.280422095911249 
914	 0.281066901194203 
915	 0.281788466056338 
916	 0.282432380909426 
917	 0.283028190863917 
918	 0.283601762567014 
919	 0.284210339625962 
920	 0.284927248899026 
921	 0.285653981903123 
922	 0.286352505724452 
923	 0.287018724967724 
924	 0.287683485231488 
925	 0.288343198476283 
926	 0.289029611287327 
927	 0.289739361888121 
928	 0.290394000026661 
929	 0.291193355543699 
930	 0.291993537322974 
931	 0.292669432740498 
932	 0.293351936211409 
933	 0.294050778208501 
934	 0.294773282203727 
935	 0.295541045642066 
936	 0.296447474448873 
937	 0.297197821188415 
938	 0.297859839651563 
939	 0.298595412278476 
940	 0.299408729364889 
941	 0.300186532071174 
942	 0.300978964411558 
943	 0.301845140399473 
944	 0.302607899966623 
945	 0.30328484264426 
946	 0.303985321425271 
947	 0.304801005705312 
948	 0.305588746499029 
949	 0.30617636582042 
950	 0.306771918792956 
951	 0.30764836519614 
952	 0.308386158712783 
953	 0.309008790889676 
954	 0.30965735200787 
955	 0.310460228471601 
956	 0.311166397005569 
957	 0.311885070227211 
958	 0.312590692519015 
959	 0.313199249887321 
960	 0.313829211079597 
961	 0.314581901616823 
962	 0.315416833515891 
963	 0.316197382961908 
964	 0.316822714433785 
965	 0.317590082845134 
966	 0.318525392483294 
967	 0.319455546564958 
968	 0.320356112403899 
969	 0.321321863117086 
970	 0.32233434458387 
971	 0.323302139550747 
972	 0.324258718849153 
973	 0.325238064601352 
974	 0.326231196929395 
975	 0.32719822936092 
976	 0.328116845911392 
977	 0.329023458478489 
978	 0.329914804649913 
979	 0.330785139713215 
980	 0.331783016523436 
981	 0.332804966623729 
982	 0.333722169373371 
983	 0.334486794436908 
984	 0.335435563483394 
985	 0.33640695547361 
986	 0.33741031827574 
987	 0.338506180597532 
988	 0.339442568035084 
989	 0.340345656705296 
990	 0.341354552647069 
991	 0.342499086569427 
992	 0.34336922263727 
993	 0.344359142648842 
994	 0.345457231009622 
995	 0.346496820464768 
996	 0.347586694929296 
997	 0.348684520813116 
998	 0.349772150521019 
999	 0.350854634099383 
1000	 0.351979831518268 
1001	 0.357364731218548 
1002	 0.358429743994638 
1003	 0.359459252400927 
1004	 0.360476204683579 
1005	 0.361440765463996 
1006	 0.362455406403787 
1007	 0.36347510177603 
1008	 0.364503506967218 
1009	 0.365550902903847 
1010	 0.366640030158068 
1011	 0.367697227168236 
1012	 0.36870239977496 
1013	 0.369688232642313 
1014	 0.370629128674243 
1015	 0.371580573028176 
1016	 0.372607796035256 
1017	 0.373616631844394 
1018	 0.374650574500258 
1019	 0.375664508372129 
1020	 0.376689338056369 
1021	 0.377644467854211 
1022	 0.378567780060238 
1023	 0.379549672196037 
1024	 0.380465759985043 
1025	 0.381383752985757 
1026	 0.382350353663852 
1027	 0.383267113957629 
1028	 0.384185067269931 
1029	 0.385100000429394 
1030	 0.386020522892386 
1031	 0.386917444591461 
1032	 0.387811910175535 
1033	 0.388676371791014 
1034	 0.389556209469073 
1035	 0.390403851642105 
1036	 0.39128247465047 
1037	 0.392231663148078 
1038	 0.393154333738535 
1039	 0.394061403739154 
1040	 0.394926982579116 
1041	 0.395749600759054 
1042	 0.396621874628114 
1043	 0.397494689988568 
1044	 0.39831773769663 
1045	 0.399139971090952 
1046	 0.399938977729691 
1047	 0.400652834182091 
1048	 0.401389308964879 
1049	 0.402199753858136 
1050	 0.403024979651306 
1051	 0.403887326503411 
1052	 0.404736981715893 
1053	 0.405517883975631 
1054	 0.406244265837364 
1055	 0.407061155563653 
1056	 0.407930690076508 
1057	 0.408746719279754 
1058	 0.409625442451764 
1059	 0.410454414801622 
1060	 0.411239768276673 
1061	 0.411927362889943 
1062	 0.41268437680488 
1063	 0.413433393793057 
1064	 0.414167376698074 
1065	 0.414904792475484 
1066	 0.415717975959439 
1067	 0.416550323592299 
1068	 0.417365389055608 
1069	 0.418191351223507 
1070	 0.418993956221108 
1071	 0.419739956590638 
1072	 0.420522089831021 
1073	 0.421317783534538 
1074	 0.422118794007021 
1075	 0.422932896064296 
1076	 0.423729272034542 
1077	 0.424498659293868 
1078	 0.425225674232712 
1079	 0.425932680269195 
1080	 0.426603174630859 
1081	 0.427289880665357 
1082	 0.428016054283957 
1083	 0.428706367775912 
1084	 0.429367500985083 
1085	 0.430051545018528 
1086	 0.430743102927176 
1087	 0.431408944567242 
1088	 0.432057573371489 
1089	 0.432757566602773 
1090	 0.433404527836509 
1091	 0.433981883179693 
1092	 0.434562507028585 
1093	 0.435079970214116 
1094	 0.435557487763448 
1095	 0.436057016374602 
1096	 0.436521600402404 
1097	 0.43695818368785 
1098	 0.437396934187393 
1099	 0.437852805342598 
1100	 0.438241627356855 
1101	 0.438576403350901 
1102	 0.438944991765595 
1103	 0.43932857798299 
1104	 0.439619284414139 
1105	 0.439942851792283 
1106	 0.440283301581445 
1107	 0.440521709366457 
1108	 0.440788254703909 
1109	 0.441069155633499 
1110	 0.441279381114812 
1111	 0.44148322452768 
1112	 0.441673867127569 
1113	 0.441844614560527 
1114	 0.441997627965284 
1115	 0.442128649088779 
1116	 0.44222746245161 
1117	 0.442328885222765 
1118	 0.442424240204809 
1119	 0.442491157101359 
1120	 0.442534087816096 
1121	 0.442604946638332 
1122	 0.442608617138528 
1123	 0.442572157630897 
1124	 0.44253924011342 
1125	 0.44250143414492 
1126	 0.44241552249702 
1127	 0.442306507227731 
1128	 0.44218224051587 
1129	 0.442045466080905 
1130	 0.441861169208931 
1131	 0.441691232554955 
1132	 0.441414081484162 
1133	 0.441066618915731 
1134	 0.440672500904332 
1135	 0.440198887013397 
1136	 0.439717991695114 
1137	 0.439208814883317 
1138	 0.438609395125357 
1139	 0.437918110558677 
1140	 0.437196183359978 
1141	 0.436305068002053 
1142	 0.435286559411488 
1143	 0.434202082453895 
1144	 0.433032092501513 
1145	 0.431743016712185 
1146	 0.430319598743779 
1147	 0.428894261554811 
1148	 0.42731168141885 
1149	 0.425807345212836 
1150	 0.42428140163148 
1151	 0.422819710252676 
1152	 0.421407303941791 
1153	 0.420069430455557 
1154	 0.418894641656405 
1155	 0.417781764178332 
1156	 0.416912921928148 
1157	 0.416175756085486 
1158	 0.415647928385012 
1159	 0.415343458313033 
1160	 0.415135977505729 
1161	 0.415144611224955 
1162	 0.415153135904184 
1163	 0.41532826882152 
1164	 0.415437476003117 
1165	 0.415561360757214 
1166	 0.415702540000983 
1167	 0.415790126327733 
1168	 0.415821255974715 
1169	 0.415834258528525 
1170	 0.415805836899109 
1171	 0.415772276820653 
1172	 0.415722070112139 
1173	 0.415646512576913 
1174	 0.415533917901937 
1175	 0.415438201924336 
1176	 0.415321665013253 
1177	 0.415215506082761 
1178	 0.415130534846843 
1179	 0.415028172911078 
1180	 0.41491092894333 
1181	 0.414796851640713 
1182	 0.414690646084064 
1183	 0.414560854065967 
1184	 0.414434088168027 
1185	 0.414308089636512 
1186	 0.414169281478637 
1187	 0.4140261060061 
1188	 0.413864107578361 
1189	 0.413672560647028 
1190	 0.41351174415155 
1191	 0.413356525794543 
1192	 0.413192193104574 
1193	 0.413038846881492 
1194	 0.412883606335093 
1195	 0.412711557297384 
1196	 0.412547674230708 
1197	 0.412399612242072 
1198	 0.412246033619731 
1199	 0.412090131470731 
1200	 0.411925213531558 
1201	 0.411770672383091 
1202	 0.411610870859042 
1203	 0.411478272613407 
1204	 0.411358296425972 
1205	 0.411242946596068 
1206	 0.411137040059457 
1207	 0.411051294396869 
1208	 0.410986192633842 
1209	 0.410908616364425 
1210	 0.410852011680959 
1211	 0.410781854520234 
1212	 0.410692840956494 
1213	 0.410608660998702 
1214	 0.410521735620249 
1215	 0.410443743198653 
1216	 0.410368936369793 
1217	 0.410293809631555 
1218	 0.410220581917939 
1219	 0.410147374120618 
1220	 0.410094116155658 
1221	 0.410058402884142 
1222	 0.409999619772686 
1223	 0.40995063042199 
1224	 0.409890139770806 
1225	 0.409801764935995 
1226	 0.409727017526234 
1227	 0.409683335691343 
1228	 0.409598924932057 
1229	 0.409467563828928 
1230	 0.409371234785412 
1231	 0.409273736348525 
1232	 0.409175755475516 
1233	 0.409086592947872 
1234	 0.409026815016196 
1235	 0.408947589511789 
1236	 0.408850570998853 
1237	 0.408772210027524 
1238	 0.408715674298492 
1239	 0.408632832789387 
1240	 0.408528491846677 
1241	 0.408451103049128 
1242	 0.408379570520651 
1243	 0.408302016521088 
1244	 0.40825850444235 
1245	 0.408175820384643 
1246	 0.408036599547723 
1247	 0.407940436310336 
1248	 0.407863329907773 
1249	 0.407768066325431 
1250	 0.407691601672778 
1251	 0.407631978478699 
1252	 0.407520694061623 
1253	 0.407372501458292 
1254	 0.40723252823278 
1255	 0.407072905184968 
1256	 0.406913704748176 
1257	 0.406754180208157 
1258	 0.406583485429916 
1259	 0.406383407619318 
1260	 0.406215018129126 
1261	 0.40605996242884 
1262	 0.405899302010633 
1263	 0.405755736818224 
1264	 0.405603155175243 
1265	 0.40543344721669 
1266	 0.405274695899284 
1267	 0.405123478774506 
1268	 0.40497372967169 
1269	 0.404823337710185 
1270	 0.404677455339097 
1271	 0.404521335480173 
1272	 0.404365321676683 
1273	 0.404204729303736 
1274	 0.404043710917755 
1275	 0.403864781821748 
1276	 0.403684806154233 
1277	 0.403478102313808 
1278	 0.403244266396812 
1279	 0.403015428406589 
1280	 0.402774341464654 
1281	 0.402527787011709 
1282	 0.402295798144039 
1283	 0.402025032496927 
1284	 0.401728068775317 
1285	 0.401419094663083 
1286	 0.401085027562306 
1287	 0.400747959134622 
1288	 0.400425849652823 
1289	 0.400116408387322 
1290	 0.399782085305114 
1291	 0.399444900445322 
1292	 0.399102083788799 
1293	 0.398748043994383 
1294	 0.39838162296753 
1295	 0.398020016898015 
1296	 0.397630207116331 
1297	 0.39720766383368 
1298	 0.396794330461497 
1299	 0.396379252890778 
1300	 0.39594749052649 
1301	 0.395516712041712 
1302	 0.39506316610299 
1303	 0.394586793142486 
1304	 0.394110664840242 
1305	 0.393612845082875 
1306	 0.393065507292175 
1307	 0.392509596364032 
1308	 0.391921245089584 
1309	 0.391317783648646 
1310	 0.39071895283431 
1311	 0.390041802447161 
1312	 0.389323199804254 
1313	 0.38857589450983 
1314	 0.387774228099038 
1315	 0.386950618508673 
1316	 0.386119204892816 
1317	 0.385228574447682 
1318	 0.384289452567949 
1319	 0.383324346965919 
1320	 0.382329893345252 
1321	 0.381296347372557 
1322	 0.38024619627677 
1323	 0.37913882387297 
1324	 0.377968286599497 
1325	 0.376733208883339 
1326	 0.375470916745585 
1327	 0.37416491500003 
1328	 0.372809207895044 
1329	 0.371452842093595 
1330	 0.370046059495704 
1331	 0.368583881049419 
1332	 0.367115604589114 
1333	 0.365625490749623 
1334	 0.36411665381777 
1335	 0.362586038389001 
1336	 0.361042472736501 
1337	 0.359471571278856 
1338	 0.357919932737072 
1339	 0.356363014120378 
1340	 0.354797524494564 
1341	 0.353221596318103 
1342	 0.351671705644639 
1343	 0.350107843613787 
1344	 0.348577275455942 
1345	 0.34708810090488 
1346	 0.345611216574361 
1347	 0.344150384274792 
1348	 0.342722067619559 
1349	 0.341320832939405 
1350	 0.339940819244219 
1351	 0.338610671278431 
1352	 0.337334193574779 
1353	 0.336042242427587 
1354	 0.334771957767819 
1355	 0.333517898544509 
1356	 0.332261947201501 
1357	 0.331024553622637 
1358	 0.329817142232743 
1359	 0.328607670776387 
1360	 0.327405706793792 
1361	 0.326207430363698 
1362	 0.325032313838496 
1363	 0.323845503109136 
1364	 0.322659042856897 
1365	 0.321455277544936 
1366	 0.320257010008353 
1367	 0.319027340580663 
1368	 0.31778819143409 
1369	 0.316561720336128 
1370	 0.315269169935994 
1371	 0.313950052517742 
1372	 0.312603776403155 
1373	 0.311169319353339 
1374	 0.309654424403612 
1375	 0.308089451038031 
1376	 0.306415879864495 
1377	 0.304649449729037 
1378	 0.302775425395165 
1379	 0.300811107688703 
1380	 0.298751273200937 
1381	 0.296595321892327 
1382	 0.294315454551613 
1383	 0.291971553256722 
1384	 0.289471729213611 
1385	 0.286873309462503 
1386	 0.284112085012147 
1387	 0.281239012867476 
1388	 0.278194137462376 
1389	 0.275019367299279 
1390	 0.27162537764623 
1391	 0.268073133564638 
1392	 0.264324192389536 
1393	 0.260394992092254 
1394	 0.256355229828688 
1395	 0.252112007324603 
1396	 0.247801543607157 
1397	 0.243432917828372 
1398	 0.238904783560195 
1399	 0.234432865259534 
1400	 0.22987326312939 
1401	 0.225466484016853 
1402	 0.221024628244849 
1403	 0.216818320452646 
1404	 0.212675195766278 
1405	 0.208837293371137 
1406	 0.205127036319163 
1407	 0.201738004729078 
1408	 0.198583823094506 
1409	 0.195753253658427 
1410	 0.193216419186448 
1411	 0.190950300907647 
1412	 0.188988836859721 
1413	 0.187297816145438 
1414	 0.185842371268247 
1415	 0.184501994668296 
1416	 0.183326082307757 
1417	 0.18224169334321 
1418	 0.181158605743959 
1419	 0.180144651235134 
1420	 0.179126308767816 
1421	 0.178115241126843 
1422	 0.177115711251991 
1423	 0.176097943813711 
1424	 0.175086260467927 
1425	 0.174058686590049 
1426	 0.173065168680113 
1427	 0.172086940913769 
1428	 0.171118393181302 
1429	 0.170161942504415 
1430	 0.169229910908329 
1431	 0.168301491758765 
1432	 0.16740176340647 
1433	 0.166533956695682 
1434	 0.165679565484925 
1435	 0.164852848271646 
1436	 0.164027278535497 
1437	 0.163207090901644 
1438	 0.162409750939443 
1439	 0.161637335446056 
1440	 0.160846234693621 
1441	 0.16007329737332 
1442	 0.159302753330164 
1443	 0.158515728683876 
1444	 0.157745619073647 
1445	 0.156974547430774 
1446	 0.15622877238695 
1447	 0.155505421025126 
1448	 0.154769803468515 
1449	 0.154071755015655 
1450	 0.153409384030532 
1451	 0.15277313772586 
1452	 0.152164287424757 
1453	 0.151584578151677 
1454	 0.151041713509479 
1455	 0.150506692816826 
1456	 0.150002500569892 
1457	 0.149489227417247 
1458	 0.148986602240775 
1459	 0.148477161445054 
1460	 0.147974530665061 
1461	 0.147459624605084 
1462	 0.146931633303701 
1463	 0.146422434995753 
1464	 0.145906638550313 
1465	 0.145402069268464 
1466	 0.144906986277696 
1467	 0.144424946432712 
1468	 0.143933727869749 
1469	 0.143483632952369 
1470	 0.143053456517077 
1471	 0.142658206850494 
1472	 0.142296907944268 
1473	 0.141963652032721 
1474	 0.141660261841742 
1475	 0.141397509973169 
1476	 0.141175790174916 
1477	 0.140986195377969 
1478	 0.140834099697314 
1479	 0.140713224702122 
1480	 0.140631951934513 
1481	 0.140584209842761 
1482	 0.140559033933548 
1483	 0.140578578201163 
1484	 0.140593690083565 
1485	 0.140626746233154 
1486	 0.140667550692958 
1487	 0.140712539310942 
1488	 0.140782975911944 
1489	 0.140880334270482 
1490	 0.140969335033366 
1491	 0.141075284601013 
1492	 0.141175926287236 
1493	 0.141278889085573 
1494	 0.141368336582522 
1495	 0.141456507183543 
1496	 0.14154501270233 
1497	 0.14161597788054 
1498	 0.141700417575605 
1499	 0.141806025245953 
1500	 0.141883812759647 
1501	 0.141951268153515 
1502	 0.142013577771659 
1503	 0.142051713534726 
1504	 0.142108434584598 
1505	 0.142166577332517 
1506	 0.142212595584747 
1507	 0.142244555846651 
1508	 0.142259890812703 
1509	 0.142276646075931 
1510	 0.142289512741769 
1511	 0.142303967233023 
1512	 0.142325488518716 
1513	 0.14233991885771 
1514	 0.142354282386861 
1515	 0.142370030848234 
1516	 0.142377789311787 
1517	 0.142374434342576 
1518	 0.142355286195026 
1519	 0.142344443124853 
1520	 0.142331535256559 
1521	 0.142313191660705 
1522	 0.142295332758622 
1523	 0.142271019284907 
1524	 0.14223492530874 
1525	 0.142204928032018 
1526	 0.14218324765991 
1527	 0.14214436769352 
1528	 0.142098161860525 
1529	 0.142049721492749 
1530	 0.141992669203067 
1531	 0.14192931280749 
1532	 0.141866150010131 
1533	 0.141790110247873 
1534	 0.141693847124178 
1535	 0.141608518553612 
1536	 0.141523517153408 
1537	 0.14143480121117 
1538	 0.141352450629802 
1539	 0.1412580282598 
1540	 0.141147593014872 
1541	 0.141047936200137 
1542	 0.140958220815827 
1543	 0.140851282753343 
1544	 0.140734798461868 
1545	 0.140623083365297 
1546	 0.140507564725776 
1547	 0.140378692533221 
1548	 0.140259272048591 
1549	 0.140148724103819 
1550	 0.140015696192522 
1551	 0.139880292956992 
1552	 0.139755178565828 
1553	 0.139629795911946 
1554	 0.139516118943864 
1555	 0.139399315109203 
1556	 0.139259170529116 
1557	 0.139114259156382 
1558	 0.138963286749505 
1559	 0.138805091119029 
1560	 0.138657278574438 
1561	 0.138521235674508 
1562	 0.138369867812751 
1563	 0.138213508817758 
1564	 0.138063808970264 
1565	 0.137912104421556 
1566	 0.137757415452082 
1567	 0.137608405429071 
1568	 0.137447394063096 
1569	 0.137273356605956 
1570	 0.137109277594028 
1571	 0.13694220838063 
1572	 0.136781357212174 
1573	 0.136625635441325 
1574	 0.136474523645491 
1575	 0.136335902155019 
1576	 0.136178831542882 
1577	 0.136021353444326 
1578	 0.135850046808064 
1579	 0.135646785477912 
1580	 0.135478189825826 
1581	 0.135321435166706 
1582	 0.13516452350106 
1583	 0.135039428146386 
1584	 0.134880563200784 
1585	 0.134697589221416 
1586	 0.134523363827888 
1587	 0.134330888745163 
1588	 0.134155220762145 
1589	 0.133998751160162 
1590	 0.133830644053511 
1591	 0.133663922075011 
1592	 0.133492266313678 
1593	 0.133304523799121 
1594	 0.133131960386595 
1595	 0.132969926459329 
1596	 0.132803465016507 
1597	 0.132646158383663 
1598	 0.132478630481131 
1599	 0.132305030881792 
1600	 0.132125195129834 
1601	 0.131933434274636 
1602	 0.131752396695524 
1603	 0.131578382331046 
1604	 0.131392267891861 
1605	 0.131199277299495 
1606	 0.131013669404017 
1607	 0.130814202309489 
1608	 0.130630629840013 
1609	 0.130463958190092 
1610	 0.130295446318936 
1611	 0.13012754479842 
1612	 0.129946706589312 
1613	 0.129756020387612 
1614	 0.129569176044499 
1615	 0.129378839678776 
1616	 0.129185751701077 
1617	 0.12899400217603 
1618	 0.128802640090504 
1619	 0.128605182644199 
1620	 0.128415103339833 
1621	 0.128229884715102 
1622	 0.128054063420314 
1623	 0.127861013173703 
1624	 0.12766877385501 
1625	 0.127465691658496 
1626	 0.127245935367886 
1627	 0.127038519603013 
1628	 0.126829321542029 
1629	 0.126627146694621 
1630	 0.126429663546986 
1631	 0.126232913272497 
1632	 0.126041208402381 
1633	 0.125847436994643 
1634	 0.125658098683648 
1635	 0.125454399892287 
1636	 0.125254239599644 
1637	 0.125026629926773 
1638	 0.124772484980184 
1639	 0.124534601382344 
1640	 0.124277508428593 
1641	 0.124051500151918 
1642	 0.12385328777126 
1643	 0.123631571448841 
1644	 0.123412582519325 
1645	 0.123187346530359 
1646	 0.122946385486831 
1647	 0.122717134136427 
1648	 0.122496653696755 
1649	 0.122268037374696 
1650	 0.122034913692542 
1651	 0.121805479837638 
1652	 0.121586332306151 
1653	 0.121338938617019 
1654	 0.121070683469227 
1655	 0.120825236254879 
1656	 0.120568945161801 
1657	 0.120322401015506 
1658	 0.120104493822594 
1659	 0.119862776529737 
1660	 0.119607339079609 
1661	 0.119348422349618 
1662	 0.119080530496206 
1663	 0.118820635171665 
1664	 0.118546487922207 
1665	 0.118297041561878 
1666	 0.118067400027532 
1667	 0.117832895901717 
1668	 0.11761255363244 
1669	 0.117378945468836 
1670	 0.117145284300666 
1671	 0.116900672608386 
1672	 0.116643245635999 
1673	 0.116393024118977 
1674	 0.116136339403457 
1675	 0.115887389886101 
1676	 0.115652008232003 
1677	 0.115400699579353 
1678	 0.115143009086326 
1679	 0.114885652192868 
1680	 0.114609469216007 
1681	 0.114360196108727 
1682	 0.114128668366143 
1683	 0.113887805037212 
1684	 0.113656981728082 
1685	 0.11342101726738 
1686	 0.113174956012449 
1687	 0.112937684014831 
1688	 0.112706626619951 
1689	 0.112476426770969 
1690	 0.112248675282682 
1691	 0.112020903944861 
1692	 0.111806169436492 
1693	 0.111567451734275 
1694	 0.111309745755915 
1695	 0.111067419782512 
1696	 0.110811881987262 
1697	 0.110576349584975 
1698	 0.110361062056707 
1699	 0.110140233988697 
1700	 0.109922991528747 
1701	 0.109707114370779 
1702	 0.109495806991391 
1703	 0.109284190512987 
1704	 0.109074317130795 
1705	 0.10886463485511 
1706	 0.108664568806145 
1707	 0.108442472382345 
1708	 0.108201956956996 
1709	 0.107977767952854 
1710	 0.107740735958472 
1711	 0.107527610762824 
1712	 0.10733992893134 
1713	 0.107142167446369 
1714	 0.10695346882907 
1715	 0.106748162959803 
1716	 0.106528498433522 
1717	 0.106326403108426 
1718	 0.106114670173049 
1719	 0.105928630652136 
1720	 0.10577131795819 
1721	 0.105603200991818 
1722	 0.10544865385929 
1723	 0.105272373374496 
1724	 0.105082754106297 
1725	 0.104898677898634 
1726	 0.104698957911424 
1727	 0.104522810447833 
1728	 0.104366429933695 
1729	 0.104191637927487 
1730	 0.104010338255067 
1731	 0.103853359306301 
1732	 0.103702467822323 
1733	 0.103541572256593 
1734	 0.103395598331817 
1735	 0.103242544273675 
1736	 0.103064183601143 
1737	 0.102924311948776 
1738	 0.102812906268699 
1739	 0.102685959510894 
1740	 0.102563820735888 
1741	 0.102438219621098 
1742	 0.102311415378314 
1743	 0.102187989595378 
1744	 0.102067737732733 
1745	 0.101940422575469 
1746	 0.101812445111996 
1747	 0.101661793065927 
1748	 0.10152608037776 
1749	 0.101400777730969 
1750	 0.101274982684411 
1751	 0.101171179438365 
1752	 0.101067694857708 
1753	 0.100950159642343 
1754	 0.100839042927627 
1755	 0.100718565219258 
1756	 0.100594467711611 
1757	 0.100468457857409 
1758	 0.100346450582515 
1759	 0.100258714384834 
1760	 0.100171261075372 
1761	 0.100082378094119 
1762	 9.99883120793851E-02 
1763	 9.98736481555244E-02 
1764	 9.97563024347154E-02 
1765	 9.96278997504237E-02 
1766	 9.95124114112588E-02 
1767	 9.94040689913797E-02 
1768	 9.92969956505353E-02 
1769	 9.92077390490033E-02 
1770	 9.91151010367093E-02 
1771	 0.099015661957469 
1772	 9.89028323596435E-02 
1773	 9.88081808004902E-02 
1774	 9.87270974875732E-02 
1775	 9.86256848329242E-02 
1776	 9.85383709127466E-02 
1777	 9.84349485283164E-02 
1778	 9.83410464128068E-02 
1779	 9.82901080824399E-02 
1780	 9.82009443295759E-02 
1781	 9.81242833295649E-02 
1782	 9.80662140448807E-02 
1783	 9.79596225280501E-02 
1784	 9.78722963469292E-02 
1785	 9.77873797885271E-02 
1786	 9.76997089599408E-02 
1787	 9.76191575058362E-02 
1788	 9.75393560223582E-02 
1789	 9.74572154809534E-02 
1790	 9.73689502979202E-02 
1791	 9.72620134206259E-02 
1792	 9.71910143159357E-02 
1793	 9.71551813166177E-02 
1794	 9.70886534690012E-02 
1795	 9.70172741476967E-02 
1796	 9.69655765243065E-02 
1797	 9.69027580220222E-02 
1798	 9.68466068563303E-02 
1799	 9.68197531351846E-02 
1800	 9.67799694364364E-02 
1801	 9.61417620460468E-02 
1802	 9.61130019211468E-02 
1803	 9.60694500360742E-02 
1804	 9.60869358863924E-02 
1805	 9.61005496527035E-02 
1806	 9.60976975773856E-02 
1807	 9.61145582911681E-02 
1808	 9.61137334586101E-02 
1809	 9.60791846589203E-02 
1810	 9.60657898439495E-02 
1811	 9.60691945015749E-02 
1812	 9.60603258452543E-02 
1813	 9.60467324120462E-02 
1814	 9.60052048635562E-02 
1815	 0.095941103839819 
1816	 9.59027437761455E-02 
1817	 9.58699339081908E-02 
1818	 9.58423497227798E-02 
1819	 9.58106503747894E-02 
1820	 9.57906165497807E-02 
1821	 0.095758028076224 
1822	 9.57242839934211E-02 
1823	 9.56921726780384E-02 
1824	 9.57030741526727E-02 
1825	 9.57219857594596E-02 
1826	 0.095711298818913 
1827	 0.09569229033765 
1828	 9.56739903268276E-02 
1829	 9.56334936237968E-02 
1830	 9.56069128343455E-02 
1831	 9.55962512411533E-02 
1832	 9.55795134888932E-02 
1833	 9.55165282101933E-02 
1834	 9.54510575451534E-02 
1835	 9.53969238641385E-02 
1836	 9.53174966266907E-02 
1837	 9.52691650738604E-02 
1838	 9.52244210578242E-02 
1839	 9.51697379189049E-02 
1840	 9.50995830533097E-02 
1841	 9.50511619031868E-02 
1842	 9.49806042993045E-02 
1843	 9.49011703478659E-02 
1844	 9.48282107590331E-02 
1845	 9.47546868091716E-02 
1846	 9.46932214811995E-02 
1847	 9.46247688426212E-02 
1848	 9.45423903802882E-02 
1849	 9.44326740424679E-02 
1850	 9.43248639617677E-02 
1851	 9.42056869123149E-02 
1852	 9.41067893277875E-02 
1853	 9.39895115390551E-02 
1854	 9.38498329717255E-02 
1855	 9.36948845178302E-02 
1856	 9.35162148096744E-02 
1857	 9.33398466578991E-02 
1858	 0.093171634528787 
1859	 9.30023662080323E-02 
1860	 9.28094452806327E-02 
1861	 9.26089786417925E-02 
1862	 0.092361731113908 
1863	 9.20992702734841E-02 
1864	 9.18380578625718E-02 
1865	 0.09154473089424 
1866	 9.12362881270021E-02 
1867	 9.09403441051626E-02 
1868	 9.06017768484607E-02 
1869	 9.02266618435975E-02 
1870	 8.98479492263446E-02 
1871	 8.94358501114273E-02 
1872	 8.89752882983093E-02 
1873	 0.088519468781873 
1874	 8.80851791365082E-02 
1875	 8.76179708489991E-02 
1876	 8.71327556060116E-02 
1877	 8.66079497251351E-02 
1878	 8.60210865539832E-02 
1879	 8.54051454270958E-02 
1880	 8.47688950698778E-02 
1881	 8.41108955068151E-02 
1882	 8.34142680832779E-02 
1883	 8.26987295434416E-02 
1884	 8.19291203415051E-02 
1885	 8.10932437926332E-02 
1886	 8.02192201165146E-02 
1887	 7.93034212433107E-02 
1888	 7.83461360451052E-02 
1889	 7.73632404558784E-02 
1890	 7.63374951750255E-02 
1891	 7.52706482010224E-02 
1892	 7.41476859419955E-02 
1893	 7.29985224302595E-02 
1894	 7.18051843272954E-02 
1895	 7.05934052294294E-02 
1896	 6.93493028017583E-02 
1897	 6.81031280728591E-02 
1898	 0.066850815986763 
1899	 6.55987880813732E-02 
1900	 6.43911260452282E-02 
1901	 6.32021372310519E-02 
1902	 6.21123279053676E-02 
1903	 6.10927776448657E-02 
1904	 6.01579051547608E-02 
1905	 5.92854599373908E-02 
1906	 5.85270372207453E-02 
1907	 5.78566227601587E-02 
1908	 5.72505980203394E-02 
1909	 5.67395854956517E-02 
1910	 5.63074666255212E-02 
1911	 5.59275491376949E-02 
1912	 5.55974032950272E-02 
1913	 0.055266432223714 
1914	 0.054958120708067 
1915	 5.46737008212838E-02 
1916	 5.44193407271534E-02 
1917	 5.41582034626672E-02 
1918	 0.053904412057683 
1919	 5.36708108526578E-02 
1920	 5.34194035623266E-02 
1921	 5.31481160020901E-02 
1922	 5.29315821688052E-02 
1923	 5.27253869046229E-02 
1924	 5.25124587063651E-02 
1925	 5.23163671955598E-02 
1926	 5.21208888263668E-02 
1927	 5.19228316904929E-02 
1928	 5.17134439032941E-02 
1929	 5.15294936427131E-02 
1930	 5.13250371878819E-02 
1931	 5.11294372592515E-02 
1932	 5.09708680512306E-02 
1933	 5.08245295859174E-02 
1934	 5.06975333437513E-02 
1935	 0.050573004286708 
1936	 5.04582356630544E-02 
1937	 0.050345163864676 
1938	 5.02377810848177E-02 
1939	 5.01421086368993E-02 
1940	 0.05005552445513 
1941	 4.99758741055054E-02 
1942	 4.99034799349913E-02 
1943	 0.04982787126832 
1944	 4.97563542813584E-02 
1945	 4.96827331254477E-02 
1946	 0.04962393041855 
1947	 4.95748975506205E-02 
1948	 0.049534561094023 
1949	 4.95111220078252E-02 
1950	 4.94828430394082E-02 
1951	 4.94703235733001E-02 
1952	 4.94389497791409E-02 
1953	 0.049382248197353 
1954	 4.93378758310535E-02 
1955	 4.93112680948895E-02 
1956	 4.92677257967831E-02 
1957	 4.92389157746622E-02 
1958	 4.92406206949628E-02 
1959	 4.92141080504686E-02 
1960	 0.049161711488803 
1961	 0.049136046603892 
1962	 4.91128905577219E-02 
1963	 4.90946261985147E-02 
1964	 4.90911114115588E-02 
1965	 0.049092236359334 
1966	 4.90846197211985E-02 
1967	 4.90685918406118E-02 
1968	 4.90671185149252E-02 
1969	 4.90693913758748E-02 
1970	 4.90812057224254E-02 
1971	 4.90973261493473E-02 
1972	 4.91274906636731E-02 
1973	 4.91592490842519E-02 
1974	 4.92088028227674E-02 
1975	 4.92702554005019E-02 
1976	 4.93588365581018E-02 
1977	 4.94487187717163E-02 
1978	 4.95398288177356E-02 
1979	 4.96365896552406E-02 
1980	 4.97399234726316E-02 
1981	 4.98389117131233E-02 
1982	 4.99320904191576E-02 
1983	 5.00454754365081E-02 
1984	 5.01675417899541E-02 
1985	 5.02866670753611E-02 
1986	 5.04153078116879E-02 
1987	 5.05492295520784E-02 
1988	 5.06921149197526E-02 
1989	 5.08249860878896E-02 
1990	 5.09389251852287E-02 
1991	 5.10788874057549E-02 
1992	 5.12017223754043E-02 
1993	 5.12901018567772E-02 
1994	 5.14199134229607E-02 
1995	 5.15859847331027E-02 
1996	 5.17162022657097E-02 
1997	 5.18512512874594E-02 
1998	 5.19718192621253E-02 
1999	 5.20517503024167E-02 
2000	 5.21628934025384E-02 
2001	 5.22877699144364E-02 
2002	 5.24120686953481E-02 
2003	 5.25453517043458E-02 
2004	 5.26676172801941E-02 
2005	 5.27797192822789E-02 
2006	 5.28639082122118E-02 
2007	 5.29826765007723E-02 
2008	 5.31116897723452E-02 
2009	 5.32379920301351E-02 
2010	 5.33867233517732E-02 
2011	 5.35191044816178E-02 
2012	 5.36379492985884E-02 
2013	 5.37595926093892E-02 
2014	 5.38857541168189E-02 
2015	 5.40046910727431E-02 
2016	 5.40930212111919E-02 
2017	 5.41998386583403E-02 
2018	 5.43121381083211E-02 
2019	 5.44157717302417E-02 
2020	 5.45334231107144E-02 
2021	 5.46820522939277E-02 
2022	 5.48046311458543E-02 
2023	 5.49257358253407E-02 
2024	 0.055033321254867 
2025	 5.51039905083628E-02 
2026	 0.055209532019263 
2027	 0.055329514724063 
2028	 5.54414352309778E-02 
2029	 5.55611651953756E-02 
2030	 5.57129380928819E-02 
2031	 5.58284286682547E-02 
2032	 5.59126372374542E-02 
2033	 5.60263067786271E-02 
2034	 5.61545811699565E-02 
2035	 5.62622659912385E-02 
2036	 5.63740706418779E-02 
2037	 5.64794913071391E-02 
2038	 0.056553237942577 
2039	 0.056649693455299 
2040	 5.67597481895887E-02 
2041	 5.68731630399441E-02 
2042	 5.69827522310377E-02 
2043	 5.70979942773439E-02 
2044	 5.72034270740268E-02 
2045	 5.72982543727484E-02 
2046	 5.74034593576531E-02 
2047	 5.75142466280042E-02 
2048	 0.057614495544287 
2049	 5.77129736650038E-02 
2050	 5.78148403993765E-02 
2051	 5.79112103540578E-02 
2052	 5.80071544848266E-02 
2053	 5.81118551798393E-02 
2054	 5.82070437863753E-02 
2055	 5.82860980065559E-02 
2056	 5.83787399921676E-02 
2057	 5.84616686553126E-02 
2058	 5.85341231673013E-02 
2059	 5.86260126421429E-02 
2060	 5.87191012694644E-02 
2061	 5.88208007194091E-02 
2062	 5.89513654727401E-02 
2063	 5.90550303445074E-02 
2064	 5.91480141868029E-02 
2065	 5.92437021234552E-02 
2066	 5.93281005320722E-02 
2067	 0.05941423843082 
2068	 5.95009710315084E-02 
2069	 5.95894398339376E-02 
2070	 5.96803262592232E-02 
2071	 5.97702275551715E-02 
2072	 5.98596283300609E-02 
2073	 5.99533031926816E-02 
2074	 6.00446083240115E-02 
2075	 6.01308836353523E-02 
2076	 6.02222972743417E-02 
2077	 6.03159995385056E-02 
2078	 6.04118243610073E-02 
2079	 6.05144658658391E-02 
2080	 0.060608830076234 
2081	 6.07072854546779E-02 
2082	 0.060795732063402 
2083	 6.08746203576678E-02 
2084	 6.09414513504597E-02 
2085	 6.10311499037333E-02 
2086	 6.11291716668126E-02 
2087	 6.12198194033631E-02 
2088	 6.13144262244896E-02 
2089	 6.14169997839652E-02 
2090	 6.15152487246514E-02 
2091	 6.16181046803211E-02 
2092	 6.17515122379307E-02 
2093	 6.18521299638668E-02 
2094	 6.19189446303814E-02 
2095	 6.20106989785931E-02 
2096	 6.21024211581656E-02 
2097	 6.21950234841373E-02 
2098	 0.0622910394896 
2099	 6.24074986038109E-02 
2100	 6.25146778680169E-02 
2101	 0.062615662055011 
2102	 6.27219277437576E-02 
2103	 6.28397671757841E-02 
2104	 6.29457029773065E-02 
2105	 6.30368393687911E-02 
2106	 6.31450434838117E-02 
2107	 6.32592370039635E-02 
2108	 6.33731483436615E-02 
2109	 6.34947402458295E-02 
2110	 6.36189898290913E-02 
2111	 6.37443272496375E-02 
2112	 6.38683880024005E-02 
2113	 6.40075185971965E-02 
2114	 6.41295956501123E-02 
2115	 6.42433277311675E-02 
2116	 6.43425050775102E-02 
2117	 6.44611753220909E-02 
2118	 6.45799948342301E-02 
2119	 6.46947139472813E-02 
2120	 6.48152552765697E-02 
2121	 6.49382612698397E-02 
2122	 0.065046452923657 
2123	 6.51749908648278E-02 
2124	 0.065334034338375 
2125	 6.54707709844497E-02 
2126	 6.56073269019086E-02 
2127	 6.57355817459805E-02 
2128	 6.58599416574024E-02 
2129	 6.59686873656184E-02 
2130	 0.066064723408127 
2131	 6.61460546639307E-02 
2132	 6.62512512290916E-02 
2133	 6.63570629855397E-02 
2134	 0.066454068763598 
2135	 6.65732419691011E-02 
2136	 6.66624621368077E-02 
2137	 6.67050131167574E-02 
2138	 6.67932052550849E-02 
2139	 6.69039784110216E-02 
2140	 6.69986947381307E-02 
2141	 6.71146941373736E-02 
2142	 6.72080099116542E-02 
2143	 6.72775075760133E-02 
2144	 6.73493262116884E-02 
2145	 6.74191181227474E-02 
2146	 6.74823341678392E-02 
2147	 6.75424048797864E-02 
2148	 6.75930484277036E-02 
2149	 6.76348604899638E-02 
2150	 6.76637212465088E-02 
2151	 6.76983230355754E-02 
2152	 6.77216644719435E-02 
2153	 6.77590094686916E-02 
2154	 6.77987781381373E-02 
2155	 6.78497454372855E-02 
2156	 6.79229043480966E-02 
2157	 6.79716766241344E-02 
2158	 6.80218216793015E-02 
2159	 6.80608409487581E-02 
2160	 6.80801310824509E-02 
2161	 6.80996110816348E-02 
2162	 6.81045991426868E-02 
2163	 6.81269837853656E-02 
2164	 6.81702503049963E-02 
2165	 6.81849105518804E-02 
2166	 6.82011134871422E-02 
2167	 6.82286783930909E-02 
2168	 6.82343245890526E-02 
2169	 0.068210704034258 
2170	 6.82110641147899E-02 
2171	 6.82173585845156E-02 
2172	 6.82204610107197E-02 
2173	 6.82220303897843E-02 
2174	 0.068231682142447 
2175	 6.82508089173268E-02 
2176	 6.82584815913186E-02 
2177	 6.82703867762268E-02 
2178	 6.82770349619765E-02 
2179	 6.82742149621155E-02 
2180	 6.82667485625079E-02 
2181	 6.82445403054614E-02 
2182	 6.82407626803314E-02 
2183	 6.82428459663626E-02 
2184	 6.82494323317775E-02 
2185	 6.82411173547705E-02 
2186	 6.82394209555276E-02 
2187	 6.82354615835153E-02 
2188	 0.068204881893757 
2189	 6.82068168308668E-02 
2190	 6.82436042103574E-02 
2191	 6.82504834735067E-02 
2192	 6.82462148891915E-02 
2193	 6.82526774067303E-02 
2194	 6.82718895311643E-02 
2195	 6.82586581677157E-02 
2196	 6.82268264177626E-02 
2197	 6.82096569697844E-02 
2198	 6.81548816047938E-02 
2199	 6.81357813376394E-02 
2200	 6.81690954776572E-02 
2201	 6.81732502361828E-02 
2202	 6.81624795070416E-02 
2203	 6.81634558751656E-02 
2204	 6.81810517624564E-02 
2205	 0.068200347239996 
2206	 6.82225222914815E-02 
2207	 6.82777841744884E-02 
2208	 6.82947128938899E-02 
2209	 6.82779686432085E-02 
2210	 6.82889227998582E-02 
2211	 6.83034054216502E-02 
2212	 6.83164721505895E-02 
2213	 6.83451569397168E-02 
2214	 6.83595633028092E-02 
2215	 6.83525004435877E-02 
2216	 6.83683863539727E-02 
2217	 6.83934743599692E-02 
2218	 6.84148750505763E-02 
2219	 6.84543435394935E-02 
2220	 6.84800355076745E-02 
2221	 6.84941401840195E-02 
2222	 6.85066168728479E-02 
2223	 6.85233286731002E-02 
2224	 6.85498063790804E-02 
2225	 6.85758449267613E-02 
2226	 6.86135370433192E-02 
2227	 6.86347749457547E-02 
2228	 6.86467967342533E-02 
2229	 0.068665299120761 
2230	 6.86820699348157E-02 
2231	 6.86962461443473E-02 
2232	 6.87065563084219E-02 
2233	 6.87310053996109E-02 
2234	 0.068760920839166 
2235	 0.068784238966473 
2236	 6.88190459086083E-02 
2237	 6.88465456564943E-02 
2238	 6.88638471015225E-02 
2239	 6.88797919633302E-02 
2240	 6.88919274898989E-02 
2241	 6.89098918843962E-02 
2242	 6.89403960290476E-02 
2243	 6.89452388183034E-02 
2244	 6.89284291097727E-02 
2245	 6.89374558135034E-02 
2246	 6.89212597286602E-02 
2247	 6.88971359398265E-02 
2248	 6.88872414839615E-02 
2249	 6.88968013919837E-02 
2250	 6.88836902397136E-02 
2251	 6.88648375642225E-02 
2252	 6.88403235503304E-02 
2253	 6.87949866580872E-02 
2254	 0.068776578603197 
2255	 6.87792047962236E-02 
2256	 6.87486927714593E-02 
2257	 6.87117178878103E-02 
2258	 6.86879524466085E-02 
2259	 6.86442832520947E-02 
2260	 0.068607899661538 
2261	 6.85858305355371E-02 
2262	 6.85686211251075E-02 
2263	 6.85518790160703E-02 
2264	 6.85304729681234E-02 
2265	 6.85313136529639E-02 
2266	 6.85116683723335E-02 
2267	 6.84610810576036E-02 
2268	 6.84236462539825E-02 
2269	 6.83837718712718E-02 
2270	 6.83531940812224E-02 
2271	 6.83546227702532E-02 
2272	 6.83152734614345E-02 
2273	 0.068218464903619 
2274	 6.81237467920412E-02 
2275	 6.80274476975656E-02 
2276	 6.78709133317049E-02 
2277	 6.77983444436645E-02 
2278	 6.77912787899696E-02 
2279	 6.77290246687429E-02 
2280	 0.067682456338645 
2281	 6.75949622354368E-02 
2282	 6.74564034069286E-02 
2283	 6.73505410198198E-02 
2284	 6.72456847268915E-02 
2285	 6.71412489753897E-02 
2286	 6.70535961714051E-02 
2287	 6.69451740063863E-02 
2288	 6.68143129461572E-02 
2289	 6.66941541671098E-02 
2290	 6.65754939970269E-02 
2291	 6.64510812193459E-02 
2292	 6.63292522021523E-02 
2293	 0.066205247601691 
2294	 6.60681089797591E-02 
2295	 6.59367266133837E-02 
2296	 6.58049898378425E-02 
2297	 6.56832587494478E-02 
2298	 0.065566061508706 
2299	 6.54492207624347E-02 
2300	 6.53278457915324E-02 
2301	 6.52237985693423E-02 
2302	 6.51327569861011E-02 
2303	 6.50246417511029E-02 
2304	 6.48883903737806E-02 
2305	 6.47422676716074E-02 
2306	 6.46022696488207E-02 
2307	 6.44267740505025E-02 
2308	 6.42998518827182E-02 
2309	 6.42107791056249E-02 
2310	 6.40985971282314E-02 
2311	 6.40175232039253E-02 
2312	 6.38682243837375E-02 
2313	 6.36553289117513E-02 
2314	 6.35063402564701E-02 
2315	 6.33350428408868E-02 
2316	 6.31997503093577E-02 
2317	 6.31457727408805E-02 
2318	 6.30289055512804E-02 
2319	 6.28958837680151E-02 
2320	 6.27448830156407E-02 
2321	 6.25561644705031E-02 
2322	 6.23897574025074E-02 
2323	 6.21935622003831E-02 
2324	 6.20393028544596E-02 
2325	 6.19467835336897E-02 
2326	 6.18084137452121E-02 
2327	 6.16755800674894E-02 
2328	 6.15197788812411E-02 
2329	 6.13280958464992E-02 
2330	 6.11349432642506E-02 
2331	 6.09568060065775E-02 
2332	 6.08039518565046E-02 
2333	 6.06880566836245E-02 
2334	 6.05246690269363E-02 
2335	 6.03558515243291E-02 
2336	 6.02546681556974E-02 
2337	 6.01517389255347E-02 
2338	 6.00345812622782E-02 
2339	 5.98586237122292E-02 
2340	 5.96361604902829E-02 
2341	 5.94485280246549E-02 
2342	 5.92650035418401E-02 
2343	 5.91238180463238E-02 
2344	 5.89556641988688E-02 
2345	 5.87425955141089E-02 
2346	 5.84099963584123E-02 
2347	 5.82375183345874E-02 
2348	 5.81360562105319E-02 
2349	 5.79950620051434E-02 
2350	 5.79588027529089E-02 
2351	 5.77856272700181E-02 
2352	 5.74882879489982E-02 
2353	 5.72507399998662E-02 
2354	 5.69804916221976E-02 
2355	 5.67502829943805E-02 
2356	 0.056569075801838 
2357	 5.63515328419068E-02 
2358	 5.61154948687873E-02 
2359	 5.59035415608707E-02 
2360	 5.56713615122364E-02 
2361	 5.54821440948944E-02 
2362	 0.055370878515124 
2363	 5.51897090575849E-02 
2364	 5.49847200246553E-02 
2365	 0.054765475495463 
2366	 5.45026143756277E-02 
2367	 0.054274990950539 
2368	 5.40546064916579E-02 
2369	 0.053827422165949 
2370	 5.36283102242909E-02 
2371	 5.33718034739996E-02 
2372	 5.30832195982856E-02 
2373	 5.29109933107726E-02 
2374	 5.27893350284508E-02 
2375	 5.26237565980957E-02 
2376	 5.24746096454638E-02 
2377	 5.23079379440103E-02 
2378	 5.20491368077163E-02 
2379	 5.17602008350626E-02 
2380	 5.15211540349365E-02 
2381	 5.13240043603446E-02 
2382	 5.11178332858119E-02 
2383	 5.09818021752425E-02 
2384	 5.07913212067504E-02 
2385	 5.05265157036931E-02 
2386	 5.03007745168922E-02 
2387	 5.00049052480231E-02 
2388	 4.98053536559091E-02 
2389	 4.96623811392154E-02 
2390	 4.94451019514245E-02 
2391	 4.92911374799458E-02 
2392	 0.04910456579203 
2393	 4.88319500113348E-02 
2394	 4.86233939078263E-02 
2395	 4.84065912812567E-02 
2396	 4.81636930868835E-02 
2397	 4.79899222319279E-02 
2398	 4.77996296377637E-02 
2399	 0.047702255125811 
2400	 4.75534242452946E-02 
2401	 4.73185037606868E-02 
2402	 4.72123226190099E-02 
2403	 4.70025787009287E-02 
2404	 4.67631142431698E-02 
2405	 4.66504247333675E-02 
2406	 4.65024865824781E-02 
2407	 4.63727302169293E-02 
2408	 4.63405968979333E-02 
2409	 4.62848684696656E-02 
2410	 4.60980110591977E-02 
2411	 4.58083387467003E-02 
2412	 4.55465112256996E-02 
2413	 4.52956819760885E-02 
2414	 4.50037085853543E-02 
2415	 4.48152700739406E-02 
2416	 4.47104000704655E-02 
2417	 4.46960003133284E-02 
2418	 4.45844847983163E-02 
2419	 4.45758894082872E-02 
2420	 4.44620698314396E-02 
2421	 4.41575820759062E-02 
2422	 4.39801637587766E-02 
2423	 4.38608002411761E-02 
2424	 4.37125711930367E-02 
2425	 4.36159970456038E-02 
2426	 4.34754015338831E-02 
2427	 4.33050215840642E-02 
2428	 4.31727206926781E-02 
2429	 4.30558933356651E-02 
2430	 4.28371569173594E-02 
2431	 4.25480535058451E-02 
2432	 4.23029316972501E-02 
2433	 4.19843605442051E-02 
2434	 4.17950199341957E-02 
2435	 4.17524845116517E-02 
2436	 4.16593246865851E-02 
2437	 0.041569242291006 
2438	 4.14187981399436E-02 
2439	 4.12189299440364E-02 
2440	 4.11010095842348E-02 
2441	 4.09948065784265E-02 
2442	 4.08963878744144E-02 
2443	 4.09037305968074E-02 
2444	 4.07868310416014E-02 
2445	 4.05856165766584E-02 
2446	 4.04375360028518E-02 
2447	 4.02100907603318E-02 
2448	 4.00720043339361E-02 
2449	 4.00171572960182E-02 
2450	 3.99279766470566E-02 
2451	 3.99169229185308E-02 
2452	 3.98489684095436E-02 
2453	 3.96974694546386E-02 
2454	 0.039543712768378 
2455	 0.039361876626562 
2456	 3.92143822772877E-02 
2457	 0.039101549876458 
2458	 3.89621814874849E-02 
2459	 3.87392031434083E-02 
2460	 3.86417837392026E-02 
2461	 3.87028255621156E-02 
2462	 3.86305318018711E-02 
2463	 0.038567235733371 
2464	 3.85868714260487E-02 
2465	 3.84761213630571E-02 
2466	 0.038320074709118 
2467	 0.038284166082107 
2468	 3.81804477107275E-02 
2469	 3.79223649131056E-02 
2470	 3.80000190950088E-02 
2471	 3.79625838313922E-02 
2472	 3.78405971249756E-02 
2473	 3.77990972744997E-02 
2474	 3.76440754497131E-02 
2475	 3.74350008994441E-02 
2476	 3.73757491859767E-02 
2477	 3.73061615034042E-02 
2478	 3.72257304880504E-02 
2479	 3.72832468921956E-02 
2480	 3.71905703362043E-02 
2481	 3.70016869301461E-02 
2482	 3.69208765606248E-02 
2483	 3.67657505308958E-02 
2484	 3.67648292315266E-02 
2485	 3.67980164110488E-02 
2486	 3.66966503347685E-02 
2487	 3.65823578720768E-02 
2488	 0.036307651219036 
2489	 3.60180431981995E-02 
2490	 3.57353074282868E-02 
2491	 3.54902970194022E-02 
2492	 3.54536832837696E-02 
2493	 3.54811268965243E-02 
2494	 3.54280237476839E-02 
2495	 3.55411754436922E-02 
2496	 0.035761244280734 
2497	 3.57141142011918E-02 
2498	 3.56691857057913E-02 
2499	 3.55888260407891E-02 
2500	 0.035283512941843 
