Wavelength	lmw-9-300006.asd
350	 7.14112367530837E-02 
351	 6.50087510789164E-02 
352	 5.18393391362014E-02 
353	 4.10818177557113E-02 
354	 4.59701223798208E-02 
355	 5.20738200949188E-02 
356	 5.01704098101763E-02 
357	 3.95837043531585E-02 
358	 4.21573550199737E-02 
359	 4.62834602659182E-02 
360	 4.80721215152354E-02 
361	 4.89069181707712E-02 
362	 4.24301506029868E-02 
363	 4.00994556644349E-02 
364	 4.42123685993503E-02 
365	 3.96661873857672E-02 
366	 3.88071010718558E-02 
367	 4.13950000628299E-02 
368	 4.34745472926346E-02 
369	 4.12419683027074E-02 
370	 3.91482898191985E-02 
371	 3.87101627307641E-02 
372	 3.93187921228641E-02 
373	 4.36838553568364E-02 
374	 4.33791504557365E-02 
375	 3.72122685018978E-02 
376	 3.85608912736728E-02 
377	 0.038459668394523 
378	 3.97811463225474E-02 
379	 4.53363247753233E-02 
380	 4.33798124201622E-02 
381	 3.98191072734077E-02 
382	 3.96072767247123E-02 
383	 4.52043197714275E-02 
384	 4.48690816345793E-02 
385	 4.22423211034798E-02 
386	 4.16916599048373E-02 
387	 4.46876829978388E-02 
388	 4.56015433884974E-02 
389	 4.52843000891471E-02 
390	 4.58986408291676E-02 
391	 4.44275289874534E-02 
392	 4.55459658964031E-02 
393	 4.92023332180767E-02 
394	 5.13077089621593E-02 
395	 0.053920986204756 
396	 5.49543302122908E-02 
397	 5.41578189860168E-02 
398	 5.65731320914667E-02 
399	 5.86593719391179E-02 
400	 6.03230099477494E-02 
401	 6.23977802550385E-02 
402	 6.34493627730931E-02 
403	 0.065119749038422 
404	 6.74257136060485E-02 
405	 6.87038166808497E-02 
406	 7.06031130528387E-02 
407	 7.33237812073273E-02 
408	 7.60295772182531E-02 
409	 7.57798324338157E-02 
410	 7.65392078893154E-02 
411	 7.84967845302393E-02 
412	 8.01473337129483E-02 
413	 0.082197566333398 
414	 8.31844043154106E-02 
415	 8.29836914557477E-02 
416	 8.33091211616124E-02 
417	 8.40727924351196E-02 
418	 8.48879372507062E-02 
419	 0.085392924602568 
420	 0.085827578974897 
421	 8.49581030539155E-02 
422	 8.41636711222404E-02 
423	 8.59312635930058E-02 
424	 8.53238326044677E-02 
425	 8.42607377275072E-02 
426	 0.084322666314567 
427	 8.48949980765967E-02 
428	 8.56718582407174E-02 
429	 8.65339142842927E-02 
430	 8.74541855640167E-02 
431	 8.83351685128719E-02 
432	 8.96711487412182E-02 
433	 9.18599237058449E-02 
434	 9.51374612142536E-02 
435	 9.86430394516697E-02 
436	 0.102385406942915 
437	 0.106408315973831 
438	 0.110232743602953 
439	 0.114591473397117 
440	 0.119260400524296 
441	 0.123597223154032 
442	 0.127961546001523 
443	 0.132365578418521 
444	 0.136595052050429 
445	 0.140106801083091 
446	 0.144066075997448 
447	 0.148178959640902 
448	 0.15187674532205 
449	 0.15535959308778 
450	 0.159109098776002 
451	 0.163043480461856 
452	 0.166630767533071 
453	 0.169950041729034 
454	 0.173156249194511 
455	 0.176435352242295 
456	 0.18006155124009 
457	 0.183259529376052 
458	 0.186041921704152 
459	 0.188835365292642 
460	 0.192113534070457 
461	 0.1952715430153 
462	 0.198063965567371 
463	 0.200871140092946 
464	 0.203801550425757 
465	 0.206728489947485 
466	 0.209515761374715 
467	 0.212321153431369 
468	 0.21506612982645 
469	 0.217690504296027 
470	 0.220168766908856 
471	 0.222725655379578 
472	 0.22518983783723 
473	 0.227527895068633 
474	 0.230235892538665 
475	 0.232522130323997 
476	 0.234633096972257 
477	 0.237145627122891 
478	 0.239395471026234 
479	 0.241547734752098 
480	 0.243639791785843 
481	 0.245435480426736 
482	 0.247313883659413 
483	 0.2491367678013 
484	 0.25072029020332 
485	 0.252322337432695 
486	 0.253900970551355 
487	 0.25532586471948 
488	 0.256446520107752 
489	 0.257943666035601 
490	 0.259343604653168 
491	 0.260305475045838 
492	 0.261321712913674 
493	 0.262117714352705 
494	 0.262825963287363 
495	 0.263715226779829 
496	 0.264611198214412 
497	 0.265140521493193 
498	 0.265327450059186 
499	 0.265800212457134 
500	 0.266125154801959 
501	 0.2663131271108 
502	 0.266493035115377 
503	 0.266733483849648 
504	 0.266925184305383 
505	 0.267053937878127 
506	 0.267192778350748 
507	 0.267244839496715 
508	 0.267194558285132 
509	 0.267064604074056 
510	 0.26693085544246 
511	 0.266732752220863 
512	 0.2665006822772 
513	 0.266311816558796 
514	 0.266191446266853 
515	 0.266119409191073 
516	 0.266020569426886 
517	 0.265730071837594 
518	 0.265440138258339 
519	 0.265145229624316 
520	 0.264809668405426 
521	 0.264602484250961 
522	 0.264347675479612 
523	 0.264026302916392 
524	 0.263799768885592 
525	 0.263671958888098 
526	 0.263447426717744 
527	 0.263066481792376 
528	 0.263054556885847 
529	 0.262951933688192 
530	 0.262695815899282 
531	 0.262484212832361 
532	 0.262244880759049 
533	 0.262049931518235 
534	 0.261936035200619 
535	 0.261837072110823 
536	 0.261735135494252 
537	 0.261704472003264 
538	 0.261802545047729 
539	 0.261709118872444 
540	 0.261613093910216 
541	 0.261613797585287 
542	 0.261637224594576 
543	 0.261703003177832 
544	 0.261839309343274 
545	 0.262042981115683 
546	 0.262184548584943 
547	 0.262305291828741 
548	 0.262438420496788 
549	 0.262604406300276 
550	 0.262795627005865 
551	 0.262995999283189 
552	 0.263206114083341 
553	 0.263472928073999 
554	 0.263780778280028 
555	 0.26410755838138 
556	 0.264436944527592 
557	 0.264846672153796 
558	 0.265277885496948 
559	 0.2657203901844 
560	 0.266284268160064 
561	 0.266801087569107 
562	 0.267325051006151 
563	 0.267945397316101 
564	 0.268496257843713 
565	 0.268998221352798 
566	 0.269487791210394 
567	 0.27000560456318 
568	 0.270597731428632 
569	 0.271171465008048 
570	 0.271702201643183 
571	 0.272522516288154 
572	 0.273330481935248 
573	 0.27407600398902 
574	 0.274886070343543 
575	 0.275644509063355 
576	 0.276554513071033 
577	 0.277687801001257 
578	 0.278723501575805 
579	 0.279830134497847 
580	 0.281051996492248 
581	 0.282364445806143 
582	 0.283633719375438 
583	 0.284784094220592 
584	 0.285807878196936 
585	 0.286785814332586 
586	 0.287662047495967 
587	 0.288570219263324 
588	 0.289649628014895 
589	 0.290833407306322 
590	 0.292031136592207 
591	 0.293214985402141 
592	 0.294418306412674 
593	 0.295580877660681 
594	 0.296741128424553 
595	 0.297965367320396 
596	 0.299362745527513 
597	 0.300728597717617 
598	 0.302021716252962 
599	 0.303299623952114 
600	 0.304582195721671 
601	 0.305795952881025 
602	 0.306982921870918 
603	 0.308431917919179 
604	 0.309830828173605 
605	 0.311125336910228 
606	 0.312383405962527 
607	 0.313794360761819 
608	 0.31521626961049 
609	 0.316538598155925 
610	 0.317716817130774 
611	 0.318881317200432 
612	 0.320046604922375 
613	 0.321183954218919 
614	 0.322236058030935 
615	 0.323302028193818 
616	 0.324384668184866 
617	 0.325416200060377 
618	 0.326426804042924 
619	 0.327472718779758 
620	 0.32854206566246 
621	 0.329461160730661 
622	 0.330317147733829 
623	 0.331201261894239 
624	 0.332169349092001 
625	 0.332990349917995 
626	 0.333794645656742 
627	 0.334636063111074 
628	 0.33542770229824 
629	 0.33617716817686 
630	 0.33693190079293 
631	 0.337720003605488 
632	 0.338444917937124 
633	 0.339107890776001 
634	 0.339701276673456 
635	 0.340218053775174 
636	 0.34076792767947 
637	 0.341345295459419 
638	 0.341908329919785 
639	 0.342373308380237 
640	 0.342925807824452 
641	 0.343455563270302 
642	 0.343770021491878 
643	 0.344203057092217 
644	 0.34462165668747 
645	 0.344936616741633 
646	 0.345182285242686 
647	 0.345508427809503 
648	 0.345855876695296 
649	 0.346118089006611 
650	 0.346285598811976 
651	 0.346443602703697 
652	 0.34661841026966 
653	 0.346779564989911 
654	 0.346879810136284 
655	 0.346977421510507 
656	 0.347097402164929 
657	 0.347131604457873 
658	 0.347123332518448 
659	 0.34710051162376 
660	 0.347077040361523 
661	 0.347003998026446 
662	 0.346889312647995 
663	 0.346742118319126 
664	 0.346562504432529 
665	 0.346433338731416 
666	 0.346257362459121 
667	 0.345966412052326 
668	 0.345845859402082 
669	 0.345654017561049 
670	 0.345355750008135 
671	 0.345090465670431 
672	 0.344717316784115 
673	 0.34433633577276 
674	 0.344005512770129 
675	 0.343584723596554 
676	 0.343174713736764 
677	 0.342748736383578 
678	 0.342255303330206 
679	 0.341883530421216 
680	 0.3414272329475 
681	 0.340838977667872 
682	 0.340317783759412 
683	 0.339869898709226 
684	 0.339403090267957 
685	 0.338825891051753 
686	 0.338154061609749 
687	 0.337493013311475 
688	 0.336888697663108 
689	 0.336327222233726 
690	 0.335648171762856 
691	 0.334981836314492 
692	 0.334398925171521 
693	 0.333773035946178 
694	 0.333036883268107 
695	 0.332266405760412 
696	 0.331560390204644 
697	 0.330793726498937 
698	 0.330026984334508 
699	 0.329286192950299 
700	 0.328550332599114 
701	 0.327794275046422 
702	 0.327006299642075 
703	 0.32618317833211 
704	 0.325320616826324 
705	 0.324511677266143 
706	 0.323750815638538 
707	 0.322968672098557 
708	 0.322054814111321 
709	 0.321156659041421 
710	 0.320339157309385 
711	 0.319508069420071 
712	 0.318624032616328 
713	 0.317711887749394 
714	 0.316829260386201 
715	 0.31609006609452 
716	 0.315243865491105 
717	 0.314257094827166 
718	 0.313273953962961 
719	 0.312465464203519 
720	 0.311650698041639 
721	 0.310716778166316 
722	 0.309781690581926 
723	 0.308802456702161 
724	 0.307828639607252 
725	 0.306920943245205 
726	 0.306050886372166 
727	 0.305145849675366 
728	 0.30420806646638 
729	 0.303308138357444 
730	 0.302417147187125 
731	 0.301488669076066 
732	 0.300497159211782 
733	 0.299447222567726 
734	 0.298580280112957 
735	 0.297763389429751 
736	 0.296766597439984 
737	 0.295844830677946 
738	 0.294911595642462 
739	 0.293950186242973 
740	 0.293043204192171 
741	 0.292155803990602 
742	 0.291270740429007 
743	 0.290382509628928 
744	 0.289518652617781 
745	 0.288563886723117 
746	 0.287606743730154 
747	 0.286791141806208 
748	 0.285895046105078 
749	 0.285045490367039 
750	 0.284267958913711 
751	 0.283429922799172 
752	 0.282511927614873 
753	 0.281600606161662 
754	 0.28076673489132 
755	 0.27994995022885 
756	 0.279223593272186 
757	 0.278494246457045 
758	 0.277621736963007 
759	 0.276786964194594 
760	 0.27599862133948 
761	 0.275237314641736 
762	 0.274470635473219 
763	 0.273747796508746 
764	 0.273024775016409 
765	 0.272279167507822 
766	 0.271615010735812 
767	 0.270959806984541 
768	 0.270267274621411 
769	 0.269520935638283 
770	 0.268794851915148 
771	 0.268141193526103 
772	 0.267546689968948 
773	 0.266927223311694 
774	 0.266350052539879 
775	 0.26575854252309 
776	 0.265112279113013 
777	 0.264476471597886 
778	 0.263924572799228 
779	 0.263417136002608 
780	 0.262871983136195 
781	 0.262322180087524 
782	 0.261828043460454 
783	 0.261359331174996 
784	 0.260800142177739 
785	 0.260322224853577 
786	 0.259910034470756 
787	 0.259508738573158 
788	 0.259057289992926 
789	 0.258674423770632 
790	 0.258278812705871 
791	 0.257775937786427 
792	 0.25741624376629 
793	 0.257074571173039 
794	 0.256733937118402 
795	 0.256469265951495 
796	 0.256053294636885 
797	 0.255652207000415 
798	 0.255380831069449 
799	 0.255149355508535 
800	 0.254884487418206 
801	 0.254583559280473 
802	 0.254289104206879 
803	 0.254100886603729 
804	 0.253932893823746 
805	 0.253720985319463 
806	 0.253441554384758 
807	 0.253230879359596 
808	 0.253079210404985 
809	 0.252929750598584 
810	 0.2526941556063 
811	 0.252558376265303 
812	 0.252425118983264 
813	 0.252219293807944 
814	 0.252093566195572 
815	 0.252106931691985 
816	 0.252108381419847 
817	 0.251922533085214 
818	 0.251760114506033 
819	 0.251718506344477 
820	 0.251731624157342 
821	 0.251624129926074 
822	 0.251621869753157 
823	 0.251619042140898 
824	 0.251562409070395 
825	 0.251565262370812 
826	 0.251561876046379 
827	 0.251556164301093 
828	 0.251570875283497 
829	 0.251636477654613 
830	 0.251652132432669 
831	 0.251629243782429 
832	 0.251645612123502 
833	 0.251798161180216 
834	 0.251898125834199 
835	 0.25192286753542 
836	 0.252019414211863 
837	 0.252138093090298 
838	 0.252259692814754 
839	 0.252369536624464 
840	 0.252455400322462 
841	 0.252565947944002 
842	 0.252691044800737 
843	 0.252813707601755 
844	 0.252947674857709 
845	 0.253120073853562 
846	 0.253336313781149 
847	 0.253584160112911 
848	 0.253843167226089 
849	 0.254036909025261 
850	 0.254172647185155 
851	 0.254327754059264 
852	 0.254463937368706 
853	 0.254711954994799 
854	 0.255055713471064 
855	 0.255246329786493 
856	 0.255536780548632 
857	 0.255833652696524 
858	 0.256054192960885 
859	 0.256362236217257 
860	 0.256594642323381 
861	 0.256798518225742 
862	 0.257067983523535 
863	 0.257336153554903 
864	 0.257712785240186 
865	 0.258109786154462 
866	 0.258360485902867 
867	 0.25867785891259 
868	 0.259045583672671 
869	 0.259405148025094 
870	 0.259688982703688 
871	 0.259995437448205 
872	 0.260344342435384 
873	 0.260731158352582 
874	 0.261135130065198 
875	 0.261518045904224 
876	 0.261883956925648 
877	 0.262243912760765 
878	 0.262578903308199 
879	 0.263046716563181 
880	 0.263577712574762 
881	 0.264043037938243 
882	 0.264461559262351 
883	 0.264820895236781 
884	 0.265192572496189 
885	 0.265668288009874 
886	 0.266176865435177 
887	 0.2666572301621 
888	 0.267097985692249 
889	 0.267536361530661 
890	 0.268028268388309 
891	 0.268564972730897 
892	 0.269085632757356 
893	 0.269493114988965 
894	 0.269969824262962 
895	 0.27048512122396 
896	 0.270999392125003 
897	 0.271536168414646 
898	 0.272158746805245 
899	 0.272709015451084 
900	 0.273104255467135 
901	 0.27360264238947 
902	 0.27419393238795 
903	 0.274804658220367 
904	 0.275380975952672 
905	 0.276063197754186 
906	 0.276757811289756 
907	 0.277353722944727 
908	 0.277805261252845 
909	 0.278380448827588 
910	 0.279038320612502 
911	 0.279725673343802 
912	 0.280386836633455 
913	 0.280951689755904 
914	 0.281564371078211 
915	 0.282259959254592 
916	 0.282951806825884 
917	 0.283550903291216 
918	 0.284115118549223 
919	 0.28472596704435 
920	 0.285448702230719 
921	 0.286184169085975 
922	 0.286879050088457 
923	 0.287528159177118 
924	 0.288184508792112 
925	 0.288865375536793 
926	 0.289561345234217 
927	 0.290261619242084 
928	 0.290964803069919 
929	 0.291777282249401 
930	 0.292577545387732 
931	 0.29326143220436 
932	 0.293906316130057 
933	 0.294583110361609 
934	 0.295291344342504 
935	 0.29604001234354 
936	 0.296955709933197 
937	 0.297756175536054 
938	 0.298440120308906 
939	 0.299129322551564 
940	 0.299982840174571 
941	 0.300747915162395 
942	 0.301544108514506 
943	 0.302498347787711 
944	 0.303146580655664 
945	 0.303836416000022 
946	 0.304621953330714 
947	 0.305410104766647 
948	 0.306185287974266 
949	 0.306747039455194 
950	 0.307339289802444 
951	 0.308268859683319 
952	 0.308981836399527 
953	 0.309557945171512 
954	 0.310171495449922 
955	 0.310972813652258 
956	 0.311786639593288 
957	 0.312525492047135 
958	 0.313142164593393 
959	 0.313673612714948 
960	 0.314413147416783 
961	 0.315214717436806 
962	 0.315981978591916 
963	 0.316693499561673 
964	 0.317425876107415 
965	 0.318227094454148 
966	 0.319088115518862 
967	 0.319969245716802 
968	 0.320891106472105 
969	 0.321874649313101 
970	 0.322879816029912 
971	 0.323849780898091 
972	 0.324905692618983 
973	 0.32597298481942 
974	 0.326917573088636 
975	 0.327656354212717 
976	 0.328521230287206 
977	 0.329456300872454 
978	 0.330416142458714 
979	 0.331372944750661 
980	 0.332260503375723 
981	 0.333244173174639 
982	 0.334211294971495 
983	 0.334980447700938 
984	 0.335989805691411 
985	 0.337054918296098 
986	 0.338044812732105 
987	 0.338961269739779 
988	 0.340182439093263 
989	 0.341103321047834 
990	 0.341924619162652 
991	 0.343083580666609 
992	 0.343940802083625 
993	 0.344796898774302 
994	 0.34581840179946 
995	 0.347030450594914 
996	 0.348297586576542 
997	 0.349345798046706 
998	 0.350294230146299 
999	 0.351365339157883 
1000	 0.352503002384329 
1001	 0.35803388643842 
1002	 0.359036679386058 
1003	 0.360031732577956 
1004	 0.361050053770647 
1005	 0.362176543573663 
1006	 0.363194848120748 
1007	 0.364171769535425 
1008	 0.365094697129006 
1009	 0.36604562495336 
1010	 0.367006772662267 
1011	 0.36806791281334 
1012	 0.369208509246861 
1013	 0.37030609597492 
1014	 0.371356969087738 
1015	 0.372343331770188 
1016	 0.373334522683689 
1017	 0.374351074419989 
1018	 0.375364921985238 
1019	 0.376384118852022 
1020	 0.377407700053212 
1021	 0.378368715245991 
1022	 0.379287494938884 
1023	 0.380229290413504 
1024	 0.381190214550302 
1025	 0.38217523296008 
1026	 0.383138419797779 
1027	 0.38402269825314 
1028	 0.384941766611595 
1029	 0.385890115468354 
1030	 0.386794024421421 
1031	 0.387685948349832 
1032	 0.388605260193809 
1033	 0.389471603957451 
1034	 0.390286434503814 
1035	 0.391129867515294 
1036	 0.392005146547825 
1037	 0.392907725943852 
1038	 0.39380662887336 
1039	 0.394662742368375 
1040	 0.395493733974313 
1041	 0.396344659013027 
1042	 0.397230589376591 
1043	 0.398095975453319 
1044	 0.39891919697203 
1045	 0.399734055391819 
1046	 0.4005382593742 
1047	 0.401282021042822 
1048	 0.402026327309844 
1049	 0.402872073171431 
1050	 0.403729513761788 
1051	 0.404531441264366 
1052	 0.405339310594441 
1053	 0.406156842315315 
1054	 0.4069493423195 
1055	 0.40773500463792 
1056	 0.408556215405908 
1057	 0.40936975813677 
1058	 0.410160045726181 
1059	 0.410956620185302 
1060	 0.411765970438921 
1061	 0.412575178505221 
1062	 0.413355175707339 
1063	 0.414143194211452 
1064	 0.414982148379624 
1065	 0.415797021824047 
1066	 0.416559511153084 
1067	 0.417315425238191 
1068	 0.418055165299219 
1069	 0.418862411277303 
1070	 0.419683948358856 
1071	 0.420600206402699 
1072	 0.421427798278732 
1073	 0.422206315142973 
1074	 0.423001172591907 
1075	 0.423789293483832 
1076	 0.424534471382479 
1077	 0.42530600884456 
1078	 0.426076425175419 
1079	 0.426793303220592 
1080	 0.427527662845428 
1081	 0.42822154865349 
1082	 0.428954480455185 
1083	 0.429688968667992 
1084	 0.430423397952822 
1085	 0.431128346435461 
1086	 0.431873648770534 
1087	 0.432525589967891 
1088	 0.433082820896306 
1089	 0.433707897698198 
1090	 0.434328708056505 
1091	 0.434889291081404 
1092	 0.435479606076939 
1093	 0.436076708070701 
1094	 0.436633742716419 
1095	 0.437168797635849 
1096	 0.437681322956602 
1097	 0.438127850671823 
1098	 0.438581124668087 
1099	 0.439021855735627 
1100	 0.439439205725724 
1101	 0.439857844318511 
1102	 0.440231315434886 
1103	 0.44056899675062 
1104	 0.440858306942883 
1105	 0.441222700804543 
1106	 0.441555573268561 
1107	 0.441835198692447 
1108	 0.442139843233871 
1109	 0.442333577663386 
1110	 0.442477956925136 
1111	 0.442657031537433 
1112	 0.442847425107209 
1113	 0.443006356829469 
1114	 0.443163038906255 
1115	 0.443306494423997 
1116	 0.44343699532004 
1117	 0.443539526258922 
1118	 0.443630619271711 
1119	 0.443699905346151 
1120	 0.443750288160623 
1121	 0.443767999354851 
1122	 0.443775594960648 
1123	 0.44378684013683 
1124	 0.443759611061993 
1125	 0.443717658594167 
1126	 0.443639157307573 
1127	 0.443529552133724 
1128	 0.443393319164801 
1129	 0.443241474249321 
1130	 0.443047738357344 
1131	 0.442854823579033 
1132	 0.442573947192467 
1133	 0.442226348316434 
1134	 0.441848725801315 
1135	 0.441436065708846 
1136	 0.44096940420684 
1137	 0.440433794531813 
1138	 0.439838973789965 
1139	 0.43912554049924 
1140	 0.438317790554952 
1141	 0.437412097409892 
1142	 0.436426788238578 
1143	 0.435337713350425 
1144	 0.43416001807299 
1145	 0.432872582171671 
1146	 0.43144307614577 
1147	 0.430017516067995 
1148	 0.428453318614337 
1149	 0.426954907193786 
1150	 0.425431824208203 
1151	 0.423958021215281 
1152	 0.422524240285845 
1153	 0.421187350327237 
1154	 0.420016507606376 
1155	 0.418910102489733 
1156	 0.418050345917231 
1157	 0.417341423303907 
1158	 0.41681713201256 
1159	 0.416507712270936 
1160	 0.416296949195285 
1161	 0.416279231861414 
1162	 0.416288020007507 
1163	 0.416471732930692 
1164	 0.416594811995966 
1165	 0.416764603580442 
1166	 0.416925622805629 
1167	 0.417003971300011 
1168	 0.417051720014747 
1169	 0.417072030626987 
1170	 0.417030902756437 
1171	 0.4170074480674 
1172	 0.416983540117417 
1173	 0.416931472547836 
1174	 0.416849485519797 
1175	 0.416777339710894 
1176	 0.416689294378638 
1177	 0.416603564505873 
1178	 0.416531914616127 
1179	 0.416437269916427 
1180	 0.416322619268372 
1181	 0.416212808136474 
1182	 0.41609676219767 
1183	 0.415973348651866 
1184	 0.41584903476747 
1185	 0.415726519827366 
1186	 0.415595796740286 
1187	 0.415457224795812 
1188	 0.415317376327253 
1189	 0.415180034242645 
1190	 0.415028638353639 
1191	 0.414863254401533 
1192	 0.414704292450654 
1193	 0.414534047960457 
1194	 0.414374640993199 
1195	 0.41423152286371 
1196	 0.414072185651031 
1197	 0.413886893782157 
1198	 0.413734545605644 
1199	 0.413593487672221 
1200	 0.41345207154657 
1201	 0.413327808227519 
1202	 0.413236396546926 
1203	 0.413126545563852 
1204	 0.413008787335273 
1205	 0.412903028219756 
1206	 0.412790619536187 
1207	 0.412708920741483 
1208	 0.41265885552399 
1209	 0.412585894247123 
1210	 0.412529483242508 
1211	 0.412458309922418 
1212	 0.41234825859827 
1213	 0.412268848638476 
1214	 0.412208208042091 
1215	 0.412144946426682 
1216	 0.412087104016397 
1217	 0.412045694665962 
1218	 0.41198757737818 
1219	 0.411923584182507 
1220	 0.411859523368418 
1221	 0.411789875705592 
1222	 0.411724234867202 
1223	 0.411659058832157 
1224	 0.411593128335069 
1225	 0.411528547507421 
1226	 0.411462478466885 
1227	 0.411401532969422 
1228	 0.411328469438973 
1229	 0.411248700269132 
1230	 0.411167115138619 
1231	 0.411063641483168 
1232	 0.410978555358297 
1233	 0.410901174131169 
1234	 0.410835421497295 
1235	 0.410759179927968 
1236	 0.410692803698765 
1237	 0.410612832336873 
1238	 0.410516818766012 
1239	 0.410430248931676 
1240	 0.410348894277514 
1241	 0.410259529133403 
1242	 0.410160695093093 
1243	 0.410073858445319 
1244	 0.409982325507747 
1245	 0.409902732922 
1246	 0.409842465716233 
1247	 0.409774606469947 
1248	 0.409724707208716 
1249	 0.409647315809695 
1250	 0.409553785691359 
1251	 0.409461259813403 
1252	 0.409341285803776 
1253	 0.409183357103188 
1254	 0.409058376660564 
1255	 0.408943751012223 
1256	 0.408798765697846 
1257	 0.408666376470384 
1258	 0.4084966290736 
1259	 0.408258298887699 
1260	 0.408077295390728 
1261	 0.407908616965619 
1262	 0.407739403441541 
1263	 0.407595856239815 
1264	 0.407445658606903 
1265	 0.407284805223558 
1266	 0.407132755559137 
1267	 0.406993101258231 
1268	 0.40685120744889 
1269	 0.406708112491816 
1270	 0.406572318049811 
1271	 0.406408464796239 
1272	 0.406233894100503 
1273	 0.406056949902221 
1274	 0.405856492123322 
1275	 0.405669774707995 
1276	 0.405505866326366 
1277	 0.405302110933675 
1278	 0.40507298372821 
1279	 0.404853309319399 
1280	 0.404630503226897 
1281	 0.404384143455072 
1282	 0.404147949960223 
1283	 0.403873756625841 
1284	 0.403550514145479 
1285	 0.403224571632649 
1286	 0.402913741199487 
1287	 0.402605694367102 
1288	 0.402282233673031 
1289	 0.401973765374186 
1290	 0.401624954802495 
1291	 0.401223201997482 
1292	 0.400877247420456 
1293	 0.400546261564679 
1294	 0.4002020290491 
1295	 0.399900662665292 
1296	 0.399539912464751 
1297	 0.399136255219215 
1298	 0.398735414648887 
1299	 0.398313436554297 
1300	 0.397887201287564 
1301	 0.39747020704999 
1302	 0.397019613845915 
1303	 0.396544855754682 
1304	 0.396056880183055 
1305	 0.39557976686631 
1306	 0.395069507088942 
1307	 0.394540039728842 
1308	 0.393982401534052 
1309	 0.39336468832786 
1310	 0.392678428438493 
1311	 0.391991078991807 
1312	 0.391279892783541 
1313	 0.390536302791458 
1314	 0.389784555739304 
1315	 0.388969304960105 
1316	 0.388107588618379 
1317	 0.387213384206815 
1318	 0.38628326305082 
1319	 0.38531031530255 
1320	 0.384307973929439 
1321	 0.383264124920119 
1322	 0.382193987702123 
1323	 0.381053532722462 
1324	 0.379885787758876 
1325	 0.378655668118722 
1326	 0.377371581542975 
1327	 0.376075344462018 
1328	 0.374731314736221 
1329	 0.373369667155215 
1330	 0.371968994310387 
1331	 0.370542083754235 
1332	 0.369062353900152 
1333	 0.367536718430994 
1334	 0.366000002242821 
1335	 0.364420929975986 
1336	 0.362841374223256 
1337	 0.361237826130224 
1338	 0.359656532718858 
1339	 0.358064260904533 
1340	 0.356480178743941 
1341	 0.354902090427204 
1342	 0.353340298594592 
1343	 0.351766041265814 
1344	 0.350232651319318 
1345	 0.348720030690995 
1346	 0.347254061460143 
1347	 0.345802537749193 
1348	 0.344365639917553 
1349	 0.342966513218494 
1350	 0.341558833519493 
1351	 0.340197281751637 
1352	 0.33886861950916 
1353	 0.337550505848472 
1354	 0.336258061346242 
1355	 0.334983073850411 
1356	 0.333727825976996 
1357	 0.332467693274712 
1358	 0.331208231890824 
1359	 0.329972582654413 
1360	 0.328753203230098 
1361	 0.327537191207318 
1362	 0.326361069108342 
1363	 0.325160775782427 
1364	 0.323946949278882 
1365	 0.322727595220764 
1366	 0.321511515457464 
1367	 0.320279122267206 
1368	 0.319043802249823 
1369	 0.31780969401476 
1370	 0.316501503597123 
1371	 0.315148707138599 
1372	 0.31376381941765 
1373	 0.312308651901788 
1374	 0.31078126181146 
1375	 0.309229517639478 
1376	 0.307534172371067 
1377	 0.305735700517706 
1378	 0.30383386111891 
1379	 0.301817810971128 
1380	 0.2997295286707 
1381	 0.29757450926538 
1382	 0.29526760390537 
1383	 0.292867539720634 
1384	 0.290347892625932 
1385	 0.287748488306715 
1386	 0.284968728057874 
1387	 0.282102975091156 
1388	 0.279044315760501 
1389	 0.275826044030536 
1390	 0.272390307915006 
1391	 0.268801918532197 
1392	 0.265019400677688 
1393	 0.261064878579354 
1394	 0.256997698915 
1395	 0.252743824742026 
1396	 0.248411053010093 
1397	 0.244027268226805 
1398	 0.23948904749803 
1399	 0.235001515403528 
1400	 0.230424183238693 
1401	 0.226007788736965 
1402	 0.22155948605033 
1403	 0.217337256034236 
1404	 0.213181704396832 
1405	 0.209328521490525 
1406	 0.205582510957588 
1407	 0.202181784110625 
1408	 0.199030204298372 
1409	 0.196201402430502 
1410	 0.193688183200649 
1411	 0.191424080583628 
1412	 0.189462761318927 
1413	 0.187754490119274 
1414	 0.186253812851368 
1415	 0.184887148489556 
1416	 0.18369779397664 
1417	 0.182601162239974 
1418	 0.181535276677238 
1419	 0.180522901155113 
1420	 0.179502593298352 
1421	 0.178501322336991 
1422	 0.177512208716758 
1423	 0.176512794204291 
1424	 0.175510481827746 
1425	 0.174497204269569 
1426	 0.173505015000222 
1427	 0.172504442152795 
1428	 0.171539909338601 
1429	 0.170596922256803 
1430	 0.169675764519181 
1431	 0.168772595771358 
1432	 0.167891024734854 
1433	 0.167037631311452 
1434	 0.166190388056114 
1435	 0.165365642028548 
1436	 0.16454766224893 
1437	 0.16373353205978 
1438	 0.162937501105801 
1439	 0.162162272098461 
1440	 0.161380803413451 
1441	 0.160614632519244 
1442	 0.159847253187997 
1443	 0.159069030053537 
1444	 0.158297901147337 
1445	 0.157532597327238 
1446	 0.1568054762576 
1447	 0.156095825963072 
1448	 0.155393106496855 
1449	 0.154696557059987 
1450	 0.154012326727364 
1451	 0.153380615719035 
1452	 0.15277959353175 
1453	 0.152199918487933 
1454	 0.151672779148162 
1455	 0.151138889566862 
1456	 0.150611298747073 
1457	 0.15009756869688 
1458	 0.149612895338082 
1459	 0.14910692306316 
1460	 0.148601389437344 
1461	 0.148093775216368 
1462	 0.147572384004046 
1463	 0.147063585861412 
1464	 0.146563733606697 
1465	 0.146056849740691 
1466	 0.145530897483199 
1467	 0.145044481649319 
1468	 0.144556903028785 
1469	 0.144105566210703 
1470	 0.143684623143134 
1471	 0.143296467402704 
1472	 0.142935391880797 
1473	 0.142611155924616 
1474	 0.142319349466689 
1475	 0.142059307460132 
1476	 0.141827425825659 
1477	 0.141625489861399 
1478	 0.141475832936928 
1479	 0.141362744699265 
1480	 0.141281972262751 
1481	 0.141242818333712 
1482	 0.141223665464338 
1483	 0.141240442578268 
1484	 0.14126162795806 
1485	 0.141308186743583 
1486	 0.141358998328319 
1487	 0.141416613159621 
1488	 0.141494811478283 
1489	 0.141598625056085 
1490	 0.141694228454831 
1491	 0.141806548819137 
1492	 0.141905911344739 
1493	 0.141999268755608 
1494	 0.142093249032905 
1495	 0.142184973998638 
1496	 0.142276531669311 
1497	 0.14237332946861 
1498	 0.142454805618239 
1499	 0.142527890446218 
1500	 0.142598183017118 
1501	 0.142657194356011 
1502	 0.142716604740655 
1503	 0.142775985026895 
1504	 0.142831752209252 
1505	 0.142886082209885 
1506	 0.142932362882256 
1507	 0.142960437927188 
1508	 0.142980150719336 
1509	 0.142998384778651 
1510	 0.143010053294755 
1511	 0.143028566829333 
1512	 0.143053557731666 
1513	 0.143073763022736 
1514	 0.143091506107477 
1515	 0.143089324253944 
1516	 0.143085262569462 
1517	 0.143080304600921 
1518	 0.143058786786414 
1519	 0.143047620914324 
1520	 0.143048919398197 
1521	 0.143035147968238 
1522	 0.143014687988476 
1523	 0.142989142472821 
1524	 0.142961324488861 
1525	 0.142924704050805 
1526	 0.142873864607331 
1527	 0.142830429396847 
1528	 0.14278758745716 
1529	 0.142740014382759 
1530	 0.142701587064959 
1531	 0.142640724112362 
1532	 0.142565407468702 
1533	 0.142479504695764 
1534	 0.142370203985736 
1535	 0.142277229848392 
1536	 0.142181665101501 
1537	 0.142090393690816 
1538	 0.142013957117751 
1539	 0.141919966860073 
1540	 0.141816664629802 
1541	 0.141715598820822 
1542	 0.141606126748403 
1543	 0.141501762097071 
1544	 0.141400247270478 
1545	 0.14129719878312 
1546	 0.141207593349474 
1547	 0.141090767923252 
1548	 0.140955668502929 
1549	 0.140827528491041 
1550	 0.140696490632541 
1551	 0.140564159346914 
1552	 0.140426337365075 
1553	 0.140301476934839 
1554	 0.140170970144456 
1555	 0.140022612815004 
1556	 0.139903936202367 
1557	 0.139789693089174 
1558	 0.139649436985025 
1559	 0.139506369576478 
1560	 0.139364086564183 
1561	 0.139212997282916 
1562	 0.139059225867717 
1563	 0.138911183825463 
1564	 0.13875373287807 
1565	 0.138583448230048 
1566	 0.138413961224553 
1567	 0.138239462774606 
1568	 0.1380711980087 
1569	 0.137897666341827 
1570	 0.137735288874913 
1571	 0.137587126906936 
1572	 0.137429099676916 
1573	 0.13726996064946 
1574	 0.137110306209522 
1575	 0.136945946446328 
1576	 0.136787152077209 
1577	 0.136641302602113 
1578	 0.13647169528289 
1579	 0.136283032522498 
1580	 0.136113415779026 
1581	 0.135930711930131 
1582	 0.135769128686239 
1583	 0.135646223861369 
1584	 0.135490519307661 
1585	 0.135322443068188 
1586	 0.135157732024928 
1587	 0.134984058653386 
1588	 0.134807984234869 
1589	 0.134628692695658 
1590	 0.13445299915378 
1591	 0.134270376406105 
1592	 0.134094543735892 
1593	 0.133925774776688 
1594	 0.133760406734804 
1595	 0.133603137671896 
1596	 0.133435958373206 
1597	 0.133270485367413 
1598	 0.133100219868983 
1599	 0.132925999391677 
1600	 0.132740869808384 
1601	 0.13254651024748 
1602	 0.13235382820199 
1603	 0.132144798277089 
1604	 0.131947149354631 
1605	 0.131755423483825 
1606	 0.131570851262155 
1607	 0.131402451036102 
1608	 0.131219817871333 
1609	 0.131043560758042 
1610	 0.130855086903638 
1611	 0.130664604428663 
1612	 0.130485922296161 
1613	 0.13030089148618 
1614	 0.130122112411747 
1615	 0.129940172194662 
1616	 0.129749747883805 
1617	 0.12956766103814 
1618	 0.129385027290284 
1619	 0.129193323805833 
1620	 0.128994028015801 
1621	 0.12879583183625 
1622	 0.128590452876767 
1623	 0.128392160073775 
1624	 0.128198941327782 
1625	 0.127998171535445 
1626	 0.127794015588031 
1627	 0.12759115267574 
1628	 0.127381565209977 
1629	 0.12718497885975 
1630	 0.126997570818982 
1631	 0.126803735271879 
1632	 0.126615315631365 
1633	 0.126415205418603 
1634	 0.126214609399113 
1635	 0.125994695903337 
1636	 0.125755535203124 
1637	 0.125533608314271 
1638	 0.125305818851008 
1639	 0.125077317723064 
1640	 0.124860463321925 
1641	 0.124634339174198 
1642	 0.124395388625955 
1643	 0.124162218123154 
1644	 0.123935286838878 
1645	 0.123700857835079 
1646	 0.123454472092424 
1647	 0.123222564633354 
1648	 0.123000600874077 
1649	 0.122768146525132 
1650	 0.122536483345193 
1651	 0.122305005107966 
1652	 0.122064868006075 
1653	 0.121832441263529 
1654	 0.121614687507984 
1655	 0.121375481998469 
1656	 0.121125313982182 
1657	 0.120877370337764 
1658	 0.120617351679537 
1659	 0.12036540347263 
1660	 0.120125657058046 
1661	 0.119865364460877 
1662	 0.119589708583928 
1663	 0.119326614978564 
1664	 0.119052884957007 
1665	 0.118794939359355 
1666	 0.118548739831279 
1667	 0.118309677750769 
1668	 0.118089334624991 
1669	 0.11784516515024 
1670	 0.117597416688127 
1671	 0.117353140170088 
1672	 0.117094231332438 
1673	 0.11684252865394 
1674	 0.116602967330112 
1675	 0.116358945979161 
1676	 0.116107998734876 
1677	 0.11586107538638 
1678	 0.115627999770935 
1679	 0.115374225544684 
1680	 0.115100632707088 
1681	 0.114843821797189 
1682	 0.114577235198561 
1683	 0.114332651267241 
1684	 0.114119790158643 
1685	 0.11387699484553 
1686	 0.113625739053868 
1687	 0.11338169294989 
1688	 0.113116042852961 
1689	 0.112879360233211 
1690	 0.112675943778565 
1691	 0.112446336565748 
1692	 0.112216844148224 
1693	 0.111980921888379 
1694	 0.111723884414512 
1695	 0.111485078263808 
1696	 0.111256011429632 
1697	 0.111023008092315 
1698	 0.110787508504125 
1699	 0.110566213971594 
1700	 0.110354181066549 
1701	 0.110137055467612 
1702	 0.1099369639951 
1703	 0.109716874933253 
1704	 0.109472539876454 
1705	 0.109250715895011 
1706	 0.109036206804314 
1707	 0.108813583196092 
1708	 0.108596808485201 
1709	 0.108380892239132 
1710	 0.108154982043826 
1711	 0.107940311740213 
1712	 0.107735589904113 
1713	 0.107532750315381 
1714	 0.107333389015618 
1715	 0.10712995942102 
1716	 0.106924916867646 
1717	 0.106735676267459 
1718	 0.106547141329299 
1719	 0.106370442425186 
1720	 0.106222091923832 
1721	 0.106044429256046 
1722	 0.10585500242081 
1723	 0.105675230340959 
1724	 0.10548522088681 
1725	 0.105302043938144 
1726	 0.105121723791295 
1727	 0.104950022800572 
1728	 0.104788131981051 
1729	 0.10461943333478 
1730	 0.104460220059762 
1731	 0.104295811241746 
1732	 0.104112029392933 
1733	 0.103952327898194 
1734	 0.103817268074685 
1735	 0.103646795187335 
1736	 0.103457716978302 
1737	 0.103306470124021 
1738	 0.103148513314757 
1739	 0.10301112961294 
1740	 0.102914695279849 
1741	 0.102794715486969 
1742	 0.102663599261343 
1743	 0.102550251149326 
1744	 0.102457850117918 
1745	 0.102325364025043 
1746	 0.102166565101865 
1747	 0.102033744022922 
1748	 0.101923508219199 
1749	 0.101813380102258 
1750	 0.10170707790598 
1751	 0.10157962460927 
1752	 0.101429192919233 
1753	 0.101307925214908 
1754	 0.101205544678837 
1755	 0.101082575800274 
1756	 0.100968937376547 
1757	 0.100866979222641 
1758	 0.100755884026693 
1759	 0.100690011753258 
1760	 0.100602613168435 
1761	 0.100458842024307 
1762	 0.100331636412824 
1763	 0.100198215968259 
1764	 0.100073738541901 
1765	 9.99726803421641E-02 
1766	 9.98653769697253E-02 
1767	 0.099754872325445 
1768	 9.96421915171541E-02 
1769	 9.95419974737959E-02 
1770	 9.94607082299196E-02 
1771	 9.93688392875968E-02 
1772	 9.92676727391631E-02 
1773	 0.099175991647685 
1774	 9.90945635643869E-02 
1775	 9.90020572635297E-02 
1776	 9.88933365912033E-02 
1777	 0.098782454879358 
1778	 9.86795720106745E-02 
1779	 9.85823512989119E-02 
1780	 9.84916843866654E-02 
1781	 9.84080056312107E-02 
1782	 9.83146424840027E-02 
1783	 9.82349360974246E-02 
1784	 9.81584128562018E-02 
1785	 9.80980900405072E-02 
1786	 9.80291734151467E-02 
1787	 0.097953801874258 
1788	 9.78801435913355E-02 
1789	 9.78175996558524E-02 
1790	 9.77359364692537E-02 
1791	 9.76360335686493E-02 
1792	 9.75491133911442E-02 
1793	 9.74372428908117E-02 
1794	 9.73611804395595E-02 
1795	 9.73189795955986E-02 
1796	 9.72687272239498E-02 
1797	 9.72428048992996E-02 
1798	 0.097192600513042 
1799	 9.71185510632062E-02 
1800	 9.70704048188819E-02 
1801	 9.62575718127054E-02 
1802	 9.62543415776238E-02 
1803	 9.62425510401749E-02 
1804	 9.62398885517781E-02 
1805	 9.62379488306575E-02 
1806	 9.62463308283111E-02 
1807	 9.62456920564096E-02 
1808	 9.62327527973892E-02 
1809	 9.62107433368439E-02 
1810	 9.62005804377022E-02 
1811	 9.61801505894332E-02 
1812	 9.61670392391713E-02 
1813	 9.61816324969728E-02 
1814	 9.61557462324256E-02 
1815	 9.61087805108258E-02 
1816	 9.60756138510571E-02 
1817	 9.60330661189106E-02 
1818	 9.59625406297437E-02 
1819	 9.59298003794196E-02 
1820	 9.59135861728354E-02 
1821	 0.095884323555162 
1822	 9.59096031997407E-02 
1823	 9.59506358138912E-02 
1824	 0.095963990142408 
1825	 9.59985560319127E-02 
1826	 9.59840478471106E-02 
1827	 9.59318180130965E-02 
1828	 9.58897807879312E-02 
1829	 9.58346965580413E-02 
1830	 9.57854795030038E-02 
1831	 9.57314947772224E-02 
1832	 9.56855792400289E-02 
1833	 9.56416021393038E-02 
1834	 9.55857936339555E-02 
1835	 9.55399690642473E-02 
1836	 9.54941830226335E-02 
1837	 9.54563640173262E-02 
1838	 9.54237729355388E-02 
1839	 9.53723973466002E-02 
1840	 9.53015775782316E-02 
1841	 9.52458439657006E-02 
1842	 9.51944041567561E-02 
1843	 9.51383480053386E-02 
1844	 9.50931716608542E-02 
1845	 9.50242100302558E-02 
1846	 9.49312367657142E-02 
1847	 9.48285785234475E-02 
1848	 0.094719977635892 
1849	 9.46217613234765E-02 
1850	 0.094520095596507 
1851	 9.44283453469467E-02 
1852	 9.43163463737413E-02 
1853	 9.41879340696624E-02 
1854	 9.40438602063936E-02 
1855	 9.38844261687527E-02 
1856	 0.093730304986899 
1857	 9.35599885265257E-02 
1858	 9.33813785412176E-02 
1859	 9.32051758659641E-02 
1860	 9.29983685914565E-02 
1861	 9.27662736459849E-02 
1862	 9.25243480006899E-02 
1863	 9.22678299567018E-02 
1864	 9.19954260627478E-02 
1865	 0.091721719341832 
1866	 0.091416879551229 
1867	 9.11056643007258E-02 
1868	 9.07671294200823E-02 
1869	 9.03849769016965E-02 
1870	 8.99991027917089E-02 
1871	 8.95856484801936E-02 
1872	 8.91477543375358E-02 
1873	 8.86828478921329E-02 
1874	 8.82002470182007E-02 
1875	 8.77096127409392E-02 
1876	 8.72215951411659E-02 
1877	 8.66920069067681E-02 
1878	 8.61282978076847E-02 
1879	 8.55564180879952E-02 
1880	 8.49374176544173E-02 
1881	 8.42791413991214E-02 
1882	 8.35777243749784E-02 
1883	 8.28544205754517E-02 
1884	 8.20488916797033E-02 
1885	 8.12008229031403E-02 
1886	 8.03174450439365E-02 
1887	 7.93748662850092E-02 
1888	 7.83897923283107E-02 
1889	 0.077361057331716 
1890	 7.63138234115268E-02 
1891	 0.075238215268704 
1892	 7.41429044602454E-02 
1893	 7.30009234589521E-02 
1894	 7.18306179930239E-02 
1895	 7.06037318375408E-02 
1896	 6.93205766587235E-02 
1897	 6.80439271373026E-02 
1898	 6.67644969558425E-02 
1899	 6.54895839239101E-02 
1900	 6.42940627466723E-02 
1901	 6.31415310360536E-02 
1902	 6.20616558007746E-02 
1903	 0.061033284618436 
1904	 6.01120025102095E-02 
1905	 0.059260542605226 
1906	 5.85065345736993E-02 
1907	 5.78433648894831E-02 
1908	 5.72575461131757E-02 
1909	 5.67419966624576E-02 
1910	 0.056286038529577 
1911	 5.58876153395069E-02 
1912	 5.55520767380114E-02 
1913	 5.52214007767094E-02 
1914	 5.49249960083883E-02 
1915	 0.054639039062587 
1916	 5.43871320164011E-02 
1917	 0.054118164580961 
1918	 5.38662630333268E-02 
1919	 5.36304360291389E-02 
1920	 5.33912177159862E-02 
1921	 0.053145525686299 
1922	 5.28971979258797E-02 
1923	 5.26612397304773E-02 
1924	 5.24379432059748E-02 
1925	 0.052214331285857 
1926	 5.20185253616831E-02 
1927	 0.051854851128755 
1928	 5.16820600218927E-02 
1929	 5.15091846020861E-02 
1930	 5.13306365272476E-02 
1931	 5.11390694990102E-02 
1932	 5.09664571281103E-02 
1933	 5.08140953489541E-02 
1934	 5.06905873564965E-02 
1935	 5.05631006916162E-02 
1936	 5.04498177263849E-02 
1937	 5.03340857590999E-02 
1938	 5.02123062020277E-02 
1939	 5.01065027815234E-02 
1940	 5.00061060136989E-02 
1941	 4.99296662200482E-02 
1942	 0.049854404554765 
1943	 0.049784626770155 
1944	 0.04971765325342 
1945	 4.96457034748819E-02 
1946	 0.049589128780604 
1947	 4.95420388541713E-02 
1948	 4.94963127523926E-02 
1949	 4.94590617853179E-02 
1950	 4.94229680774041E-02 
1951	 4.93823869194751E-02 
1952	 0.049361711472898 
1953	 4.93343486161266E-02 
1954	 4.93219904256763E-02 
1955	 4.93269498374623E-02 
1956	 4.93019203219189E-02 
1957	 4.92777499627377E-02 
1958	 4.92552005527487E-02 
1959	 0.049227430942398 
1960	 4.91795235554665E-02 
1961	 4.91491732927794E-02 
1962	 4.91228330636568E-02 
1963	 0.049098768271675 
1964	 4.90766450283461E-02 
1965	 4.90614093912075E-02 
1966	 4.90573633528423E-02 
1967	 4.90737062986832E-02 
1968	 4.90803808894703E-02 
1969	 4.90875225787638E-02 
1970	 4.91096848148362E-02 
1971	 4.91323259541337E-02 
1972	 4.91647663695392E-02 
1973	 4.92164461364715E-02 
1974	 4.92693221181712E-02 
1975	 4.93242830455617E-02 
1976	 4.93808409238812E-02 
1977	 4.94507630297174E-02 
1978	 4.95462431146688E-02 
1979	 0.049637604874924 
1980	 4.97350889252744E-02 
1981	 0.049840961619899 
1982	 4.99510070922955E-02 
1983	 5.00680680735711E-02 
1984	 5.01987903636844E-02 
1985	 5.03291096795043E-02 
1986	 5.04772887991254E-02 
1987	 5.06007011794475E-02 
1988	 5.07145579153792E-02 
1989	 5.08240091880653E-02 
1990	 5.09309791954632E-02 
1991	 5.10523917131555E-02 
1992	 5.11686484487774E-02 
1993	 0.051292910605005 
1994	 5.14251403340449E-02 
1995	 5.15538390062409E-02 
1996	 5.16855603580332E-02 
1997	 5.18407635955761E-02 
1998	 5.19789759073395E-02 
1999	 5.21096234116968E-02 
2000	 5.22360127263853E-02 
2001	 0.052366336972472 
2002	 5.24712707988957E-02 
2003	 5.25868404754709E-02 
2004	 5.26976247165015E-02 
2005	 5.28140391324894E-02 
2006	 5.29431380228628E-02 
2007	 5.30571961960462E-02 
2008	 5.31641759397525E-02 
2009	 5.32710747769512E-02 
2010	 5.33614602566179E-02 
2011	 5.34720160222782E-02 
2012	 5.36017908722065E-02 
2013	 5.37135649616251E-02 
2014	 0.053819730338057 
2015	 5.39335437766999E-02 
2016	 5.40457060282428E-02 
2017	 5.41563390383345E-02 
2018	 0.054280114030228 
2019	 5.44277526190609E-02 
2020	 5.45605611905096E-02 
2021	 0.0546988866814 
2022	 5.48193581150829E-02 
2023	 5.49203980576241E-02 
2024	 5.50378061561156E-02 
2025	 5.51534336051854E-02 
2026	 5.52682952907521E-02 
2027	 5.53939096759202E-02 
2028	 5.55196934583857E-02 
2029	 5.56367167935261E-02 
2030	 5.57405570548913E-02 
2031	 5.58498008783545E-02 
2032	 5.59668888983468E-02 
2033	 5.60673661157446E-02 
2034	 5.61572340512086E-02 
2035	 5.62474164124143E-02 
2036	 0.05631106468579 
2037	 5.64117504683577E-02 
2038	 5.65407967081457E-02 
2039	 5.66517021479536E-02 
2040	 0.056788830130374 
2041	 5.68963791901736E-02 
2042	 5.69724185527821E-02 
2043	 5.70526034724536E-02 
2044	 5.71494561351533E-02 
2045	 5.72506991094294E-02 
2046	 5.73546652552675E-02 
2047	 5.74766136806707E-02 
2048	 5.75848923771008E-02 
2049	 5.76782486678388E-02 
2050	 5.77885601011307E-02 
2051	 5.79207415904106E-02 
2052	 5.80258346015838E-02 
2053	 5.81298292147838E-02 
2054	 5.82247743627501E-02 
2055	 0.058290462283788 
2056	 5.83586634402676E-02 
2057	 0.05844629758002 
2058	 5.85441292351659E-02 
2059	 5.86393987533607E-02 
2060	 5.87468695384771E-02 
2061	 5.88488189309009E-02 
2062	 5.89442484191183E-02 
2063	 5.90494141770347E-02 
2064	 5.91655686017924E-02 
2065	 5.92718639503676E-02 
2066	 5.93759493342932E-02 
2067	 5.94818140610687E-02 
2068	 0.05957163093627 
2069	 5.96879595429045E-02 
2070	 5.97938528475763E-02 
2071	 5.99074776864408E-02 
2072	 6.00091553873548E-02 
2073	 6.01066132313734E-02 
2074	 6.01994060382906E-02 
2075	 0.060289019558411 
2076	 6.03702936469709E-02 
2077	 6.04381841018983E-02 
2078	 6.05168128322102E-02 
2079	 6.05894359225028E-02 
2080	 6.06712074707614E-02 
2081	 6.07629032904354E-02 
2082	 6.08545681832559E-02 
2083	 6.09486088482207E-02 
2084	 6.10475925052457E-02 
2085	 6.11386074029258E-02 
2086	 6.12280623964398E-02 
2087	 6.13232587442069E-02 
2088	 0.06141693914688 
2089	 6.15076486082377E-02 
2090	 0.06160248509449 
2091	 6.16938956132412E-02 
2092	 0.061779379538242 
2093	 6.18673593698657E-02 
2094	 6.19533382674392E-02 
2095	 6.20475256607861E-02 
2096	 6.21405307202347E-02 
2097	 6.22388642715034E-02 
2098	 6.23391606478106E-02 
2099	 6.24568421432999E-02 
2100	 6.25719387865742E-02 
2101	 6.26954265542949E-02 
2102	 6.28036330239836E-02 
2103	 6.29128272600974E-02 
2104	 6.30154405039788E-02 
2105	 6.30876349052481E-02 
2106	 6.32030997770836E-02 
2107	 6.33543303116035E-02 
2108	 6.34737847857664E-02 
2109	 6.36056837743503E-02 
2110	 6.37207848674684E-02 
2111	 6.37900119668181E-02 
2112	 6.38916502232893E-02 
2113	 6.40033015419988E-02 
2114	 6.41254144296204E-02 
2115	 6.42595491801592E-02 
2116	 6.44153757282508E-02 
2117	 0.064554115860301 
2118	 6.47043485795894E-02 
2119	 6.48322279983231E-02 
2120	 6.49376825142374E-02 
2121	 6.50615585825696E-02 
2122	 6.51885909482917E-02 
2123	 6.53079178507489E-02 
2124	 6.54341012628746E-02 
2125	 6.55513420152078E-02 
2126	 6.56559394642862E-02 
2127	 6.57608603187916E-02 
2128	 6.58575088234394E-02 
2129	 6.59651407111159E-02 
2130	 6.60887986364979E-02 
2131	 6.61826981279759E-02 
2132	 6.62958923160452E-02 
2133	 0.066423466702613 
2134	 6.65385694869523E-02 
2135	 6.66530308012649E-02 
2136	 6.67573748689349E-02 
2137	 6.68521716212124E-02 
2138	 6.69511350851066E-02 
2139	 6.70552796034476E-02 
2140	 6.71386772012234E-02 
2141	 6.72109519105753E-02 
2142	 6.72855311156333E-02 
2143	 6.73424660788923E-02 
2144	 6.74022129963708E-02 
2145	 6.74678108047695E-02 
2146	 6.75316497182661E-02 
2147	 6.75912100066603E-02 
2148	 6.76452732880247E-02 
2149	 6.77050052677011E-02 
2150	 6.77748240472429E-02 
2151	 6.78303898888775E-02 
2152	 6.78840982419074E-02 
2153	 6.79257022353795E-02 
2154	 6.79531816354559E-02 
2155	 6.79840730539086E-02 
2156	 0.068002571352607 
2157	 6.80331832294721E-02 
2158	 6.80677080871458E-02 
2159	 6.81051658405747E-02 
2160	 6.81628797295119E-02 
2161	 6.81975499373559E-02 
2162	 6.82221798874542E-02 
2163	 6.82446712903073E-02 
2164	 6.82747988275407E-02 
2165	 6.82539647329034E-02 
2166	 6.82591492675208E-02 
2167	 6.82688226634558E-02 
2168	 6.82715740103512E-02 
2169	 6.82648060023139E-02 
2170	 6.82727583134389E-02 
2171	 6.82838246269963E-02 
2172	 0.068295804439028 
2173	 6.83214360797717E-02 
2174	 6.83342986300647E-02 
2175	 6.83391268024603E-02 
2176	 6.83481223236879E-02 
2177	 6.83571139009573E-02 
2178	 6.83608665573341E-02 
2179	 0.068362967718404 
2180	 6.83655065963731E-02 
2181	 6.83626344028198E-02 
2182	 0.068361137093929 
2183	 6.83645852958508E-02 
2184	 6.83640963542377E-02 
2185	 6.83592807527971E-02 
2186	 0.068352237069807 
2187	 6.83410330050438E-02 
2188	 6.83167078276155E-02 
2189	 6.83113713010801E-02 
2190	 0.068314784620129 
2191	 6.83101630494427E-02 
2192	 6.83176142809474E-02 
2193	 0.068311936510859 
2194	 6.82801513646958E-02 
2195	 6.82748558281566E-02 
2196	 6.82857530482379E-02 
2197	 6.82887014340766E-02 
2198	 6.83071690607022E-02 
2199	 6.83115365206894E-02 
2200	 6.82943727172503E-02 
2201	 6.82895985767252E-02 
2202	 6.82703188297679E-02 
2203	 6.82815211441477E-02 
2204	 6.83028504266203E-02 
2205	 0.068348216187437 
2206	 6.83697331219618E-02 
2207	 6.83985704325524E-02 
2208	 6.84197416495025E-02 
2209	 6.84253180530598E-02 
2210	 0.068434279791085 
2211	 6.84519642718092E-02 
2212	 0.068457807039378 
2213	 6.84371173785735E-02 
2214	 6.84485521016782E-02 
2215	 6.84704256122234E-02 
2216	 6.84978682562469E-02 
2217	 6.85630111547077E-02 
2218	 6.85942049951183E-02 
2219	 6.85966442304138E-02 
2220	 6.86221258113339E-02 
2221	 6.86595038197257E-02 
2222	 6.86673768435604E-02 
2223	 6.87019762259274E-02 
2224	 6.87402979828576E-02 
2225	 6.87457107374376E-02 
2226	 6.87150752673093E-02 
2227	 6.87225189792066E-02 
2228	 6.87303871600001E-02 
2229	 6.87408736285681E-02 
2230	 6.87718786557699E-02 
2231	 6.87892337766711E-02 
2232	 0.068787442812413 
2233	 6.88090471137326E-02 
2234	 6.88536428261988E-02 
2235	 6.88755858954075E-02 
2236	 6.89029824367745E-02 
2237	 6.89157090651492E-02 
2238	 6.88954890777064E-02 
2239	 6.89004955328889E-02 
2240	 6.89221606573967E-02 
2241	 6.89261462157358E-02 
2242	 6.89409052008967E-02 
2243	 6.89363284137531E-02 
2244	 6.89112512841997E-02 
2245	 6.88751468288361E-02 
2246	 6.88335792384398E-02 
2247	 6.88226851066908E-02 
2248	 6.88187802862739E-02 
2249	 6.88359257075202E-02 
2250	 6.88354504585457E-02 
2251	 6.88431758701413E-02 
2252	 6.88354805846836E-02 
2253	 6.88167578599424E-02 
2254	 6.87911576764404E-02 
2255	 6.87583184782952E-02 
2256	 0.068724276086182 
2257	 6.86507177163904E-02 
2258	 6.86415474635235E-02 
2259	 6.86837580358178E-02 
2260	 6.86907509622579E-02 
2261	 6.87513193536268E-02 
2262	 0.068738318020227 
2263	 6.86356581995119E-02 
2264	 6.85817661058009E-02 
2265	 0.068512596311875 
2266	 6.84622328826898E-02 
2267	 6.84651060404082E-02 
2268	 6.84289980183002E-02 
2269	 6.83728511316652E-02 
2270	 6.83156182557239E-02 
2271	 6.82367255761496E-02 
2272	 6.81624265139177E-02 
2273	 6.81328979501443E-02 
2274	 6.80938243854242E-02 
2275	 0.06803361051206 
2276	 6.79749324453078E-02 
2277	 6.79023320129017E-02 
2278	 0.067805804589089 
2279	 6.77097444189327E-02 
2280	 6.76121230793071E-02 
2281	 6.75094400033074E-02 
2282	 6.73747492497623E-02 
2283	 6.72773035583704E-02 
2284	 6.72140808781773E-02 
2285	 6.71212266848711E-02 
2286	 6.70362857931643E-02 
2287	 6.69357592333174E-02 
2288	 6.67969802858069E-02 
2289	 6.66880136114654E-02 
2290	 6.65988596305723E-02 
2291	 6.64917280545367E-02 
2292	 6.63860829775102E-02 
2293	 6.62765253031163E-02 
2294	 6.61438950680331E-02 
2295	 6.60315137385204E-02 
2296	 0.065936462983776 
2297	 0.065836099522999 
2298	 6.57378318451652E-02 
2299	 6.56172869935432E-02 
2300	 6.54778037012139E-02 
2301	 6.53244889116302E-02 
2302	 0.065186866416655 
2303	 6.50811183484628E-02 
2304	 6.49339668328483E-02 
2305	 6.47871426319954E-02 
2306	 6.46669671038312E-02 
2307	 6.45376255565054E-02 
2308	 6.44255966318728E-02 
2309	 6.43822386264177E-02 
2310	 6.42505091206357E-02 
2311	 6.40582771976655E-02 
2312	 6.39033231497761E-02 
2313	 6.37170846989886E-02 
2314	 6.35603500651881E-02 
2315	 6.34513843089212E-02 
2316	 0.063293823138981 
2317	 6.31014326162699E-02 
2318	 6.29559377901388E-02 
2319	 6.28199480467384E-02 
2320	 6.26811893853278E-02 
2321	 6.25891755884628E-02 
2322	 6.24440208805687E-02 
2323	 0.062231920378388 
2324	 6.20659598343551E-02 
2325	 6.19175083651921E-02 
2326	 6.17622805385202E-02 
2327	 6.16125822840951E-02 
2328	 6.14851169626894E-02 
2329	 6.13574146956528E-02 
2330	 6.11923084532429E-02 
2331	 6.10196028746076E-02 
2332	 6.08505557481411E-02 
2333	 0.060679749139168 
2334	 6.05184188415971E-02 
2335	 6.03805115758281E-02 
2336	 6.02825572959214E-02 
2337	 6.01958059808763E-02 
2338	 6.00139597136743E-02 
2339	 5.97692397828518E-02 
2340	 5.95645354824153E-02 
2341	 0.059334130715196 
2342	 5.91068009727772E-02 
2343	 5.89532587617401E-02 
2344	 5.87860822307475E-02 
2345	 5.86258514173474E-02 
2346	 5.84845949852876E-02 
2347	 5.83270482246898E-02 
2348	 5.81651669779649E-02 
2349	 5.80050167089084E-02 
2350	 5.78431930852547E-02 
2351	 5.76463600003289E-02 
2352	 0.057448627994429 
2353	 5.72275137824892E-02 
2354	 5.69695678052243E-02 
2355	 5.67150457382079E-02 
2356	 5.64305634142088E-02 
2357	 5.61778218751375E-02 
2358	 5.59052127451288E-02 
2359	 0.055686915155468 
2360	 5.55251827708556E-02 
2361	 5.53718115909371E-02 
2362	 5.52743278965186E-02 
2363	 5.51149631295349E-02 
2364	 5.49417865227194E-02 
2365	 5.47514764599386E-02 
2366	 5.45135323277062E-02 
2367	 5.42967446743775E-02 
2368	 5.41011073921638E-02 
2369	 5.38857514771024E-02 
2370	 0.053667653354796 
2371	 5.34072999137643E-02 
2372	 5.31349109781266E-02 
2373	 5.28968953906726E-02 
2374	 5.26830034380144E-02 
2375	 5.24834263616412E-02 
2376	 5.23643930312958E-02 
2377	 5.21914226159318E-02 
2378	 5.19188919599044E-02 
2379	 5.17168165429641E-02 
2380	 5.14636202350872E-02 
2381	 5.12236966530384E-02 
2382	 5.10610444784131E-02 
2383	 5.08398689097433E-02 
2384	 5.06723935283319E-02 
2385	 5.04300514842539E-02 
2386	 5.01304148594023E-02 
2387	 0.049956732149816 
2388	 0.049776147352739 
2389	 4.96034828172325E-02 
2390	 4.94380859942161E-02 
2391	 0.049224257334937 
2392	 4.90099089242395E-02 
2393	 4.87707247907712E-02 
2394	 4.85857991442263E-02 
2395	 4.84610187865063E-02 
2396	 4.82798158313496E-02 
2397	 4.80734358967886E-02 
2398	 4.78440350300774E-02 
2399	 4.75888981562371E-02 
2400	 4.74476294017861E-02 
2401	 4.73863404827963E-02 
2402	 0.047255734459021 
2403	 4.71306875050981E-02 
2404	 4.69083768115137E-02 
2405	 4.66112455705959E-02 
2406	 4.64338955637591E-02 
2407	 4.62802320675689E-02 
2408	 4.61614702847024E-02 
2409	 4.60407487695926E-02 
2410	 4.59096298457514E-02 
2411	 4.57610824905232E-02 
2412	 4.55019849141212E-02 
2413	 4.52898263487065E-02 
2414	 4.51136901539531E-02 
2415	 4.48685517805903E-02 
2416	 4.46603920414024E-02 
2417	 0.044476779192669 
2418	 4.43442302089081E-02 
2419	 4.42537094381748E-02 
2420	 4.41535203807828E-02 
2421	 4.41080328560419E-02 
2422	 0.043986028208634 
2423	 4.38157711744124E-02 
2424	 4.36332122513224E-02 
2425	 4.34361715983396E-02 
2426	 4.32885772004364E-02 
2427	 0.043102669319324 
2428	 4.29569925304906E-02 
2429	 4.28891828567175E-02 
2430	 4.27342026264542E-02 
2431	 4.25204555467367E-02 
2432	 4.24001236925368E-02 
2433	 4.22924283688339E-02 
2434	 4.21866365923567E-02 
2435	 4.21474246816346E-02 
2436	 4.20564284359613E-02 
2437	 0.041939320528383 
2438	 4.17889468166848E-02 
2439	 0.041639265669637 
2440	 0.041500241659912 
2441	 4.13033684641651E-02 
2442	 4.11801731768893E-02 
2443	 4.10763609884048E-02 
2444	 4.09617797595076E-02 
2445	 4.09042179031412E-02 
2446	 4.07576966226902E-02 
2447	 0.040632759318439 
2448	 4.04460013867922E-02 
2449	 4.00859475625182E-02 
2450	 3.98917604703593E-02 
2451	 3.97214868292968E-02 
2452	 3.95847563814739E-02 
2453	 3.96615239376723E-02 
2454	 3.95571940497975E-02 
2455	 3.92947376547173E-02 
2456	 3.91547245245094E-02 
2457	 3.90076022656401E-02 
2458	 3.88545573330885E-02 
2459	 3.87770866756816E-02 
2460	 3.86695687072174E-02 
2461	 3.84580953169603E-02 
2462	 3.83299281068341E-02 
2463	 3.83661128160577E-02 
2464	 3.82898499867883E-02 
2465	 3.81928561601914E-02 
2466	 3.80177009283685E-02 
2467	 3.76339169430269E-02 
2468	 3.74181727464994E-02 
2469	 3.72604129697325E-02 
2470	 0.03722425189644 
2471	 3.72616291515222E-02 
2472	 3.72570609966217E-02 
2473	 0.037233582408374 
2474	 3.71414996460658E-02 
2475	 3.70040485105749E-02 
2476	 0.036919089985358 
2477	 0.036781231304447 
2478	 3.66098980047942E-02 
2479	 0.036576641387883 
2480	 3.66564596508988E-02 
2481	 3.66232906278568E-02 
2482	 3.64552475378294E-02 
2483	 3.62281876550591E-02 
2484	 0.035926056346915 
2485	 3.57974126923858E-02 
2486	 3.59346565214429E-02 
2487	 3.59795352308024E-02 
2488	 3.58609315380834E-02 
2489	 3.56433020453641E-02 
2490	 3.54163734684583E-02 
2491	 3.54131274165865E-02 
2492	 3.53999950084656E-02 
2493	 3.53347679827503E-02 
2494	 0.03544187347409 
2495	 3.53762459742107E-02 
2496	 0.035297215221054 
2497	 0.035366079479608 
2498	 3.52609231975807E-02 
2499	 3.52745102181798E-02 
2500	 3.53478086843219E-02 
