Wavelength	lmw-9-100002.asd
350	 0.101169242184189 
351	 0.109603825948075 
352	 0.104103032368644 
353	 0.085401319615821 
354	 9.20359700210845E-02 
355	 9.92510725842572E-02 
356	 0.100420091527017 
357	 9.71877211847889E-02 
358	 0.102701742372431 
359	 0.097237103563633 
360	 8.64936987567687E-02 
361	 9.04732949100332E-02 
362	 9.14591973036786E-02 
363	 9.05645033992897E-02 
364	 8.96979295184049E-02 
365	 8.81801291588934E-02 
366	 8.62479281468867E-02 
367	 8.52061878064095E-02 
368	 8.58028372710236E-02 
369	 8.60892632718716E-02 
370	 8.48788355162585E-02 
371	 8.35411004301683E-02 
372	 8.46713812239247E-02 
373	 8.42262854604055E-02 
374	 8.19349062147703E-02 
375	 7.95885797741506E-02 
376	 8.17075792467795E-02 
377	 8.27659345461653E-02 
378	 8.38175012550777E-02 
379	 0.086097767327204 
380	 8.28952941772216E-02 
381	 8.01112959123929E-02 
382	 8.02454561643554E-02 
383	 8.24897520630603E-02 
384	 8.40502583174008E-02 
385	 8.29428294647769E-02 
386	 8.00417866965442E-02 
387	 8.11019320710172E-02 
388	 8.29913184608762E-02 
389	 8.35919578634666E-02 
390	 8.20224688177452E-02 
391	 0.081594683860583 
392	 8.19731421005566E-02 
393	 8.29267242086694E-02 
394	 8.42313891527917E-02 
395	 0.080880779563295 
396	 7.95218938120596E-02 
397	 0.083412295121805 
398	 8.50488377034362E-02 
399	 8.38683632032666E-02 
400	 8.29074194848391E-02 
401	 8.52071772872625E-02 
402	 8.49132791947716E-02 
403	 0.084135047669659 
404	 8.40723329341033E-02 
405	 8.44597475269376E-02 
406	 8.50093383734511E-02 
407	 8.58740836627778E-02 
408	 8.67499182960606E-02 
409	 8.57868535413924E-02 
410	 8.52560482832455E-02 
411	 8.52856135475697E-02 
412	 8.51293079787783E-02 
413	 8.59120303560738E-02 
414	 0.085754543996615 
415	 8.47190291526464E-02 
416	 8.56196921981914E-02 
417	 8.52257134354393E-02 
418	 8.46612436997766E-02 
419	 8.50891319176733E-02 
420	 0.084114635454126 
421	 8.27447639817506E-02 
422	 8.21623589188077E-02 
423	 8.32488064985419E-02 
424	 8.28847414725004E-02 
425	 8.16517962638519E-02 
426	 8.06410455496471E-02 
427	 8.10303695637336E-02 
428	 8.06912377660012E-02 
429	 8.00309117529528E-02 
430	 8.00238992525459E-02 
431	 8.00380292436716E-02 
432	 7.99091192342133E-02 
433	 7.99341378089828E-02 
434	 8.07699759510556E-02 
435	 8.15525277706832E-02 
436	 8.20216456735371E-02 
437	 8.22302945518381E-02 
438	 0.082554002564541 
439	 8.37185783988602E-02 
440	 8.53836309556036E-02 
441	 8.66843042694621E-02 
442	 8.74315038873674E-02 
443	 8.84202345704152E-02 
444	 8.98359505001621E-02 
445	 9.08056343666017E-02 
446	 9.20062281286803E-02 
447	 9.35412271962244E-02 
448	 9.52782606949786E-02 
449	 0.096882573264566 
450	 0.098332497898213 
451	 9.98141766153297E-02 
452	 0.101641621766394 
453	 0.103202147272638 
454	 0.10480414651778 
455	 0.106718654046378 
456	 0.10877984910919 
457	 0.1104798333118 
458	 0.112073320072176 
459	 0.114081592023928 
460	 0.116084796248309 
461	 0.117901172339576 
462	 0.119673003978394 
463	 0.121950796578483 
464	 0.124297005925629 
465	 0.126608115591836 
466	 0.12888556755718 
467	 0.131154098315154 
468	 0.133473879748056 
469	 0.13585919927421 
470	 0.138294343966219 
471	 0.140959424391575 
472	 0.143629285342717 
473	 0.14614398295993 
474	 0.148599087884841 
475	 0.151341057765656 
476	 0.1542327632143 
477	 0.15695220011501 
478	 0.159600682993381 
479	 0.162388477819654 
480	 0.16535025037887 
481	 0.168287950182334 
482	 0.171014769661741 
483	 0.173622367940843 
484	 0.176262186022865 
485	 0.178977812342946 
486	 0.181536010366427 
487	 0.183925704680171 
488	 0.186326660135445 
489	 0.188719453610183 
490	 0.190967238850404 
491	 0.193035363579902 
492	 0.195196462917012 
493	 0.197191848513599 
494	 0.198989175139713 
495	 0.200693804749758 
496	 0.202584417524411 
497	 0.204188127256086 
498	 0.205393144705927 
499	 0.20671966396214 
500	 0.208016980518377 
501	 0.209189868203499 
502	 0.210181240022288 
503	 0.211076390642295 
504	 0.211857536284311 
505	 0.212614634598221 
506	 0.213515681789426 
507	 0.214162704290221 
508	 0.214677559302364 
509	 0.215194209814738 
510	 0.215582403663739 
511	 0.215948622895913 
512	 0.216291831112247 
513	 0.216568459549263 
514	 0.216896424263165 
515	 0.217260658238561 
516	 0.217593123074747 
517	 0.217762634743095 
518	 0.217871823208936 
519	 0.217982541306988 
520	 0.218127795198439 
521	 0.218269322872306 
522	 0.218334135220866 
523	 0.218385569140099 
524	 0.218622570329431 
525	 0.218789443830922 
526	 0.218907086838161 
527	 0.219041237068006 
528	 0.219205764634378 
529	 0.219226823752226 
530	 0.219220658837282 
531	 0.219461699300699 
532	 0.21967717523939 
533	 0.219843992586626 
534	 0.2200025298291 
535	 0.220259009161362 
536	 0.220417709562548 
537	 0.220603115729523 
538	 0.220999887980322 
539	 0.221281468131213 
540	 0.221541030825685 
541	 0.221836370252108 
542	 0.222130575983106 
543	 0.222464012781241 
544	 0.222842594493287 
545	 0.223255669798614 
546	 0.223674251329337 
547	 0.224117765525434 
548	 0.22456246102232 
549	 0.224955216599008 
550	 0.225420510577956 
551	 0.225935429733585 
552	 0.22647016941028 
553	 0.227058088057371 
554	 0.227650586161436 
555	 0.228269883139833 
556	 0.22896403069168 
557	 0.229654718538302 
558	 0.230332641995598 
559	 0.231022147685915 
560	 0.231799103449414 
561	 0.232502718738309 
562	 0.233193206829966 
563	 0.233963866561733 
564	 0.234637979948393 
565	 0.235245811484412 
566	 0.235850666056092 
567	 0.236536568550246 
568	 0.237385592543801 
569	 0.238319510596485 
570	 0.239248580461643 
571	 0.240209103298471 
572	 0.241098999835678 
573	 0.241981848366444 
574	 0.243017059607328 
575	 0.243972053215957 
576	 0.244922206200867 
577	 0.245910908291051 
578	 0.246790943488508 
579	 0.247725663571463 
580	 0.248680168908808 
581	 0.249553977367999 
582	 0.250412174474749 
583	 0.251327219951509 
584	 0.252292817529201 
585	 0.253197688884935 
586	 0.254101513161361 
587	 0.25503619469773 
588	 0.256028175952508 
589	 0.25711712338277 
590	 0.258221124156791 
591	 0.259308704672643 
592	 0.260405191778385 
593	 0.261574416678019 
594	 0.262747208523892 
595	 0.263857877147877 
596	 0.264930811152001 
597	 0.265941122254611 
598	 0.26690072847182 
599	 0.267844796617152 
600	 0.268774004294111 
601	 0.269712723874467 
602	 0.270693427834372 
603	 0.271776084984449 
604	 0.272807246739036 
605	 0.273770915883468 
606	 0.274723360991361 
607	 0.275802156817064 
608	 0.276858337191589 
609	 0.27786897924215 
610	 0.278972261128517 
611	 0.27995348822062 
612	 0.28089339688394 
613	 0.281874489010187 
614	 0.282742532615304 
615	 0.283564519233041 
616	 0.284380267352805 
617	 0.285204940308288 
618	 0.286054763367239 
619	 0.286914342249754 
620	 0.287760586980294 
621	 0.288563216597534 
622	 0.289301137373357 
623	 0.290038122556508 
624	 0.290850027723605 
625	 0.291632508874944 
626	 0.292308013652387 
627	 0.292933305627314 
628	 0.293734384308908 
629	 0.294451005293284 
630	 0.295100499718187 
631	 0.295760452168775 
632	 0.29641998969434 
633	 0.297063361171096 
634	 0.29766558539064 
635	 0.298205081771388 
636	 0.298813697333394 
637	 0.299442361022743 
638	 0.300026193738174 
639	 0.300544102779563 
640	 0.301043128708018 
641	 0.301545390920402 
642	 0.302053725688372 
643	 0.302527652569609 
644	 0.30300771543378 
645	 0.303477941750396 
646	 0.303826130340488 
647	 0.304226590657044 
648	 0.304620010208356 
649	 0.304921731762302 
650	 0.305249652671741 
651	 0.305544823219695 
652	 0.305805771659684 
653	 0.306082559707078 
654	 0.30635540741468 
655	 0.30655106845202 
656	 0.306661245971567 
657	 0.306866894159839 
658	 0.307010725225551 
659	 0.307076866930397 
660	 0.307118872594089 
661	 0.307168220111888 
662	 0.307191060948194 
663	 0.307164669968594 
664	 0.307091652207023 
665	 0.307013013751317 
666	 0.306921144597905 
667	 0.306793604223877 
668	 0.306605900307128 
669	 0.306464062910213 
670	 0.306324947148768 
671	 0.306029722898362 
672	 0.305663432017786 
673	 0.305346780530059 
674	 0.30509299706599 
675	 0.304646225349211 
676	 0.304173295450401 
677	 0.303738302139825 
678	 0.303343499946854 
679	 0.30288612956284 
680	 0.302377589641642 
681	 0.301828412719375 
682	 0.301232906280038 
683	 0.300670013060572 
684	 0.300087690103325 
685	 0.299430542825197 
686	 0.298758206857272 
687	 0.298106350797753 
688	 0.297421947571173 
689	 0.296610361617384 
690	 0.295863083611794 
691	 0.295159425903328 
692	 0.294449971886041 
693	 0.293702180156902 
694	 0.292841396835529 
695	 0.291942596026319 
696	 0.291105575872418 
697	 0.290218865330733 
698	 0.28934402089972 
699	 0.288488872771984 
700	 0.287597681192118 
701	 0.286686803346577 
702	 0.285731641677348 
703	 0.284744106560976 
704	 0.283867619059294 
705	 0.282917554269858 
706	 0.281912684974263 
707	 0.280961996467125 
708	 0.279932693439253 
709	 0.278957478416385 
710	 0.278057185483294 
711	 0.277054033386583 
712	 0.275983558602832 
713	 0.274883980953748 
714	 0.27380895292755 
715	 0.272860194599668 
716	 0.271879997175317 
717	 0.270812571731223 
718	 0.269699610852169 
719	 0.268752760093425 
720	 0.267743928074384 
721	 0.266575802746088 
722	 0.265518198289301 
723	 0.264493454665619 
724	 0.263446612483777 
725	 0.262348760533801 
726	 0.261295981822515 
727	 0.260232504678307 
728	 0.259143667422614 
729	 0.258059499813195 
730	 0.256984719226252 
731	 0.255887359571749 
732	 0.254765109947274 
733	 0.253695835420965 
734	 0.252699978463491 
735	 0.251677910902453 
736	 0.250516672919708 
737	 0.249346889613769 
738	 0.24826953842354 
739	 0.247252683606179 
740	 0.24612990745316 
741	 0.245048482894982 
742	 0.24396100022676 
743	 0.242837248610565 
744	 0.241813084886786 
745	 0.240735664802229 
746	 0.23963999443132 
747	 0.238626069129527 
748	 0.237575276684932 
749	 0.236475328658018 
750	 0.235377475554822 
751	 0.234391175572457 
752	 0.233371054801318 
753	 0.232303495720738 
754	 0.231218658466971 
755	 0.230171787919677 
756	 0.229191743763739 
757	 0.228203649580528 
758	 0.227113132695091 
759	 0.226102130313718 
760	 0.225120195391692 
761	 0.224136181390067 
762	 0.223171221334384 
763	 0.222225425917427 
764	 0.221253190672043 
765	 0.220235832697401 
766	 0.219249849352009 
767	 0.218332191215135 
768	 0.217417763144229 
769	 0.216418411291178 
770	 0.215492069307616 
771	 0.214617851828797 
772	 0.213743608233829 
773	 0.212805862866106 
774	 0.211964633498874 
775	 0.211127141265502 
776	 0.210213473964277 
777	 0.209336090075611 
778	 0.208486750078161 
779	 0.207667400793943 
780	 0.206870934437019 
781	 0.206024462646809 
782	 0.205233983946088 
783	 0.204486286196957 
784	 0.203640844161168 
785	 0.202854521879805 
786	 0.202131704250603 
787	 0.201430226389728 
788	 0.200667025177808 
789	 0.199958099743008 
790	 0.199268960310064 
791	 0.198535484250477 
792	 0.197852869957034 
793	 0.197194296688222 
794	 0.196551579109462 
795	 0.195930877672445 
796	 0.195228805298085 
797	 0.194552812363243 
798	 0.193960920035068 
799	 0.193360018092826 
800	 0.192804886021149 
801	 0.192255975952173 
802	 0.191674963979123 
803	 0.191140978392588 
804	 0.190598674178471 
805	 0.190043286860445 
806	 0.189505422182903 
807	 0.189001692795048 
808	 0.188488768605524 
809	 0.187969984231504 
810	 0.187513415364164 
811	 0.187017794323099 
812	 0.186532043301051 
813	 0.186109240325191 
814	 0.18572055978875 
815	 0.185364601045875 
816	 0.184982818557425 
817	 0.184526116090793 
818	 0.184105513026363 
819	 0.183753102250218 
820	 0.183426626946229 
821	 0.183039310020911 
822	 0.182717993862204 
823	 0.182402119979702 
824	 0.182061671079008 
825	 0.181761858818529 
826	 0.181448137815391 
827	 0.181114911044865 
828	 0.180788187005284 
829	 0.180551642976375 
830	 0.18027603909592 
831	 0.179980548799152 
832	 0.179749767958402 
833	 0.179579124262775 
834	 0.179359822261491 
835	 0.179106883544732 
836	 0.178945695819145 
837	 0.178756444478197 
838	 0.178557765864523 
839	 0.178361486763954 
840	 0.178127429708652 
841	 0.177974953617605 
842	 0.177864721598557 
843	 0.177731553890504 
844	 0.177580407192509 
845	 0.177469836857589 
846	 0.177362302846681 
847	 0.177208697120691 
848	 0.177176008737251 
849	 0.177099802392043 
850	 0.176968442756637 
851	 0.176907211960038 
852	 0.176847457337781 
853	 0.176791429351312 
854	 0.17674746165786 
855	 0.176719465368015 
856	 0.176692850630815 
857	 0.176672460638644 
858	 0.176673477034929 
859	 0.176732161833705 
860	 0.176740261301582 
861	 0.176722395607875 
862	 0.176740996057254 
863	 0.176778804183988 
864	 0.176873727673228 
865	 0.176972772897653 
866	 0.176997468988974 
867	 0.177112854170894 
868	 0.177218548638039 
869	 0.177291612254489 
870	 0.177407900841805 
871	 0.177540794018013 
872	 0.177658480079299 
873	 0.177764996736478 
874	 0.177921383465655 
875	 0.178086421167833 
876	 0.178230151135232 
877	 0.17835917769907 
878	 0.178567174247222 
879	 0.178776721140031 
880	 0.178992855494137 
881	 0.179236946774458 
882	 0.179476719740428 
883	 0.179701496903504 
884	 0.179925100242658 
885	 0.180175953007007 
886	 0.180482044979629 
887	 0.180781097781863 
888	 0.181024123908645 
889	 0.181209586716397 
890	 0.181599000548132 
891	 0.18194500530634 
892	 0.182182176809416 
893	 0.182545333999814 
894	 0.182943406394178 
895	 0.183306257215335 
896	 0.183630734645875 
897	 0.184027008929633 
898	 0.184436373174642 
899	 0.184828398384776 
900	 0.18519226655221 
901	 0.185541769771185 
902	 0.185963365406788 
903	 0.186456782130591 
904	 0.186973973671556 
905	 0.187435112701125 
906	 0.187932646730888 
907	 0.188397475078431 
908	 0.188756085886634 
909	 0.18931684895677 
910	 0.189912544726268 
911	 0.190460851038115 
912	 0.190967909003639 
913	 0.191499303814141 
914	 0.19206276607732 
915	 0.192632978542285 
916	 0.193178775804363 
917	 0.193846214886583 
918	 0.194491556966618 
919	 0.195061669603422 
920	 0.195652741317774 
921	 0.196360490125206 
922	 0.197043814648809 
923	 0.197642500928272 
924	 0.198277977746946 
925	 0.198982903375822 
926	 0.199714775387597 
927	 0.200408251825625 
928	 0.200996333418592 
929	 0.201686523906114 
930	 0.202487369815313 
931	 0.20333111895104 
932	 0.204122623602168 
933	 0.204880518864226 
934	 0.205623952318114 
935	 0.206390736844711 
936	 0.207275580515121 
937	 0.20799816838811 
938	 0.208667104566472 
939	 0.20946980233451 
940	 0.210358184004192 
941	 0.211272685824992 
942	 0.212198277889553 
943	 0.213118031822523 
944	 0.213918056766208 
945	 0.214706392409531 
946	 0.21561987442686 
947	 0.216693342016836 
948	 0.217527798982404 
949	 0.218347941655847 
950	 0.219232792526621 
951	 0.220166168139296 
952	 0.221151579339555 
953	 0.221927243020023 
954	 0.222649040363296 
955	 0.22365463943362 
956	 0.224872473912719 
957	 0.225836842816641 
958	 0.226646130871389 
959	 0.227683479774361 
960	 0.228705396457449 
961	 0.22966452255541 
962	 0.23063275485416 
963	 0.23170584114038 
964	 0.23269484474278 
965	 0.233687210592003 
966	 0.234726418695769 
967	 0.235788336308184 
968	 0.2367115477433 
969	 0.237771436637703 
970	 0.23895265530699 
971	 0.240052219460119 
972	 0.241184352057455 
973	 0.24240813343167 
974	 0.243612088387267 
975	 0.244653968703061 
976	 0.245894069077065 
977	 0.247098861212007 
978	 0.248211281512998 
979	 0.249342865845428 
980	 0.250674378136523 
981	 0.251961588252167 
982	 0.253176296278937 
983	 0.254419415067786 
984	 0.255563118644866 
985	 0.256878920556243 
986	 0.258275192334041 
987	 0.259511885901865 
988	 0.260793380504425 
989	 0.262130897912071 
990	 0.263467192239846 
991	 0.264758855429844 
992	 0.266158881627036 
993	 0.267556588397644 
994	 0.268992959238052 
995	 0.270479774900843 
996	 0.271612503237905 
997	 0.273055044893266 
998	 0.274604305616809 
999	 0.275894560077468 
1000	 0.277331630164008 
1001	 0.281871135664224 
1002	 0.283295268738101 
1003	 0.284766602038683 
1004	 0.28620724648135 
1005	 0.287615132805748 
1006	 0.289098549351922 
1007	 0.290630149220083 
1008	 0.292086773349449 
1009	 0.293556970185649 
1010	 0.295104131087367 
1011	 0.296624708180483 
1012	 0.298121677362932 
1013	 0.299631197256605 
1014	 0.301141844563037 
1015	 0.302576625023404 
1016	 0.303992548803034 
1017	 0.305480648995832 
1018	 0.306997487615827 
1019	 0.308545314165848 
1020	 0.310133530431647 
1021	 0.311687299242464 
1022	 0.313193583131035 
1023	 0.314665734295868 
1024	 0.316071545595892 
1025	 0.317538710458039 
1026	 0.319066662004385 
1027	 0.320575382789734 
1028	 0.322128396048054 
1029	 0.323672454932791 
1030	 0.325166429907575 
1031	 0.32661774395341 
1032	 0.328033963096364 
1033	 0.329402350918517 
1034	 0.330786115512259 
1035	 0.332212659875159 
1036	 0.333744040376392 
1037	 0.335308818888718 
1038	 0.336838312858509 
1039	 0.338373450970772 
1040	 0.339780715760204 
1041	 0.341139326303941 
1042	 0.342554085483172 
1043	 0.34393141454501 
1044	 0.345312198174347 
1045	 0.346709958812658 
1046	 0.348107679096226 
1047	 0.349444125724076 
1048	 0.350800411464065 
1049	 0.352186910947804 
1050	 0.353602326929917 
1051	 0.355052052109342 
1052	 0.356466579257505 
1053	 0.357815804602558 
1054	 0.359150255996161 
1055	 0.360515631026772 
1056	 0.361863123934402 
1057	 0.363188554742997 
1058	 0.364510785402186 
1059	 0.36583407996918 
1060	 0.367126028326128 
1061	 0.368416100766315 
1062	 0.369726165047362 
1063	 0.371081003231478 
1064	 0.372436661375778 
1065	 0.373766647761141 
1066	 0.375093311415003 
1067	 0.376403622441101 
1068	 0.377678467970704 
1069	 0.378948521065526 
1070	 0.380229184111913 
1071	 0.381522616639278 
1072	 0.382795217732388 
1073	 0.384054697136339 
1074	 0.385305999480843 
1075	 0.386540093825936 
1076	 0.387769749635888 
1077	 0.389004106280952 
1078	 0.390205523525088 
1079	 0.391367665126701 
1080	 0.392511544812647 
1081	 0.393641734777135 
1082	 0.394796594357938 
1083	 0.395944564147374 
1084	 0.397108078110127 
1085	 0.398253870111521 
1086	 0.399386514614044 
1087	 0.400495020245543 
1088	 0.401592122313427 
1089	 0.402697038169309 
1090	 0.403741001229009 
1091	 0.404748807561743 
1092	 0.405706404026656 
1093	 0.406628550052577 
1094	 0.407563884125913 
1095	 0.408499683531232 
1096	 0.409474185569461 
1097	 0.410419180645669 
1098	 0.411320883633654 
1099	 0.412203070716819 
1100	 0.413061594190768 
1101	 0.41386934921132 
1102	 0.41468017627159 
1103	 0.415510592229152 
1104	 0.416255742345124 
1105	 0.416976891291611 
1106	 0.417726420707172 
1107	 0.418459507595199 
1108	 0.4191837946094 
1109	 0.419909475282043 
1110	 0.420638114965696 
1111	 0.421320602006644 
1112	 0.421965673634371 
1113	 0.422609604204274 
1114	 0.423244144148135 
1115	 0.423837389115427 
1116	 0.424396658864114 
1117	 0.424973192464554 
1118	 0.425543849407298 
1119	 0.426079318528638 
1120	 0.426615179867844 
1121	 0.427150556392203 
1122	 0.427634392232762 
1123	 0.428094790702752 
1124	 0.428524439265403 
1125	 0.428962482198145 
1126	 0.42929551423138 
1127	 0.429554195523855 
1128	 0.429805883851312 
1129	 0.430006552248393 
1130	 0.43018991689576 
1131	 0.430420615172243 
1132	 0.43050701286414 
1133	 0.430498463117086 
1134	 0.430458111256402 
1135	 0.430362817037818 
1136	 0.430195490255052 
1137	 0.429938807201881 
1138	 0.429634935715117 
1139	 0.429210718798613 
1140	 0.428663973186279 
1141	 0.428049437995963 
1142	 0.427388777350149 
1143	 0.426594674046082 
1144	 0.425676472326972 
1145	 0.42470839783423 
1146	 0.423641744725847 
1147	 0.422537499276115 
1148	 0.42132460946962 
1149	 0.420149635558717 
1150	 0.418938363422419 
1151	 0.417712062000222 
1152	 0.416553224598898 
1153	 0.415453492855972 
1154	 0.414406895285297 
1155	 0.413376504292715 
1156	 0.412479485938347 
1157	 0.411631125104863 
1158	 0.410911941964161 
1159	 0.410325429215414 
1160	 0.409776715738575 
1161	 0.409305474655791 
1162	 0.408901066871107 
1163	 0.408568516557079 
1164	 0.408279045220242 
1165	 0.408069399302536 
1166	 0.407889189154662 
1167	 0.407718267546508 
1168	 0.407569343837509 
1169	 0.407491134637135 
1170	 0.407459998625103 
1171	 0.407450700512111 
1172	 0.407513397328263 
1173	 0.407550927336208 
1174	 0.407564576618279 
1175	 0.407649452091752 
1176	 0.40775705684014 
1177	 0.407909675095975 
1178	 0.408119141123003 
1179	 0.408347379295028 
1180	 0.408607327011721 
1181	 0.408890093703734 
1182	 0.409211293810281 
1183	 0.409546664428598 
1184	 0.4098766526698 
1185	 0.410229133595865 
1186	 0.410555203895057 
1187	 0.410888654806007 
1188	 0.411180151437881 
1189	 0.411449022321318 
1190	 0.411710069536815 
1191	 0.411937174920225 
1192	 0.41217330830708 
1193	 0.412412241008716 
1194	 0.412637383489552 
1195	 0.412849027299445 
1196	 0.413060926620588 
1197	 0.413259812894867 
1198	 0.413466460795613 
1199	 0.413674971702174 
1200	 0.413885161690454 
1201	 0.414094918898495 
1202	 0.414303108499098 
1203	 0.414523024251123 
1204	 0.414746466727034 
1205	 0.414973859075285 
1206	 0.415214620602994 
1207	 0.415447721826872 
1208	 0.415692876389069 
1209	 0.415911504253023 
1210	 0.416121807545918 
1211	 0.416321140422141 
1212	 0.416493745072044 
1213	 0.416671638664718 
1214	 0.416850905821082 
1215	 0.417021572925519 
1216	 0.417186673406218 
1217	 0.417354006734944 
1218	 0.417494461864651 
1219	 0.417611668958718 
1220	 0.417745443436736 
1221	 0.417863162055506 
1222	 0.41799758945092 
1223	 0.418155687341512 
1224	 0.418293665165499 
1225	 0.418422833068869 
1226	 0.418555587623346 
1227	 0.418702330345603 
1228	 0.418816703797239 
1229	 0.418916134139103 
1230	 0.419010423437989 
1231	 0.419073640293472 
1232	 0.419143585325312 
1233	 0.419213812034571 
1234	 0.419288076309649 
1235	 0.419359496659292 
1236	 0.419420012186574 
1237	 0.4195016782661 
1238	 0.419606569748359 
1239	 0.419680091926269 
1240	 0.419753481093249 
1241	 0.419817062190323 
1242	 0.419859527087501 
1243	 0.419901065525851 
1244	 0.419937866997212 
1245	 0.419976661693379 
1246	 0.42000758042307 
1247	 0.420037092017831 
1248	 0.420068742308157 
1249	 0.420104185141512 
1250	 0.420130063532371 
1251	 0.420149252850915 
1252	 0.420153770458768 
1253	 0.420156153405309 
1254	 0.420138841729278 
1255	 0.420102705881017 
1256	 0.420056084636938 
1257	 0.41999591133024 
1258	 0.419929794402348 
1259	 0.419834211840508 
1260	 0.419763362387326 
1261	 0.419698249617908 
1262	 0.41963263146719 
1263	 0.419586923536893 
1264	 0.419524448333894 
1265	 0.419461677548799 
1266	 0.4193783998983 
1267	 0.419275444686131 
1268	 0.419172577977179 
1269	 0.419058509218973 
1270	 0.41892985867015 
1271	 0.418798800633061 
1272	 0.418668936988209 
1273	 0.418516706935776 
1274	 0.418354398223913 
1275	 0.418168399782448 
1276	 0.417960731350895 
1277	 0.417745746299728 
1278	 0.417506572973334 
1279	 0.417270959990247 
1280	 0.417041265569584 
1281	 0.416786489945514 
1282	 0.416525506403679 
1283	 0.416238508625303 
1284	 0.415932250342103 
1285	 0.41559605015728 
1286	 0.415243956002025 
1287	 0.41489754419217 
1288	 0.414555015236097 
1289	 0.414226228460331 
1290	 0.413850888892883 
1291	 0.413461480386768 
1292	 0.413062270104064 
1293	 0.412645278307189 
1294	 0.412189132828945 
1295	 0.411722202336105 
1296	 0.411227009389415 
1297	 0.410677595193696 
1298	 0.410132785153364 
1299	 0.409589606061772 
1300	 0.409017975538844 
1301	 0.408424572087843 
1302	 0.407807628956977 
1303	 0.407153639116134 
1304	 0.406518316038192 
1305	 0.405876389622582 
1306	 0.405206690011049 
1307	 0.404485199213893 
1308	 0.40370498452175 
1309	 0.402897855465837 
1310	 0.402014329353895 
1311	 0.401149539853967 
1312	 0.400292128256136 
1313	 0.39938585590494 
1314	 0.398470462028939 
1315	 0.397477035508861 
1316	 0.396443985528638 
1317	 0.395362500148962 
1318	 0.394213974362049 
1319	 0.393049560333166 
1320	 0.391855059548423 
1321	 0.390621917904527 
1322	 0.389368647766019 
1323	 0.388072357196237 
1324	 0.38668909343747 
1325	 0.385282057751821 
1326	 0.383856830447151 
1327	 0.382381449413926 
1328	 0.380890173989753 
1329	 0.379390639716506 
1330	 0.377830706255128 
1331	 0.376218683094608 
1332	 0.37457555305725 
1333	 0.37288163331073 
1334	 0.371199358997876 
1335	 0.36947697674321 
1336	 0.367781542044035 
1337	 0.366103919636214 
1338	 0.364420947481327 
1339	 0.362718542148365 
1340	 0.361045555569109 
1341	 0.359364127308483 
1342	 0.357728049389766 
1343	 0.356108211156339 
1344	 0.354546447902386 
1345	 0.352986779692983 
1346	 0.351484409544267 
1347	 0.350040825898783 
1348	 0.348618086836091 
1349	 0.347238666004446 
1350	 0.345893512811236 
1351	 0.344584984881083 
1352	 0.34331288390151 
1353	 0.34204093796971 
1354	 0.340797050886655 
1355	 0.339569768166381 
1356	 0.338347551773176 
1357	 0.337138181128223 
1358	 0.335962051434973 
1359	 0.334780250027913 
1360	 0.333605305012349 
1361	 0.332417148569824 
1362	 0.331248877085719 
1363	 0.330057310986178 
1364	 0.328861288901672 
1365	 0.327633270601144 
1366	 0.326402155919367 
1367	 0.325122433359933 
1368	 0.323814036941419 
1369	 0.322495368547776 
1370	 0.321124113510545 
1371	 0.31970560627379 
1372	 0.318242375084996 
1373	 0.316682963191086 
1374	 0.315023884966906 
1375	 0.313280368998219 
1376	 0.311439911209953 
1377	 0.309520472810262 
1378	 0.307445356449884 
1379	 0.3052663738693 
1380	 0.302962239832393 
1381	 0.30051977050378 
1382	 0.297946610029947 
1383	 0.295269240848584 
1384	 0.292466559842093 
1385	 0.289548278999411 
1386	 0.286501760894543 
1387	 0.283358967434819 
1388	 0.280084566914204 
1389	 0.276687664027746 
1390	 0.273119686707464 
1391	 0.269471118806389 
1392	 0.2656794540265 
1393	 0.261801525693803 
1394	 0.25788782998801 
1395	 0.253840524460582 
1396	 0.249772729688274 
1397	 0.245694167008362 
1398	 0.241529565826851 
1399	 0.237419824353412 
1400	 0.233290597020256 
1401	 0.229252322017977 
1402	 0.225206947154463 
1403	 0.221300312381718 
1404	 0.217440483423812 
1405	 0.213772590272993 
1406	 0.210197600271064 
1407	 0.206787576939143 
1408	 0.203508080554194 
1409	 0.200427118333337 
1410	 0.197493296743475 
1411	 0.194753494195606 
1412	 0.192198962641738 
1413	 0.18985083919128 
1414	 0.187666790185207 
1415	 0.18557946894822 
1416	 0.183649953647408 
1417	 0.18183031662322 
1418	 0.180099964334387 
1419	 0.178505186227494 
1420	 0.177008648199991 
1421	 0.175603476215019 
1422	 0.174273280726085 
1423	 0.172989849233509 
1424	 0.171769393367921 
1425	 0.170606226255351 
1426	 0.169517488402693 
1427	 0.168500037441018 
1428	 0.167526329918645 
1429	 0.166636445085036 
1430	 0.165754210080463 
1431	 0.164909750199191 
1432	 0.164090730616388 
1433	 0.163304869182152 
1434	 0.16253331290277 
1435	 0.161793471505312 
1436	 0.161062439022175 
1437	 0.160353302317445 
1438	 0.159653644903965 
1439	 0.158971742741098 
1440	 0.158285194995059 
1441	 0.157618986006708 
1442	 0.156950353005205 
1443	 0.156294540101285 
1444	 0.155695070848711 
1445	 0.155127675561377 
1446	 0.154603048743594 
1447	 0.154134816528708 
1448	 0.153719521542605 
1449	 0.153363308741976 
1450	 0.153065283519634 
1451	 0.152859449298208 
1452	 0.152733177020272 
1453	 0.152672745878016 
1454	 0.152710009382501 
1455	 0.152767583669315 
1456	 0.152885666115798 
1457	 0.153030044339135 
1458	 0.153237020221348 
1459	 0.153427702531051 
1460	 0.153665087986978 
1461	 0.153861960372949 
1462	 0.154047059177769 
1463	 0.154214610048357 
1464	 0.154374081649466 
1465	 0.154510595188693 
1466	 0.154624393734558 
1467	 0.154728988136309 
1468	 0.154805473319034 
1469	 0.154885214334242 
1470	 0.154955516334947 
1471	 0.155026892549692 
1472	 0.155094490935763 
1473	 0.155161557562591 
1474	 0.155245717108858 
1475	 0.155342768333217 
1476	 0.155438262811005 
1477	 0.155540771834834 
1478	 0.155648722523268 
1479	 0.155750601079167 
1480	 0.15587928594974 
1481	 0.156033807957508 
1482	 0.156183405547451 
1483	 0.15633583784676 
1484	 0.156510466370768 
1485	 0.15669215523011 
1486	 0.156891919803861 
1487	 0.157124976038129 
1488	 0.157331606811802 
1489	 0.157539199663728 
1490	 0.157748024795887 
1491	 0.157947505505979 
1492	 0.158154395572498 
1493	 0.158372504305178 
1494	 0.158579746203769 
1495	 0.158786816528119 
1496	 0.158982363356517 
1497	 0.159168480601998 
1498	 0.159353334502173 
1499	 0.159532020195516 
1500	 0.159702414001312 
1501	 0.159874887333485 
1502	 0.16003312526106 
1503	 0.160174803753986 
1504	 0.160315039911374 
1505	 0.160446835699361 
1506	 0.160580115676652 
1507	 0.160724207266302 
1508	 0.160853272551198 
1509	 0.160969340675278 
1510	 0.161083447561004 
1511	 0.161177061653041 
1512	 0.161268862025821 
1513	 0.161374103770148 
1514	 0.161485324914931 
1515	 0.161600893002171 
1516	 0.161721482647058 
1517	 0.161837771582989 
1518	 0.161960059887559 
1519	 0.162059060703913 
1520	 0.16214865092627 
1521	 0.162232468610482 
1522	 0.162298009793586 
1523	 0.162375055718514 
1524	 0.162456281734059 
1525	 0.162526548511088 
1526	 0.16258692851793 
1527	 0.162658072625924 
1528	 0.162732051218251 
1529	 0.162801629174665 
1530	 0.162878624478453 
1531	 0.162945150215105 
1532	 0.1630139013173 
1533	 0.163054590994471 
1534	 0.163071149597426 
1535	 0.163101747721753 
1536	 0.163112918082872 
1537	 0.163131946996587 
1538	 0.163174808073954 
1539	 0.163198654842236 
1540	 0.163196782192161 
1541	 0.163215647034815 
1542	 0.163249451220201 
1543	 0.163269673087271 
1544	 0.163288798203121 
1545	 0.163312325250589 
1546	 0.163338004978214 
1547	 0.163339734882575 
1548	 0.163366802748777 
1549	 0.163392175982992 
1550	 0.163373890389609 
1551	 0.163349540763328 
1552	 0.163325053382835 
1553	 0.163305177610518 
1554	 0.163304222556802 
1555	 0.163307956793972 
1556	 0.163313293244776 
1557	 0.16331075092217 
1558	 0.163292958786225 
1559	 0.163283456174243 
1560	 0.163265077591881 
1561	 0.163232761542724 
1562	 0.163202736734471 
1563	 0.163174726066053 
1564	 0.163143097615759 
1565	 0.163109924425588 
1566	 0.163067406253349 
1567	 0.163022991339477 
1568	 0.162971285520881 
1569	 0.162894682911179 
1570	 0.162849552103456 
1571	 0.162819425260958 
1572	 0.162779092624718 
1573	 0.162759267796908 
1574	 0.16271488064573 
1575	 0.162653459097528 
1576	 0.162589719430718 
1577	 0.16250722182931 
1578	 0.162446387549439 
1579	 0.162388559055689 
1580	 0.162333169719627 
1581	 0.162305290565685 
1582	 0.162243480629478 
1583	 0.162156970848219 
1584	 0.162082377262589 
1585	 0.161996183015267 
1586	 0.161919494117919 
1587	 0.161862559782412 
1588	 0.16178256160537 
1589	 0.161690119179128 
1590	 0.16159807736529 
1591	 0.161495037266514 
1592	 0.161394815096586 
1593	 0.161291554604475 
1594	 0.161192643802605 
1595	 0.161103698773147 
1596	 0.160996180995587 
1597	 0.160882860308281 
1598	 0.160768437377594 
1599	 0.160634865505909 
1600	 0.160509003274968 
1601	 0.160399607068301 
1602	 0.160272907693914 
1603	 0.160132923311788 
1604	 0.159993587671948 
1605	 0.159835772283511 
1606	 0.159692677316884 
1607	 0.159552878644553 
1608	 0.159429937931851 
1609	 0.159306929265215 
1610	 0.159180044395032 
1611	 0.159029016270676 
1612	 0.158866440917289 
1613	 0.15870204517569 
1614	 0.158520152645135 
1615	 0.15833583723926 
1616	 0.158151357839734 
1617	 0.157964344328478 
1618	 0.157782289659375 
1619	 0.157594010241076 
1620	 0.157415756646559 
1621	 0.157236942074557 
1622	 0.157056075991875 
1623	 0.156864077618734 
1624	 0.156673667282114 
1625	 0.156482584032767 
1626	 0.156274545625424 
1627	 0.156087877826948 
1628	 0.155926360562484 
1629	 0.155728765703317 
1630	 0.15551133764495 
1631	 0.155317196282937 
1632	 0.155113474398496 
1633	 0.154925109786553 
1634	 0.154771359345538 
1635	 0.154573771664332 
1636	 0.154352936785252 
1637	 0.154145912959206 
1638	 0.153920764865079 
1639	 0.15372211086477 
1640	 0.153549890016743 
1641	 0.153349340300617 
1642	 0.153147968527993 
1643	 0.152935828371013 
1644	 0.15269725814473 
1645	 0.152485998867457 
1646	 0.152286009377491 
1647	 0.152079462748517 
1648	 0.151884196403546 
1649	 0.151675298945773 
1650	 0.151454565111086 
1651	 0.151240231653338 
1652	 0.151028314499614 
1653	 0.150807447681759 
1654	 0.150583298794822 
1655	 0.150357011702708 
1656	 0.150119837722171 
1657	 0.149892995576183 
1658	 0.149666106484835 
1659	 0.149449019668623 
1660	 0.149244517488138 
1661	 0.149028101004771 
1662	 0.148812016047045 
1663	 0.148596351098062 
1664	 0.148375284035146 
1665	 0.148153652195922 
1666	 0.147928217831968 
1667	 0.147717805067343 
1668	 0.147512264673469 
1669	 0.14730420461362 
1670	 0.147112194845969 
1671	 0.146907664247196 
1672	 0.146686327447626 
1673	 0.14648084627715 
1674	 0.146290846355594 
1675	 0.146082753043627 
1676	 0.145869332119685 
1677	 0.145658237029911 
1678	 0.145434947550153 
1679	 0.145221036645504 
1680	 0.145009586795292 
1681	 0.144810386251412 
1682	 0.144612755728337 
1683	 0.144427978058743 
1684	 0.144273017855511 
1685	 0.144089062505869 
1686	 0.143899402933552 
1687	 0.143704750055468 
1688	 0.14348839060949 
1689	 0.143287629494078 
1690	 0.143091866452568 
1691	 0.142898585936874 
1692	 0.14271523206672 
1693	 0.142521159868782 
1694	 0.142316780910484 
1695	 0.142129794959549 
1696	 0.141946942124619 
1697	 0.141761411908533 
1698	 0.141587351980643 
1699	 0.141412515943804 
1700	 0.141235684400799 
1701	 0.141054467079428 
1702	 0.140876334010421 
1703	 0.140695308303374 
1704	 0.14050749294665 
1705	 0.140315635242532 
1706	 0.140124505982623 
1707	 0.139935941372563 
1708	 0.139739312639215 
1709	 0.139549393816765 
1710	 0.139361914444917 
1711	 0.139184261565008 
1712	 0.139016467160913 
1713	 0.138835305035195 
1714	 0.138658328347839 
1715	 0.138480346461241 
1716	 0.138287302819596 
1717	 0.138105853550001 
1718	 0.13793213916147 
1719	 0.137764011836119 
1720	 0.137598179124692 
1721	 0.137433500855784 
1722	 0.137276307001237 
1723	 0.137125685904803 
1724	 0.136977008192078 
1725	 0.136829001035102 
1726	 0.136696003818628 
1727	 0.136543103524317 
1728	 0.136375519892548 
1729	 0.136219725312583 
1730	 0.13606527868374 
1731	 0.135906599399699 
1732	 0.13575059799165 
1733	 0.1355864490191 
1734	 0.135408705275263 
1735	 0.135249183026928 
1736	 0.135089016767703 
1737	 0.134948163103314 
1738	 0.134828749967773 
1739	 0.134693510949406 
1740	 0.134566870415378 
1741	 0.134430023673325 
1742	 0.134274666917594 
1743	 0.134151331147336 
1744	 0.134043094203231 
1745	 0.13391749647121 
1746	 0.133807143037081 
1747	 0.133655658871466 
1748	 0.133504458047478 
1749	 0.133342499761054 
1750	 0.133182832142013 
1751	 0.133043271597514 
1752	 0.132896483462062 
1753	 0.132737811478196 
1754	 0.132598953064115 
1755	 0.132455925291908 
1756	 0.132319891584145 
1757	 0.132229383548657 
1758	 0.132125118221151 
1759	 0.132021122737118 
1760	 0.131927011780306 
1761	 0.131790668583087 
1762	 0.131652439396368 
1763	 0.131527775565582 
1764	 0.131394914727973 
1765	 0.131265523260365 
1766	 0.131154170971386 
1767	 0.131045366670045 
1768	 0.130911956427129 
1769	 0.130795568974038 
1770	 0.130692545544304 
1771	 0.130573984948956 
1772	 0.130467500818049 
1773	 0.130368897561502 
1774	 0.130279129142188 
1775	 0.130176682147614 
1776	 0.130070769224836 
1777	 0.12997696066555 
1778	 0.129870139160405 
1779	 0.129778403655661 
1780	 0.129694978303325 
1781	 0.129621138731354 
1782	 0.129548030888857 
1783	 0.129476955728844 
1784	 0.12940278707016 
1785	 0.129308447053982 
1786	 0.12923184334882 
1787	 0.129160938686865 
1788	 0.129093380743149 
1789	 0.129053828869459 
1790	 0.128987292609971 
1791	 0.128900156615905 
1792	 0.128828547764087 
1793	 0.1287390909792 
1794	 0.128675021013078 
1795	 0.128642742408165 
1796	 0.12859791878226 
1797	 0.128552930297146 
1798	 0.128508837719414 
1799	 0.128468163125373 
1800	 0.128427194613657 
1801	 0.128495912541045 
1802	 0.128490515361099 
1803	 0.128480529443565 
1804	 0.128497841082756 
1805	 0.128509226756561 
1806	 0.128512531214989 
1807	 0.128506040166115 
1808	 0.128492058393137 
1809	 0.128470990417664 
1810	 0.12843883286544 
1811	 0.128387968446819 
1812	 0.12835166336646 
1813	 0.128308642376303 
1814	 0.128268136161216 
1815	 0.128242934975998 
1816	 0.128219724584415 
1817	 0.1281915254109 
1818	 0.128156357758873 
1819	 0.128133210520489 
1820	 0.128113397685361 
1821	 0.128092638977708 
1822	 0.128085337245763 
1823	 0.128094055272965 
1824	 0.128067902120886 
1825	 0.128021626525493 
1826	 0.12798019973021 
1827	 0.127922226855754 
1828	 0.127863152452518 
1829	 0.127812804351394 
1830	 0.127745569957881 
1831	 0.12765955310768 
1832	 0.12757558586605 
1833	 0.127501336271283 
1834	 0.127423541350088 
1835	 0.127384594364646 
1836	 0.127351084683367 
1837	 0.127313203945446 
1838	 0.127291510664361 
1839	 0.127241291280643 
1840	 0.127181279244657 
1841	 0.127096094858439 
1842	 0.126995611844379 
1843	 0.126908117873898 
1844	 0.126812554449801 
1845	 0.126692702846702 
1846	 0.126581379426165 
1847	 0.126437032694665 
1848	 0.12628652658731 
1849	 0.126161145256803 
1850	 0.126013537838383 
1851	 0.125864234471543 
1852	 0.125682959261609 
1853	 0.125490431490634 
1854	 0.125304056519205 
1855	 0.125081676944494 
1856	 0.124838417192767 
1857	 0.1246020903412 
1858	 0.124334769991738 
1859	 0.12404545462751 
1860	 0.123733719841353 
1861	 0.123418998031384 
1862	 0.123064065537043 
1863	 0.122675952093694 
1864	 0.122261144821204 
1865	 0.121836451146044 
1866	 0.121391264198432 
1867	 0.12089177998633 
1868	 0.120359432197341 
1869	 0.119807978447674 
1870	 0.11923418783483 
1871	 0.118621142473851 
1872	 0.117987501339435 
1873	 0.117321229731582 
1874	 0.11660307630752 
1875	 0.115841273746793 
1876	 0.115045402363149 
1877	 0.114202136211945 
1878	 0.113320645098552 
1879	 0.112382388657683 
1880	 0.111407068795891 
1881	 0.110374208727222 
1882	 0.109332499420351 
1883	 0.108265494068739 
1884	 0.107145246724114 
1885	 0.106002869831844 
1886	 0.104810675862978 
1887	 0.103537588597888 
1888	 0.102229797319199 
1889	 0.100892932238643 
1890	 9.95290009994051E-02 
1891	 9.81726395867313E-02 
1892	 9.67910573548846E-02 
1893	 9.54383483719155E-02 
1894	 9.40905232616466E-02 
1895	 0.09274975221803 
1896	 9.14171986513337E-02 
1897	 9.00993417801885E-02 
1898	 0.08878231779173 
1899	 8.74924156119536E-02 
1900	 8.62256822265333E-02 
1901	 8.50044078333859E-02 
1902	 8.38655572868064E-02 
1903	 8.27826887425501E-02 
1904	 8.17703042850517E-02 
1905	 8.08361558494037E-02 
1906	 7.99767212142967E-02 
1907	 7.91437981582514E-02 
1908	 7.83782038439751E-02 
1909	 7.76713057233898E-02 
1910	 7.70122520752105E-02 
1911	 7.64269248857328E-02 
1912	 7.58829775954934E-02 
1913	 7.53532626001405E-02 
1914	 7.48595481916319E-02 
1915	 7.43855836392088E-02 
1916	 7.39306470553211E-02 
1917	 7.34965976743277E-02 
1918	 0.073112013206513 
1919	 7.27420499857728E-02 
1920	 7.23882436403256E-02 
1921	 7.20615342014142E-02 
1922	 7.17462034447542E-02 
1923	 7.14557315987659E-02 
1924	 7.11872789699066E-02 
1925	 0.070945653607829 
1926	 7.07261255157633E-02 
1927	 7.05357975851471E-02 
1928	 7.03417854520441E-02 
1929	 7.01803757089989E-02 
1930	 7.00398043005001E-02 
1931	 6.98992429253634E-02 
1932	 6.98024281067232E-02 
1933	 6.97288672087464E-02 
1934	 6.96505437523781E-02 
1935	 6.95950595852199E-02 
1936	 6.95617453278366E-02 
1937	 6.95336341447451E-02 
1938	 6.95121406458815E-02 
1939	 6.95148861802223E-02 
1940	 6.95317730131099E-02 
1941	 6.95606230958118E-02 
1942	 0.069623180545996 
1943	 0.069707098995386 
1944	 6.97966513062382E-02 
1945	 6.98934611182708E-02 
1946	 7.00028119456311E-02 
1947	 7.01179025585136E-02 
1948	 7.02471996458909E-02 
1949	 7.03931802264506E-02 
1950	 7.05480189359185E-02 
1951	 7.07217914118566E-02 
1952	 7.08897915290114E-02 
1953	 7.10498788920039E-02 
1954	 7.12180859699452E-02 
1955	 7.13862102075383E-02 
1956	 7.15417579213487E-02 
1957	 7.17047907459496E-02 
1958	 0.071888117847309 
1959	 0.072043450609152 
1960	 7.21753145625988E-02 
1961	 7.23227959453245E-02 
1962	 0.07247286244484 
1963	 7.26109895810798E-02 
1964	 7.27445786901351E-02 
1965	 7.28915837194534E-02 
1966	 7.30172541242878E-02 
1967	 7.31235838839084E-02 
1968	 7.32565296207477E-02 
1969	 7.34014839580806E-02 
1970	 7.35447651799816E-02 
1971	 7.36956764622201E-02 
1972	 7.38539478149287E-02 
1973	 7.40085635721311E-02 
1974	 7.41735994982324E-02 
1975	 7.43494949704787E-02 
1976	 7.45386089683367E-02 
1977	 7.47185381835101E-02 
1978	 0.074899600844789 
1979	 7.50717974733402E-02 
1980	 0.075240154208072 
1981	 7.54175014682364E-02 
1982	 0.075584637149431 
1983	 7.57827986644345E-02 
1984	 7.60167892718148E-02 
1985	 7.62200259064997E-02 
1986	 7.64292946402517E-02 
1987	 0.076631529636419 
1988	 7.68241949430628E-02 
1989	 7.69991097802867E-02 
1990	 7.71721172138745E-02 
1991	 7.73375702253663E-02 
1992	 7.75122161782301E-02 
1993	 7.76682900983438E-02 
1994	 0.077847449076251 
1995	 7.80532332488622E-02 
1996	 7.82441804342239E-02 
1997	 7.84333858187447E-02 
1998	 7.86240619601497E-02 
1999	 7.88141058024389E-02 
2000	 7.90043971315651E-02 
2001	 7.92013101161254E-02 
2002	 7.93833890945933E-02 
2003	 7.95729345774016E-02 
2004	 7.97628912080849E-02 
2005	 7.99445366038972E-02 
2006	 8.01305780682373E-02 
2007	 8.02960820391652E-02 
2008	 8.04418723172173E-02 
2009	 8.05941561750451E-02 
2010	 8.07198224879361E-02 
2011	 0.080877635832726 
2012	 8.10597735533881E-02 
2013	 8.12358083620956E-02 
2014	 8.14260785876942E-02 
2015	 8.16136068088045E-02 
2016	 8.17972964691235E-02 
2017	 8.19544247812595E-02 
2018	 0.082124491706339 
2019	 8.22925722968159E-02 
2020	 8.24626287466893E-02 
2021	 8.26371308503808E-02 
2022	 8.28047611545871E-02 
2023	 8.29624542493455E-02 
2024	 8.31323480606374E-02 
2025	 0.083310832701668 
2026	 8.34814861253644E-02 
2027	 8.36516495707925E-02 
2028	 8.38256336126014E-02 
2029	 8.40015655972735E-02 
2030	 8.41725136670931E-02 
2031	 8.43413139780212E-02 
2032	 0.084517900449239 
2033	 8.46878947874422E-02 
2034	 8.48557506680714E-02 
2035	 8.50111200014853E-02 
2036	 0.085156918798827 
2037	 8.53077890403042E-02 
2038	 8.54483476050099E-02 
2039	 0.085589747983938 
2040	 8.57311005161504E-02 
2041	 8.58844102052905E-02 
2042	 8.60291571856642E-02 
2043	 8.61647602848199E-02 
2044	 8.63145527565047E-02 
2045	 0.086473805640882 
2046	 8.66301414004832E-02 
2047	 0.086796428868132 
2048	 8.69490866220235E-02 
2049	 8.71052369355492E-02 
2050	 8.72460388553614E-02 
2051	 8.73547016479986E-02 
2052	 0.087490924078076 
2053	 8.76391745280013E-02 
2054	 8.77766244566789E-02 
2055	 8.79154747734105E-02 
2056	 8.80746047547253E-02 
2057	 8.82112878581689E-02 
2058	 8.83275733407139E-02 
2059	 8.84561339420766E-02 
2060	 0.088592164266685 
2061	 8.87142427223118E-02 
2062	 8.88245073437473E-02 
2063	 8.89442710180227E-02 
2064	 8.90520036157777E-02 
2065	 8.91796800288296E-02 
2066	 0.089335839794983 
2067	 8.94708474326049E-02 
2068	 8.96151707731938E-02 
2069	 8.97334178820639E-02 
2070	 8.98585629955933E-02 
2071	 8.99643974380656E-02 
2072	 9.00946973157496E-02 
2073	 9.02395005863278E-02 
2074	 9.03729529833543E-02 
2075	 9.05171515924979E-02 
2076	 9.06443141784088E-02 
2077	 0.090760641408027 
2078	 9.08740577494761E-02 
2079	 9.09795733560044E-02 
2080	 9.10799770443901E-02 
2081	 9.11552265581669E-02 
2082	 9.12588439105333E-02 
2083	 9.13776951692683E-02 
2084	 9.14989725093808E-02 
2085	 9.16053875281882E-02 
2086	 9.17227989823887E-02 
2087	 9.18319255090115E-02 
2088	 9.19140550527277E-02 
2089	 9.20214350157719E-02 
2090	 9.21547979145388E-02 
2091	 9.22648381658095E-02 
2092	 9.23726157616796E-02 
2093	 9.24699359251514E-02 
2094	 9.25373464228738E-02 
2095	 9.26360424967138E-02 
2096	 9.27454436538947E-02 
2097	 0.092854109253302 
2098	 9.29835861777364E-02 
2099	 9.31124906461244E-02 
2100	 9.32227647468363E-02 
2101	 0.093315037635798 
2102	 0.093423172536468 
2103	 9.35252456128755E-02 
2104	 9.36385078279465E-02 
2105	 9.37621352134435E-02 
2106	 9.38858842290725E-02 
2107	 9.40242623427705E-02 
2108	 9.41417777199701E-02 
2109	 9.42512035190964E-02 
2110	 9.43614077915436E-02 
2111	 9.44396609943843E-02 
2112	 9.45523155806131E-02 
2113	 9.46923750686319E-02 
2114	 0.094828195645939 
2115	 9.49580425265137E-02 
2116	 9.51051585438188E-02 
2117	 9.52249285197886E-02 
2118	 0.095317156168892 
2119	 0.095434034686475 
2120	 9.55633531606056E-02 
2121	 9.56731046534618E-02 
2122	 9.57767048756834E-02 
2123	 9.58858691405479E-02 
2124	 9.59944943500508E-02 
2125	 0.096085393935687 
2126	 9.61654579918633E-02 
2127	 9.62582135924051E-02 
2128	 9.63344660409688E-02 
2129	 9.64197088951764E-02 
2130	 9.65225197096345E-02 
2131	 9.66447104240408E-02 
2132	 9.67184295120654E-02 
2133	 9.67670430617306E-02 
2134	 9.68219209302765E-02 
2135	 9.68487952443599E-02 
2136	 9.68959991373718E-02 
2137	 9.69556812457864E-02 
2138	 9.70047485852421E-02 
2139	 9.70606964831823E-02 
2140	 9.70998297642695E-02 
2141	 9.71293180709257E-02 
2142	 9.71520972324418E-02 
2143	 9.71521227148016E-02 
2144	 9.71636240803161E-02 
2145	 9.71771307425827E-02 
2146	 9.71912316515177E-02 
2147	 9.72247568301757E-02 
2148	 9.72345599647922E-02 
2149	 9.72346158080508E-02 
2150	 9.72209469347486E-02 
2151	 9.72115927165109E-02 
2152	 9.71815593490809E-02 
2153	 0.097176259443341 
2154	 9.71848552731942E-02 
2155	 9.71891907888699E-02 
2156	 9.72073347020971E-02 
2157	 9.72104813082773E-02 
2158	 9.72267946075451E-02 
2159	 9.72046242157935E-02 
2160	 9.71492015524675E-02 
2161	 9.71014097407272E-02 
2162	 9.70057254146654E-02 
2163	 9.69516304634387E-02 
2164	 9.69181089372207E-02 
2165	 9.69046568866519E-02 
2166	 9.68889486189167E-02 
2167	 9.69084140531884E-02 
2168	 9.68772048879408E-02 
2169	 9.68210514255273E-02 
2170	 9.67799641547193E-02 
2171	 9.67234109606027E-02 
2172	 0.096672496807526 
2173	 9.66376136059155E-02 
2174	 0.096584995880073 
2175	 9.65095435872755E-02 
2176	 9.64494206048299E-02 
2177	 9.63899272841788E-02 
2178	 9.63371923749371E-02 
2179	 9.62991579785417E-02 
2180	 0.096249334936245 
2181	 9.61984300568239E-02 
2182	 9.61466126100485E-02 
2183	 9.60989378754463E-02 
2184	 9.60286377447447E-02 
2185	 9.59637465253748E-02 
2186	 0.095889185935063 
2187	 0.095837520993576 
2188	 9.57940697124866E-02 
2189	 9.57412447863793E-02 
2190	 0.095693459009554 
2191	 9.56578597315865E-02 
2192	 9.56189879149868E-02 
2193	 0.09558406265869 
2194	 9.55759045123145E-02 
2195	 0.095547448212102 
2196	 9.55082263516164E-02 
2197	 9.54607088031086E-02 
2198	 9.54072169518834E-02 
2199	 9.53527540467364E-02 
2200	 9.52723252631008E-02 
2201	 9.52117205549551E-02 
2202	 9.51719677440542E-02 
2203	 0.095118731134456 
2204	 0.095069329454541 
2205	 9.50160291905387E-02 
2206	 9.49939867085929E-02 
2207	 0.094983884302292 
2208	 9.49702257814389E-02 
2209	 9.49911921208623E-02 
2210	 9.49802238366143E-02 
2211	 9.49493583231084E-02 
2212	 9.49187336250269E-02 
2213	 0.094868347498772 
2214	 9.48426827425166E-02 
2215	 9.48216675085848E-02 
2216	 9.48045159056835E-02 
2217	 9.48092578483905E-02 
2218	 9.48061412639104E-02 
2219	 9.48005950265153E-02 
2220	 9.47897625146794E-02 
2221	 9.47757858177148E-02 
2222	 9.47652001922386E-02 
2223	 9.47528662235065E-02 
2224	 9.47441225253941E-02 
2225	 9.47322210657971E-02 
2226	 9.47321439241654E-02 
2227	 0.094710598440878 
2228	 9.46725428490434E-02 
2229	 9.46429468216208E-02 
2230	 9.46050027638051E-02 
2231	 9.45734303786523E-02 
2232	 9.45465174120989E-02 
2233	 9.45226197039209E-02 
2234	 9.45034870628455E-02 
2235	 9.44798177291821E-02 
2236	 9.44624615755758E-02 
2237	 9.44292221549655E-02 
2238	 9.43790801760716E-02 
2239	 9.43417276462904E-02 
2240	 9.43020856423819E-02 
2241	 9.42649536727489E-02 
2242	 9.42332730445772E-02 
2243	 9.42049658219082E-02 
2244	 0.094162986916695 
2245	 0.094152265712133 
2246	 9.41624505286638E-02 
2247	 0.094136817156341 
2248	 0.094101054019459 
2249	 9.40573543050264E-02 
2250	 9.40088874647474E-02 
2251	 9.39319033487052E-02 
2252	 9.38771019854412E-02 
2253	 9.38233117773308E-02 
2254	 9.37875721720923E-02 
2255	 9.37772089773355E-02 
2256	 9.37342508480342E-02 
2257	 0.093683279642054 
2258	 9.36426842954577E-02 
2259	 0.093593613866067 
2260	 0.093538413998444 
2261	 9.34878252165986E-02 
2262	 9.34453907588453E-02 
2263	 9.33943513364799E-02 
2264	 9.33373290130885E-02 
2265	 0.093301714502523 
2266	 9.32488674267956E-02 
2267	 9.31666682993071E-02 
2268	 9.30915271906765E-02 
2269	 0.093022914244518 
2270	 9.29445128987144E-02 
2271	 9.28739455293852E-02 
2272	 9.28025099869412E-02 
2273	 9.26869502358312E-02 
2274	 0.092579343106117 
2275	 9.24565794883777E-02 
2276	 9.22896880433335E-02 
2277	 9.21652933384818E-02 
2278	 9.20661713580941E-02 
2279	 9.19459446930919E-02 
2280	 9.18182822730905E-02 
2281	 0.09171683129897 
2282	 9.16331719946512E-02 
2283	 9.15202958733746E-02 
2284	 9.13985749168473E-02 
2285	 0.091304295530433 
2286	 9.11942979203571E-02 
2287	 9.11003144446448E-02 
2288	 9.10668689431568E-02 
2289	 9.09865263599537E-02 
2290	 9.08728592491432E-02 
2291	 9.07637171880507E-02 
2292	 9.06476947982552E-02 
2293	 9.05183640648184E-02 
2294	 9.03832823434294E-02 
2295	 9.02453075282558E-02 
2296	 0.090072232996513 
2297	 8.99423595409613E-02 
2298	 8.98341374061263E-02 
2299	 8.96875927427863E-02 
2300	 8.95646552940311E-02 
2301	 8.94212162203911E-02 
2302	 0.089269753601202 
2303	 8.91260608647047E-02 
2304	 0.088967067922046 
2305	 8.88271748066961E-02 
2306	 8.86960877343316E-02 
2307	 8.85695246349709E-02 
2308	 8.84279311467506E-02 
2309	 8.82988616720808E-02 
2310	 8.81674394320199E-02 
2311	 8.80240929045134E-02 
2312	 8.78707272577515E-02 
2313	 8.77339478624852E-02 
2314	 0.087575476392901 
2315	 8.73766459973006E-02 
2316	 8.72026745675662E-02 
2317	 8.70398331682656E-02 
2318	 8.68626542643535E-02 
2319	 8.66796888153674E-02 
2320	 8.64998695945785E-02 
2321	 8.63031343553535E-02 
2322	 8.61264970620558E-02 
2323	 0.085977762793573 
2324	 8.58073274203585E-02 
2325	 8.56292342778294E-02 
2326	 0.085474972939548 
2327	 8.53269247598131E-02 
2328	 8.51507099128661E-02 
2329	 8.50220459001676E-02 
2330	 8.49014191371083E-02 
2331	 8.47569874444184E-02 
2332	 0.084600050218677 
2333	 8.44288357928916E-02 
2334	 8.42709525171732E-02 
2335	 8.41535207756347E-02 
2336	 8.39831197985941E-02 
2337	 8.37965690365219E-02 
2338	 8.36278618803538E-02 
2339	 8.33612765441222E-02 
2340	 0.083141303007263 
2341	 8.29687361619766E-02 
2342	 8.27721765209793E-02 
2343	 8.26850155538412E-02 
2344	 8.25850090526931E-02 
2345	 8.24556919644295E-02 
2346	 8.23655315186617E-02 
2347	 0.082182394730965 
2348	 8.19085149916964E-02 
2349	 8.16935981484876E-02 
2350	 8.14583286352149E-02 
2351	 8.12335773616572E-02 
2352	 8.10242311633813E-02 
2353	 8.08152617048275E-02 
2354	 8.06060678104258E-02 
2355	 8.03867713231219E-02 
2356	 8.01774373663788E-02 
2357	 7.99592511010149E-02 
2358	 7.97133625745741E-02 
2359	 7.94898191383289E-02 
2360	 7.92879253655646E-02 
2361	 7.90738504523589E-02 
2362	 7.88612053937166E-02 
2363	 7.86463478412228E-02 
2364	 7.84227005098976E-02 
2365	 0.078202920125671 
2366	 7.79759016255797E-02 
2367	 7.77575682030347E-02 
2368	 7.75319471864556E-02 
2369	 7.73366230097682E-02 
2370	 7.71852261102137E-02 
2371	 7.70044605586838E-02 
2372	 7.67692909999636E-02 
2373	 0.076523196763355 
2374	 7.62062660684084E-02 
2375	 7.59013645157154E-02 
2376	 0.075629271220913 
2377	 7.53869633569161E-02 
2378	 7.52117719768515E-02 
2379	 7.50408132530433E-02 
2380	 7.49175248503808E-02 
2381	 0.074822943066554 
2382	 7.46513482584208E-02 
2383	 7.44321658168272E-02 
2384	 7.41921465989341E-02 
2385	 0.073938033670913 
2386	 7.37344989969272E-02 
2387	 0.073584282199187 
2388	 7.34271992075474E-02 
2389	 7.32533048833974E-02 
2390	 7.29650344816307E-02 
2391	 7.26173434214271E-02 
2392	 7.23632753001834E-02 
2393	 7.21328498650664E-02 
2394	 7.19518247918336E-02 
2395	 0.071834939996776 
2396	 7.16967913777415E-02 
2397	 7.15252701544344E-02 
2398	 7.13345787277487E-02 
2399	 7.11153885096414E-02 
2400	 7.08975912061521E-02 
2401	 7.06608229263361E-02 
2402	 7.04535910264946E-02 
2403	 7.03843759925292E-02 
2404	 7.02999935417112E-02 
2405	 7.01551224174665E-02 
2406	 7.00320073455721E-02 
2407	 6.98817881893124E-02 
2408	 0.069641556262148 
2409	 6.93958375729245E-02 
2410	 6.92226266275568E-02 
2411	 6.90122387255843E-02 
2412	 6.88170541714614E-02 
2413	 6.86941258398884E-02 
2414	 6.85337727245239E-02 
2415	 6.84313722106132E-02 
2416	 6.83387083024586E-02 
2417	 6.83312669750026E-02 
2418	 6.81698889203848E-02 
2419	 6.79145910252401E-02 
2420	 6.77295229070976E-02 
2421	 6.75141842643578E-02 
2422	 6.73116630699283E-02 
2423	 6.71641084465824E-02 
2424	 0.067016726630147 
2425	 6.67734464483098E-02 
2426	 6.66616694062348E-02 
2427	 6.67132078212155E-02 
2428	 6.66255409583688E-02 
2429	 6.65540244566776E-02 
2430	 6.64402675037392E-02 
2431	 6.61858743280752E-02 
2432	 6.60396237584634E-02 
2433	 6.59470546067656E-02 
2434	 6.57971782682741E-02 
2435	 6.57025804896521E-02 
2436	 6.55254652965273E-02 
2437	 6.52346581736867E-02 
2438	 6.50372206696727E-02 
2439	 6.48846159775974E-02 
2440	 0.064669302570937 
2441	 6.44677386504195E-02 
2442	 6.42129914675778E-02 
2443	 6.37917960628934E-02 
2444	 6.35891926947404E-02 
2445	 6.35388842324972E-02 
2446	 6.34251354480372E-02 
2447	 6.33710291073426E-02 
2448	 6.33193283551802E-02 
2449	 6.32569870612639E-02 
2450	 6.31415921439121E-02 
2451	 6.30788741310307E-02 
2452	 6.29628318756886E-02 
2453	 6.27139059712829E-02 
2454	 6.24801392658653E-02 
2455	 6.22214520073544E-02 
2456	 6.20247628039797E-02 
2457	 6.18626057911581E-02 
2458	 6.17232324269408E-02 
2459	 6.16878869635941E-02 
2460	 6.15937583324122E-02 
2461	 6.14335449537493E-02 
2462	 6.12549553724949E-02 
2463	 6.11107006273439E-02 
2464	 6.09450070125468E-02 
2465	 6.06317288014579E-02 
2466	 6.04822169268773E-02 
2467	 6.04080475721944E-02 
2468	 6.02403729050656E-02 
2469	 6.01973614397178E-02 
2470	 5.99380691590354E-02 
2471	 5.98341380923487E-02 
2472	 5.97759853440782E-02 
2473	 5.96130370021257E-02 
2474	 0.059514329199462 
2475	 5.92534385330608E-02 
2476	 0.059029082136585 
2477	 0.05890309575979 
2478	 5.87917733377104E-02 
2479	 5.86785130254528E-02 
2480	 5.86347064864625E-02 
2481	 5.86803524200345E-02 
2482	 5.84908860322978E-02 
2483	 5.83781327450428E-02 
2484	 5.83795845469505E-02 
2485	 5.81976943623558E-02 
2486	 5.80920303095651E-02 
2487	 5.79831277694657E-02 
2488	 5.77523678334727E-02 
2489	 5.74195009756409E-02 
2490	 5.71791941826672E-02 
2491	 5.71466140768127E-02 
2492	 5.71413554069287E-02 
2493	 0.057183750721964 
2494	 5.71479878768893E-02 
2495	 5.70200951399968E-02 
2496	 5.69475068570581E-02 
2497	 5.68880592988966E-02 
2498	 0.056800335028311 
2499	 5.66998618174657E-02 
2500	 5.65509966028797E-02 
