Wavelength	lmw-9-200003.asd
350	 7.04034403435303E-02 
351	 7.68157100813341E-02 
352	 7.40240107482922E-02 
353	 5.82952989696132E-02 
354	 5.93543065344826E-02 
355	 6.32182843365285E-02 
356	 6.09791083115671E-02 
357	 5.20183356115154E-02 
358	 6.12711819517863E-02 
359	 6.23769682974094E-02 
360	 5.53147268265553E-02 
361	 5.65093113530659E-02 
362	 5.67147227220892E-02 
363	 5.36142480147969E-02 
364	 4.94564809063007E-02 
365	 5.23815146661158E-02 
366	 5.05894999209443E-02 
367	 4.86740144624609E-02 
368	 5.28543650329227E-02 
369	 5.85367017195084E-02 
370	 5.53623874365401E-02 
371	 0.049537057874439 
372	 5.61521555110333E-02 
373	 5.37314378907717E-02 
374	 5.14449720052144E-02 
375	 5.42833391624952E-02 
376	 5.33482957264389E-02 
377	 0.050622244947444 
378	 5.01548009744045E-02 
379	 5.40743272384128E-02 
380	 5.34187754601824E-02 
381	 5.20077515189351E-02 
382	 5.24653717739337E-02 
383	 5.55532566558169E-02 
384	 5.54325640034163E-02 
385	 5.35507105299501E-02 
386	 5.26192257510292E-02 
387	 5.59259256368383E-02 
388	 5.60085712655153E-02 
389	 5.45652120526936E-02 
390	 5.50043774568796E-02 
391	 5.33592457504529E-02 
392	 5.27446982344202E-02 
393	 5.41598248755134E-02 
394	 5.63731343562932E-02 
395	 5.57335993463802E-02 
396	 5.52254660733871E-02 
397	 5.66789512983084E-02 
398	 0.057224510637446 
399	 5.62996940683985E-02 
400	 5.58600103698682E-02 
401	 5.77055899388468E-02 
402	 5.70855492706568E-02 
403	 0.055831342184098 
404	 5.53441928545793E-02 
405	 5.60717214553505E-02 
406	 5.76485628424661E-02 
407	 5.90239418028074E-02 
408	 5.93609343283488E-02 
409	 5.83912653004104E-02 
410	 5.80191626775904E-02 
411	 5.86921343970686E-02 
412	 5.99047934588675E-02 
413	 0.06023619729852 
414	 6.02353858043396E-02 
415	 6.01147629100384E-02 
416	 5.93786986026274E-02 
417	 5.92938239931402E-02 
418	 5.97740488781613E-02 
419	 6.03619770163699E-02 
420	 6.07862133283209E-02 
421	 0.060193615704678 
422	 5.96093181679727E-02 
423	 6.08389881750737E-02 
424	 6.01900683499153E-02 
425	 5.91785647141378E-02 
426	 5.90976226733183E-02 
427	 5.97519810366451E-02 
428	 5.95061730614804E-02 
429	 5.90769312165763E-02 
430	 5.95380736087867E-02 
431	 5.94989365828439E-02 
432	 5.94439861012071E-02 
433	 5.96517571225711E-02 
434	 6.00978150809775E-02 
435	 0.060331049138806 
436	 6.07595065876747E-02 
437	 6.15202548586591E-02 
438	 6.15529900482242E-02 
439	 6.17171281041063E-02 
440	 6.21893159596089E-02 
441	 0.06278931019133 
442	 6.34952902358757E-02 
443	 6.41039045061046E-02 
444	 6.44826095072729E-02 
445	 6.45858717039276E-02 
446	 6.51854826578416E-02 
447	 6.57424068612099E-02 
448	 6.56587126730055E-02 
449	 0.065754249241601 
450	 6.62596176089292E-02 
451	 6.69814456348671E-02 
452	 6.73996726324298E-02 
453	 6.74735485712673E-02 
454	 6.74123896064199E-02 
455	 6.74762294234041E-02 
456	 6.79770340019536E-02 
457	 6.81507449225728E-02 
458	 6.81894775635643E-02 
459	 6.86104600130318E-02 
460	 6.87488698047178E-02 
461	 6.89124120115304E-02 
462	 6.91974790121916E-02 
463	 6.92789569358927E-02 
464	 6.96471536516187E-02 
465	 6.99863224203577E-02 
466	 6.99579782246147E-02 
467	 7.00563255196832E-02 
468	 7.01745856140768E-02 
469	 7.02495966552273E-02 
470	 7.02858484102729E-02 
471	 0.070680625059452 
472	 7.09355189412219E-02 
473	 7.07710401236874E-02 
474	 7.07461328330604E-02 
475	 7.08142400112253E-02 
476	 7.09491574282058E-02 
477	 7.11188565684141E-02 
478	 7.13615280885845E-02 
479	 0.071438241331249 
480	 7.13387487864643E-02 
481	 7.13882720102299E-02 
482	 7.15245064865798E-02 
483	 7.15810294848392E-02 
484	 7.14987497935752E-02 
485	 7.18296552520281E-02 
486	 7.18695759100039E-02 
487	 7.15989535567642E-02 
488	 7.15807532064136E-02 
489	 7.18325949332085E-02 
490	 0.072002639690453 
491	 0.071894260052588 
492	 7.18515570564908E-02 
493	 7.17811385847578E-02 
494	 7.16469999470234E-02 
495	 7.14997822390224E-02 
496	 7.19057645752249E-02 
497	 7.21474441264824E-02 
498	 7.19814554553075E-02 
499	 7.20410773379745E-02 
500	 7.19386625485987E-02 
501	 7.18384325810087E-02 
502	 7.19355685359548E-02 
503	 7.18737904074645E-02 
504	 7.17294448783517E-02 
505	 7.16362612449559E-02 
506	 7.17479823198285E-02 
507	 7.18272494991038E-02 
508	 7.18283244763855E-02 
509	 7.17354575112882E-02 
510	 7.14479572442999E-02 
511	 0.071440369744815 
512	 7.16214600214343E-02 
513	 7.16110215311066E-02 
514	 7.14630067041789E-02 
515	 7.13377477606221E-02 
516	 7.13268623498204E-02 
517	 7.13951460235229E-02 
518	 7.14078677942312E-02 
519	 7.13669825939312E-02 
520	 7.13445785535611E-02 
521	 7.15147662436966E-02 
522	 7.15039159351406E-02 
523	 0.071283551150355 
524	 7.12088903362798E-02 
525	 7.12554408167007E-02 
526	 7.12820836238852E-02 
527	 7.12049850223984E-02 
528	 7.12298812457326E-02 
529	 7.11933994148736E-02 
530	 7.11613786310052E-02 
531	 7.13152039480848E-02 
532	 7.12852083335413E-02 
533	 7.13077574078451E-02 
534	 7.14759395857657E-02 
535	 7.13953492873659E-02 
536	 7.13318215404855E-02 
537	 7.13356902898287E-02 
538	 7.13701636977737E-02 
539	 7.13926406587736E-02 
540	 7.14072016153945E-02 
541	 7.14294488608421E-02 
542	 7.14832528543975E-02 
543	 0.071569216861203 
544	 7.16473445060565E-02 
545	 7.16804156419905E-02 
546	 0.071684631479209 
547	 7.17024470165578E-02 
548	 7.17625977496063E-02 
549	 0.071873024716451 
550	 7.18709956072183E-02 
551	 7.19172406567567E-02 
552	 0.072111362188806 
553	 7.22531127127592E-02 
554	 7.22971401815775E-02 
555	 7.23153687735715E-02 
556	 7.24341491114405E-02 
557	 7.26023410542093E-02 
558	 7.27424403405764E-02 
559	 7.28531189701322E-02 
560	 0.073076717407752 
561	 0.073244614619397 
562	 7.33914285615918E-02 
563	 7.35992317405995E-02 
564	 7.38042834511465E-02 
565	 7.39464314071337E-02 
566	 7.40879127497822E-02 
567	 7.44203711617091E-02 
568	 7.47486947494361E-02 
569	 7.50302502185957E-02 
570	 7.52877356723668E-02 
571	 7.56243842186556E-02 
572	 0.07602303117038 
573	 7.64171791352442E-02 
574	 7.67199212994826E-02 
575	 7.70603174802962E-02 
576	 7.74359006562855E-02 
577	 7.78303606254982E-02 
578	 0.07823695138461 
579	 0.07873217588789 
580	 7.93054627087465E-02 
581	 7.99116994572802E-02 
582	 8.05869856003656E-02 
583	 8.11834106754096E-02 
584	 8.16661900599107E-02 
585	 8.21791427705886E-02 
586	 8.27268946102585E-02 
587	 8.32769863674156E-02 
588	 0.083808243727887 
589	 8.44250453880214E-02 
590	 8.50315793097468E-02 
591	 8.56212071123248E-02 
592	 8.62712195828615E-02 
593	 8.68914308853139E-02 
594	 8.74754563137278E-02 
595	 8.80530385425705E-02 
596	 8.86992908872821E-02 
597	 8.94053877718198E-02 
598	 0.090147594497316 
599	 9.08882599794576E-02 
600	 9.15481855541263E-02 
601	 9.21714296992954E-02 
602	 9.27942426137061E-02 
603	 9.34158984751221E-02 
604	 9.40043027707616E-02 
605	 9.45939725131585E-02 
606	 9.52230026586377E-02 
607	 9.58099063282923E-02 
608	 9.63693041380202E-02 
609	 9.69222368637906E-02 
610	 9.74899207540245E-02 
611	 9.79809355813122E-02 
612	 9.84692083262837E-02 
613	 9.90053454459056E-02 
614	 9.94260407855399E-02 
615	 9.98177883647827E-02 
616	 0.10022793376515 
617	 0.100665543068614 
618	 0.101069574360184 
619	 0.101420996237217 
620	 0.101731681122333 
621	 0.10205962064199 
622	 0.102387221249698 
623	 0.102683482567912 
624	 0.102933209019581 
625	 0.103271210106958 
626	 0.10360684573917 
627	 0.10386957664487 
628	 0.104037256294877 
629	 0.104300033828225 
630	 0.104579830362731 
631	 0.104770014298936 
632	 0.10496128710074 
633	 0.105195441360562 
634	 0.105450472903107 
635	 0.105656250033343 
636	 0.10584532532008 
637	 0.10604288144751 
638	 0.106253219755101 
639	 0.106428909462246 
640	 0.10663120722389 
641	 0.106847951991252 
642	 0.107040300311805 
643	 0.107249667078195 
644	 0.107483295580096 
645	 0.107714472544088 
646	 0.107870819705677 
647	 0.108053389732462 
648	 0.108254241955008 
649	 0.108445719508313 
650	 0.108658687677413 
651	 0.108911882260264 
652	 0.1091688640411 
653	 0.109354962978069 
654	 0.109578775804196 
655	 0.109813643585817 
656	 0.110032891429862 
657	 0.110271987746379 
658	 0.110526059082656 
659	 0.110769626633894 
660	 0.110974718650851 
661	 0.111175546170893 
662	 0.11142705525286 
663	 0.11173139720979 
664	 0.112015236936697 
665	 0.112254060777114 
666	 0.112488639612021 
667	 0.112766180493625 
668	 0.113066226319428 
669	 0.113368707466067 
670	 0.11367277153594 
671	 0.113989400258922 
672	 0.114249885621037 
673	 0.114511720336818 
674	 0.114822736352415 
675	 0.115156430257191 
676	 0.115508165942514 
677	 0.115860634892273 
678	 0.116194718176258 
679	 0.116509972287818 
680	 0.116832709522595 
681	 0.117191654860663 
682	 0.117615750092357 
683	 0.117997047670291 
684	 0.118343719954462 
685	 0.118705129717003 
686	 0.119162197201367 
687	 0.119565404287213 
688	 0.119918734473747 
689	 0.120331301028675 
690	 0.12074492865256 
691	 0.121148097560486 
692	 0.121555912422112 
693	 0.122031848220269 
694	 0.122463483545759 
695	 0.122871318006015 
696	 0.123317160077219 
697	 0.123789620029732 
698	 0.124271563693713 
699	 0.124750729198996 
700	 0.125220743511707 
701	 0.125679908661144 
702	 0.126153044043457 
703	 0.126651999397303 
704	 0.127138095026415 
705	 0.127629213868 
706	 0.128116789640224 
707	 0.128583411923956 
708	 0.129060216073641 
709	 0.129541084429928 
710	 0.130025701621086 
711	 0.130531133523464 
712	 0.130971502377616 
713	 0.131407383027039 
714	 0.131910658997067 
715	 0.132433755789288 
716	 0.132907674900497 
717	 0.133328695018531 
718	 0.133746835996225 
719	 0.134221006431109 
720	 0.134695289923949 
721	 0.135120798606919 
722	 0.135495966150905 
723	 0.135879742111126 
724	 0.13624471468607 
725	 0.136556990344135 
726	 0.136913423804985 
727	 0.137249056338772 
728	 0.137561245584216 
729	 0.137906227355263 
730	 0.138190586843735 
731	 0.13845151803439 
732	 0.138709826493388 
733	 0.138880682550379 
734	 0.139077878777696 
735	 0.13928998563126 
736	 0.139455795161697 
737	 0.139563995224843 
738	 0.139662163631336 
739	 0.13976117990151 
740	 0.139826881710782 
741	 0.139853998622367 
742	 0.139852420847059 
743	 0.139838685108951 
744	 0.139841970574877 
745	 0.139781447423063 
746	 0.13968780053067 
747	 0.13962799242693 
748	 0.139509239681092 
749	 0.139356030946906 
750	 0.139197246978222 
751	 0.139052504606795 
752	 0.138853887757888 
753	 0.138624128702128 
754	 0.138394933760116 
755	 0.138157651880818 
756	 0.137912419488518 
757	 0.137633539672649 
758	 0.137299311091593 
759	 0.137011467908421 
760	 0.136709838841981 
761	 0.136370218843609 
762	 0.136032629150761 
763	 0.135682556970764 
764	 0.135333804235441 
765	 0.134989247361248 
766	 0.134601422444159 
767	 0.134189940620704 
768	 0.133796999650125 
769	 0.133453979372323 
770	 0.133032748265427 
771	 0.132625410624285 
772	 0.132236666112387 
773	 0.131748804280767 
774	 0.131335877808029 
775	 0.130954861762586 
776	 0.13053902396458 
777	 0.130094339455576 
778	 0.129668451916195 
779	 0.129264177899955 
780	 0.128857824407124 
781	 0.128411527051934 
782	 0.127996270915798 
783	 0.12761563912072 
784	 0.127197159320683 
785	 0.126763588862564 
786	 0.126369733995777 
787	 0.126026442721337 
788	 0.125622250195499 
789	 0.12525577865754 
790	 0.124887719541048 
791	 0.124460064550681 
792	 0.124098172349839 
793	 0.123721342876094 
794	 0.12333592389307 
795	 0.123019132623695 
796	 0.122621324738669 
797	 0.122252256075408 
798	 0.121965313005264 
799	 0.121638871819988 
800	 0.121301301685856 
801	 0.120960437807571 
802	 0.120622063628731 
803	 0.120293035622223 
804	 0.119999522280014 
805	 0.119727230714294 
806	 0.119439462344484 
807	 0.11914843912661 
808	 0.118859233867624 
809	 0.118570040804881 
810	 0.118270932449001 
811	 0.118027035764919 
812	 0.117793355211329 
813	 0.117533009356524 
814	 0.117300081225102 
815	 0.117104781725347 
816	 0.116894930913749 
817	 0.116620508172544 
818	 0.116388802832474 
819	 0.116208056534162 
820	 0.116039727727659 
821	 0.11582237648614 
822	 0.115664299497187 
823	 0.115491930774807 
824	 0.115272066955723 
825	 0.115080049067862 
826	 0.114923230300583 
827	 0.114777228691155 
828	 0.114623140785316 
829	 0.114500603797284 
830	 0.114333092190316 
831	 0.114162394844133 
832	 0.114069117746275 
833	 0.113985062814785 
834	 0.113895185596138 
835	 0.113786618223287 
836	 0.113652702284231 
837	 0.113572335563042 
838	 0.1134972619181 
839	 0.113395921573766 
840	 0.113302474449859 
841	 0.113199760771541 
842	 0.113106113771766 
843	 0.113042248236153 
844	 0.113005053420772 
845	 0.113020205711911 
846	 0.112994596148541 
847	 0.11284767601404 
848	 0.112889735459821 
849	 0.112906602563595 
850	 0.112844368034388 
851	 0.112811563991441 
852	 0.112800606653256 
853	 0.11278833724016 
854	 0.112770955619102 
855	 0.11277735056039 
856	 0.11280174281598 
857	 0.112825501045087 
858	 0.112845911692559 
859	 0.112911984165208 
860	 0.112964323784251 
861	 0.113008506921281 
862	 0.113059115104213 
863	 0.113054042046083 
864	 0.113102113355812 
865	 0.113199852443897 
866	 0.11327037937815 
867	 0.113277574000433 
868	 0.113361458438809 
869	 0.113499297472118 
870	 0.113509546851984 
871	 0.11359960408393 
872	 0.113721899070546 
873	 0.113831939350201 
874	 0.113958953244538 
875	 0.1140738482918 
876	 0.114171034393776 
877	 0.114262674676703 
878	 0.114384112650989 
879	 0.114567673795598 
880	 0.114749561650984 
881	 0.114865720823739 
882	 0.115003290414335 
883	 0.115158113214888 
884	 0.115312049697179 
885	 0.115455968843675 
886	 0.115685484962079 
887	 0.115914663408719 
888	 0.116087675556355 
889	 0.116206560227567 
890	 0.116431869856021 
891	 0.116637842702568 
892	 0.11680357893538 
893	 0.117075248502728 
894	 0.117322632052547 
895	 0.117519656777586 
896	 0.117704562355443 
897	 0.117988096242877 
898	 0.118275182909284 
899	 0.118532721823339 
900	 0.11875716169665 
901	 0.118969221135848 
902	 0.119236511166715 
903	 0.119552020811645 
904	 0.119868833987992 
905	 0.120112331899458 
906	 0.12039796972937 
907	 0.120720416605724 
908	 0.121024118874518 
909	 0.12133983792956 
910	 0.121654017345313 
911	 0.121968706723214 
912	 0.122303650424943 
913	 0.12271899996201 
914	 0.123126741109459 
915	 0.123493866723171 
916	 0.123849818263907 
917	 0.124186419485894 
918	 0.124528811667909 
919	 0.124879230890312 
920	 0.125216233565453 
921	 0.125649368820997 
922	 0.126149817803716 
923	 0.126641458126367 
924	 0.127031378675278 
925	 0.12743229799358 
926	 0.127901906716121 
927	 0.128389616615298 
928	 0.1286802673133 
929	 0.129202313651885 
930	 0.12977336968621 
931	 0.130205287956046 
932	 0.130675971963675 
933	 0.131193320367877 
934	 0.131755115196127 
935	 0.132343240293668 
936	 0.132935445775522 
937	 0.133376350462691 
938	 0.133831987762918 
939	 0.134469582113627 
940	 0.135061780631537 
941	 0.135657547985279 
942	 0.136304377953352 
943	 0.136993992351125 
944	 0.137501806518712 
945	 0.138024244512097 
946	 0.138639835745771 
947	 0.139327174880099 
948	 0.139944477446165 
949	 0.14051819777209 
950	 0.141130056533952 
951	 0.141856826047714 
952	 0.142641991388378 
953	 0.143262656831289 
954	 0.143847059704095 
955	 0.144653695819304 
956	 0.145468711572718 
957	 0.146238860163729 
958	 0.14690410413484 
959	 0.14746242534488 
960	 0.148204670839201 
961	 0.149038286613393 
962	 0.149897672731552 
963	 0.150744001599449 
964	 0.151499575240577 
965	 0.152292145345486 
966	 0.153147699732349 
967	 0.154013191025257 
968	 0.15488361352498 
969	 0.155773099077256 
970	 0.156650594270871 
971	 0.15748051103223 
972	 0.158398328551506 
973	 0.159398121979482 
974	 0.160353698114126 
975	 0.161147061984157 
976	 0.162130179639744 
977	 0.163084527858001 
978	 0.164024407403517 
979	 0.165094476798164 
980	 0.166131746765286 
981	 0.167069693783805 
982	 0.167998865402411 
983	 0.169050853073636 
984	 0.170038013261647 
985	 0.171109004533216 
986	 0.172201226414245 
987	 0.173169730912181 
988	 0.174156185542765 
989	 0.175081499981 
990	 0.176039507032032 
991	 0.177164241781956 
992	 0.178345853502686 
993	 0.179409163464641 
994	 0.180404865429147 
995	 0.181464660987231 
996	 0.182558714752141 
997	 0.183729500634865 
998	 0.184849775623052 
999	 0.185819519367299 
1000	 0.186841105975201 
1001	 0.193967518077809 
1002	 0.195128510151947 
1003	 0.196284165991107 
1004	 0.197413946759183 
1005	 0.198568881431641 
1006	 0.199691859535288 
1007	 0.200771942560187 
1008	 0.20183297462195 
1009	 0.202946315419222 
1010	 0.203986881745245 
1011	 0.205034801802655 
1012	 0.206159872334056 
1013	 0.207284112586915 
1014	 0.20846460901713 
1015	 0.209623966571338 
1016	 0.210743335161194 
1017	 0.211871138056296 
1018	 0.213018606180658 
1019	 0.214031439491583 
1020	 0.215010896957415 
1021	 0.21602670572906 
1022	 0.216958786844045 
1023	 0.217948257094702 
1024	 0.219012038183606 
1025	 0.220094574051746 
1026	 0.221157535014651 
1027	 0.222148269809992 
1028	 0.223181494509728 
1029	 0.224194982497206 
1030	 0.225158487457525 
1031	 0.226146062663546 
1032	 0.227175061818072 
1033	 0.22815640535476 
1034	 0.229077058125992 
1035	 0.230016852634099 
1036	 0.230939932610982 
1037	 0.231827584428608 
1038	 0.232798606031602 
1039	 0.233791676763063 
1040	 0.234741845776654 
1041	 0.235723572964665 
1042	 0.236661067203791 
1043	 0.237552116027123 
1044	 0.238470107971968 
1045	 0.239405051711608 
1046	 0.240327996984925 
1047	 0.241251306740675 
1048	 0.242225791654504 
1049	 0.243180292394442 
1050	 0.244099957832791 
1051	 0.245021368672789 
1052	 0.245958079980819 
1053	 0.246920497535183 
1054	 0.247914059435394 
1055	 0.248959095613092 
1056	 0.24998093599209 
1057	 0.250974915287059 
1058	 0.251951208144048 
1059	 0.252925929764536 
1060	 0.253866032819268 
1061	 0.25482855260529 
1062	 0.255807599056663 
1063	 0.256791972139948 
1064	 0.257817381705303 
1065	 0.258817213344125 
1066	 0.259769346183616 
1067	 0.260766526428118 
1068	 0.261794541127317 
1069	 0.26277111247839 
1070	 0.263792114790518 
1071	 0.264874878994521 
1072	 0.265920136796402 
1073	 0.26696835703421 
1074	 0.26799951979197 
1075	 0.269013044248807 
1076	 0.269984900164054 
1077	 0.271009797479569 
1078	 0.272011670337073 
1079	 0.273074428381072 
1080	 0.274155081206704 
1081	 0.275144040785741 
1082	 0.27617039999558 
1083	 0.277204569917881 
1084	 0.278201465981099 
1085	 0.279241695631003 
1086	 0.280355710527578 
1087	 0.281380892664676 
1088	 0.282339853289699 
1089	 0.28338392431778 
1090	 0.284417611542128 
1091	 0.28541708089718 
1092	 0.286450716545901 
1093	 0.287464704465968 
1094	 0.288455903896748 
1095	 0.289448253434421 
1096	 0.290453963068711 
1097	 0.291439468931727 
1098	 0.29244992706436 
1099	 0.293492597005769 
1100	 0.294485313357426 
1101	 0.295457690971315 
1102	 0.296448899982048 
1103	 0.297429064110966 
1104	 0.298362129976085 
1105	 0.299374028661259 
1106	 0.300430462036206 
1107	 0.301460239246126 
1108	 0.302469891834654 
1109	 0.303430044492092 
1110	 0.304389163326102 
1111	 0.305363370165263 
1112	 0.306330186851437 
1113	 0.307294083161279 
1114	 0.308272555189623 
1115	 0.309240816373414 
1116	 0.310177092479841 
1117	 0.311147555067653 
1118	 0.312124289711335 
1119	 0.313130227625106 
1120	 0.314182871155485 
1121	 0.315209063794969 
1122	 0.316199370129594 
1123	 0.317190410217057 
1124	 0.318168566979994 
1125	 0.31909816320268 
1126	 0.320068165617234 
1127	 0.321071510083814 
1128	 0.322034389153781 
1129	 0.322969250972931 
1130	 0.323924639877621 
1131	 0.324875352976287 
1132	 0.325830624938823 
1133	 0.326796614828189 
1134	 0.327765400118765 
1135	 0.328743249958145 
1136	 0.329707235753993 
1137	 0.33066120236199 
1138	 0.331580184067484 
1139	 0.332479501334576 
1140	 0.333345543260838 
1141	 0.334200390636786 
1142	 0.33503943877758 
1143	 0.335867708884974 
1144	 0.336672151890241 
1145	 0.337468214077774 
1146	 0.338267892864712 
1147	 0.339034451469904 
1148	 0.339748600240163 
1149	 0.340498645513231 
1150	 0.341235570497036 
1151	 0.342004123730527 
1152	 0.342758534886224 
1153	 0.343530868293877 
1154	 0.344332932907569 
1155	 0.345117334466628 
1156	 0.345970243628445 
1157	 0.346886752210343 
1158	 0.347802057915952 
1159	 0.348755834897195 
1160	 0.349701499094764 
1161	 0.350651260995358 
1162	 0.351617547377509 
1163	 0.352615825635561 
1164	 0.353583640003117 
1165	 0.354559965668667 
1166	 0.3555249362758 
1167	 0.356448084909476 
1168	 0.357377082440449 
1169	 0.358286373603996 
1170	 0.359187113437406 
1171	 0.360074673469033 
1172	 0.36095284521027 
1173	 0.361807174364783 
1174	 0.362635363987101 
1175	 0.363480470368803 
1176	 0.36431944992147 
1177	 0.365150105601512 
1178	 0.365992575914807 
1179	 0.366817844957356 
1180	 0.367632484640948 
1181	 0.368431297151 
1182	 0.369225268032417 
1183	 0.370008607110302 
1184	 0.37076175757536 
1185	 0.371482334517863 
1186	 0.372214321074386 
1187	 0.372931943844292 
1188	 0.37364941172919 
1189	 0.374367177810947 
1190	 0.375079681008436 
1191	 0.37580658704692 
1192	 0.376488300200991 
1193	 0.377145407804663 
1194	 0.377801739949676 
1195	 0.37842623787698 
1196	 0.379048985247423 
1197	 0.379683452801962 
1198	 0.380299044803585 
1199	 0.380900141385622 
1200	 0.38147677435538 
1201	 0.382061553986193 
1202	 0.382637729528484 
1203	 0.383219511051717 
1204	 0.383810231406696 
1205	 0.384376040031726 
1206	 0.384941640354312 
1207	 0.385485865450197 
1208	 0.386012321627138 
1209	 0.386522932143657 
1210	 0.387016382620913 
1211	 0.387503224186613 
1212	 0.387958182997455 
1213	 0.38843019849233 
1214	 0.388917232935965 
1215	 0.389386844614267 
1216	 0.389850819026334 
1217	 0.390322356756667 
1218	 0.390764985578948 
1219	 0.391187471623329 
1220	 0.391604524879107 
1221	 0.392004580216528 
1222	 0.392408535631808 
1223	 0.392813555890033 
1224	 0.393199602442124 
1225	 0.3935777806527 
1226	 0.393948500404038 
1227	 0.394302875588653 
1228	 0.394653801508409 
1229	 0.394992663794683 
1230	 0.395340908117917 
1231	 0.395702291305887 
1232	 0.396038422515805 
1233	 0.396365307553155 
1234	 0.39669610502335 
1235	 0.397005830715539 
1236	 0.397288637183953 
1237	 0.397574815170504 
1238	 0.397861563966483 
1239	 0.398133884856664 
1240	 0.398388406420184 
1241	 0.398645812315108 
1242	 0.398884676272398 
1243	 0.399147065750713 
1244	 0.399434434843096 
1245	 0.399695454361854 
1246	 0.399952066097557 
1247	 0.40021297523232 
1248	 0.400481746461223 
1249	 0.400710175952003 
1250	 0.400928263151311 
1251	 0.40115581180665 
1252	 0.401361789180474 
1253	 0.401535135216484 
1254	 0.401708784320376 
1255	 0.401886107191253 
1256	 0.402048366906891 
1257	 0.402185386523804 
1258	 0.402327311090096 
1259	 0.402464593143266 
1260	 0.402603864121802 
1261	 0.402739662955311 
1262	 0.402869770209786 
1263	 0.403000764670606 
1264	 0.403133476716789 
1265	 0.403253314868287 
1266	 0.403380418786082 
1267	 0.403520075758953 
1268	 0.403655358563085 
1269	 0.403783184283479 
1270	 0.403903016359801 
1271	 0.404035675338821 
1272	 0.404168382974523 
1273	 0.404306410846986 
1274	 0.404458757454772 
1275	 0.404597147650755 
1276	 0.40472589417052 
1277	 0.40486039296 
1278	 0.404992769621708 
1279	 0.405126854901667 
1280	 0.405273221108589 
1281	 0.40540352085459 
1282	 0.405529147349734 
1283	 0.405648529887892 
1284	 0.405764660121654 
1285	 0.405856871570685 
1286	 0.405955763032528 
1287	 0.406050207843405 
1288	 0.406165292266342 
1289	 0.406298905219508 
1290	 0.406405492452259 
1291	 0.406511398806979 
1292	 0.406618898373086 
1293	 0.40670747580418 
1294	 0.406805554672529 
1295	 0.406935026360262 
1296	 0.407022540333186 
1297	 0.407090324375034 
1298	 0.407145592558147 
1299	 0.407174437769743 
1300	 0.407202640039218 
1301	 0.407211769125465 
1302	 0.407228971976465 
1303	 0.407248745254965 
1304	 0.407266137397517 
1305	 0.407266816166492 
1306	 0.407257882182742 
1307	 0.407243453455966 
1308	 0.407211475999987 
1309	 0.40717230971965 
1310	 0.407138157640656 
1311	 0.407071047650764 
1312	 0.406979974167284 
1313	 0.406882367053909 
1314	 0.406782611278114 
1315	 0.406640763809707 
1316	 0.406477568413182 
1317	 0.406288748678027 
1318	 0.406045159585301 
1319	 0.405824693652855 
1320	 0.4056099175924 
1321	 0.40537181757955 
1322	 0.40513862857942 
1323	 0.404879688401718 
1324	 0.404570714569966 
1325	 0.40425994613483 
1326	 0.40395063520255 
1327	 0.403617743007874 
1328	 0.403283039032627 
1329	 0.402960286673084 
1330	 0.40258814731175 
1331	 0.402179826347267 
1332	 0.40177467373084 
1333	 0.401334543912258 
1334	 0.400917328348172 
1335	 0.400517783296774 
1336	 0.400094094256262 
1337	 0.399666165039953 
1338	 0.399231042210309 
1339	 0.398771258594166 
1340	 0.398325943352082 
1341	 0.397873818500608 
1342	 0.397442259079962 
1343	 0.397017753288753 
1344	 0.396607658162664 
1345	 0.39621147216253 
1346	 0.395828052170864 
1347	 0.395463894717865 
1348	 0.395085289944068 
1349	 0.394665823324602 
1350	 0.394253002075653 
1351	 0.393865115260454 
1352	 0.393468934396414 
1353	 0.393088579415431 
1354	 0.392749994380202 
1355	 0.392381481879417 
1356	 0.391988693630904 
1357	 0.39161172838744 
1358	 0.391246385348431 
1359	 0.390864932308297 
1360	 0.390467547099373 
1361	 0.390092873890017 
1362	 0.389730823301923 
1363	 0.389359794629544 
1364	 0.389001966949567 
1365	 0.388632912281224 
1366	 0.388240917536373 
1367	 0.387861946950494 
1368	 0.387509500870728 
1369	 0.38714519210264 
1370	 0.386766041986951 
1371	 0.386372085309876 
1372	 0.385959017811547 
1373	 0.385524363419939 
1374	 0.385034151561298 
1375	 0.384517670756466 
1376	 0.383946863501004 
1377	 0.383317950676041 
1378	 0.382654307187215 
1379	 0.381948602085422 
1380	 0.381217675949842 
1381	 0.380453630823411 
1382	 0.379636735616504 
1383	 0.378803220566835 
1384	 0.377902518357602 
1385	 0.376958616286976 
1386	 0.375944770979741 
1387	 0.374868970733959 
1388	 0.37374637024515 
1389	 0.372580031457823 
1390	 0.371333288573917 
1391	 0.370019981682191 
1392	 0.368642356547747 
1393	 0.367139538440353 
1394	 0.365555495564894 
1395	 0.363905115357074 
1396	 0.362205125469139 
1397	 0.360481185584011 
1398	 0.358705431191053 
1399	 0.356917237004791 
1400	 0.355082616176776 
1401	 0.353270652789505 
1402	 0.351415048121115 
1403	 0.34963691947841 
1404	 0.347858451265442 
1405	 0.346175993640871 
1406	 0.344538546896565 
1407	 0.342978639959093 
1408	 0.341457003992165 
1409	 0.340071752731583 
1410	 0.338784646192544 
1411	 0.33758350561578 
1412	 0.336494825903799 
1413	 0.335489555204392 
1414	 0.334556237683403 
1415	 0.333656573236754 
1416	 0.332843474509297 
1417	 0.332077207231515 
1418	 0.331324299214505 
1419	 0.330631329916092 
1420	 0.329962330853852 
1421	 0.329319155310539 
1422	 0.328705957728746 
1423	 0.328106858232164 
1424	 0.327517035084961 
1425	 0.326934477548983 
1426	 0.326381851756812 
1427	 0.325834522832741 
1428	 0.325332494030127 
1429	 0.324868422383981 
1430	 0.324422159170994 
1431	 0.324017224991907 
1432	 0.323609335119825 
1433	 0.323197949373683 
1434	 0.322831672196915 
1435	 0.322493499379557 
1436	 0.322167094845652 
1437	 0.32188054983733 
1438	 0.321593058376886 
1439	 0.321311524173962 
1440	 0.321035175315248 
1441	 0.32077719150068 
1442	 0.320523853776592 
1443	 0.320278398174854 
1444	 0.320035146225804 
1445	 0.319790416022061 
1446	 0.319575665983374 
1447	 0.319370090568901 
1448	 0.319165767903219 
1449	 0.318972567888768 
1450	 0.318776106853387 
1451	 0.318593783830307 
1452	 0.318422473016905 
1453	 0.318241349768177 
1454	 0.318059992137676 
1455	 0.317897419128074 
1456	 0.31773154826441 
1457	 0.317577265796466 
1458	 0.317450908961898 
1459	 0.317305563234156 
1460	 0.317155917226669 
1461	 0.317000469137766 
1462	 0.316835021025433 
1463	 0.316686620598669 
1464	 0.316525260801075 
1465	 0.316390622216968 
1466	 0.316275641958737 
1467	 0.31616992729777 
1468	 0.316073187483689 
1469	 0.316001087638978 
1470	 0.31594622796938 
1471	 0.315903867771463 
1472	 0.315897595115883 
1473	 0.315908428312098 
1474	 0.315932009376405 
1475	 0.315982277576324 
1476	 0.316044271564691 
1477	 0.316117795093162 
1478	 0.316199547520403 
1479	 0.316291064124186 
1480	 0.316404552290761 
1481	 0.31652770183782 
1482	 0.316665950192954 
1483	 0.316830337253878 
1484	 0.316992681271073 
1485	 0.31715854925474 
1486	 0.317335177269784 
1487	 0.317526531091355 
1488	 0.317716115401843 
1489	 0.317917105898143 
1490	 0.318109969590534 
1491	 0.318306500582309 
1492	 0.318489518568039 
1493	 0.31866810025413 
1494	 0.318836506522382 
1495	 0.318980501247598 
1496	 0.319143893976008 
1497	 0.319317646796851 
1498	 0.319480248709962 
1499	 0.319647409236104 
1500	 0.319812617635672 
1501	 0.319965268469678 
1502	 0.320116765062234 
1503	 0.320269640601987 
1504	 0.320428231342729 
1505	 0.320571046219353 
1506	 0.320712143065146 
1507	 0.320856829471932 
1508	 0.32098532967871 
1509	 0.321106108707733 
1510	 0.321241116340613 
1511	 0.321365317118897 
1512	 0.321484466659354 
1513	 0.321604573905692 
1514	 0.321713167081305 
1515	 0.321820474434451 
1516	 0.321921746733252 
1517	 0.322032116378532 
1518	 0.322151659245777 
1519	 0.322252809509792 
1520	 0.322357425662517 
1521	 0.322446246473012 
1522	 0.322512687036055 
1523	 0.322582661489737 
1524	 0.322644779565876 
1525	 0.322713947252818 
1526	 0.322780351375218 
1527	 0.322851838209797 
1528	 0.322931466986844 
1529	 0.323004133149575 
1530	 0.323081987740851 
1531	 0.323144134122611 
1532	 0.323202399826251 
1533	 0.323244987468546 
1534	 0.323266216607818 
1535	 0.323296560510297 
1536	 0.323315386181714 
1537	 0.323344635194495 
1538	 0.323375926711208 
1539	 0.32341373609775 
1540	 0.3234619606103 
1541	 0.323507257367609 
1542	 0.323554983203981 
1543	 0.323606088878799 
1544	 0.323678477563881 
1545	 0.323718083694054 
1546	 0.323742945473352 
1547	 0.323765353998557 
1548	 0.323771725347217 
1549	 0.323728692772552 
1550	 0.323711912392999 
1551	 0.323710846303256 
1552	 0.323701694772215 
1553	 0.323717845401622 
1554	 0.323724919222819 
1555	 0.323716251087867 
1556	 0.323710475146155 
1557	 0.323703195147945 
1558	 0.323709009019228 
1559	 0.3237115241091 
1560	 0.323701910124365 
1561	 0.323684164702493 
1562	 0.32366788974548 
1563	 0.323636029945214 
1564	 0.323632980228102 
1565	 0.323650831482045 
1566	 0.323640677127627 
1567	 0.323635525972282 
1568	 0.323615442103046 
1569	 0.323564324539189 
1570	 0.323540758393154 
1571	 0.323537756697304 
1572	 0.323507947856312 
1573	 0.323473320543187 
1574	 0.323433824111472 
1575	 0.323378457683998 
1576	 0.323325080768553 
1577	 0.323264093019954 
1578	 0.323218877191811 
1579	 0.323165579356909 
1580	 0.323133822872367 
1581	 0.323127733420357 
1582	 0.323114463148338 
1583	 0.323118462672073 
1584	 0.323101671362839 
1585	 0.323080295816764 
1586	 0.32305280171389 
1587	 0.323013788888965 
1588	 0.322965631689631 
1589	 0.322907777119316 
1590	 0.322849495612901 
1591	 0.322775203688645 
1592	 0.322712800398853 
1593	 0.322656493446717 
1594	 0.322599853882883 
1595	 0.322558614372159 
1596	 0.322496098367169 
1597	 0.322416621546922 
1598	 0.32234670532486 
1599	 0.322260464940867 
1600	 0.322187018512811 
1601	 0.32212728341015 
1602	 0.322071980904487 
1603	 0.322014089796218 
1604	 0.32197138431869 
1605	 0.321959046771682 
1606	 0.321923418942422 
1607	 0.321877276972591 
1608	 0.321846958000852 
1609	 0.321791042118712 
1610	 0.321729460612988 
1611	 0.321670473491206 
1612	 0.321582660787528 
1613	 0.321480525899542 
1614	 0.321377828633686 
1615	 0.321282982711586 
1616	 0.321213206980093 
1617	 0.321149543301336 
1618	 0.321069156686602 
1619	 0.320991506948626 
1620	 0.320904658812995 
1621	 0.320822274349066 
1622	 0.320751162495055 
1623	 0.32064578408262 
1624	 0.32052001350837 
1625	 0.320411746122708 
1626	 0.320279950513078 
1627	 0.32018777481616 
1628	 0.320128709345583 
1629	 0.32004734343062 
1630	 0.319968451467841 
1631	 0.319892345860805 
1632	 0.319807026476735 
1633	 0.319742066841346 
1634	 0.319697925395332 
1635	 0.319631233609964 
1636	 0.319574755754781 
1637	 0.319483209218667 
1638	 0.319360483811469 
1639	 0.319257010403924 
1640	 0.319135478494795 
1641	 0.31903913181984 
1642	 0.318964426386664 
1643	 0.318875634320984 
1644	 0.318780692684798 
1645	 0.318706249861657 
1646	 0.318651881202682 
1647	 0.318562208176942 
1648	 0.318481387396442 
1649	 0.31837046397319 
1650	 0.318201229291028 
1651	 0.31808652951517 
1652	 0.318000673813189 
1653	 0.317881503909531 
1654	 0.317767762183033 
1655	 0.317642968511804 
1656	 0.317489086329501 
1657	 0.317347337008826 
1658	 0.317223313370597 
1659	 0.317073375042427 
1660	 0.316901857264077 
1661	 0.31673844680524 
1662	 0.316559502437549 
1663	 0.316403358695204 
1664	 0.316250805480784 
1665	 0.316117282066604 
1666	 0.316003504809044 
1667	 0.315891740223636 
1668	 0.315805871894564 
1669	 0.315691639675015 
1670	 0.31557473645138 
1671	 0.315444772829504 
1672	 0.31529956869683 
1673	 0.315145090660985 
1674	 0.314968418010552 
1675	 0.314816849828318 
1676	 0.314659740556569 
1677	 0.314517796154352 
1678	 0.314407187269861 
1679	 0.31427505665954 
1680	 0.314126548014996 
1681	 0.314000087078209 
1682	 0.313883760290728 
1683	 0.313759474513926 
1684	 0.313648984795056 
1685	 0.313524647477221 
1686	 0.313392392077968 
1687	 0.313249116669278 
1688	 0.313097931130543 
1689	 0.312942962816854 
1690	 0.312760309456484 
1691	 0.312611334501025 
1692	 0.31248311299377 
1693	 0.3123450223573 
1694	 0.312214573913475 
1695	 0.312087694630493 
1696	 0.311959083138186 
1697	 0.311828226366954 
1698	 0.311715851222532 
1699	 0.311577165865634 
1700	 0.311428463832636 
1701	 0.31125923291951 
1702	 0.311054661724016 
1703	 0.310880866780721 
1704	 0.310700160206303 
1705	 0.310535760678637 
1706	 0.310399882187394 
1707	 0.310251820693439 
1708	 0.310093985295445 
1709	 0.309952038282543 
1710	 0.309826517628475 
1711	 0.309689703445995 
1712	 0.309560703988659 
1713	 0.309411890567898 
1714	 0.309243984058754 
1715	 0.309087459275661 
1716	 0.308923945588631 
1717	 0.308770572603158 
1718	 0.308630050362393 
1719	 0.308479701032356 
1720	 0.308322301672672 
1721	 0.308176632623599 
1722	 0.308028055529636 
1723	 0.307892482710277 
1724	 0.307782419084269 
1725	 0.307641778502706 
1726	 0.307499138771258 
1727	 0.307342028751639 
1728	 0.307157273120348 
1729	 0.306987814397559 
1730	 0.306816811207609 
1731	 0.306649856227913 
1732	 0.306495466211945 
1733	 0.306319357654948 
1734	 0.306132264912723 
1735	 0.305949893197336 
1736	 0.305749280455759 
1737	 0.305570665997288 
1738	 0.305402784106835 
1739	 0.305247081909079 
1740	 0.305094455912283 
1741	 0.304969956246626 
1742	 0.3048794883119 
1743	 0.304764890166738 
1744	 0.30467075163231 
1745	 0.304521026249102 
1746	 0.304340474784953 
1747	 0.304142821964625 
1748	 0.30393229985303 
1749	 0.303775560871063 
1750	 0.303621168725489 
1751	 0.303482938512825 
1752	 0.303398221949599 
1753	 0.303280759884864 
1754	 0.303139516483322 
1755	 0.30299877207172 
1756	 0.302822356837352 
1757	 0.302658586399829 
1758	 0.302499174697803 
1759	 0.302318685890687 
1760	 0.30216227124196 
1761	 0.302021540853663 
1762	 0.301885292513229 
1763	 0.301765427903322 
1764	 0.301648916804349 
1765	 0.301529466193392 
1766	 0.301373375484873 
1767	 0.301202626193116 
1768	 0.3010628605443 
1769	 0.300917768288334 
1770	 0.300793473350475 
1771	 0.300706445354201 
1772	 0.300588867927498 
1773	 0.300443207369112 
1774	 0.300320316326225 
1775	 0.30020789274631 
1776	 0.300082169536224 
1777	 0.29996702194263 
1778	 0.299846448249505 
1779	 0.299713762327792 
1780	 0.299606032115339 
1781	 0.299505763433256 
1782	 0.299399564607465 
1783	 0.299262164380141 
1784	 0.299137737965195 
1785	 0.299007156757244 
1786	 0.298895825875361 
1787	 0.298813126608124 
1788	 0.298719303543935 
1789	 0.298626393117798 
1790	 0.29853203844987 
1791	 0.298417083434561 
1792	 0.298327572277976 
1793	 0.298248391699883 
1794	 0.298204191773094 
1795	 0.298204900886396 
1796	 0.298169251576829 
1797	 0.29814567855059 
1798	 0.298085336235319 
1799	 0.297987064998199 
1800	 0.297914931172417 
1801	 0.301770290442636 
1802	 0.301758480342603 
1803	 0.301720601487412 
1804	 0.301687887797784 
1805	 0.301689878347634 
1806	 0.301704141963562 
1807	 0.301707713971958 
1808	 0.301702042743888 
1809	 0.301698210075678 
1810	 0.301674211204509 
1811	 0.301627821528452 
1812	 0.301599543826394 
1813	 0.301545588904834 
1814	 0.301483439826766 
1815	 0.301436773659025 
1816	 0.301359057574368 
1817	 0.301290555629346 
1818	 0.301225409476935 
1819	 0.301157253974101 
1820	 0.30107380432094 
1821	 0.301018586593623 
1822	 0.300967403441136 
1823	 0.300909262796046 
1824	 0.300870280954153 
1825	 0.300804169777676 
1826	 0.300753421103633 
1827	 0.300706947563834 
1828	 0.300616971659234 
1829	 0.300500072745945 
1830	 0.300387230654471 
1831	 0.300235946152677 
1832	 0.300096366971456 
1833	 0.300021755105116 
1834	 0.29993013838225 
1835	 0.299844061361333 
1836	 0.299747530216778 
1837	 0.299602800189962 
1838	 0.299496710289908 
1839	 0.299397567670001 
1840	 0.299313828418298 
1841	 0.299225829789806 
1842	 0.299146828058066 
1843	 0.299059523829183 
1844	 0.298962001693565 
1845	 0.298817297072277 
1846	 0.298690332198612 
1847	 0.298577743933012 
1848	 0.298441823785572 
1849	 0.298326899302791 
1850	 0.298184508378197 
1851	 0.298035854540114 
1852	 0.297836053349208 
1853	 0.297629747523391 
1854	 0.29742048980189 
1855	 0.297187049956632 
1856	 0.296917712193805 
1857	 0.296633359406521 
1858	 0.29633073879966 
1859	 0.295977300738068 
1860	 0.29560549211926 
1861	 0.295212771363433 
1862	 0.294801181266737 
1863	 0.294356775746265 
1864	 0.293910695145164 
1865	 0.293444373609595 
1866	 0.292925891795854 
1867	 0.292356968105867 
1868	 0.291762002056514 
1869	 0.291129454200712 
1870	 0.29044546412223 
1871	 0.289718134410809 
1872	 0.288951788542344 
1873	 0.288137269982024 
1874	 0.28729531108393 
1875	 0.286419536036992 
1876	 0.285496573776749 
1877	 0.28452138904068 
1878	 0.283442805495594 
1879	 0.28229225133061 
1880	 0.281069300138668 
1881	 0.279781674414069 
1882	 0.278390200842037 
1883	 0.276932005505085 
1884	 0.27533020895337 
1885	 0.273654634634817 
1886	 0.271902908434602 
1887	 0.270020858814023 
1888	 0.268098898658415 
1889	 0.26608921365899 
1890	 0.263981112730636 
1891	 0.261852863481332 
1892	 0.259671295825353 
1893	 0.257446086200771 
1894	 0.255179063287608 
1895	 0.25286166459606 
1896	 0.250456215707073 
1897	 0.24803767429277 
1898	 0.245598718216351 
1899	 0.243169741361643 
1900	 0.240835320653616 
1901	 0.238537272388164 
1902	 0.236337696608903 
1903	 0.234225558197396 
1904	 0.232198258336249 
1905	 0.230232541114467 
1906	 0.228391014408747 
1907	 0.226660112121869 
1908	 0.225030199854129 
1909	 0.223526610826811 
1910	 0.222122813753823 
1911	 0.220802421790207 
1912	 0.219557244279305 
1913	 0.218376091899108 
1914	 0.21727031477053 
1915	 0.216227474340648 
1916	 0.215254644819376 
1917	 0.214336454354761 
1918	 0.213495554898476 
1919	 0.212693760107222 
1920	 0.211934841048128 
1921	 0.211242721909808 
1922	 0.21061556283674 
1923	 0.210032107746133 
1924	 0.209514713942662 
1925	 0.209073874471794 
1926	 0.208677267238089 
1927	 0.208319722569625 
1928	 0.208047428913134 
1929	 0.207821517852709 
1930	 0.20762636685607 
1931	 0.207472042952249 
1932	 0.207317353911507 
1933	 0.207205922282786 
1934	 0.207147425237236 
1935	 0.207102129227857 
1936	 0.207089566197025 
1937	 0.207100956723425 
1938	 0.207126597318736 
1939	 0.207185324325393 
1940	 0.207271780067328 
1941	 0.207397601635236 
1942	 0.20754314078821 
1943	 0.207725370628778 
1944	 0.207920473377256 
1945	 0.2081306190629 
1946	 0.208348621468902 
1947	 0.208571203612992 
1948	 0.20881611041188 
1949	 0.2090871018599 
1950	 0.209352592979731 
1951	 0.209621025648894 
1952	 0.209913649231972 
1953	 0.210217888140031 
1954	 0.210538161745224 
1955	 0.210873924750677 
1956	 0.211216312365844 
1957	 0.211551832208006 
1958	 0.21188235756176 
1959	 0.212213026528896 
1960	 0.212540602884031 
1961	 0.212876093829761 
1962	 0.213206742787152 
1963	 0.213546855844781 
1964	 0.213889553704383 
1965	 0.214256249383442 
1966	 0.214612995391423 
1967	 0.21498348498101 
1968	 0.215367249928552 
1969	 0.215765612052578 
1970	 0.21615854503886 
1971	 0.216568797110822 
1972	 0.216965557717536 
1973	 0.217339675160141 
1974	 0.217748547648048 
1975	 0.218169758654338 
1976	 0.218594274471232 
1977	 0.21906029346594 
1978	 0.219513304455577 
1979	 0.219955677928371 
1980	 0.220421576933518 
1981	 0.220882433938272 
1982	 0.221332231608378 
1983	 0.221808006934382 
1984	 0.222304510070719 
1985	 0.222794018581894 
1986	 0.223309051715361 
1987	 0.223797649621642 
1988	 0.224264869461797 
1989	 0.224739707596241 
1990	 0.225212975790233 
1991	 0.225710328083067 
1992	 0.226212592074671 
1993	 0.226745156610575 
1994	 0.227246040882142 
1995	 0.227735388775001 
1996	 0.228231571964411 
1997	 0.228721982967094 
1998	 0.229219414406677 
1999	 0.229737297974926 
2000	 0.230227632935068 
2001	 0.230714599468537 
2002	 0.231174846562079 
2003	 0.231629354336478 
2004	 0.232078523545987 
2005	 0.232522648429203 
2006	 0.232959632807186 
2007	 0.233400736922799 
2008	 0.233841084285 
2009	 0.234272423253894 
2010	 0.23470495818993 
2011	 0.235129322277365 
2012	 0.235526231496813 
2013	 0.235945798001066 
2014	 0.236377908146222 
2015	 0.236806574265251 
2016	 0.23723576759182 
2017	 0.237678093067969 
2018	 0.238113144857621 
2019	 0.238546696818896 
2020	 0.238973382115479 
2021	 0.239406989206026 
2022	 0.23982331501447 
2023	 0.240213497524628 
2024	 0.240622645516254 
2025	 0.24104051701708 
2026	 0.241444289915534 
2027	 0.241845049068565 
2028	 0.242256487923498 
2029	 0.242648784284072 
2030	 0.243021352909595 
2031	 0.243408526698994 
2032	 0.243799337017528 
2033	 0.244179986563808 
2034	 0.244568121001472 
2035	 0.244931383316693 
2036	 0.24527684396521 
2037	 0.245623364696852 
2038	 0.24595614481096 
2039	 0.246285326011927 
2040	 0.246619909850091 
2041	 0.246933901590616 
2042	 0.247218058436483 
2043	 0.247536131493566 
2044	 0.247855905436377 
2045	 0.248182307226989 
2046	 0.248501607404553 
2047	 0.248850219926972 
2048	 0.249153908370648 
2049	 0.249424155516638 
2050	 0.249704508165916 
2051	 0.249963174166289 
2052	 0.25023045219808 
2053	 0.250505709398713 
2054	 0.25077722661947 
2055	 0.25103280100072 
2056	 0.251313995814562 
2057	 0.251589147987728 
2058	 0.251860651808249 
2059	 0.25214712630813 
2060	 0.252444545702894 
2061	 0.252740076251568 
2062	 0.253058265207212 
2063	 0.253344998177625 
2064	 0.253627159265802 
2065	 0.253892979224764 
2066	 0.254141898141508 
2067	 0.254374984184541 
2068	 0.254598046163898 
2069	 0.254790055942216 
2070	 0.255004236420004 
2071	 0.25519362543381 
2072	 0.255434896806748 
2073	 0.255708350976355 
2074	 0.255975356822375 
2075	 0.256277077564613 
2076	 0.256543649515697 
2077	 0.256794711775111 
2078	 0.257048795070474 
2079	 0.257277848547993 
2080	 0.25753250783381 
2081	 0.257811986132799 
2082	 0.25807652991553 
2083	 0.258340001066436 
2084	 0.258614135681108 
2085	 0.258872213142194 
2086	 0.259116721893788 
2087	 0.259361671885508 
2088	 0.259602424003265 
2089	 0.259844957029755 
2090	 0.260086812462612 
2091	 0.260316636367095 
2092	 0.260532459491946 
2093	 0.260767992547221 
2094	 0.261008512360469 
2095	 0.261241306618806 
2096	 0.261495028397535 
2097	 0.261729429811497 
2098	 0.261936605238707 
2099	 0.26214309892291 
2100	 0.262374816538274 
2101	 0.262620592574178 
2102	 0.262850451537976 
2103	 0.263088715939529 
2104	 0.2633266795655 
2105	 0.263550317760807 
2106	 0.263785411181554 
2107	 0.264044135891363 
2108	 0.264280388162379 
2109	 0.26448822667058 
2110	 0.264725674673239 
2111	 0.264967048026243 
2112	 0.265217210772253 
2113	 0.265490367972578 
2114	 0.265767099252069 
2115	 0.266031042489351 
2116	 0.266285839341286 
2117	 0.266558688783694 
2118	 0.266839451131436 
2119	 0.267109882096721 
2120	 0.267402592534732 
2121	 0.267655186408917 
2122	 0.267875810591103 
2123	 0.268104603315961 
2124	 0.268326516955704 
2125	 0.268533567631825 
2126	 0.268728143895541 
2127	 0.268926294599792 
2128	 0.269113977248588 
2129	 0.269295600416501 
2130	 0.269480035212457 
2131	 0.269664247665341 
2132	 0.269825680858336 
2133	 0.269969264354153 
2134	 0.270108170699083 
2135	 0.270244660227023 
2136	 0.270351082079832 
2137	 0.27043254130725 
2138	 0.270513509616722 
2139	 0.270579962671618 
2140	 0.270632271768187 
2141	 0.27067525761353 
2142	 0.270711997716615 
2143	 0.270717084719592 
2144	 0.270737854890381 
2145	 0.270782052245374 
2146	 0.270798938834195 
2147	 0.270807831415954 
2148	 0.270801665230316 
2149	 0.270794350478244 
2150	 0.270763360620904 
2151	 0.27074755834159 
2152	 0.270748366643926 
2153	 0.270720424922038 
2154	 0.27068615530384 
2155	 0.270632341025972 
2156	 0.270573841287189 
2157	 0.2704771730729 
2158	 0.270353597132476 
2159	 0.270215101243204 
2160	 0.270030123904719 
2161	 0.269855155797803 
2162	 0.269638610903189 
2163	 0.269475556855661 
2164	 0.269339620555503 
2165	 0.26921780696213 
2166	 0.269084474362699 
2167	 0.2689959543959 
2168	 0.268844921451587 
2169	 0.268638229886994 
2170	 0.268479963817136 
2171	 0.268327084428703 
2172	 0.268170917428936 
2173	 0.268022389982358 
2174	 0.267883102890538 
2175	 0.267741637198709 
2176	 0.267606130425239 
2177	 0.267495892251108 
2178	 0.267370866799941 
2179	 0.267220167635555 
2180	 0.267093273527462 
2181	 0.266983381111446 
2182	 0.26687062775606 
2183	 0.266771896574957 
2184	 0.266678708813743 
2185	 0.266553319012866 
2186	 0.266404630298956 
2187	 0.266269247860833 
2188	 0.266106931664043 
2189	 0.265985720926697 
2190	 0.265885430710185 
2191	 0.265791061927171 
2192	 0.265727069496653 
2193	 0.26563967865346 
2194	 0.265565071915476 
2195	 0.265460273198993 
2196	 0.265301349852075 
2197	 0.265196546094785 
2198	 0.265105417853913 
2199	 0.265016282226124 
2200	 0.26497745658767 
2201	 0.26490958084844 
2202	 0.264821319651656 
2203	 0.264712929994629 
2204	 0.264649105601129 
2205	 0.264600527956519 
2206	 0.264540154462054 
2207	 0.26450087209884 
2208	 0.264456534387687 
2209	 0.264401463208205 
2210	 0.264349738501853 
2211	 0.264304410872121 
2212	 0.264265469661603 
2213	 0.26420770633146 
2214	 0.264180720880061 
2215	 0.26421543337565 
2216	 0.264188320542869 
2217	 0.264134514249683 
2218	 0.264087786299612 
2219	 0.26398231136177 
2220	 0.263932072549101 
2221	 0.263924358098065 
2222	 0.263928088264849 
2223	 0.263883061874308 
2224	 0.263840765160303 
2225	 0.263817493051308 
2226	 0.263773250336899 
2227	 0.263736979143238 
2228	 0.263741863158151 
2229	 0.263710144277903 
2230	 0.263635495169577 
2231	 0.263593531876288 
2232	 0.263568592563041 
2233	 0.263538294234183 
2234	 0.263516972185001 
2235	 0.263476681362112 
2236	 0.263437785044136 
2237	 0.263380381913139 
2238	 0.263266051292684 
2239	 0.263213927717697 
2240	 0.263185270211697 
2241	 0.263165833460159 
2242	 0.263224117783028 
2243	 0.263219206373879 
2244	 0.263187319678511 
2245	 0.26313413330248 
2246	 0.263070746227602 
2247	 0.262990460595116 
2248	 0.262923926200918 
2249	 0.262868414176308 
2250	 0.262797524717967 
2251	 0.262718557524709 
2252	 0.262644962955494 
2253	 0.262561724007111 
2254	 0.262496296324004 
2255	 0.262438825919594 
2256	 0.262375436839305 
2257	 0.262323093293997 
2258	 0.262270610914382 
2259	 0.262215136787212 
2260	 0.262158889412967 
2261	 0.262105912076839 
2262	 0.26204833331292 
2263	 0.26199440126761 
2264	 0.261925593735986 
2265	 0.261834325611298 
2266	 0.26176891365354 
2267	 0.261696299532203 
2268	 0.261638439126632 
2269	 0.261603333104312 
2270	 0.261592831104661 
2271	 0.261550587208768 
2272	 0.261491563111623 
2273	 0.261415171212887 
2274	 0.261271463655363 
2275	 0.26115916688808 
2276	 0.261025707211494 
2277	 0.260923061388704 
2278	 0.260839571559861 
2279	 0.260750075938245 
2280	 0.260670086144013 
2281	 0.260572284968331 
2282	 0.260466233091121 
2283	 0.260371939127819 
2284	 0.260268605197087 
2285	 0.260177817526189 
2286	 0.260093545607453 
2287	 0.26001385064188 
2288	 0.259954122604624 
2289	 0.259882800112035 
2290	 0.259841668043771 
2291	 0.259736823131223 
2292	 0.259573506255654 
2293	 0.259427289397581 
2294	 0.259242844643892 
2295	 0.259084526108072 
2296	 0.258942331130168 
2297	 0.258830560690037 
2298	 0.258658862197516 
2299	 0.258482896051814 
2300	 0.258353261877791 
2301	 0.258192794821723 
2302	 0.258036644122188 
2303	 0.257913172078618 
2304	 0.257787471935171 
2305	 0.25762255119647 
2306	 0.257448870137502 
2307	 0.257272660848427 
2308	 0.257091356610651 
2309	 0.256869924099141 
2310	 0.25668762558411 
2311	 0.256541554571698 
2312	 0.256370552688228 
2313	 0.256193702333849 
2314	 0.256012442268403 
2315	 0.25581725770331 
2316	 0.255632790966171 
2317	 0.255471255674827 
2318	 0.255269409990147 
2319	 0.25504336900441 
2320	 0.254822250950513 
2321	 0.25455612604654 
2322	 0.254336885203473 
2323	 0.254170917256275 
2324	 0.253976662475394 
2325	 0.253780686107554 
2326	 0.253580179487685 
2327	 0.253356509444258 
2328	 0.253136673610192 
2329	 0.252976865262112 
2330	 0.252833257864681 
2331	 0.2527167626801 
2332	 0.252536989269125 
2333	 0.252298188956255 
2334	 0.252105995779316 
2335	 0.25191748741014 
2336	 0.251744871997598 
2337	 0.251587378818347 
2338	 0.251367996716158 
2339	 0.251102760599245 
2340	 0.250863434160542 
2341	 0.250644270096521 
2342	 0.250423663560817 
2343	 0.25020638383406 
2344	 0.249958141309686 
2345	 0.249676079980871 
2346	 0.249341020713718 
2347	 0.249039488486574 
2348	 0.248735372320608 
2349	 0.248403548748791 
2350	 0.248065003284785 
2351	 0.247716983814623 
2352	 0.247323169253179 
2353	 0.246973103884674 
2354	 0.246674015702653 
2355	 0.24631002671486 
2356	 0.245920868432429 
2357	 0.245538807080542 
2358	 0.245116633685163 
2359	 0.244724726129496 
2360	 0.244347708069818 
2361	 0.243981353302923 
2362	 0.243600409526709 
2363	 0.243251815419918 
2364	 0.242984260191714 
2365	 0.242639067598844 
2366	 0.242246771956091 
2367	 0.241908177773426 
2368	 0.241575667117467 
2369	 0.24118800081413 
2370	 0.240807164881591 
2371	 0.24043245021526 
2372	 0.239970793153002 
2373	 0.239534053229262 
2374	 0.239120916022772 
2375	 0.238696127290263 
2376	 0.238253451295214 
2377	 0.237802662257678 
2378	 0.237393727043202 
2379	 0.23696005657947 
2380	 0.236544279498063 
2381	 0.236181174992638 
2382	 0.235823859284631 
2383	 0.235514412643016 
2384	 0.235166450585373 
2385	 0.234771250740082 
2386	 0.234356671697837 
2387	 0.23388443144811 
2388	 0.233432777036019 
2389	 0.232991310777049 
2390	 0.232537729209527 
2391	 0.232087457171042 
2392	 0.231654702122015 
2393	 0.231242744072205 
2394	 0.230875202523139 
2395	 0.230521333315337 
2396	 0.230139348094697 
2397	 0.229723778133505 
2398	 0.229257624333211 
2399	 0.228791859320318 
2400	 0.228375395094949 
2401	 0.228037516342299 
2402	 0.227639290700084 
2403	 0.227194209748834 
2404	 0.226763086716183 
2405	 0.22628978685042 
2406	 0.225892925084689 
2407	 0.225545684060623 
2408	 0.225145518003308 
2409	 0.224672346450979 
2410	 0.224194212230446 
2411	 0.223764329764552 
2412	 0.223337607959829 
2413	 0.222920736435276 
2414	 0.222477160575287 
2415	 0.222107221096659 
2416	 0.221695929143141 
2417	 0.221244909113201 
2418	 0.220835909881586 
2419	 0.220426277112971 
2420	 0.219989135451314 
2421	 0.21960171023198 
2422	 0.219225286217071 
2423	 0.218857763836057 
2424	 0.218470693438182 
2425	 0.218087942831645 
2426	 0.217665950900206 
2427	 0.217210904976758 
2428	 0.21674588677608 
2429	 0.216219902151568 
2430	 0.215781199234145 
2431	 0.215345839048703 
2432	 0.21489047100663 
2433	 0.214519138724607 
2434	 0.214090564519212 
2435	 0.213620556169928 
2436	 0.213236486741761 
2437	 0.21285370160166 
2438	 0.21249817848819 
2439	 0.212211423187251 
2440	 0.211827939969591 
2441	 0.211422359414437 
2442	 0.211014277842618 
2443	 0.210588206894355 
2444	 0.21015034405657 
2445	 0.209670096213913 
2446	 0.209291033078481 
2447	 0.20886205098298 
2448	 0.208525523841923 
2449	 0.208403087712865 
2450	 0.208030089128538 
2451	 0.207560846040213 
2452	 0.207229838999972 
2453	 0.206817443802131 
2454	 0.206441521767315 
2455	 0.206234941975326 
2456	 0.205878176475728 
2457	 0.205360045835676 
2458	 0.20499679832283 
2459	 0.204717875510945 
2460	 0.204375754553441 
2461	 0.204079899610494 
2462	 0.20362696127428 
2463	 0.203039914515613 
2464	 0.202561076535132 
2465	 0.201981614080453 
2466	 0.201508322081852 
2467	 0.201194514465994 
2468	 0.200783882348332 
2469	 0.20040360693316 
2470	 0.200076169592609 
2471	 0.199600971977984 
2472	 0.199219873025036 
2473	 0.19895434587154 
2474	 0.198674553999692 
2475	 0.198374660613565 
2476	 0.198116725012426 
2477	 0.197772142821597 
2478	 0.197398024532851 
2479	 0.197094842977614 
2480	 0.196656670541491 
2481	 0.196111238012536 
2482	 0.195717314332366 
2483	 0.195384588912801 
2484	 0.195009225397537 
2485	 0.194666987505857 
2486	 0.194430324904176 
2487	 0.19410637296892 
2488	 0.19383437640594 
2489	 0.193842075623971 
2490	 0.193628684083359 
2491	 0.193267291585811 
2492	 0.192866045563934 
2493	 0.192221411558423 
2494	 0.191762664086788 
2495	 0.191433103250777 
2496	 0.191164485803934 
2497	 0.191155364960961 
2498	 0.191110586727939 
2499	 0.190835807726724 
2500	 0.190462852785593 
