Wavelength	lmw-9-200008.asd
350	 5.94655577122455E-02 
351	 6.56578701445722E-02 
352	 6.35195956283622E-02 
353	 5.83840224684425E-02 
354	 6.22994032920402E-02 
355	 5.56020823735556E-02 
356	 4.97963599769005E-02 
357	 5.56615875319793E-02 
358	 5.11145565520863E-02 
359	 0.046846207036452 
360	 4.86544342073487E-02 
361	 5.69483654489447E-02 
362	 5.88176231122364E-02 
363	 5.49456052754287E-02 
364	 4.98272641747792E-02 
365	 5.05532391975234E-02 
366	 5.35400172825234E-02 
367	 5.31102695403337E-02 
368	 0.047695137214532 
369	 5.34164150621985E-02 
370	 5.65318022371225E-02 
371	 5.57642877485206E-02 
372	 5.81354224073385E-02 
373	 5.55579313369597E-02 
374	 5.27609733409527E-02 
375	 5.32015249189688E-02 
376	 5.57835301921995E-02 
377	 5.41700206513466E-02 
378	 0.052836057249963 
379	 5.66474730527928E-02 
380	 5.74646452068628E-02 
381	 5.55145246472092E-02 
382	 5.34159249650025E-02 
383	 5.48294696745895E-02 
384	 5.64979621713157E-02 
385	 5.53205314563677E-02 
386	 5.17111145784402E-02 
387	 5.24183321567264E-02 
388	 5.45014201748047E-02 
389	 5.55700971649703E-02 
390	 5.42859196941278E-02 
391	 5.34963277369899E-02 
392	 5.41957814728157E-02 
393	 5.57546259102082E-02 
394	 5.63809601830039E-02 
395	 5.71572159415546E-02 
396	 5.70450648478818E-02 
397	 5.63108370438346E-02 
398	 5.90377707400812E-02 
399	 5.95969211022979E-02 
400	 5.91789916110563E-02 
401	 0.060514809532886 
402	 5.94969945268915E-02 
403	 0.059524976535434 
404	 6.05502250478928E-02 
405	 5.88783896466923E-02 
406	 0.060174298724612 
407	 6.16685558195556E-02 
408	 6.09890496248238E-02 
409	 0.061036456047921 
410	 6.07391276785259E-02 
411	 6.05375826329608E-02 
412	 6.13351297965932E-02 
413	 6.23453832827498E-02 
414	 6.27532096026368E-02 
415	 6.23789477879739E-02 
416	 6.17690901948022E-02 
417	 6.21265052751276E-02 
418	 6.28371976690882E-02 
419	 6.29641026208954E-02 
420	 6.20769713573463E-02 
421	 6.17273282902212E-02 
422	 6.19850523654291E-02 
423	 6.19673460937821E-02 
424	 6.18216413162883E-02 
425	 6.16031450566282E-02 
426	 6.13800225072027E-02 
427	 6.12093414436797E-02 
428	 6.15133322186187E-02 
429	 6.17476393718082E-02 
430	 6.13962220159054E-02 
431	 6.17638744423726E-02 
432	 0.06196910434316 
433	 6.18431985677078E-02 
434	 6.19840725473777E-02 
435	 6.24481038974308E-02 
436	 0.063101145784718 
437	 6.37003312872637E-02 
438	 6.37880645260694E-02 
439	 6.41181766520627E-02 
440	 0.064743007961306 
441	 6.53482459261629E-02 
442	 0.065869740691687 
443	 6.61364056383243E-02 
444	 6.63477834826336E-02 
445	 6.72995469348135E-02 
446	 6.73686009553107E-02 
447	 6.72981985383752E-02 
448	 6.80362919836369E-02 
449	 6.82903717028095E-02 
450	 6.86833127635267E-02 
451	 6.91933770674648E-02 
452	 6.92516089118599E-02 
453	 6.93471478455966E-02 
454	 6.95387407890481E-02 
455	 6.98116780308503E-02 
456	 7.01906499311125E-02 
457	 7.04927670625569E-02 
458	 7.06605723512981E-02 
459	 7.07351534655341E-02 
460	 7.09690445638398E-02 
461	 7.11289944489301E-02 
462	 7.12229121274959E-02 
463	 7.16547247009867E-02 
464	 7.21630653549753E-02 
465	 7.24597658215677E-02 
466	 7.24056219586177E-02 
467	 7.24288599666666E-02 
468	 7.25938970326286E-02 
469	 7.27967938189948E-02 
470	 7.28275031829835E-02 
471	 0.072976919524332 
472	 7.30641354435032E-02 
473	 7.30143778178624E-02 
474	 7.32011452320689E-02 
475	 7.32924360504757E-02 
476	 7.33464948253377E-02 
477	 7.35362818833391E-02 
478	 7.35273452184018E-02 
479	 7.36748601158177E-02 
480	 7.39917533963285E-02 
481	 7.39455503889178E-02 
482	 7.38678678896879E-02 
483	 7.39736930570126E-02 
484	 7.42892921853154E-02 
485	 7.42346939064719E-02 
486	 7.41679423068459E-02 
487	 7.41385751902018E-02 
488	 7.39482215317601E-02 
489	 7.40392765038329E-02 
490	 7.41894555826273E-02 
491	 7.42306150931582E-02 
492	 7.44597509416451E-02 
493	 7.44201538458419E-02 
494	 7.42136746321393E-02 
495	 0.074203627018438 
496	 7.45503095765078E-02 
497	 7.46331413216802E-02 
498	 7.43696949577969E-02 
499	 7.45829745189286E-02 
500	 7.45515873513282E-02 
501	 7.43427161554129E-02 
502	 7.42320656004468E-02 
503	 7.43470195194758E-02 
504	 7.44028490805691E-02 
505	 7.43317475970721E-02 
506	 7.42764281853213E-02 
507	 0.07423167538518 
508	 7.43083077135069E-02 
509	 7.44702570712956E-02 
510	 0.074219784511566 
511	 7.40855812367325E-02 
512	 0.074127871915432 
513	 7.41495314305392E-02 
514	 7.40899307385214E-02 
515	 7.40384204081221E-02 
516	 7.40602332963109E-02 
517	 7.41618367909789E-02 
518	 7.41502538066865E-02 
519	 7.40269966085012E-02 
520	 7.38875679999715E-02 
521	 7.39029189032538E-02 
522	 7.39449353780168E-02 
523	 7.39490508668287E-02 
524	 0.073936808870127 
525	 7.39041893754393E-02 
526	 7.38966785683133E-02 
527	 7.39359351406385E-02 
528	 0.073943672113896 
529	 7.39114549624676E-02 
530	 7.38904318467889E-02 
531	 0.073955547263317 
532	 7.39624606114987E-02 
533	 0.073976493377256 
534	 7.40284562336357E-02 
535	 7.40042558534428E-02 
536	 7.40535662120055E-02 
537	 7.41018119646643E-02 
538	 7.40251841308889E-02 
539	 7.39991659040266E-02 
540	 7.40335726156815E-02 
541	 7.41165122346151E-02 
542	 7.42307983441605E-02 
543	 7.42578186820174E-02 
544	 7.42560533977692E-02 
545	 7.43044516587766E-02 
546	 7.43419163886027E-02 
547	 7.43749774889752E-02 
548	 7.44335639958419E-02 
549	 7.45570122298855E-02 
550	 7.45814897814415E-02 
551	 7.46248738866076E-02 
552	 7.47703641932592E-02 
553	 7.48767620891075E-02 
554	 7.49772381966749E-02 
555	 7.50642771970618E-02 
556	 7.51231065547613E-02 
557	 7.52417170499619E-02 
558	 7.54117364825161E-02 
559	 0.075593368888155 
560	 7.57076959416167E-02 
561	 7.58859234125241E-02 
562	 7.61065947049448E-02 
563	 7.63016417713754E-02 
564	 7.64677123729189E-02 
565	 7.66354931844425E-02 
566	 7.68394813234787E-02 
567	 7.71139955148322E-02 
568	 7.74597786984541E-02 
569	 7.77844919226382E-02 
570	 7.80280999609988E-02 
571	 7.83039836318329E-02 
572	 7.86210467840459E-02 
573	 7.90001313686543E-02 
574	 7.94540225677339E-02 
575	 7.98016991549309E-02 
576	 8.01229869852109E-02 
577	 8.05075615628848E-02 
578	 8.09763399735737E-02 
579	 8.14592563159733E-02 
580	 8.19716908073739E-02 
581	 0.082561660387722 
582	 8.32299957809537E-02 
583	 8.38497848183583E-02 
584	 8.43758381838171E-02 
585	 8.48925863341885E-02 
586	 8.54273419681997E-02 
587	 8.59819057866574E-02 
588	 8.65573971818693E-02 
589	 0.087214038994669 
590	 8.78452386626193E-02 
591	 8.84292621771627E-02 
592	 8.90269201184132E-02 
593	 8.95884386132799E-02 
594	 9.01586395549814E-02 
595	 9.07678658986102E-02 
596	 9.13501166569739E-02 
597	 9.20447734425154E-02 
598	 9.28261537993135E-02 
599	 9.35824727582573E-02 
600	 9.43118610218033E-02 
601	 9.49793726277993E-02 
602	 0.095579990855073 
603	 9.61635910266251E-02 
604	 9.67527937029311E-02 
605	 9.73559887267941E-02 
606	 9.79647846135265E-02 
607	 9.85255510472059E-02 
608	 9.91041521189056E-02 
609	 9.96996199360002E-02 
610	 0.100230079477516 
611	 0.100778002841488 
612	 0.101318600174975 
613	 0.101814438702266 
614	 0.102286005191432 
615	 0.102700667488433 
616	 0.103081583288305 
617	 0.103489064218302 
618	 0.103969925026772 
619	 0.104347244214532 
620	 0.104577252051685 
621	 0.104981714917533 
622	 0.105293660299012 
623	 0.105544459544498 
624	 0.105862922058138 
625	 0.10618180350596 
626	 0.10648148102398 
627	 0.106754645780448 
628	 0.107004699791983 
629	 0.107259244480325 
630	 0.107507434593106 
631	 0.107734897042149 
632	 0.107952269329186 
633	 0.108204105817038 
634	 0.10845626488241 
635	 0.108621148864114 
636	 0.108837303001418 
637	 0.109073535526136 
638	 0.10928151533498 
639	 0.109438480455569 
640	 0.10964678893483 
641	 0.109882582952779 
642	 0.11007500459504 
643	 0.110305030912025 
644	 0.110519108245861 
645	 0.110716466166489 
646	 0.11099286582598 
647	 0.11118134124149 
648	 0.111345056111749 
649	 0.111577525540225 
650	 0.111792712141542 
651	 0.112007280951125 
652	 0.112218489938469 
653	 0.112410007492447 
654	 0.112666308050491 
655	 0.112896835741839 
656	 0.113064164093829 
657	 0.113348571441552 
658	 0.113611742852895 
659	 0.113828318525241 
660	 0.114027601323988 
661	 0.11421079812613 
662	 0.114469274225213 
663	 0.114797192775225 
664	 0.11503776616285 
665	 0.115342656424728 
666	 0.115655506485417 
667	 0.115896072335099 
668	 0.116131215748365 
669	 0.116426606403674 
670	 0.116760508504695 
671	 0.117042407285782 
672	 0.11730689867169 
673	 0.117627877782201 
674	 0.118012236725263 
675	 0.118288862946974 
676	 0.118586149062769 
677	 0.1189285686433 
678	 0.119285345874365 
679	 0.119566995258749 
680	 0.119891771696826 
681	 0.120290158424705 
682	 0.120656273595336 
683	 0.121032500650762 
684	 0.121408204246495 
685	 0.121782552853698 
686	 0.122241133991856 
687	 0.122669193165662 
688	 0.123050015620116 
689	 0.123437288985177 
690	 0.123799697847491 
691	 0.124209614476448 
692	 0.124687926819317 
693	 0.125131015047926 
694	 0.125549412653157 
695	 0.125983952264799 
696	 0.126471294821198 
697	 0.126944298205101 
698	 0.127380421849912 
699	 0.127809881226838 
700	 0.128309179311752 
701	 0.128769320627126 
702	 0.129244119460809 
703	 0.129769258997689 
704	 0.13022980295742 
705	 0.130697219043796 
706	 0.131172849220914 
707	 0.131628993691784 
708	 0.132122218965385 
709	 0.132611344585746 
710	 0.133088332781158 
711	 0.133609847808679 
712	 0.134105180709662 
713	 0.134547471866012 
714	 0.134959121073052 
715	 0.135495930105388 
716	 0.135982142768185 
717	 0.136389046165285 
718	 0.136803283890446 
719	 0.137249459022648 
720	 0.137710951239704 
721	 0.138153878077374 
722	 0.138524976831794 
723	 0.138915971640045 
724	 0.139310120186329 
725	 0.139665780510004 
726	 0.140026518363683 
727	 0.140331202654579 
728	 0.140607564680802 
729	 0.140958487146044 
730	 0.141221380696528 
731	 0.141478162447296 
732	 0.141773057745127 
733	 0.141942129567166 
734	 0.142171955583967 
735	 0.142397349950045 
736	 0.14248617974283 
737	 0.14258128334717 
738	 0.142695234705062 
739	 0.142804704269547 
740	 0.142859312739384 
741	 0.142874004414542 
742	 0.142876462963622 
743	 0.142882153166866 
744	 0.142869230730527 
745	 0.142802964798284 
746	 0.142723222350208 
747	 0.14268229408151 
748	 0.142545177848993 
749	 0.142370793730136 
750	 0.142203092803304 
751	 0.142044751976373 
752	 0.141844853057618 
753	 0.141619587943708 
754	 0.141386683849712 
755	 0.141115842497832 
756	 0.140846215098799 
757	 0.140567379422154 
758	 0.140254558417057 
759	 0.139981209024611 
760	 0.139689028552552 
761	 0.139341768270196 
762	 0.13894795654112 
763	 0.13860955928556 
764	 0.138272946428661 
765	 0.137888575505635 
766	 0.137539970452555 
767	 0.137150165988837 
768	 0.136741282547989 
769	 0.136372358228625 
770	 0.135979071738719 
771	 0.135566758189471 
772	 0.135139878585723 
773	 0.134695616843133 
774	 0.134293056091166 
775	 0.133897876604688 
776	 0.133476049121373 
777	 0.133057140371811 
778	 0.13262640740741 
779	 0.132194059283617 
780	 0.131775221586987 
781	 0.131336473978363 
782	 0.130936642925729 
783	 0.130561756978319 
784	 0.130121205619382 
785	 0.129688282210031 
786	 0.129306766837768 
787	 0.128963342213459 
788	 0.128516946151678 
789	 0.12813832613767 
790	 0.127778687704415 
791	 0.127345254308551 
792	 0.126978330398492 
793	 0.12661738564111 
794	 0.126250577259028 
795	 0.125910396500688 
796	 0.125513771405468 
797	 0.125137569107413 
798	 0.124825801284714 
799	 0.124519389534007 
800	 0.124200278743482 
801	 0.123852083319992 
802	 0.123483030313612 
803	 0.123174728230904 
804	 0.122894464183707 
805	 0.122617269575349 
806	 0.122329495978036 
807	 0.122058085230044 
808	 0.121764552970006 
809	 0.121450409805764 
810	 0.121175248490726 
811	 0.120937253840112 
812	 0.120679839055622 
813	 0.120386020739627 
814	 0.120180046823185 
815	 0.119997034405004 
816	 0.119768928689342 
817	 0.119462433422251 
818	 0.119222793494659 
819	 0.119053823051559 
820	 0.118907632282541 
821	 0.118708184853023 
822	 0.118513906562204 
823	 0.118290625902806 
824	 0.118050941899085 
825	 0.117901402397776 
826	 0.117780453030978 
827	 0.117646916217066 
828	 0.117487608172753 
829	 0.117365071385678 
830	 0.117192777074007 
831	 0.117020221003069 
832	 0.116935534191792 
833	 0.11682418986962 
834	 0.116707997426866 
835	 0.116595539566548 
836	 0.116479127440112 
837	 0.11642870741 
838	 0.116373847479217 
839	 0.11627596990867 
840	 0.116191422331374 
841	 0.116057097603108 
842	 0.115934973100523 
843	 0.115883051843992 
844	 0.115837052122165 
845	 0.115824627823675 
846	 0.115793948933077 
847	 0.115698299249173 
848	 0.115731625337909 
849	 0.11573335847817 
850	 0.11567337378656 
851	 0.115648020286277 
852	 0.115639414326245 
853	 0.115641660359535 
854	 0.115648178915887 
855	 0.115651660670864 
856	 0.115635001713973 
857	 0.115639483752777 
858	 0.115687127365164 
859	 0.115715974109528 
860	 0.115757602111146 
861	 0.115801475678578 
862	 0.115830952061478 
863	 0.115861331038727 
864	 0.115938144699708 
865	 0.116032951514399 
866	 0.116083816316819 
867	 0.116145504767037 
868	 0.116233307322227 
869	 0.116328124193207 
870	 0.116387532613947 
871	 0.116493908858628 
872	 0.116593332607389 
873	 0.116670783005036 
874	 0.116807714033688 
875	 0.116917462193199 
876	 0.116998532227786 
877	 0.117085103514555 
878	 0.11724074326627 
879	 0.117456865623839 
880	 0.117643882376023 
881	 0.117739881984431 
882	 0.117915835384536 
883	 0.118097994219395 
884	 0.118255780746358 
885	 0.118397458222325 
886	 0.118585733850763 
887	 0.11879499638847 
888	 0.118979372666285 
889	 0.11909777943002 
890	 0.119245189044395 
891	 0.119448249959509 
892	 0.119706697550131 
893	 0.119994577272822 
894	 0.120195498934055 
895	 0.120367844852851 
896	 0.120582129090595 
897	 0.120859345136061 
898	 0.121163473438237 
899	 0.121416611586947 
900	 0.121596270586889 
901	 0.121845192971914 
902	 0.12210399428461 
903	 0.122394901895757 
904	 0.12273987766819 
905	 0.123076907792498 
906	 0.123346010858504 
907	 0.123602892562499 
908	 0.123931915699149 
909	 0.124247099124552 
910	 0.124570758044037 
911	 0.124905880721731 
912	 0.125241190659338 
913	 0.125579720379378 
914	 0.125952884345944 
915	 0.126352610202383 
916	 0.126736114348143 
917	 0.127099991342665 
918	 0.127420421031186 
919	 0.127744526365512 
920	 0.128185782856837 
921	 0.128664812421411 
922	 0.129105846086543 
923	 0.129493857947446 
924	 0.129901313792615 
925	 0.130352293882337 
926	 0.130775353964114 
927	 0.13116059101561 
928	 0.131644191338786 
929	 0.132131760606578 
930	 0.132635982669579 
931	 0.133162551607369 
932	 0.133643256613056 
933	 0.134165181424532 
934	 0.134688465701451 
935	 0.135183964147646 
936	 0.135771993521327 
937	 0.136255116189011 
938	 0.136732338079182 
939	 0.137342542956227 
940	 0.137999752651689 
941	 0.138593711872421 
942	 0.139191989420962 
943	 0.139867154953586 
944	 0.140391827443161 
945	 0.140987370940007 
946	 0.141654545187375 
947	 0.142296760536849 
948	 0.14291051578501 
949	 0.143538351062684 
950	 0.144195640998631 
951	 0.144877499960643 
952	 0.14557381094781 
953	 0.146218437689994 
954	 0.14683818038538 
955	 0.147526575551485 
956	 0.148421336521475 
957	 0.149163523591476 
958	 0.149790077699203 
959	 0.15055303644277 
960	 0.151307384166653 
961	 0.152046662329021 
962	 0.152821522615212 
963	 0.153672976682659 
964	 0.154404179176611 
965	 0.155186022696178 
966	 0.156083919216485 
967	 0.157039753535191 
968	 0.157866798442738 
969	 0.15866137761842 
970	 0.159517991457411 
971	 0.160467673455733 
972	 0.161313776454204 
973	 0.162235257695531 
974	 0.163207295723357 
975	 0.164099047271205 
976	 0.165137126685783 
977	 0.16612825936747 
978	 0.167011412581901 
979	 0.16786491030404 
980	 0.168873935541965 
981	 0.169896189345627 
982	 0.170925234397487 
983	 0.172017019332013 
984	 0.173005822188735 
985	 0.173987068110707 
986	 0.174995007591013 
987	 0.176015634627478 
988	 0.177052518382121 
989	 0.177992655102921 
990	 0.179004399881544 
991	 0.180268634901115 
992	 0.181351476948323 
993	 0.182380651865877 
994	 0.183439074364887 
995	 0.18451380718567 
996	 0.185318639179919 
997	 0.1865149175984 
998	 0.18782289151097 
999	 0.188797371353152 
1000	 0.189863392599809 
1001	 0.197405906130714 
1002	 0.198512483605165 
1003	 0.19965132925661 
1004	 0.200766866694188 
1005	 0.201879733400312 
1006	 0.203009823222209 
1007	 0.204149109955693 
1008	 0.205230881672506 
1009	 0.206336528839469 
1010	 0.207426882254401 
1011	 0.20849019450633 
1012	 0.209653843441323 
1013	 0.210800775335988 
1014	 0.211905187265364 
1015	 0.213006327684016 
1016	 0.214013603993111 
1017	 0.215088180716291 
1018	 0.216169670062872 
1019	 0.217302213314393 
1020	 0.218395275570882 
1021	 0.219479096406762 
1022	 0.220489693481575 
1023	 0.221496741294795 
1024	 0.222529055547989 
1025	 0.22349126336459 
1026	 0.224455862925075 
1027	 0.225456470251908 
1028	 0.226466989527907 
1029	 0.227556034688659 
1030	 0.228643283489115 
1031	 0.229653727212463 
1032	 0.230613001143697 
1033	 0.231527847443749 
1034	 0.23243597377723 
1035	 0.233342467960077 
1036	 0.234287896815913 
1037	 0.235274475585628 
1038	 0.236257119810888 
1039	 0.237300787259325 
1040	 0.238337234400778 
1041	 0.239308391084395 
1042	 0.240281023874579 
1043	 0.241163751578574 
1044	 0.242061604161053 
1045	 0.242928401256995 
1046	 0.243864253396732 
1047	 0.24474855903766 
1048	 0.245679471968354 
1049	 0.246672061688184 
1050	 0.247618860863869 
1051	 0.248619956970168 
1052	 0.249645959906394 
1053	 0.250580099343079 
1054	 0.251526628475056 
1055	 0.252501734143726 
1056	 0.253490493597368 
1057	 0.254491442503537 
1058	 0.255551754351621 
1059	 0.256565168342411 
1060	 0.257567410929471 
1061	 0.258537590439103 
1062	 0.259487822994654 
1063	 0.260504382056922 
1064	 0.261528490482032 
1065	 0.262556561933615 
1066	 0.263618802025 
1067	 0.264658908022368 
1068	 0.265680827159917 
1069	 0.266691114599297 
1070	 0.267719972045761 
1071	 0.268750856695614 
1072	 0.2697926864068 
1073	 0.270855402662556 
1074	 0.271906228776146 
1075	 0.272942440349728 
1076	 0.273973632830599 
1077	 0.275063790668855 
1078	 0.276097718755331 
1079	 0.277121201591537 
1080	 0.278172353865286 
1081	 0.279154068125181 
1082	 0.280130752558411 
1083	 0.281136829488772 
1084	 0.282115928293775 
1085	 0.283175964971952 
1086	 0.284331050689581 
1087	 0.285387486640357 
1088	 0.286427442891959 
1089	 0.287498453214393 
1090	 0.28851273622576 
1091	 0.289486531939916 
1092	 0.290508431104824 
1093	 0.291527782872667 
1094	 0.292509143725826 
1095	 0.293511220192647 
1096	 0.294548796718442 
1097	 0.295571047865172 
1098	 0.29659309718764 
1099	 0.297630377571506 
1100	 0.298636144736082 
1101	 0.299610038396332 
1102	 0.300615524228723 
1103	 0.301637600000528 
1104	 0.302615081844349 
1105	 0.303615863046044 
1106	 0.304656530361915 
1107	 0.305657190820003 
1108	 0.306681701349064 
1109	 0.307697034244467 
1110	 0.308678355209549 
1111	 0.30968357389485 
1112	 0.310684012904 
1113	 0.311681818872146 
1114	 0.312703884906596 
1115	 0.313702681431401 
1116	 0.31466648419366 
1117	 0.315664165667666 
1118	 0.316676159426737 
1119	 0.317677607438404 
1120	 0.31870871960769 
1121	 0.319706601143521 
1122	 0.320687651875139 
1123	 0.321692516920259 
1124	 0.322699733532556 
1125	 0.323717359153686 
1126	 0.324717926556734 
1127	 0.325715887516085 
1128	 0.326717065293776 
1129	 0.327706140440005 
1130	 0.328693677323788 
1131	 0.329705062722334 
1132	 0.330682812407576 
1133	 0.331621585939811 
1134	 0.332584485418239 
1135	 0.333538504643079 
1136	 0.334513574223712 
1137	 0.335496926082539 
1138	 0.336435178486101 
1139	 0.3373631954243 
1140	 0.338274723350764 
1141	 0.339163516620984 
1142	 0.340042875885688 
1143	 0.340895575912188 
1144	 0.341721615945156 
1145	 0.342530645042364 
1146	 0.343306965704568 
1147	 0.344087608530516 
1148	 0.344844082989502 
1149	 0.345618279775842 
1150	 0.346401596082371 
1151	 0.347175335825408 
1152	 0.347943013169811 
1153	 0.348754176712614 
1154	 0.349559500955064 
1155	 0.350339218453807 
1156	 0.351200910757345 
1157	 0.352090294300625 
1158	 0.353025161783923 
1159	 0.354051032561677 
1160	 0.35503086216266 
1161	 0.356014387648427 
1162	 0.357007458982929 
1163	 0.358019850765563 
1164	 0.359000688222966 
1165	 0.359974329396896 
1166	 0.360955655694009 
1167	 0.361914605037914 
1168	 0.362872052577949 
1169	 0.363814634460122 
1170	 0.364770775076647 
1171	 0.365695120781411 
1172	 0.366592925500573 
1173	 0.367480970447751 
1174	 0.368364876218075 
1175	 0.369230997595482 
1176	 0.37007168748814 
1177	 0.370910501427982 
1178	 0.371730857177882 
1179	 0.372565179179274 
1180	 0.373412456089785 
1181	 0.374238041243983 
1182	 0.375068560623473 
1183	 0.37588540002964 
1184	 0.376676591902693 
1185	 0.377436692326004 
1186	 0.37820483428547 
1187	 0.378970565158089 
1188	 0.379712598760144 
1189	 0.380450113541286 
1190	 0.38116202850587 
1191	 0.381842095991914 
1192	 0.382528611847022 
1193	 0.383208352282016 
1194	 0.383875463792913 
1195	 0.384529888824843 
1196	 0.385184782163945 
1197	 0.385838302279128 
1198	 0.386476434050696 
1199	 0.387106510064101 
1200	 0.387740802513128 
1201	 0.388346209800044 
1202	 0.388927067595073 
1203	 0.389509160717718 
1204	 0.390073250607351 
1205	 0.390649448401823 
1206	 0.391229530633922 
1207	 0.39179813403637 
1208	 0.392381472297661 
1209	 0.392930801538909 
1210	 0.393459403329736 
1211	 0.39397735744333 
1212	 0.394463109960809 
1213	 0.394960001365756 
1214	 0.395461057513472 
1215	 0.395948455899006 
1216	 0.396429802323884 
1217	 0.396917631977605 
1218	 0.39737486910181 
1219	 0.397806360549964 
1220	 0.398247711544296 
1221	 0.398682756297967 
1222	 0.399107801204843 
1223	 0.399532398064168 
1224	 0.399947155744627 
1225	 0.400358277428466 
1226	 0.40074540780975 
1227	 0.401122833286749 
1228	 0.401486982239441 
1229	 0.401801044666669 
1230	 0.402151222644652 
1231	 0.402536139892096 
1232	 0.402887877161812 
1233	 0.403231907054512 
1234	 0.403587805795769 
1235	 0.40391489244824 
1236	 0.404209553497864 
1237	 0.404508581183195 
1238	 0.404803546557667 
1239	 0.405093164716096 
1240	 0.405365586753863 
1241	 0.405646705290517 
1242	 0.405936511196973 
1243	 0.406214514333994 
1244	 0.406496997708346 
1245	 0.406758025803676 
1246	 0.406990600027027 
1247	 0.407241127177081 
1248	 0.40749727679171 
1249	 0.407734256835893 
1250	 0.40800170034052 
1251	 0.408249752104118 
1252	 0.408464013700638 
1253	 0.408654336691507 
1254	 0.408832654191441 
1255	 0.408978305684986 
1256	 0.409131810884328 
1257	 0.409271669659966 
1258	 0.409416646194667 
1259	 0.409555495110015 
1260	 0.409697107603817 
1261	 0.409840141065045 
1262	 0.409985033085505 
1263	 0.410139174815124 
1264	 0.410280958160165 
1265	 0.410413668974849 
1266	 0.410552107624555 
1267	 0.410696844364914 
1268	 0.410814792160967 
1269	 0.410949570494951 
1270	 0.411093316372051 
1271	 0.411230659043871 
1272	 0.411364665625476 
1273	 0.411505629687184 
1274	 0.411649913326468 
1275	 0.411789121723457 
1276	 0.411917237661941 
1277	 0.412067371399345 
1278	 0.412241708853936 
1279	 0.412389088479048 
1280	 0.412548892458827 
1281	 0.412685746761354 
1282	 0.412789845923631 
1283	 0.412894942712671 
1284	 0.413001753754489 
1285	 0.413081098357171 
1286	 0.413170177233115 
1287	 0.413271130689259 
1288	 0.413381033233614 
1289	 0.413510762301067 
1290	 0.413623785953595 
1291	 0.41374150331409 
1292	 0.413842939548574 
1293	 0.413933784895183 
1294	 0.414022926555532 
1295	 0.414107514600314 
1296	 0.414179158570112 
1297	 0.414256601417705 
1298	 0.414303438661004 
1299	 0.414324736253142 
1300	 0.414341883489389 
1301	 0.414331256631582 
1302	 0.414322801977169 
1303	 0.414301356248452 
1304	 0.414299154507094 
1305	 0.414288959891878 
1306	 0.414260982061405 
1307	 0.414228067295418 
1308	 0.414176327358881 
1309	 0.414107058103707 
1310	 0.414023499349865 
1311	 0.413916180550814 
1312	 0.413787447183867 
1313	 0.413651271434643 
1314	 0.413493784543698 
1315	 0.413326531508723 
1316	 0.413157706778522 
1317	 0.412961233439462 
1318	 0.412739800211015 
1319	 0.412514458997089 
1320	 0.412272195279613 
1321	 0.412023725256857 
1322	 0.411776820910547 
1323	 0.411509711300911 
1324	 0.411205406347893 
1325	 0.410885332013423 
1326	 0.410562198068875 
1327	 0.41021741732254 
1328	 0.409850446224473 
1329	 0.409488037569646 
1330	 0.40909471131442 
1331	 0.408660697743837 
1332	 0.408236670395374 
1333	 0.407800614033688 
1334	 0.407371087361361 
1335	 0.406942036399037 
1336	 0.406505161574899 
1337	 0.406072978297194 
1338	 0.405635247578261 
1339	 0.405174405651528 
1340	 0.404728891778361 
1341	 0.404287523795069 
1342	 0.403854126919683 
1343	 0.403420037186199 
1344	 0.403010223940169 
1345	 0.402606000091247 
1346	 0.402196480028402 
1347	 0.401785985816667 
1348	 0.401402925941545 
1349	 0.401003096669435 
1350	 0.400597483112329 
1351	 0.400216422745174 
1352	 0.39984518425743 
1353	 0.399468232740669 
1354	 0.399110644482928 
1355	 0.39873804143698 
1356	 0.398348085025477 
1357	 0.397974446806145 
1358	 0.397611906776418 
1359	 0.397236868020123 
1360	 0.396864875335357 
1361	 0.396483447961334 
1362	 0.396081212856872 
1363	 0.395700206376468 
1364	 0.39532636013914 
1365	 0.394951426369014 
1366	 0.394590188913611 
1367	 0.394225230158525 
1368	 0.393853137519749 
1369	 0.393480750109788 
1370	 0.393059404853056 
1371	 0.392611173050477 
1372	 0.392148698752764 
1373	 0.391649318020604 
1374	 0.39112211760971 
1375	 0.390593003573724 
1376	 0.389992127054929 
1377	 0.38934158190476 
1378	 0.388641029323963 
1379	 0.387885089267668 
1380	 0.387101396267363 
1381	 0.386283226881297 
1382	 0.385406664830101 
1383	 0.384505867043624 
1384	 0.383530619292246 
1385	 0.382508591980388 
1386	 0.381410931917981 
1387	 0.380255198190309 
1388	 0.379031708125016 
1389	 0.377757608434908 
1390	 0.37637476856829 
1391	 0.374921812054374 
1392	 0.373393699570706 
1393	 0.371760059998417 
1394	 0.370066929812885 
1395	 0.36829984584194 
1396	 0.366483706900649 
1397	 0.364642076307621 
1398	 0.362748630554117 
1399	 0.360830702415758 
1400	 0.358855742728172 
1401	 0.35691919957349 
1402	 0.354931186115529 
1403	 0.35303638658776 
1404	 0.351169816306007 
1405	 0.349379095068052 
1406	 0.347617449468998 
1407	 0.345954002923561 
1408	 0.344330648724523 
1409	 0.342844903467037 
1410	 0.341472852101259 
1411	 0.340180887632864 
1412	 0.338978169963686 
1413	 0.337902533568793 
1414	 0.336913166724587 
1415	 0.335965550337359 
1416	 0.335125205930692 
1417	 0.334330656357787 
1418	 0.333546036745111 
1419	 0.332817708014198 
1420	 0.332088793326744 
1421	 0.331370786726521 
1422	 0.330674418051072 
1423	 0.329996753248819 
1424	 0.329360581849308 
1425	 0.328761228051514 
1426	 0.328185188871144 
1427	 0.327645640036249 
1428	 0.327117194226475 
1429	 0.326605536178741 
1430	 0.326128302078983 
1431	 0.325677393253589 
1432	 0.325241988731531 
1433	 0.324830471259922 
1434	 0.324446133034591 
1435	 0.324084531243773 
1436	 0.323739619084999 
1437	 0.323424833155016 
1438	 0.32312466210542 
1439	 0.322848062611881 
1440	 0.322563873998883 
1441	 0.322298860692351 
1442	 0.322034145225201 
1443	 0.321759547383603 
1444	 0.321507663957177 
1445	 0.321281949723575 
1446	 0.321076024296307 
1447	 0.32087764557081 
1448	 0.320670212239714 
1449	 0.320445171989489 
1450	 0.320217002121905 
1451	 0.320016914878643 
1452	 0.319823796010514 
1453	 0.319645558904131 
1454	 0.31949402255444 
1455	 0.319342051046741 
1456	 0.319193530118614 
1457	 0.319055544921207 
1458	 0.318932811531235 
1459	 0.318805565209579 
1460	 0.318686672255582 
1461	 0.318557200237185 
1462	 0.318422928367172 
1463	 0.318291656840806 
1464	 0.318143091347777 
1465	 0.318023480707294 
1466	 0.3179110720352 
1467	 0.317819308519274 
1468	 0.31772935778838 
1469	 0.31768455076996 
1470	 0.317671134664963 
1471	 0.317683072679985 
1472	 0.317720188772549 
1473	 0.317789240859853 
1474	 0.317859628561158 
1475	 0.317941553186357 
1476	 0.318035908262941 
1477	 0.318135245601001 
1478	 0.318247160892534 
1479	 0.318367857379212 
1480	 0.318509709151415 
1481	 0.318667079035435 
1482	 0.318844955676061 
1483	 0.319048228017085 
1484	 0.319247025330503 
1485	 0.319469531629833 
1486	 0.319677152933035 
1487	 0.319863728444103 
1488	 0.320082553893392 
1489	 0.320329590829093 
1490	 0.320545231205075 
1491	 0.320765973887918 
1492	 0.320982697618355 
1493	 0.321170400305847 
1494	 0.321380489079588 
1495	 0.321606216605608 
1496	 0.32183021990174 
1497	 0.322058524952016 
1498	 0.322279008860497 
1499	 0.32251918709324 
1500	 0.322728545531325 
1501	 0.322907226656053 
1502	 0.323097266637431 
1503	 0.323284262543364 
1504	 0.323452124481804 
1505	 0.323626173312282 
1506	 0.323810867109415 
1507	 0.32396929363691 
1508	 0.324119841937885 
1509	 0.32427123015329 
1510	 0.324404120973653 
1511	 0.324532327707025 
1512	 0.324661652446959 
1513	 0.324785935339001 
1514	 0.324932746683899 
1515	 0.32508989934042 
1516	 0.325233922006027 
1517	 0.325379553074354 
1518	 0.325527474170942 
1519	 0.325668900735825 
1520	 0.325810954113305 
1521	 0.325942220192259 
1522	 0.326075509739821 
1523	 0.326177986442317 
1524	 0.326254098819719 
1525	 0.326336674374936 
1526	 0.326392443174327 
1527	 0.326478128804694 
1528	 0.326581023463229 
1529	 0.326676026836897 
1530	 0.326782925461425 
1531	 0.326881943011424 
1532	 0.326981892278762 
1533	 0.32706222187315 
1534	 0.327136832353344 
1535	 0.327198758124332 
1536	 0.327231687404257 
1537	 0.32728429629022 
1538	 0.327340122530778 
1539	 0.327390123606202 
1540	 0.327444932387689 
1541	 0.327496457210136 
1542	 0.327537606768557 
1543	 0.327586657611581 
1544	 0.327652101347789 
1545	 0.327698064588897 
1546	 0.327737294210705 
1547	 0.327776233794601 
1548	 0.32778727175126 
1549	 0.327770430636082 
1550	 0.327770029824641 
1551	 0.327782368276392 
1552	 0.327794445097481 
1553	 0.327823705701858 
1554	 0.327851421114031 
1555	 0.32785909618993 
1556	 0.327855073153189 
1557	 0.327863959369414 
1558	 0.327880028879208 
1559	 0.327878705703228 
1560	 0.327886074760687 
1561	 0.327911573488061 
1562	 0.327916320503736 
1563	 0.327900952010617 
1564	 0.327906538671746 
1565	 0.327927041256766 
1566	 0.327920480575189 
1567	 0.327908448001159 
1568	 0.327895584698193 
1569	 0.327857333301889 
1570	 0.327844569945943 
1571	 0.327854291199205 
1572	 0.327843596862107 
1573	 0.327833938759584 
1574	 0.327812162708615 
1575	 0.327778333565717 
1576	 0.32773795430561 
1577	 0.327682926936495 
1578	 0.32764177827361 
1579	 0.327590236475236 
1580	 0.327561608074115 
1581	 0.327547740245468 
1582	 0.327541665981239 
1583	 0.327564495577295 
1584	 0.327559107154693 
1585	 0.327561847997063 
1586	 0.3275365162693 
1587	 0.327471241740036 
1588	 0.327424774365588 
1589	 0.327373680105285 
1590	 0.327322799508171 
1591	 0.327279274796452 
1592	 0.327229655802635 
1593	 0.327163188438214 
1594	 0.327114310190524 
1595	 0.327083820760885 
1596	 0.327040691002792 
1597	 0.326999724561145 
1598	 0.326954861592535 
1599	 0.326903476435257 
1600	 0.326844525000316 
1601	 0.32677462896198 
1602	 0.326720420252958 
1603	 0.326662905837135 
1604	 0.326609751692598 
1605	 0.326575753480991 
1606	 0.326533719269513 
1607	 0.326480070199354 
1608	 0.326440719804572 
1609	 0.32640659901978 
1610	 0.326364948055128 
1611	 0.326308884551361 
1612	 0.326243294070884 
1613	 0.32616231103203 
1614	 0.326069928527957 
1615	 0.325995392640645 
1616	 0.325927670700198 
1617	 0.325846724786929 
1618	 0.325771444293483 
1619	 0.325685990790873 
1620	 0.325582340699104 
1621	 0.325499486879264 
1622	 0.325422152103585 
1623	 0.325349266971975 
1624	 0.32529559215724 
1625	 0.325204942110023 
1626	 0.325099643270948 
1627	 0.324999289684391 
1628	 0.324868977253108 
1629	 0.324783546951187 
1630	 0.324728566380889 
1631	 0.324652946095747 
1632	 0.324583237430509 
1633	 0.324517357309164 
1634	 0.324449088788622 
1635	 0.324371153421512 
1636	 0.324308816043142 
1637	 0.324211707004467 
1638	 0.324076580170128 
1639	 0.323975771240539 
1640	 0.323869057685852 
1641	 0.323783175949855 
1642	 0.323724576209736 
1643	 0.323648825061641 
1644	 0.323580992903795 
1645	 0.323494309300143 
1646	 0.323397878825714 
1647	 0.323294575790564 
1648	 0.323183446849427 
1649	 0.323058782126215 
1650	 0.322913031978938 
1651	 0.322790164125315 
1652	 0.322668546803332 
1653	 0.32254025363629 
1654	 0.32242506235023 
1655	 0.322298409406334 
1656	 0.322156696463355 
1657	 0.322015684408339 
1658	 0.321875594659032 
1659	 0.321735844048697 
1660	 0.321589161049437 
1661	 0.321441572613588 
1662	 0.321293750208793 
1663	 0.321153874370996 
1664	 0.320997554349729 
1665	 0.320878079446198 
1666	 0.320790676292722 
1667	 0.320691342823652 
1668	 0.320623014319316 
1669	 0.320510008529335 
1670	 0.320381898989445 
1671	 0.320232955860621 
1672	 0.320038254496775 
1673	 0.319878257932389 
1674	 0.319716998498491 
1675	 0.319563655432961 
1676	 0.319431350773408 
1677	 0.319287621990824 
1678	 0.319133381741149 
1679	 0.318992739705744 
1680	 0.318865537406888 
1681	 0.318724166003971 
1682	 0.318576674873768 
1683	 0.318438435546078 
1684	 0.318291972485988 
1685	 0.318160611419185 
1686	 0.318060326072003 
1687	 0.317923879716953 
1688	 0.317774947149359 
1689	 0.317620808305065 
1690	 0.317431973467641 
1691	 0.317279860499121 
1692	 0.317137476840549 
1693	 0.317011270680755 
1694	 0.316920914494267 
1695	 0.316800146640866 
1696	 0.316673524669329 
1697	 0.316548855292833 
1698	 0.316425515527547 
1699	 0.316273775113482 
1700	 0.316117148392106 
1701	 0.315948166837318 
1702	 0.31573013740825 
1703	 0.315555791721582 
1704	 0.315404004898333 
1705	 0.315243486708572 
1706	 0.315097744045861 
1707	 0.314938893128234 
1708	 0.314762175116184 
1709	 0.314609979333823 
1710	 0.314475409388778 
1711	 0.314322741956284 
1712	 0.314172111943231 
1713	 0.314018971967222 
1714	 0.313845700874587 
1715	 0.313688169364679 
1716	 0.313542445325357 
1717	 0.313402430036362 
1718	 0.313269311504895 
1719	 0.313134276614648 
1720	 0.313011064790794 
1721	 0.312872478714621 
1722	 0.312717479713871 
1723	 0.312578841465263 
1724	 0.312458531357359 
1725	 0.312303145562812 
1726	 0.312134248568574 
1727	 0.311970404637102 
1728	 0.311774410375314 
1729	 0.311615587014613 
1730	 0.311505789765604 
1731	 0.31132641939948 
1732	 0.311115088555693 
1733	 0.310928676446426 
1734	 0.310720783916224 
1735	 0.310510995605494 
1736	 0.310312683575597 
1737	 0.310126346873683 
1738	 0.309906654342647 
1739	 0.309754294512153 
1740	 0.309663844912312 
1741	 0.309539438853049 
1742	 0.309437134821304 
1743	 0.309297205541174 
1744	 0.309138463042638 
1745	 0.308983107562921 
1746	 0.308805653869739 
1747	 0.308644259585605 
1748	 0.308479232803259 
1749	 0.308309692604108 
1750	 0.308152038482234 
1751	 0.307997747307442 
1752	 0.307878712301951 
1753	 0.307779263652544 
1754	 0.307654953315475 
1755	 0.307530608094408 
1756	 0.307384006756609 
1757	 0.307198636303497 
1758	 0.307021466882084 
1759	 0.306839183441489 
1760	 0.306684721502593 
1761	 0.306564435483458 
1762	 0.306437126278987 
1763	 0.306316952484204 
1764	 0.306165785878367 
1765	 0.305991330911498 
1766	 0.30580152264899 
1767	 0.30558727384061 
1768	 0.305417132382006 
1769	 0.305267403198615 
1770	 0.305138654111765 
1771	 0.305040313956832 
1772	 0.304883973558063 
1773	 0.304717237854696 
1774	 0.304596424551973 
1775	 0.304478431758018 
1776	 0.304368611462372 
1777	 0.304278187124322 
1778	 0.304149604265639 
1779	 0.303982271365573 
1780	 0.303856100061241 
1781	 0.303742554777332 
1782	 0.303630764570181 
1783	 0.303538697216268 
1784	 0.303440811459309 
1785	 0.303332490963226 
1786	 0.3032320453003 
1787	 0.303155994135692 
1788	 0.303062874086131 
1789	 0.302950248877992 
1790	 0.30285978168312 
1791	 0.302770022095686 
1792	 0.30268693505799 
1793	 0.302620031028607 
1794	 0.30254234704185 
1795	 0.302451102087813 
1796	 0.302382134467314 
1797	 0.302333522381576 
1798	 0.302283501659981 
1799	 0.302256820963251 
1800	 0.30219041112213 
1801	 0.306622570249363 
1802	 0.306594976518736 
1803	 0.306600863756248 
1804	 0.30657008010747 
1805	 0.306543770425686 
1806	 0.306554896408101 
1807	 0.306545677371723 
1808	 0.306528331102077 
1809	 0.306536566256349 
1810	 0.306505350318962 
1811	 0.306426863842525 
1812	 0.306370199518059 
1813	 0.30635363722665 
1814	 0.306293362831012 
1815	 0.306237979406708 
1816	 0.306215497237851 
1817	 0.306153540450019 
1818	 0.30603743267617 
1819	 0.305973471339624 
1820	 0.305934517914038 
1821	 0.30585831453291 
1822	 0.305815672504242 
1823	 0.305787820272324 
1824	 0.305746431550912 
1825	 0.305693360903367 
1826	 0.3056339411951 
1827	 0.305602966325293 
1828	 0.30552727385072 
1829	 0.305434304346213 
1830	 0.305327257175525 
1831	 0.305191175539398 
1832	 0.305031212470626 
1833	 0.304921627216166 
1834	 0.304806735297775 
1835	 0.304703215191845 
1836	 0.304623558064545 
1837	 0.304535501896912 
1838	 0.304448049526426 
1839	 0.30435131899653 
1840	 0.304268436438381 
1841	 0.304157074227441 
1842	 0.304006271107075 
1843	 0.303866340367695 
1844	 0.303736247839209 
1845	 0.303587699863774 
1846	 0.303443758059631 
1847	 0.303312517206739 
1848	 0.303166836731812 
1849	 0.302996214965651 
1850	 0.302820365714938 
1851	 0.302647838835477 
1852	 0.302440965553408 
1853	 0.30221126340195 
1854	 0.301983425369296 
1855	 0.301724754207006 
1856	 0.301417822857768 
1857	 0.301052286986752 
1858	 0.300656186363014 
1859	 0.300256610015141 
1860	 0.299838134786704 
1861	 0.299404548843279 
1862	 0.29896156343363 
1863	 0.298482931559422 
1864	 0.297955778224555 
1865	 0.297388304337381 
1866	 0.29676927379081 
1867	 0.296134624544183 
1868	 0.295439056844043 
1869	 0.294663934480415 
1870	 0.293866118471434 
1871	 0.29301430096009 
1872	 0.292106597797998 
1873	 0.291161354437449 
1874	 0.290168973046445 
1875	 0.289113581831559 
1876	 0.288020305567837 
1877	 0.286838505134757 
1878	 0.285566833566351 
1879	 0.284213206309293 
1880	 0.28275858404341 
1881	 0.28118575010132 
1882	 0.279547049072926 
1883	 0.277840630281597 
1884	 0.27599955848381 
1885	 0.27408667467073 
1886	 0.272065532109243 
1887	 0.269908171751739 
1888	 0.267695597343866 
1889	 0.265375446451385 
1890	 0.262975566779863 
1891	 0.260558047009082 
1892	 0.258065380127272 
1893	 0.255565246657291 
1894	 0.253038911034506 
1895	 0.250481944205707 
1896	 0.247875270337107 
1897	 0.245267180571392 
1898	 0.242621254526533 
1899	 0.240000958611516 
1900	 0.237469375190219 
1901	 0.234980998132186 
1902	 0.232624679778763 
1903	 0.230395267965422 
1904	 0.228249197229496 
1905	 0.226182915699872 
1906	 0.224257100769008 
1907	 0.222418406151369 
1908	 0.220680886242073 
1909	 0.219087756716306 
1910	 0.21758942537695 
1911	 0.216203410313077 
1912	 0.214918395317561 
1913	 0.213689419364545 
1914	 0.212543564258252 
1915	 0.211456004846677 
1916	 0.210441815019426 
1917	 0.209466025751184 
1918	 0.208581148508782 
1919	 0.207746475643107 
1920	 0.206986616442624 
1921	 0.206307956906831 
1922	 0.20567014518086 
1923	 0.205082636086133 
1924	 0.204556793538271 
1925	 0.204076175398326 
1926	 0.203677614184251 
1927	 0.203350329161222 
1928	 0.203085799299315 
1929	 0.202866125064492 
1930	 0.20268183177272 
1931	 0.20252032486677 
1932	 0.202395229738234 
1933	 0.202332876504066 
1934	 0.202286846970612 
1935	 0.202267596135597 
1936	 0.20227425204295 
1937	 0.202318611479618 
1938	 0.202391580352521 
1939	 0.202498045587873 
1940	 0.202648536069443 
1941	 0.20281647671868 
1942	 0.2030169890743 
1943	 0.203218290502213 
1944	 0.203430089041106 
1945	 0.203690995493998 
1946	 0.203958892816917 
1947	 0.204248745088125 
1948	 0.204544139040781 
1949	 0.20485047201401 
1950	 0.205174112027301 
1951	 0.205506718701421 
1952	 0.205858613962751 
1953	 0.206221864855535 
1954	 0.206618202828999 
1955	 0.207022666000811 
1956	 0.207418162030491 
1957	 0.207814488472008 
1958	 0.208220736047673 
1959	 0.20861737831091 
1960	 0.209006524618227 
1961	 0.209396691953541 
1962	 0.209791370201386 
1963	 0.210182793706897 
1964	 0.210557365103479 
1965	 0.210940913999874 
1966	 0.211363076997192 
1967	 0.211793489754596 
1968	 0.212233340141874 
1969	 0.212705903404899 
1970	 0.21316025886727 
1971	 0.213614569704661 
1972	 0.21406566986957 
1973	 0.214502071969785 
1974	 0.214970135908675 
1975	 0.215444421078894 
1976	 0.215927886667286 
1977	 0.216444419741592 
1978	 0.216966903917523 
1979	 0.217511528068443 
1980	 0.218046774944958 
1981	 0.218580421706605 
1982	 0.219121435259395 
1983	 0.219660579106283 
1984	 0.220183661608586 
1985	 0.220730042338961 
1986	 0.221304676352656 
1987	 0.221855140512196 
1988	 0.222409602356197 
1989	 0.222945565224961 
1990	 0.22348202450321 
1991	 0.224014446972009 
1992	 0.224546091589426 
1993	 0.225080927369499 
1994	 0.225614894456599 
1995	 0.226132482461751 
1996	 0.226673132309274 
1997	 0.227247971370583 
1998	 0.227791230627826 
1999	 0.228320684181029 
2000	 0.22885910461808 
2001	 0.229395423191385 
2002	 0.229914160585293 
2003	 0.230439679822774 
2004	 0.230972564598063 
2005	 0.231480597577468 
2006	 0.231959295344663 
2007	 0.232451836962249 
2008	 0.232941346604964 
2009	 0.233427601079319 
2010	 0.233919908310078 
2011	 0.23440086098294 
2012	 0.23487568547501 
2013	 0.235342196987914 
2014	 0.235803370530931 
2015	 0.236251322863939 
2016	 0.236678875124632 
2017	 0.237119703201537 
2018	 0.23757276752614 
2019	 0.238016825905684 
2020	 0.238492967148919 
2021	 0.239021437926345 
2022	 0.239501503347475 
2023	 0.239974781704755 
2024	 0.2404489830486 
2025	 0.240903855087408 
2026	 0.241355085066308 
2027	 0.241814928700568 
2028	 0.242262486816362 
2029	 0.242704751714166 
2030	 0.2431319703868 
2031	 0.243555984378672 
2032	 0.243982870618005 
2033	 0.244394675469277 
2034	 0.244786117822367 
2035	 0.245181473201133 
2036	 0.245583558385466 
2037	 0.245964187493954 
2038	 0.246327848807473 
2039	 0.246692298958057 
2040	 0.247044945194095 
2041	 0.247390517739961 
2042	 0.247732261618186 
2043	 0.248079658032494 
2044	 0.248439446111633 
2045	 0.248805064102861 
2046	 0.249167379536226 
2047	 0.249549663412735 
2048	 0.249909630578072 
2049	 0.250263815068045 
2050	 0.250599632541475 
2051	 0.250914328167673 
2052	 0.251237663535983 
2053	 0.251541486773756 
2054	 0.251856815653559 
2055	 0.252182896679065 
2056	 0.25251220170659 
2057	 0.252834613118354 
2058	 0.253153890990717 
2059	 0.253480569827239 
2060	 0.253808229098301 
2061	 0.254135230944706 
2062	 0.254482889760326 
2063	 0.254796377819849 
2064	 0.255089702833436 
2065	 0.25538330541071 
2066	 0.255658142609144 
2067	 0.255932492283498 
2068	 0.256204771069754 
2069	 0.25647616926921 
2070	 0.25674532558221 
2071	 0.257003867667063 
2072	 0.257276609904448 
2073	 0.257552442549025 
2074	 0.257838876831414 
2075	 0.258143367451357 
2076	 0.258428191451696 
2077	 0.258706350838459 
2078	 0.25899230207929 
2079	 0.259264907655944 
2080	 0.259551264757506 
2081	 0.259865815278008 
2082	 0.26016133093675 
2083	 0.260444692640794 
2084	 0.260737993132141 
2085	 0.261020623526048 
2086	 0.26129535886181 
2087	 0.26156714909492 
2088	 0.261833504441243 
2089	 0.262101322902944 
2090	 0.262369626092742 
2091	 0.262624561155326 
2092	 0.262867400118882 
2093	 0.263124355118796 
2094	 0.263368479256447 
2095	 0.263628426986181 
2096	 0.263929653353058 
2097	 0.264195209066204 
2098	 0.264445936976083 
2099	 0.264688205551379 
2100	 0.264935740723106 
2101	 0.265168855770896 
2102	 0.265401071731774 
2103	 0.265637431071338 
2104	 0.265875927998555 
2105	 0.266092231169578 
2106	 0.266338343552938 
2107	 0.26661010558793 
2108	 0.266872824520068 
2109	 0.267144461568323 
2110	 0.267412149248823 
2111	 0.267678973091625 
2112	 0.267946830931133 
2113	 0.268217893759224 
2114	 0.268482469465133 
2115	 0.268750643824252 
2116	 0.269013016651765 
2117	 0.2692933000313 
2118	 0.26958462890998 
2119	 0.26987103131106 
2120	 0.270175587404123 
2121	 0.270456386201526 
2122	 0.270721817687991 
2123	 0.270988903315536 
2124	 0.271256981937731 
2125	 0.271508468992465 
2126	 0.27177150501514 
2127	 0.271993879853849 
2128	 0.272171726086627 
2129	 0.272356568588626 
2130	 0.27252157673213 
2131	 0.27267166468138 
2132	 0.27284499821585 
2133	 0.273045184212026 
2134	 0.273200137091673 
2135	 0.273352445258999 
2136	 0.27347677021912 
2137	 0.273561073437836 
2138	 0.273651989004233 
2139	 0.273732651300271 
2140	 0.273808187409193 
2141	 0.273883454176975 
2142	 0.273937578851607 
2143	 0.273973407774027 
2144	 0.274008702739126 
2145	 0.274026539734859 
2146	 0.274042383506899 
2147	 0.274050939823783 
2148	 0.274068939563418 
2149	 0.274077717789104 
2150	 0.274079888865882 
2151	 0.274079507254475 
2152	 0.274092362674256 
2153	 0.274064857536287 
2154	 0.274017043561304 
2155	 0.273959776357345 
2156	 0.27387770216124 
2157	 0.273788730516397 
2158	 0.273696519031239 
2159	 0.273583889695179 
2160	 0.273448168738447 
2161	 0.273306372295637 
2162	 0.273124061636215 
2163	 0.272977646361839 
2164	 0.272855797624115 
2165	 0.272715837820596 
2166	 0.272575720554893 
2167	 0.272461100101933 
2168	 0.272309144078713 
2169	 0.272122441317227 
2170	 0.271956345046286 
2171	 0.271771086933507 
2172	 0.271629002215503 
2173	 0.271512573719067 
2174	 0.271386684056591 
2175	 0.271297623687771 
2176	 0.271177181675985 
2177	 0.271036797306009 
2178	 0.270893411665953 
2179	 0.270714807752235 
2180	 0.270577725762061 
2181	 0.270458493266017 
2182	 0.270339211977362 
2183	 0.270238091200069 
2184	 0.270161975005667 
2185	 0.270062892836082 
2186	 0.269944066101641 
2187	 0.269849101363107 
2188	 0.26977046344331 
2189	 0.269673703902172 
2190	 0.269578959932437 
2191	 0.269479633223098 
2192	 0.269359018984682 
2193	 0.269259852796095 
2194	 0.269174623538359 
2195	 0.269082616520482 
2196	 0.26899334942247 
2197	 0.268907874185085 
2198	 0.268823221228986 
2199	 0.268739716583131 
2200	 0.268658566241548 
2201	 0.268581199226485 
2202	 0.26851536824324 
2203	 0.268429833252115 
2204	 0.268352839869764 
2205	 0.268276106885329 
2206	 0.26821526278514 
2207	 0.268155316310553 
2208	 0.268104990383038 
2209	 0.268082197854946 
2210	 0.268036268334178 
2211	 0.267980170721809 
2212	 0.267927770012704 
2213	 0.267856706083076 
2214	 0.267814143351805 
2215	 0.267807381367206 
2216	 0.26776594167195 
2217	 0.267718570295963 
2218	 0.267671870978154 
2219	 0.267574622609322 
2220	 0.267528194189883 
2221	 0.26750398325754 
2222	 0.26751610262458 
2223	 0.267545415744122 
2224	 0.267568675686482 
2225	 0.267556588111186 
2226	 0.267539746123584 
2227	 0.26748147605826 
2228	 0.267356933435423 
2229	 0.267303153995772 
2230	 0.267257497282153 
2231	 0.267209315059067 
2232	 0.267214848843849 
2233	 0.267163679759892 
2234	 0.267048463033594 
2235	 0.266989417462659 
2236	 0.266948954726598 
2237	 0.266894293876405 
2238	 0.266859412003889 
2239	 0.266815244149444 
2240	 0.26673325574261 
2241	 0.266691329894846 
2242	 0.266698595444879 
2243	 0.266673889165752 
2244	 0.266676582070858 
2245	 0.266624076881212 
2246	 0.266553775094909 
2247	 0.266451213469366 
2248	 0.26635744248383 
2249	 0.266244347753565 
2250	 0.266158834491395 
2251	 0.266071103823703 
2252	 0.266005527874906 
2253	 0.265968161211755 
2254	 0.265904141404131 
2255	 0.265838329029081 
2256	 0.26578335434543 
2257	 0.265716664837906 
2258	 0.26566896316528 
2259	 0.265651145424177 
2260	 0.265609458370235 
2261	 0.26557560497092 
2262	 0.265507449052799 
2263	 0.265411481245966 
2264	 0.26531939160369 
2265	 0.265195262796979 
2266	 0.265095758259139 
2267	 0.265018473229624 
2268	 0.264924831198317 
2269	 0.26481869595457 
2270	 0.264722587293597 
2271	 0.264648815694919 
2272	 0.264595780089096 
2273	 0.264569248067645 
2274	 0.264513120875951 
2275	 0.264409109555714 
2276	 0.264249518709826 
2277	 0.264119323589829 
2278	 0.263949926439747 
2279	 0.263828767706862 
2280	 0.263740360391383 
2281	 0.263640975104757 
2282	 0.263554384617689 
2283	 0.26346435707775 
2284	 0.263377907004777 
2285	 0.263282245867659 
2286	 0.26319257863608 
2287	 0.263084567709274 
2288	 0.262953803973535 
2289	 0.262836513326658 
2290	 0.262725137719726 
2291	 0.262596550370454 
2292	 0.262471426250355 
2293	 0.262330326112404 
2294	 0.262152713999759 
2295	 0.261988359633617 
2296	 0.261812600390683 
2297	 0.26166552794034 
2298	 0.26151396487155 
2299	 0.261388457933091 
2300	 0.261308157317519 
2301	 0.261203500261326 
2302	 0.261025712918379 
2303	 0.260861962442585 
2304	 0.26064713546531 
2305	 0.260403136304179 
2306	 0.260213648958475 
2307	 0.260064141274751 
2308	 0.259885083627818 
2309	 0.25972918531149 
2310	 0.2595333979479 
2311	 0.25929773838737 
2312	 0.25910480710332 
2313	 0.258904105674135 
2314	 0.258731023413903 
2315	 0.258607214939755 
2316	 0.258431459385804 
2317	 0.258260325872749 
2318	 0.258041278225775 
2319	 0.257772395832277 
2320	 0.257531519369259 
2321	 0.257257106155555 
2322	 0.257009665274514 
2323	 0.25680067876525 
2324	 0.256556788091581 
2325	 0.25629055851314 
2326	 0.256049034987323 
2327	 0.255809686135547 
2328	 0.255547085329087 
2329	 0.255342440407003 
2330	 0.255206704299725 
2331	 0.255022803567655 
2332	 0.254820713313395 
2333	 0.254621866532215 
2334	 0.254361399540614 
2335	 0.25412847390115 
2336	 0.253910488346801 
2337	 0.253682486563286 
2338	 0.253452389774716 
2339	 0.253197552205983 
2340	 0.25297754518333 
2341	 0.252715380282341 
2342	 0.252419600784353 
2343	 0.252125798374104 
2344	 0.251771770493987 
2345	 0.251441076366103 
2346	 0.251108927401884 
2347	 0.250765538563917 
2348	 0.250425727271776 
2349	 0.250056854272352 
2350	 0.249649709847914 
2351	 0.249259084276151 
2352	 0.248864136564951 
2353	 0.248477113528605 
2354	 0.248084557979277 
2355	 0.247726130888093 
2356	 0.247386399982038 
2357	 0.247024731972882 
2358	 0.246711712334909 
2359	 0.246328791311685 
2360	 0.245872047694538 
2361	 0.24547487862971 
2362	 0.245063849073017 
2363	 0.244678567428453 
2364	 0.24433614067829 
2365	 0.243956108796359 
2366	 0.24359899477404 
2367	 0.243190854575276 
2368	 0.242727835501208 
2369	 0.242311913888749 
2370	 0.24191257372685 
2371	 0.241441996486542 
2372	 0.241020640595336 
2373	 0.240587164482143 
2374	 0.240106366126235 
2375	 0.239663732174247 
2376	 0.239221509761408 
2377	 0.238786114797013 
2378	 0.238371988852521 
2379	 0.237927942689604 
2380	 0.23747931112756 
2381	 0.237045925204609 
2382	 0.236648146923476 
2383	 0.236254951850287 
2384	 0.235835778335625 
2385	 0.235417870471655 
2386	 0.234952374903319 
2387	 0.234485582142869 
2388	 0.234034194152168 
2389	 0.233599430498604 
2390	 0.233192481192778 
2391	 0.232717086204838 
2392	 0.232301352358466 
2393	 0.231873350518129 
2394	 0.231353832967717 
2395	 0.230911860312357 
2396	 0.23039683964798 
2397	 0.229873519742248 
2398	 0.229448535693453 
2399	 0.228970485241523 
2400	 0.228595434335434 
2401	 0.228232533276677 
2402	 0.227738968048708 
2403	 0.227314309647679 
2404	 0.226840775785572 
2405	 0.226329579361862 
2406	 0.225963805685027 
2407	 0.225639087923451 
2408	 0.225215079952811 
2409	 0.224723671450939 
2410	 0.224269323891082 
2411	 0.223752610307973 
2412	 0.223269293428646 
2413	 0.222920460530281 
2414	 0.22244135654457 
2415	 0.22193585373655 
2416	 0.221500818386542 
2417	 0.221040466242872 
2418	 0.220680250406226 
2419	 0.220501361732338 
2420	 0.220102460918459 
2421	 0.219609829203149 
2422	 0.219230240377508 
2423	 0.218818723633677 
2424	 0.218412220076035 
2425	 0.218140749332582 
2426	 0.21771766145237 
2427	 0.217129225955837 
2428	 0.2165918935371 
2429	 0.216076961649272 
2430	 0.215507113462883 
2431	 0.214824352062927 
2432	 0.214282158894532 
2433	 0.213790606722029 
2434	 0.213316615179617 
2435	 0.212926373144078 
2436	 0.212558950505247 
2437	 0.212197349406498 
2438	 0.211821386226345 
2439	 0.211550591485317 
2440	 0.211181475385764 
2441	 0.210714368011395 
2442	 0.210322602685925 
2443	 0.209953614039992 
2444	 0.209491974286044 
2445	 0.209010348130851 
2446	 0.208523321507037 
2447	 0.207918935641403 
2448	 0.207443710993917 
2449	 0.207016536903926 
2450	 0.2066883969933 
2451	 0.206544276554846 
2452	 0.206172584729596 
2453	 0.205765585619014 
2454	 0.205321308348238 
2455	 0.204699289886871 
2456	 0.204215445975912 
2457	 0.203807776179861 
2458	 0.203385648377917 
2459	 0.202960013649121 
2460	 0.20256495596273 
2461	 0.202266034558559 
2462	 0.201925422496013 
2463	 0.201515613392454 
2464	 0.201108084627322 
2465	 0.200639008221364 
2466	 0.200212551932289 
2467	 0.199982902163685 
2468	 0.199542269147587 
2469	 0.198944029143376 
2470	 0.198540900818973 
2471	 0.197795922129081 
2472	 0.197055978153231 
2473	 0.19680443492871 
2474	 0.196404129729571 
2475	 0.19610151063944 
2476	 0.196107118151717 
2477	 0.195808866602693 
2478	 0.195425872560479 
2479	 0.195104001855192 
2480	 0.194643791750384 
2481	 0.194191242246861 
2482	 0.193809854151226 
2483	 0.193334581604602 
2484	 0.192799203294145 
2485	 0.192420521312402 
2486	 0.192104002263865 
2487	 0.191841279440528 
2488	 0.191741290883271 
2489	 0.191557173292297 
2490	 0.191223456264324 
2491	 0.190848212034455 
2492	 0.190410227259067 
2493	 0.190033521286255 
2494	 0.189756827430546 
2495	 0.189512392126871 
2496	 0.189313850519475 
2497	 0.189061672801902 
2498	 0.188571880780529 
2499	 0.187991205117201 
2500	 0.18751059585292 
