Wavelength	lmw-9-100006.asd
350	 0.106154763454002 
351	 0.103217631449285 
352	 9.53832936727204E-02 
353	 9.10257597179352E-02 
354	 0.1106328761913 
355	 0.109928874914085 
356	 9.74436351367454E-02 
357	 9.20822509264399E-02 
358	 9.47875521670892E-02 
359	 9.26181566839135E-02 
360	 8.75657412020877E-02 
361	 8.98253875711186E-02 
362	 8.40309877799644E-02 
363	 8.23707150007194E-02 
364	 8.87329239871548E-02 
365	 8.96288877634611E-02 
366	 8.75856715046844E-02 
367	 8.55453873338758E-02 
368	 8.55719157173324E-02 
369	 8.52444711295212E-02 
370	 0.082981639511464 
371	 8.10125632495424E-02 
372	 8.33931241555655E-02 
373	 8.41737780260037E-02 
374	 0.084067138466845 
375	 8.40754110625178E-02 
376	 8.42561825791413E-02 
377	 8.15481251330358E-02 
378	 7.94240818655885E-02 
379	 8.14136092183399E-02 
380	 0.082644506079221 
381	 8.18984626452384E-02 
382	 8.12466513256259E-02 
383	 8.43614547343568E-02 
384	 0.084250583338807 
385	 8.06146636473339E-02 
386	 7.67398637118124E-02 
387	 8.10336484384588E-02 
388	 8.21759421107092E-02 
389	 8.09964166841967E-02 
390	 8.13271139221494E-02 
391	 8.12318792867554E-02 
392	 8.03412833832404E-02 
393	 8.01585623821145E-02 
394	 8.32487375995575E-02 
395	 8.44114483965409E-02 
396	 8.33063208407436E-02 
397	 8.14931561341515E-02 
398	 8.28290947517914E-02 
399	 0.082767688941657 
400	 8.30863648880344E-02 
401	 8.63070822471542E-02 
402	 8.56685482336463E-02 
403	 8.41360312949687E-02 
404	 8.37864137823755E-02 
405	 8.50250971093307E-02 
406	 0.085587505724951 
407	 8.61222573315425E-02 
408	 8.69043351922658E-02 
409	 8.53955442025028E-02 
410	 8.52619557114141E-02 
411	 0.086128366800945 
412	 8.60003617212735E-02 
413	 8.63470456587825E-02 
414	 8.63525835383179E-02 
415	 8.57783396514433E-02 
416	 8.53182185006659E-02 
417	 8.56543814499059E-02 
418	 8.58217079929366E-02 
419	 8.50167846218786E-02 
420	 8.43555330515395E-02 
421	 8.37813734523601E-02 
422	 0.083543794764641 
423	 8.39280491522363E-02 
424	 8.33114170965869E-02 
425	 8.24155477178337E-02 
426	 8.19054647060646E-02 
427	 8.18636341184683E-02 
428	 8.10971209390665E-02 
429	 8.05146966689953E-02 
430	 8.11427610218172E-02 
431	 8.10233087022566E-02 
432	 8.05496196935795E-02 
433	 8.04188797505074E-02 
434	 8.14042650881026E-02 
435	 8.16628762713352E-02 
436	 8.19428462669879E-02 
437	 8.29074950388753E-02 
438	 8.36049167295612E-02 
439	 8.44892366068768E-02 
440	 8.56448971295819E-02 
441	 0.086936394680046 
442	 8.80611647513361E-02 
443	 8.92108238695222E-02 
444	 9.04055711790826E-02 
445	 9.13051025930184E-02 
446	 9.26322888164595E-02 
447	 9.42144504747163E-02 
448	 9.57087017344027E-02 
449	 9.72899138061392E-02 
450	 9.88572177400738E-02 
451	 0.100365749989667 
452	 0.101836358456692 
453	 0.103331474965415 
454	 0.104899113974461 
455	 0.106595452546711 
456	 0.108553728594816 
457	 0.110298203609925 
458	 0.111966913439359 
459	 0.113906094852354 
460	 0.115673703645995 
461	 0.117600399588544 
462	 0.119791345919135 
463	 0.121947326937726 
464	 0.124035053708039 
465	 0.126145586475279 
466	 0.128374389280028 
467	 0.130635986518882 
468	 0.132998967235813 
469	 0.13547509601161 
470	 0.138017006582055 
471	 0.140470403858478 
472	 0.142810692727862 
473	 0.145157577470964 
474	 0.147902865956361 
475	 0.150692184406318 
476	 0.153436938045091 
477	 0.156178506273025 
478	 0.159023720284022 
479	 0.16163863768278 
480	 0.164098585044052 
481	 0.167100988281221 
482	 0.169865080617774 
483	 0.172517798478629 
484	 0.175299405501351 
485	 0.177875220359523 
486	 0.180233106290762 
487	 0.182611922040947 
488	 0.185383168816867 
489	 0.187523890332592 
490	 0.18950278171615 
491	 0.191741206077758 
492	 0.193917040412004 
493	 0.195717135530294 
494	 0.197344847653291 
495	 0.199197326595679 
496	 0.20097624586745 
497	 0.202569277319215 
498	 0.203958219834561 
499	 0.205233434709446 
500	 0.206471247570514 
501	 0.207583931137205 
502	 0.208507888092553 
503	 0.209539941937731 
504	 0.210365176490492 
505	 0.211059484189513 
506	 0.212033815077613 
507	 0.212606412956008 
508	 0.21310057092416 
509	 0.213766212848207 
510	 0.21412583560916 
511	 0.21434667421601 
512	 0.21462235281952 
513	 0.215109820598939 
514	 0.215461564996688 
515	 0.215739963158013 
516	 0.215998420075835 
517	 0.216194786142163 
518	 0.216262427286542 
519	 0.216338246688458 
520	 0.216558179891339 
521	 0.216681646062026 
522	 0.216781535024508 
523	 0.216919586637406 
524	 0.21712407394984 
525	 0.217190467157255 
526	 0.217300775970594 
527	 0.217575534608071 
528	 0.21766978223525 
529	 0.217670990159412 
530	 0.217710362613527 
531	 0.217918760478563 
532	 0.21804203378258 
533	 0.218243512959041 
534	 0.218582430687325 
535	 0.218783438859669 
536	 0.218923618492202 
537	 0.219124065386053 
538	 0.219477450617111 
539	 0.219714172982331 
540	 0.219924577737369 
541	 0.220212335813058 
542	 0.220661158410799 
543	 0.221035305234091 
544	 0.221395659507399 
545	 0.221826215908561 
546	 0.222133477147778 
547	 0.222540550931043 
548	 0.223054670049071 
549	 0.223497114117974 
550	 0.223912987748951 
551	 0.22439255537932 
552	 0.224977960230859 
553	 0.225572045707384 
554	 0.22615503890651 
555	 0.226731808460839 
556	 0.227334456505547 
557	 0.228084911955537 
558	 0.228815358274486 
559	 0.229464762459657 
560	 0.23021805815684 
561	 0.230930093742299 
562	 0.231644976452131 
563	 0.232419203238441 
564	 0.233014896592215 
565	 0.233578975135425 
566	 0.234215860891691 
567	 0.234954102199962 
568	 0.235793377192547 
569	 0.236650726304729 
570	 0.237493173579258 
571	 0.238540646822666 
572	 0.239526914080273 
573	 0.240419422361831 
574	 0.241355653716412 
575	 0.242346980877798 
576	 0.243295171393158 
577	 0.244172227664079 
578	 0.245150046363602 
579	 0.24610425274907 
580	 0.246979477046675 
581	 0.247775154785772 
582	 0.248641119750563 
583	 0.249545488889698 
584	 0.250462426617845 
585	 0.251407368905726 
586	 0.252312197266886 
587	 0.253205714686035 
588	 0.254156965231248 
589	 0.25528330365501 
590	 0.256346570987997 
591	 0.257358401832317 
592	 0.258559280958812 
593	 0.259768648188737 
594	 0.260919892570808 
595	 0.261991684543116 
596	 0.263022245282562 
597	 0.263990354418991 
598	 0.264947704183994 
599	 0.265964490536154 
600	 0.266856831535 
601	 0.267739628615179 
602	 0.268711530075337 
603	 0.269795941212974 
604	 0.270843093849757 
605	 0.27182746678334 
606	 0.272786840528716 
607	 0.273808890252649 
608	 0.274845886258357 
609	 0.275894953138822 
610	 0.277012548881972 
611	 0.27795486355519 
612	 0.278831339810809 
613	 0.279765134303958 
614	 0.280622325542876 
615	 0.281424853014377 
616	 0.282228825264096 
617	 0.28309991034142 
618	 0.283960301200823 
619	 0.284826171034901 
620	 0.285690410014425 
621	 0.286455288156143 
622	 0.287202484562446 
623	 0.28795652602499 
624	 0.288716575692435 
625	 0.289460166010841 
626	 0.290189171480089 
627	 0.290897276191344 
628	 0.291561947985884 
629	 0.292272943110881 
630	 0.292988660630733 
631	 0.293651143014709 
632	 0.29428459972028 
633	 0.294917837208578 
634	 0.295528727889028 
635	 0.29606427125683 
636	 0.296672161329662 
637	 0.297263018702999 
638	 0.297770523563193 
639	 0.29828629134394 
640	 0.298807702270848 
641	 0.299342706749001 
642	 0.299889433118618 
643	 0.300373137123881 
644	 0.300834215264273 
645	 0.301268870105878 
646	 0.301587962628164 
647	 0.301979871339122 
648	 0.302359658981424 
649	 0.302630304901999 
650	 0.303012799818395 
651	 0.303336465326754 
652	 0.303581954807981 
653	 0.303864520446683 
654	 0.304099257766327 
655	 0.304270565466631 
656	 0.30440507816852 
657	 0.30460765401178 
658	 0.304764011423934 
659	 0.304847768241707 
660	 0.30488038234538 
661	 0.304893194013757 
662	 0.30490989792589 
663	 0.304919820695485 
664	 0.304865858163764 
665	 0.304786743732063 
666	 0.304694295372536 
667	 0.3045778188557 
668	 0.304354889949724 
669	 0.304197678437094 
670	 0.304062146052257 
671	 0.303735426236893 
672	 0.303374094992985 
673	 0.303066111221683 
674	 0.302811703498864 
675	 0.302440991085243 
676	 0.302002069633025 
677	 0.301548930720239 
678	 0.301123189924141 
679	 0.30062871124397 
680	 0.30009983160012 
681	 0.299569771286224 
682	 0.299054935872699 
683	 0.298526073896014 
684	 0.297939900684286 
685	 0.297276019871647 
686	 0.296594989274094 
687	 0.29591966872561 
688	 0.295228176788228 
689	 0.294475168048317 
690	 0.29372670875431 
691	 0.293008546989347 
692	 0.292307805325364 
693	 0.2915579705642 
694	 0.290671690805946 
695	 0.28975496203954 
696	 0.288947879984162 
697	 0.288133915149333 
698	 0.28729853194738 
699	 0.286431636129917 
700	 0.285525241924349 
701	 0.284622771411719 
702	 0.283690248822528 
703	 0.282714964927137 
704	 0.281792315759382 
705	 0.28085822872721 
706	 0.279890879241215 
707	 0.278899557464333 
708	 0.277937674948655 
709	 0.276984663068923 
710	 0.276020326751586 
711	 0.275036185173312 
712	 0.274006907084981 
713	 0.272928788515936 
714	 0.271843822233327 
715	 0.270948611279329 
716	 0.269996931511353 
717	 0.268919338024732 
718	 0.26780027467152 
719	 0.266829405175955 
720	 0.265845597409039 
721	 0.264752414535436 
722	 0.263671459720783 
723	 0.26262030481743 
724	 0.261553823200508 
725	 0.260438141175777 
726	 0.259433061885452 
727	 0.258427369605243 
728	 0.257361447261473 
729	 0.256244144828094 
730	 0.255204220705453 
731	 0.254147984684542 
732	 0.253023615947705 
733	 0.251976254581247 
734	 0.250978323925046 
735	 0.249948749987194 
736	 0.248810746057784 
737	 0.247663218905947 
738	 0.246596458889546 
739	 0.245576481971505 
740	 0.244443678314311 
741	 0.243383918443333 
742	 0.242345176937893 
743	 0.24127213219617 
744	 0.240248522160274 
745	 0.239176580347558 
746	 0.238083690727218 
747	 0.237043693167094 
748	 0.236003505626098 
749	 0.234937255041831 
750	 0.233868180928522 
751	 0.232871618066724 
752	 0.231894042445825 
753	 0.230866387686807 
754	 0.229773431311099 
755	 0.228761768468902 
756	 0.227796236632933 
757	 0.226796185296837 
758	 0.225695708276079 
759	 0.224713792771201 
760	 0.223763548995028 
761	 0.222790918057805 
762	 0.221821176968887 
763	 0.22087569383336 
764	 0.21990481901321 
765	 0.218886419052064 
766	 0.217912917339306 
767	 0.217036498369906 
768	 0.216161736555079 
769	 0.215158126269336 
770	 0.214238554517058 
771	 0.213354992400841 
772	 0.212470065441247 
773	 0.21158946745289 
774	 0.210763180769171 
775	 0.209926162024632 
776	 0.209037705765974 
777	 0.208194876479549 
778	 0.207357016590227 
779	 0.206523828649187 
780	 0.205710213593964 
781	 0.204911260902479 
782	 0.20412977061802 
783	 0.203355704081968 
784	 0.202570172599215 
785	 0.201811994863824 
786	 0.201080329067968 
787	 0.200361122444107 
788	 0.199625014944637 
789	 0.198936074899331 
790	 0.198262143126578 
791	 0.197551197897484 
792	 0.19684680267847 
793	 0.196194083442118 
794	 0.195581782556637 
795	 0.194949299417357 
796	 0.194255760175019 
797	 0.193600972067783 
798	 0.193024146977086 
799	 0.192413238286915 
800	 0.191847157576641 
801	 0.191299307872134 
802	 0.190735973184983 
803	 0.190230009737727 
804	 0.189681484733882 
805	 0.189103797878574 
806	 0.188579119152275 
807	 0.188083661567586 
808	 0.187589652932746 
809	 0.187094895056009 
810	 0.186629510972727 
811	 0.186166429288393 
812	 0.185688472612247 
813	 0.185211713385522 
814	 0.184833969406083 
815	 0.184493089798269 
816	 0.184119887886625 
817	 0.183675002666518 
818	 0.183281507755616 
819	 0.1829373744807 
820	 0.182606286131282 
821	 0.182238503971425 
822	 0.181914299311668 
823	 0.181577828868541 
824	 0.181221376484614 
825	 0.180947032273545 
826	 0.180657250543495 
827	 0.180330440374057 
828	 0.179995685705624 
829	 0.179774739957056 
830	 0.179495862673395 
831	 0.179184500398141 
832	 0.17895310165582 
833	 0.178794649929065 
834	 0.178578356007919 
835	 0.178317980395243 
836	 0.178158468650291 
837	 0.177986095404603 
838	 0.177790095105752 
839	 0.177577590449785 
840	 0.177355648451736 
841	 0.177185249244179 
842	 0.177062837210644 
843	 0.176954970965593 
844	 0.176804144633313 
845	 0.176669928213471 
846	 0.176575014961631 
847	 0.176513629291332 
848	 0.176442231392085 
849	 0.176329499601805 
850	 0.17620571638424 
851	 0.176142104355911 
852	 0.176073143401151 
853	 0.176013516291937 
854	 0.175981244173433 
855	 0.175982173137166 
856	 0.175962728079411 
857	 0.175920019576217 
858	 0.17589087420284 
859	 0.175988293080659 
860	 0.175999788478588 
861	 0.175964456040247 
862	 0.175990478352498 
863	 0.176042189535281 
864	 0.176112006676289 
865	 0.176180161405999 
866	 0.176230407254962 
867	 0.176320005448332 
868	 0.176408139569548 
869	 0.176480653874294 
870	 0.176561125315381 
871	 0.1766741348368 
872	 0.176795523657506 
873	 0.176919925348726 
874	 0.177084922353257 
875	 0.1772586328444 
876	 0.17741982755309 
877	 0.177566721299141 
878	 0.177735739787081 
879	 0.17793891920133 
880	 0.178160072341966 
881	 0.178386283902692 
882	 0.178678580519285 
883	 0.178899466720996 
884	 0.179082629043371 
885	 0.17933922950141 
886	 0.179594227932067 
887	 0.179849993862676 
888	 0.180093915073814 
889	 0.180315463615963 
890	 0.180687257790581 
891	 0.181045385820443 
892	 0.181328340214979 
893	 0.181656019655935 
894	 0.182021814960228 
895	 0.18239658923933 
896	 0.182745132444303 
897	 0.183034164710284 
898	 0.183440379792014 
899	 0.183925555148409 
900	 0.184367685836944 
901	 0.184571593582058 
902	 0.184992630324853 
903	 0.185543032131463 
904	 0.186003831105402 
905	 0.186462173801324 
906	 0.186929484922901 
907	 0.187362013180424 
908	 0.187749170552405 
909	 0.188384484844751 
910	 0.188955138001128 
911	 0.189422623389754 
912	 0.18994252971546 
913	 0.190491498317238 
914	 0.191042241702749 
915	 0.191600522532136 
916	 0.192197966587029 
917	 0.192796042190443 
918	 0.193404022261632 
919	 0.1940080464434 
920	 0.194570039100508 
921	 0.195214732133983 
922	 0.19589523226708 
923	 0.196551422386904 
924	 0.197157390909749 
925	 0.197729657279884 
926	 0.198375472245334 
927	 0.19912118434659 
928	 0.199816041339949 
929	 0.200531891258594 
930	 0.201286766170324 
931	 0.202073209362541 
932	 0.202861051192687 
933	 0.203654047922998 
934	 0.204414117380355 
935	 0.205136278206863 
936	 0.205943308155863 
937	 0.206660529610114 
938	 0.207337015784038 
939	 0.20810253701693 
940	 0.209085480159281 
941	 0.209942299111909 
942	 0.210769128790185 
943	 0.211735090420494 
944	 0.212534467157912 
945	 0.213265782046521 
946	 0.214131680710933 
947	 0.215223536330819 
948	 0.215991726820697 
949	 0.216787280600395 
950	 0.217689849361661 
951	 0.218621837072256 
952	 0.219586925328989 
953	 0.220452567747364 
954	 0.221269827222352 
955	 0.222183171685446 
956	 0.223206411374774 
957	 0.22415861900916 
958	 0.225071043815251 
959	 0.226070138440654 
960	 0.226965434834808 
961	 0.227960646446878 
962	 0.229008918792339 
963	 0.229925256619762 
964	 0.230832135259335 
965	 0.231884773713424 
966	 0.233002571205794 
967	 0.233989950236714 
968	 0.234988092968372 
969	 0.236037447978387 
970	 0.237104210329521 
971	 0.238138253832927 
972	 0.239313484510425 
973	 0.240495040519635 
974	 0.241616480965809 
975	 0.242703201796083 
976	 0.243909282179716 
977	 0.245086076434724 
978	 0.246232722668024 
979	 0.247434405358998 
980	 0.248588051974838 
981	 0.249802726678743 
982	 0.251023163550339 
983	 0.252152885097658 
984	 0.253475422515753 
985	 0.254795270014925 
986	 0.256058141889547 
987	 0.257306132399103 
988	 0.258522384569166 
989	 0.259831173819537 
990	 0.261185278449549 
991	 0.262496531353794 
992	 0.263935475205419 
993	 0.265295895041832 
994	 0.266638466142871 
995	 0.2680602093328 
996	 0.269256439398964 
997	 0.270631284562365 
998	 0.272079343945157 
999	 0.27341328288482 
1000	 0.274949209208855 
1001	 0.279238461536792 
1002	 0.280677581302653 
1003	 0.282072188752358 
1004	 0.283488730942324 
1005	 0.284942827117501 
1006	 0.286406793877326 
1007	 0.287887025335118 
1008	 0.289312664467443 
1009	 0.290750026619791 
1010	 0.292311168992032 
1011	 0.29381561779989 
1012	 0.295229836083604 
1013	 0.296747376911205 
1014	 0.298213707054119 
1015	 0.299625503012277 
1016	 0.301179026206355 
1017	 0.302707938729879 
1018	 0.304245994196176 
1019	 0.305724741905552 
1020	 0.307248471632937 
1021	 0.30873860513439 
1022	 0.310201574881106 
1023	 0.311674869381337 
1024	 0.313088942701123 
1025	 0.314524885165273 
1026	 0.315980547163949 
1027	 0.317400889598267 
1028	 0.318908105990494 
1029	 0.320383041266607 
1030	 0.321797443495395 
1031	 0.323230412275035 
1032	 0.324659928155491 
1033	 0.326071824292448 
1034	 0.327537243717657 
1035	 0.328975168481437 
1036	 0.330400018236637 
1037	 0.331870908562944 
1038	 0.333287229287898 
1039	 0.334681506402606 
1040	 0.336122413521363 
1041	 0.337523629159826 
1042	 0.33889201944076 
1043	 0.340314647050596 
1044	 0.341681346212733 
1045	 0.343022106777076 
1046	 0.344326175847406 
1047	 0.345666886657015 
1048	 0.346997675029567 
1049	 0.348396684607282 
1050	 0.349858017396741 
1051	 0.35129589658484 
1052	 0.352692659311413 
1053	 0.354046644807061 
1054	 0.355391044763035 
1055	 0.356746585622705 
1056	 0.358080618533693 
1057	 0.359397688544946 
1058	 0.360726281525093 
1059	 0.362015627993265 
1060	 0.363233484507773 
1061	 0.36450672792829 
1062	 0.365822451969949 
1063	 0.367107845389546 
1064	 0.368461445203025 
1065	 0.369797497569767 
1066	 0.371081271561922 
1067	 0.372383455344606 
1068	 0.373680937121081 
1069	 0.374932632947436 
1070	 0.37620061443886 
1071	 0.377494467586668 
1072	 0.378772645543213 
1073	 0.380034749022659 
1074	 0.381283371639575 
1075	 0.382555423656882 
1076	 0.383706303358793 
1077	 0.384861587561953 
1078	 0.385972018410623 
1079	 0.387067187039681 
1080	 0.388222921961361 
1081	 0.389363358894248 
1082	 0.390533433863482 
1083	 0.391677879364741 
1084	 0.39281560455452 
1085	 0.393940037938941 
1086	 0.395060005395026 
1087	 0.396141736030576 
1088	 0.397202162771476 
1089	 0.398258808979783 
1090	 0.399279412446579 
1091	 0.400253978245457 
1092	 0.401239325361428 
1093	 0.402211456917012 
1094	 0.403172550277043 
1095	 0.404107042339834 
1096	 0.405003919624885 
1097	 0.405908119150253 
1098	 0.406799351464756 
1099	 0.407676138239031 
1100	 0.40853759974381 
1101	 0.409407325008492 
1102	 0.410233025495492 
1103	 0.411025224884506 
1104	 0.411804275032339 
1105	 0.412574834331722 
1106	 0.413315680116662 
1107	 0.414028077862756 
1108	 0.41473570106524 
1109	 0.415412948816128 
1110	 0.416079325585883 
1111	 0.416742458553409 
1112	 0.417416602008116 
1113	 0.41803025093956 
1114	 0.41860665944867 
1115	 0.419193841900047 
1116	 0.419738057701144 
1117	 0.420308198904929 
1118	 0.420909582673989 
1119	 0.42148601869584 
1120	 0.422046998128742 
1121	 0.422565719836849 
1122	 0.42299513323919 
1123	 0.423420725241224 
1124	 0.423828764660365 
1125	 0.424195003413494 
1126	 0.424543777093721 
1127	 0.424917236763677 
1128	 0.425195410292288 
1129	 0.425423313641384 
1130	 0.425610146197509 
1131	 0.425777475816045 
1132	 0.425843194007157 
1133	 0.425844098155324 
1134	 0.425791199105491 
1135	 0.425668922559326 
1136	 0.425487802751985 
1137	 0.425264797364858 
1138	 0.424961043017782 
1139	 0.424549294810164 
1140	 0.424059108743844 
1141	 0.423456266215007 
1142	 0.422755427299489 
1143	 0.421975944027625 
1144	 0.421106138792748 
1145	 0.420149446635618 
1146	 0.419068291004269 
1147	 0.417995355740913 
1148	 0.416842859699503 
1149	 0.415691032712934 
1150	 0.414514918273363 
1151	 0.413328222664242 
1152	 0.412163660807257 
1153	 0.411038176410883 
1154	 0.410015417271279 
1155	 0.409048095926135 
1156	 0.40819710887223 
1157	 0.407426880608689 
1158	 0.406731948774169 
1159	 0.406134132632676 
1160	 0.405597830600848 
1161	 0.405126912359665 
1162	 0.404715974472243 
1163	 0.404388314845231 
1164	 0.404101404240375 
1165	 0.403856509626919 
1166	 0.403675135389904 
1167	 0.403557936792046 
1168	 0.403438322742513 
1169	 0.403363562690545 
1170	 0.403324247604927 
1171	 0.403319882335891 
1172	 0.40334765014749 
1173	 0.40340429930297 
1174	 0.403490766013873 
1175	 0.403614505120468 
1176	 0.40377665855657 
1177	 0.403951381878322 
1178	 0.404166308433641 
1179	 0.404387339253433 
1180	 0.404594930107271 
1181	 0.404857083647442 
1182	 0.40516279385398 
1183	 0.405486708174627 
1184	 0.405813904927064 
1185	 0.40619042155679 
1186	 0.406515879225961 
1187	 0.406828855162893 
1188	 0.407128464389764 
1189	 0.407416948125545 
1190	 0.407689018773495 
1191	 0.407948807645667 
1192	 0.408194638033918 
1193	 0.408409941581301 
1194	 0.408641018899445 
1195	 0.408879644099403 
1196	 0.40909601260602 
1197	 0.409299126665273 
1198	 0.409511238428389 
1199	 0.40971964740755 
1200	 0.409909673904209 
1201	 0.410113606381289 
1202	 0.410322719162416 
1203	 0.410549535851653 
1204	 0.410779498196056 
1205	 0.411015416033942 
1206	 0.411280834749398 
1207	 0.411524961271478 
1208	 0.411771814632721 
1209	 0.41199363768427 
1210	 0.412212639538698 
1211	 0.412407893912843 
1212	 0.412550060236535 
1213	 0.412725266897619 
1214	 0.412913035926223 
1215	 0.413088436345568 
1216	 0.413264435151254 
1217	 0.413462267383424 
1218	 0.413622555186612 
1219	 0.41374753381311 
1220	 0.413904002197154 
1221	 0.414072512260018 
1222	 0.414216320526634 
1223	 0.414373343690798 
1224	 0.414498488552929 
1225	 0.414574693338524 
1226	 0.414680818168586 
1227	 0.414788316795728 
1228	 0.414897375688976 
1229	 0.41502880525294 
1230	 0.415138469776932 
1231	 0.415241849361631 
1232	 0.415332088469875 
1233	 0.415410622264866 
1234	 0.415465804543846 
1235	 0.4155462177725 
1236	 0.41562280124747 
1237	 0.415709689194547 
1238	 0.415825515465411 
1239	 0.415905739965222 
1240	 0.415974909840781 
1241	 0.416036866564996 
1242	 0.416084549567202 
1243	 0.416123994542606 
1244	 0.416138537215968 
1245	 0.416178615117153 
1246	 0.416223625416955 
1247	 0.41626592251287 
1248	 0.41632425973764 
1249	 0.416388271656053 
1250	 0.416410781719892 
1251	 0.41642713252978 
1252	 0.41643183390592 
1253	 0.416424951666422 
1254	 0.416398350606358 
1255	 0.416352162220021 
1256	 0.416308277264537 
1257	 0.416245950838016 
1258	 0.416189670172432 
1259	 0.416131893966275 
1260	 0.416078192781149 
1261	 0.41602294507932 
1262	 0.415964685227708 
1263	 0.415922852518485 
1264	 0.41585934410439 
1265	 0.41577313435207 
1266	 0.415694474943085 
1267	 0.415625686536885 
1268	 0.415528515165141 
1269	 0.415418544549629 
1270	 0.415305939709953 
1271	 0.415175895815675 
1272	 0.415017267582296 
1273	 0.414863490546732 
1274	 0.41471340275217 
1275	 0.414536674828789 
1276	 0.414340222574584 
1277	 0.414138649602836 
1278	 0.413924614356283 
1279	 0.413700730561465 
1280	 0.413479462666022 
1281	 0.413225107937396 
1282	 0.412948258042561 
1283	 0.412658092298305 
1284	 0.412343743854302 
1285	 0.412012499410574 
1286	 0.411675644726792 
1287	 0.411333071982887 
1288	 0.410999942008654 
1289	 0.410681938406164 
1290	 0.410316478746877 
1291	 0.409952548819386 
1292	 0.409536875400467 
1293	 0.409063391544764 
1294	 0.408600264901109 
1295	 0.40811928974189 
1296	 0.407628687838456 
1297	 0.407132598153007 
1298	 0.406612375133904 
1299	 0.406071716615618 
1300	 0.405518446484368 
1301	 0.404962850815039 
1302	 0.404371452959823 
1303	 0.403748547252734 
1304	 0.403125562554497 
1305	 0.402483941269867 
1306	 0.401796361043259 
1307	 0.401071834102599 
1308	 0.400308799667485 
1309	 0.399520073564721 
1310	 0.3986825285831 
1311	 0.397825002410885 
1312	 0.396954048920214 
1313	 0.396050919054062 
1314	 0.3951325055177 
1315	 0.394146018516633 
1316	 0.393122310755819 
1317	 0.392060176191407 
1318	 0.390950922927505 
1319	 0.389797352341181 
1320	 0.388606526277603 
1321	 0.387391152228543 
1322	 0.386146941887053 
1323	 0.384842029722732 
1324	 0.383524558417766 
1325	 0.382163451068734 
1326	 0.380739787292793 
1327	 0.379269876196194 
1328	 0.377764631013606 
1329	 0.37627404577496 
1330	 0.374738434031945 
1331	 0.373191911684573 
1332	 0.371582208353738 
1333	 0.369916197693032 
1334	 0.368255361115202 
1335	 0.36654809570291 
1336	 0.364870444244465 
1337	 0.363197833288316 
1338	 0.361537315824511 
1339	 0.359869713626152 
1340	 0.358222415351544 
1341	 0.356581535001756 
1342	 0.354967786376548 
1343	 0.353357749852981 
1344	 0.351795864170116 
1345	 0.350242392032445 
1346	 0.348751182376059 
1347	 0.347322055295257 
1348	 0.345911946700264 
1349	 0.344545411315631 
1350	 0.343199722789545 
1351	 0.341894453527391 
1352	 0.340617013086238 
1353	 0.339366202895538 
1354	 0.338162857809704 
1355	 0.336954474312336 
1356	 0.335750775986165 
1357	 0.33455921498786 
1358	 0.333392155647063 
1359	 0.332215739372774 
1360	 0.331056316208124 
1361	 0.329878366729036 
1362	 0.328696255953737 
1363	 0.32750471695459 
1364	 0.326316375516627 
1365	 0.325097979956783 
1366	 0.323883402349712 
1367	 0.322620761054627 
1368	 0.321326968739217 
1369	 0.320012725431769 
1370	 0.318625367172158 
1371	 0.317199141220887 
1372	 0.315723425216731 
1373	 0.314159786635519 
1374	 0.312526892161403 
1375	 0.310856156917351 
1376	 0.30903071524515 
1377	 0.307112717029796 
1378	 0.305058290909183 
1379	 0.302863904632165 
1380	 0.300578646439099 
1381	 0.29820538303729 
1382	 0.295672988327877 
1383	 0.293031145409657 
1384	 0.290254375906027 
1385	 0.2873604027212 
1386	 0.28433039274221 
1387	 0.281169364103963 
1388	 0.277906344287971 
1389	 0.274536823847293 
1390	 0.270993948759378 
1391	 0.267367134666448 
1392	 0.263619527094463 
1393	 0.25975948580737 
1394	 0.255857080948176 
1395	 0.251853294259653 
1396	 0.247837456578791 
1397	 0.243807795020412 
1398	 0.239712322081887 
1399	 0.235647208856387 
1400	 0.231536818961208 
1401	 0.227545205786501 
1402	 0.223556802305115 
1403	 0.21970430521493 
1404	 0.215919482117969 
1405	 0.212299891460032 
1406	 0.208751772439242 
1407	 0.20537641225088 
1408	 0.202122750531567 
1409	 0.199078328538506 
1410	 0.196193262207836 
1411	 0.193489889054911 
1412	 0.190971974395972 
1413	 0.188646315540642 
1414	 0.186489873211834 
1415	 0.184442681553009 
1416	 0.182552639347838 
1417	 0.18079072652151 
1418	 0.179108477393716 
1419	 0.177527635440396 
1420	 0.176034448081795 
1421	 0.174654873304746 
1422	 0.17335141248889 
1423	 0.172104766531104 
1424	 0.170917883431601 
1425	 0.169802466055424 
1426	 0.168726221795781 
1427	 0.167701746267573 
1428	 0.166735823152919 
1429	 0.165838189280216 
1430	 0.16497180081777 
1431	 0.164163203497474 
1432	 0.163361672086468 
1433	 0.162598041011344 
1434	 0.161841103960235 
1435	 0.161100093964384 
1436	 0.160384013364189 
1437	 0.159689946772613 
1438	 0.159005069690976 
1439	 0.158338291023622 
1440	 0.157685646342914 
1441	 0.157043706349752 
1442	 0.156409245182509 
1443	 0.155793692860774 
1444	 0.155205177848978 
1445	 0.154625954028897 
1446	 0.154101379296593 
1447	 0.153638824346924 
1448	 0.153217345280722 
1449	 0.152868788401334 
1450	 0.152606309870686 
1451	 0.152415430473387 
1452	 0.152291126020769 
1453	 0.15224664826793 
1454	 0.1523028641582 
1455	 0.152374261564172 
1456	 0.152522269522678 
1457	 0.152675765075076 
1458	 0.152867150487715 
1459	 0.153061644064388 
1460	 0.153302892017168 
1461	 0.153503174684359 
1462	 0.153713644944762 
1463	 0.153887595335631 
1464	 0.154025650522364 
1465	 0.15415959489959 
1466	 0.154279422551893 
1467	 0.154380127723056 
1468	 0.15445485028744 
1469	 0.15453760158126 
1470	 0.154603916473424 
1471	 0.154673209717324 
1472	 0.154759769257658 
1473	 0.15486068220934 
1474	 0.154962261675796 
1475	 0.155075988940777 
1476	 0.155196621001259 
1477	 0.155308076699949 
1478	 0.155422992429396 
1479	 0.155540234742313 
1480	 0.155663629591384 
1481	 0.155812120992198 
1482	 0.155967044134699 
1483	 0.156131182839563 
1484	 0.156315919799783 
1485	 0.156517012435283 
1486	 0.156724114777853 
1487	 0.156961933677698 
1488	 0.157179746214312 
1489	 0.157390100787282 
1490	 0.157609627432543 
1491	 0.157832483404071 
1492	 0.158050649457521 
1493	 0.158280254054333 
1494	 0.158488496508961 
1495	 0.158675131309954 
1496	 0.158873513336094 
1497	 0.159074295863967 
1498	 0.159263850868978 
1499	 0.159463696145377 
1500	 0.159641933915575 
1501	 0.159791954494134 
1502	 0.159949907149109 
1503	 0.160111002114334 
1504	 0.160251937398696 
1505	 0.160384493250106 
1506	 0.160523199976457 
1507	 0.160656786799177 
1508	 0.160785635994728 
1509	 0.160913859337625 
1510	 0.161044608580646 
1511	 0.161171213966462 
1512	 0.161282418442509 
1513	 0.16139375097798 
1514	 0.161504773972117 
1515	 0.161614228624696 
1516	 0.16173730055928 
1517	 0.161850150746041 
1518	 0.161966072395513 
1519	 0.162076324216623 
1520	 0.162183809487739 
1521	 0.162275957276296 
1522	 0.162364268148557 
1523	 0.162445324717101 
1524	 0.162504782040508 
1525	 0.162575960072872 
1526	 0.162651173143862 
1527	 0.162727614723966 
1528	 0.162804449616096 
1529	 0.162878850035522 
1530	 0.162960629861184 
1531	 0.163026026104792 
1532	 0.163082525831501 
1533	 0.163136288055994 
1534	 0.163185130510538 
1535	 0.163222480106411 
1536	 0.163248474168224 
1537	 0.163278240999169 
1538	 0.163292236530712 
1539	 0.163319782976196 
1540	 0.163363888518488 
1541	 0.163394990210409 
1542	 0.163423095476637 
1543	 0.163450055494094 
1544	 0.163473994664894 
1545	 0.163490032629699 
1546	 0.16350124582956 
1547	 0.163514898507058 
1548	 0.16351669503167 
1549	 0.163519783540314 
1550	 0.163524341613531 
1551	 0.163537485752227 
1552	 0.163543174232116 
1553	 0.163557224133124 
1554	 0.163571977615776 
1555	 0.163557077937999 
1556	 0.163539333754674 
1557	 0.163498487792587 
1558	 0.16345982287491 
1559	 0.163447780233324 
1560	 0.163426618649224 
1561	 0.163416719620121 
1562	 0.163396616549043 
1563	 0.163369690889021 
1564	 0.163341566428059 
1565	 0.163312804354798 
1566	 0.163281918569291 
1567	 0.16324877048933 
1568	 0.163212379868267 
1569	 0.163171149390774 
1570	 0.16313496766772 
1571	 0.163100717979564 
1572	 0.163056842411303 
1573	 0.163009389119644 
1574	 0.162967172758045 
1575	 0.162925553215523 
1576	 0.162871628158983 
1577	 0.162817511980104 
1578	 0.162763862135703 
1579	 0.162689988465186 
1580	 0.162632126995307 
1581	 0.162592121716229 
1582	 0.162538607926008 
1583	 0.162491646101894 
1584	 0.162426541625286 
1585	 0.162345582726447 
1586	 0.162268070786055 
1587	 0.162174358200343 
1588	 0.162091317161772 
1589	 0.162024329520776 
1590	 0.161939588534088 
1591	 0.161852617336239 
1592	 0.161754395497311 
1593	 0.161627821891387 
1594	 0.161523083147349 
1595	 0.161431046609216 
1596	 0.161325845676692 
1597	 0.161227474362595 
1598	 0.161121268168942 
1599	 0.161002651107453 
1600	 0.160882098571319 
1601	 0.160756914476398 
1602	 0.160634191550804 
1603	 0.160505799565709 
1604	 0.160376833881477 
1605	 0.160250084255329 
1606	 0.160125154621028 
1607	 0.160003529816706 
1608	 0.159877571723357 
1609	 0.159728594898778 
1610	 0.159586809988173 
1611	 0.159431469479215 
1612	 0.159248519078327 
1613	 0.159087057655367 
1614	 0.158925366909652 
1615	 0.158752796725348 
1616	 0.158586528775792 
1617	 0.158401714419799 
1618	 0.158220924731147 
1619	 0.158060223426997 
1620	 0.157897549411291 
1621	 0.157720283353304 
1622	 0.157548033725912 
1623	 0.15736270192258 
1624	 0.157154893393021 
1625	 0.156956847563631 
1626	 0.156761132902825 
1627	 0.156572933279515 
1628	 0.156382352543902 
1629	 0.156193462915628 
1630	 0.156013563019045 
1631	 0.155830947404343 
1632	 0.155639997304257 
1633	 0.155463214091734 
1634	 0.155307748275431 
1635	 0.155120327462928 
1636	 0.154927016032197 
1637	 0.154719501908302 
1638	 0.154479516290105 
1639	 0.154271367168964 
1640	 0.154075777384923 
1641	 0.153865400005255 
1642	 0.153660918006725 
1643	 0.153450179972237 
1644	 0.153220217348257 
1645	 0.153008416421452 
1646	 0.152805381255392 
1647	 0.152607343810102 
1648	 0.152419500648381 
1649	 0.152220965622139 
1650	 0.152024860885347 
1651	 0.151825569992647 
1652	 0.151622812231761 
1653	 0.151410201934746 
1654	 0.151191691690597 
1655	 0.150979670556883 
1656	 0.150762401874259 
1657	 0.150540021021739 
1658	 0.150321984990071 
1659	 0.150100538286603 
1660	 0.149861933425747 
1661	 0.149640122855676 
1662	 0.149431893442779 
1663	 0.149217476819906 
1664	 0.149003327744121 
1665	 0.148790179328121 
1666	 0.148572812536683 
1667	 0.148367556945028 
1668	 0.148177905733913 
1669	 0.147968183912651 
1670	 0.147759290411462 
1671	 0.147542088484228 
1672	 0.147295643228423 
1673	 0.147082297483218 
1674	 0.146887383819369 
1675	 0.146685928356804 
1676	 0.146495148944667 
1677	 0.146303154443581 
1678	 0.146108009919176 
1679	 0.14591455002206 
1680	 0.14573385430276 
1681	 0.145535854617764 
1682	 0.145316578220431 
1683	 0.145121551996896 
1684	 0.144926603698205 
1685	 0.144743237112831 
1686	 0.144585139675226 
1687	 0.144411609143029 
1688	 0.144239619623491 
1689	 0.144057125849661 
1690	 0.143863786474166 
1691	 0.143677304641831 
1692	 0.143484933507208 
1693	 0.143297903934374 
1694	 0.143125142765557 
1695	 0.142933008591795 
1696	 0.142722188477246 
1697	 0.142532524089143 
1698	 0.142340902568399 
1699	 0.142159329262178 
1700	 0.142004728405922 
1701	 0.1418258842423 
1702	 0.141638461828966 
1703	 0.141448550417465 
1704	 0.141242465478395 
1705	 0.141055313282667 
1706	 0.140872088409229 
1707	 0.140691485743795 
1708	 0.140526054897942 
1709	 0.140347048335588 
1710	 0.140167206205069 
1711	 0.139984123213614 
1712	 0.139789304651246 
1713	 0.139604774767868 
1714	 0.139409949010415 
1715	 0.139239896607481 
1716	 0.139092215727693 
1717	 0.138936007815631 
1718	 0.138795447686255 
1719	 0.138641396590981 
1720	 0.138474517297836 
1721	 0.138315815269008 
1722	 0.138163617465993 
1723	 0.138001457767069 
1724	 0.137831875330178 
1725	 0.137668898429385 
1726	 0.137504540372346 
1727	 0.137339202682337 
1728	 0.137172695721743 
1729	 0.137021842414097 
1730	 0.136874597295573 
1731	 0.136723868668405 
1732	 0.136591967400843 
1733	 0.136438292162554 
1734	 0.136262313155766 
1735	 0.136109392433462 
1736	 0.135961307699282 
1737	 0.135816969583656 
1738	 0.135678792823566 
1739	 0.135546273517424 
1740	 0.1354206179095 
1741	 0.135291703562954 
1742	 0.135169100711825 
1743	 0.135044852540179 
1744	 0.134921123225838 
1745	 0.134782059973988 
1746	 0.134655460664879 
1747	 0.134481782125946 
1748	 0.134265415700031 
1749	 0.134124221685 
1750	 0.133982357465052 
1751	 0.133848041525602 
1752	 0.133744823124912 
1753	 0.133604095049746 
1754	 0.133458041887767 
1755	 0.133322458908659 
1756	 0.133210735601287 
1757	 0.133086373002967 
1758	 0.132931671860791 
1759	 0.132814485708845 
1760	 0.13270448910393 
1761	 0.13259513375386 
1762	 0.132510131796294 
1763	 0.132394823794124 
1764	 0.132256420845079 
1765	 0.132126521648982 
1766	 0.131978347391155 
1767	 0.131843392187037 
1768	 0.131741803174072 
1769	 0.131625213228937 
1770	 0.131527162847706 
1771	 0.131420027390957 
1772	 0.131285196415826 
1773	 0.131200941492723 
1774	 0.131118525714291 
1775	 0.131031189496157 
1776	 0.130958095143167 
1777	 0.130858208552464 
1778	 0.130748550602167 
1779	 0.130643267530718 
1780	 0.130562243378476 
1781	 0.130488897741079 
1782	 0.130402282334359 
1783	 0.130329719195095 
1784	 0.130244674933671 
1785	 0.130144771684662 
1786	 0.130058894313266 
1787	 0.129960742111643 
1788	 0.129887474452184 
1789	 0.129852178848605 
1790	 0.129780573166844 
1791	 0.129692758336866 
1792	 0.129638978175659 
1793	 0.129580047707326 
1794	 0.129533641722598 
1795	 0.129540321001091 
1796	 0.129491339976124 
1797	 0.129384061111563 
1798	 0.129324746119075 
1799	 0.129281279427642 
1800	 0.129225488422997 
1801	 0.129350529101028 
1802	 0.129329976583163 
1803	 0.129323153788306 
1804	 0.129326229999306 
1805	 0.129319120847962 
1806	 0.129326307458405 
1807	 0.129324359419802 
1808	 0.129311462960989 
1809	 0.129297461515681 
1810	 0.129284503860289 
1811	 0.129261697276238 
1812	 0.129229914837124 
1813	 0.129227592314967 
1814	 0.129193412856471 
1815	 0.12911999768859 
1816	 0.129092927414595 
1817	 0.129067623313931 
1818	 0.129036995020044 
1819	 0.129012621813032 
1820	 0.129025766505505 
1821	 0.128992272592059 
1822	 0.128919650507212 
1823	 0.128884297427035 
1824	 0.128867563448104 
1825	 0.128841775449639 
1826	 0.128804533032712 
1827	 0.128760815587842 
1828	 0.128709778301915 
1829	 0.128622455602064 
1830	 0.128559475670722 
1831	 0.128504987284111 
1832	 0.128464801199857 
1833	 0.128411512552263 
1834	 0.128337645698694 
1835	 0.128295882670032 
1836	 0.128260004515141 
1837	 0.128222918940518 
1838	 0.128207771461983 
1839	 0.128159177697275 
1840	 0.128099856212883 
1841	 0.128005979599557 
1842	 0.127911294475636 
1843	 0.127795862772686 
1844	 0.127672881133767 
1845	 0.127564345092047 
1846	 0.127447988959637 
1847	 0.127313123756505 
1848	 0.127173596671063 
1849	 0.127011845341981 
1850	 0.126847925121539 
1851	 0.126669493142584 
1852	 0.126504274140136 
1853	 0.126307293179256 
1854	 0.126091662867026 
1855	 0.125864284763412 
1856	 0.125607898106706 
1857	 0.125351486606601 
1858	 0.125103157931342 
1859	 0.124829086112229 
1860	 0.124518105005054 
1861	 0.124175766442729 
1862	 0.123815725149159 
1863	 0.123430864680651 
1864	 0.12301257289735 
1865	 0.122576694581114 
1866	 0.122113876321708 
1867	 0.121603433476055 
1868	 0.121066895828321 
1869	 0.120511242741335 
1870	 0.119920247170645 
1871	 0.119290113325875 
1872	 0.118630728410887 
1873	 0.117935955115963 
1874	 0.117204767896288 
1875	 0.116426606600498 
1876	 0.115623104384352 
1877	 0.114775886888428 
1878	 0.113859886215338 
1879	 0.112905293673745 
1880	 0.111908500965307 
1881	 0.110846738228454 
1882	 0.109773812428762 
1883	 0.108678047302076 
1884	 0.107522359149673 
1885	 0.106343040009511 
1886	 0.10510127179607 
1887	 0.10380578774057 
1888	 0.102493014928293 
1889	 0.101129275017554 
1890	 9.97554657875401E-02 
1891	 9.83847699384501E-02 
1892	 0.096985207022522 
1893	 9.55935034995057E-02 
1894	 9.42000077735955E-02 
1895	 9.28173687300633E-02 
1896	 9.14183499067163E-02 
1897	 9.00633615182231E-02 
1898	 0.088726711585796 
1899	 8.74033470991993E-02 
1900	 8.61482477877879E-02 
1901	 8.49373222787174E-02 
1902	 8.38032481333132E-02 
1903	 8.27647408260271E-02 
1904	 8.17622605190064E-02 
1905	 8.08124889822561E-02 
1906	 7.99152849085725E-02 
1907	 7.90812555112378E-02 
1908	 7.82906752675001E-02 
1909	 7.75851331587574E-02 
1910	 7.69392042793449E-02 
1911	 0.076341206012047 
1912	 7.57849587123654E-02 
1913	 7.52507321366125E-02 
1914	 7.47452462720152E-02 
1915	 7.42746668393631E-02 
1916	 7.38363267833652E-02 
1917	 7.34292953405765E-02 
1918	 7.30510371771168E-02 
1919	 7.26908072594823E-02 
1920	 7.23588710086777E-02 
1921	 7.20312173587502E-02 
1922	 7.17237611975491E-02 
1923	 7.14544544569524E-02 
1924	 0.071201052305178 
1925	 7.09690529697862E-02 
1926	 7.07588209933004E-02 
1927	 7.05756398972854E-02 
1928	 7.04045348106243E-02 
1929	 7.02358896901891E-02 
1930	 7.00995054248526E-02 
1931	 6.99808282063669E-02 
1932	 0.069854242176915 
1933	 6.97707896405965E-02 
1934	 6.97143853836763E-02 
1935	 6.96671156302719E-02 
1936	 6.96475392363924E-02 
1937	 6.96304615487385E-02 
1938	 0.069613873147779 
1939	 6.96199328118498E-02 
1940	 6.96403203328108E-02 
1941	 6.96679230044715E-02 
1942	 6.97242103592273E-02 
1943	 0.069813114238299 
1944	 0.069901592160787 
1945	 7.00225240824225E-02 
1946	 7.01459910149414E-02 
1947	 7.02757261607911E-02 
1948	 7.04204667964947E-02 
1949	 7.05874228977655E-02 
1950	 7.07490052039541E-02 
1951	 0.070913481832415 
1952	 7.11043205634819E-02 
1953	 7.12742613676122E-02 
1954	 7.14472860836681E-02 
1955	 7.16179346989092E-02 
1956	 7.17890853486541E-02 
1957	 0.071962757640399 
1958	 0.072141448448389 
1959	 7.23105384572748E-02 
1960	 7.24872154951934E-02 
1961	 7.26416114366159E-02 
1962	 7.27731112160361E-02 
1963	 7.29186459882474E-02 
1964	 7.30560353009417E-02 
1965	 7.31981600117874E-02 
1966	 7.33512547120599E-02 
1967	 7.34963974978226E-02 
1968	 7.36529078062405E-02 
1969	 7.38105776228858E-02 
1970	 7.39745539758901E-02 
1971	 7.41568494855301E-02 
1972	 7.43261714009834E-02 
1973	 7.44873773344026E-02 
1974	 7.46518636229451E-02 
1975	 7.48081072171342E-02 
1976	 7.49773764952018E-02 
1977	 7.51555723555476E-02 
1978	 7.53357535149322E-02 
1979	 7.55228632140508E-02 
1980	 7.57284426822205E-02 
1981	 7.59129165403004E-02 
1982	 7.60767767512715E-02 
1983	 7.62709782620041E-02 
1984	 7.64750985822951E-02 
1985	 0.076670611506554 
1986	 7.68908825787579E-02 
1987	 7.70923893556133E-02 
1988	 7.72765898455202E-02 
1989	 7.74564176572657E-02 
1990	 7.76406690136756E-02 
1991	 7.78340987918882E-02 
1992	 7.80288996761245E-02 
1993	 7.82317380855039E-02 
1994	 7.84270791409969E-02 
1995	 7.86182533696428E-02 
1996	 7.88185701933433E-02 
1997	 7.90216409067863E-02 
1998	 7.92201750363695E-02 
1999	 7.94240703785032E-02 
2000	 7.96268408801469E-02 
2001	 7.98311350250768E-02 
2002	 8.00303506772196E-02 
2003	 8.02123309637542E-02 
2004	 8.03935090590306E-02 
2005	 8.05672009158439E-02 
2006	 8.07173230647957E-02 
2007	 0.080884516244559 
2008	 8.10602241271273E-02 
2009	 8.12307016579495E-02 
2010	 8.13914835304392E-02 
2011	 8.15673377579867E-02 
2012	 8.17536028237405E-02 
2013	 8.19363176392301E-02 
2014	 8.21181795436065E-02 
2015	 8.23220720973124E-02 
2016	 8.25073337675996E-02 
2017	 8.26770537330711E-02 
2018	 8.28624769126592E-02 
2019	 8.30472949803525E-02 
2020	 0.083239558852213 
2021	 8.34542547512136E-02 
2022	 8.36411259855664E-02 
2023	 8.38196661520748E-02 
2024	 8.39957405546111E-02 
2025	 8.41484091741045E-02 
2026	 0.08431528878889 
2027	 8.44939444915967E-02 
2028	 8.46614392615359E-02 
2029	 8.48341291647918E-02 
2030	 8.50133053340311E-02 
2031	 8.51814353385852E-02 
2032	 8.53346485628042E-02 
2033	 8.55118753948449E-02 
2034	 8.57049424690023E-02 
2035	 8.58744679595343E-02 
2036	 8.60572754542683E-02 
2037	 8.62216176008169E-02 
2038	 8.63488761134586E-02 
2039	 8.64938917610619E-02 
2040	 8.66520002763341E-02 
2041	 8.67931514159159E-02 
2042	 8.69257945216511E-02 
2043	 8.70783360669936E-02 
2044	 8.72324066331333E-02 
2045	 8.73850953197862E-02 
2046	 8.75492877974173E-02 
2047	 8.77347896122656E-02 
2048	 8.79047885858227E-02 
2049	 8.80798680804751E-02 
2050	 8.82387469970528E-02 
2051	 8.83812152626005E-02 
2052	 8.85292069479928E-02 
2053	 8.86828771231622E-02 
2054	 8.88185002977355E-02 
2055	 8.89450017695108E-02 
2056	 8.90660226002528E-02 
2057	 8.91909774954591E-02 
2058	 8.92940228108752E-02 
2059	 8.94258184733435E-02 
2060	 8.95868633686353E-02 
2061	 8.97209392602557E-02 
2062	 8.98476148676654E-02 
2063	 8.99785405649217E-02 
2064	 9.01009367724491E-02 
2065	 9.02248585804435E-02 
2066	 9.03585100186029E-02 
2067	 9.04833773483145E-02 
2068	 9.05827203659461E-02 
2069	 9.07138837405701E-02 
2070	 0.090839763268655 
2071	 9.09624583594834E-02 
2072	 9.11022256352305E-02 
2073	 9.12630258476543E-02 
2074	 9.14019892835955E-02 
2075	 9.15477025676401E-02 
2076	 9.16789581338223E-02 
2077	 9.17854034906945E-02 
2078	 9.19080789051692E-02 
2079	 9.20415639283835E-02 
2080	 9.21613011833818E-02 
2081	 9.22712519458335E-02 
2082	 9.23913566251426E-02 
2083	 9.25165128134987E-02 
2084	 0.092621476040955 
2085	 9.27456046396892E-02 
2086	 9.28891348640814E-02 
2087	 9.30149500165869E-02 
2088	 9.31425998008402E-02 
2089	 9.32534449749979E-02 
2090	 9.33485720740859E-02 
2091	 9.34489831800606E-02 
2092	 9.35356094597887E-02 
2093	 9.36316458445202E-02 
2094	 9.37411219306484E-02 
2095	 9.38394551801541E-02 
2096	 9.39258019054089E-02 
2097	 9.40235644926492E-02 
2098	 9.41292121380536E-02 
2099	 9.42161154499812E-02 
2100	 9.43292458371381E-02 
2101	 9.44606684655803E-02 
2102	 9.45817362347526E-02 
2103	 9.47106630902646E-02 
2104	 9.48320069669226E-02 
2105	 0.094947005633769 
2106	 9.50656262099156E-02 
2107	 9.51795496557315E-02 
2108	 9.53024044383864E-02 
2109	 9.54295752203205E-02 
2110	 9.55582125328149E-02 
2111	 9.57047592635212E-02 
2112	 9.58341470540073E-02 
2113	 0.095959837185894 
2114	 9.60770489812235E-02 
2115	 9.61830285323842E-02 
2116	 9.62628152907647E-02 
2117	 9.63762380722333E-02 
2118	 9.64965500324838E-02 
2119	 9.66152775341997E-02 
2120	 9.67609394625882E-02 
2121	 9.68760814865035E-02 
2122	 9.69681238478649E-02 
2123	 9.70703856482279E-02 
2124	 9.71728044551452E-02 
2125	 9.72657203511858E-02 
2126	 9.73464497449521E-02 
2127	 9.74415126036435E-02 
2128	 9.75363086962298E-02 
2129	 9.76300060777497E-02 
2130	 9.77441410305822E-02 
2131	 9.78435380586564E-02 
2132	 9.79313899375285E-02 
2133	 9.80108091834129E-02 
2134	 9.80749751934902E-02 
2135	 9.81229523572977E-02 
2136	 9.81728211340181E-02 
2137	 0.098201915289294 
2138	 9.82487376697203E-02 
2139	 9.83056319231608E-02 
2140	 9.83535842538994E-02 
2141	 0.098418781878029 
2142	 0.098454006348079 
2143	 9.84601217239785E-02 
2144	 9.84786136739622E-02 
2145	 9.84971524190178E-02 
2146	 9.84978600648689E-02 
2147	 9.84866960979572E-02 
2148	 0.098487603345749 
2149	 9.84762405437109E-02 
2150	 9.84423368966198E-02 
2151	 9.84223178240063E-02 
2152	 9.84081515222173E-02 
2153	 9.83965294852455E-02 
2154	 9.83761963386004E-02 
2155	 9.83728329049179E-02 
2156	 9.83995140308361E-02 
2157	 0.098395916847634 
2158	 9.83934196681351E-02 
2159	 9.83723029026975E-02 
2160	 9.83240597097801E-02 
2161	 0.098278882641116 
2162	 9.82202781501609E-02 
2163	 9.81690900331103E-02 
2164	 9.81185974438317E-02 
2165	 9.80609695094996E-02 
2166	 9.80232632689899E-02 
2167	 9.79967457395071E-02 
2168	 9.79676821724975E-02 
2169	 0.097956639852992 
2170	 9.79214692949142E-02 
2171	 9.78696687689363E-02 
2172	 0.097833033627336 
2173	 9.77918073216797E-02 
2174	 0.09775582092893 
2175	 9.77450984016675E-02 
2176	 9.77020258449569E-02 
2177	 9.76218341049198E-02 
2178	 9.75768936020932E-02 
2179	 9.75466145357353E-02 
2180	 0.097500786695322 
2181	 9.74739150780322E-02 
2182	 9.74336440190596E-02 
2183	 9.73745667703386E-02 
2184	 9.72985231471205E-02 
2185	 9.72364915203536E-02 
2186	 9.71827698239074E-02 
2187	 9.71211514500788E-02 
2188	 9.70433438586169E-02 
2189	 9.69983281916646E-02 
2190	 9.69772908542468E-02 
2191	 0.09693290427566 
2192	 9.68981678471076E-02 
2193	 9.68534313839309E-02 
2194	 9.67756254510673E-02 
2195	 9.67282309046113E-02 
2196	 9.67142540444472E-02 
2197	 9.66743271862615E-02 
2198	 9.66236232000083E-02 
2199	 9.65797343454781E-02 
2200	 9.65193283387665E-02 
2201	 9.64724680958812E-02 
2202	 9.64341580449747E-02 
2203	 9.64217769925062E-02 
2204	 9.63783612969713E-02 
2205	 9.63257554832381E-02 
2206	 9.62791770051879E-02 
2207	 0.096218928836911 
2208	 9.61738541312539E-02 
2209	 9.61385833811017E-02 
2210	 9.61039850077526E-02 
2211	 0.096069010448627 
2212	 9.60413344822275E-02 
2213	 9.60347644781465E-02 
2214	 9.60063589215908E-02 
2215	 9.59680546596876E-02 
2216	 9.59350876415202E-02 
2217	 9.58717083329561E-02 
2218	 9.58443792588779E-02 
2219	 9.58549080897771E-02 
2220	 0.095844632624507 
2221	 9.58376507958957E-02 
2222	 0.095845922650062 
2223	 9.58090387476686E-02 
2224	 0.095780205582739 
2225	 9.57513283264505E-02 
2226	 9.57198494610511E-02 
2227	 9.56916499991826E-02 
2228	 9.56619719227342E-02 
2229	 9.56387835010677E-02 
2230	 0.095619756506309 
2231	 9.55958941494912E-02 
2232	 9.55742288705068E-02 
2233	 9.55580912012978E-02 
2234	 9.55478896611484E-02 
2235	 9.55226584272968E-02 
2236	 9.54903261125241E-02 
2237	 9.54673713164633E-02 
2238	 9.54409533873582E-02 
2239	 9.54117487268953E-02 
2240	 9.54036582107082E-02 
2241	 9.53697155127334E-02 
2242	 0.095292754476219 
2243	 9.52473300668962E-02 
2244	 9.52100373947236E-02 
2245	 9.51707649574376E-02 
2246	 9.51779958909682E-02 
2247	 9.51607704046599E-02 
2248	 9.51334565605388E-02 
2249	 9.50986412490696E-02 
2250	 9.50711695213706E-02 
2251	 9.50450405439236E-02 
2252	 9.49940286532817E-02 
2253	 9.49319595627328E-02 
2254	 9.48750667359061E-02 
2255	 9.47756971539039E-02 
2256	 9.47287900775868E-02 
2257	 9.47230413329633E-02 
2258	 9.47067858671777E-02 
2259	 0.094736904804117 
2260	 9.47020058268729E-02 
2261	 9.46198627719912E-02 
2262	 9.45619312274239E-02 
2263	 9.44754332816595E-02 
2264	 9.43988508741807E-02 
2265	 9.43508657235588E-02 
2266	 9.42895279725306E-02 
2267	 9.42179337755916E-02 
2268	 9.41381856219263E-02 
2269	 0.094047833973959 
2270	 9.39734341243129E-02 
2271	 9.38763227112285E-02 
2272	 0.093772595871895 
2273	 9.36864605966385E-02 
2274	 9.35649005669692E-02 
2275	 9.34379447793478E-02 
2276	 9.32818962513394E-02 
2277	 9.31705756436428E-02 
2278	 0.093073032870616 
2279	 0.092958004321196 
2280	 9.28588879192286E-02 
2281	 9.27490824337181E-02 
2282	 9.26134325257968E-02 
2283	 9.24922726135112E-02 
2284	 0.092387169737438 
2285	 0.092281333604041 
2286	 9.21772281073203E-02 
2287	 9.20569785558872E-02 
2288	 0.091936535596107 
2289	 9.18142200965048E-02 
2290	 9.16705681455018E-02 
2291	 9.15412344917175E-02 
2292	 9.14184284787879E-02 
2293	 9.13031616086464E-02 
2294	 9.11961570174498E-02 
2295	 9.10783743392983E-02 
2296	 9.09532200098838E-02 
2297	 9.08605440511529E-02 
2298	 9.07422631539922E-02 
2299	 9.06006819634076E-02 
2300	 9.04877734446984E-02 
2301	 9.03441064644632E-02 
2302	 9.01607378368001E-02 
2303	 9.00508026520533E-02 
2304	 0.089935229807544 
2305	 8.97929108481545E-02 
2306	 0.08967480060807 
2307	 8.95778850449426E-02 
2308	 8.94679936085186E-02 
2309	 8.93837615291119E-02 
2310	 8.92372948923284E-02 
2311	 8.90630507923356E-02 
2312	 8.88890634387447E-02 
2313	 8.86512559371984E-02 
2314	 8.84658089769586E-02 
2315	 8.83054718795386E-02 
2316	 8.81515683890495E-02 
2317	 8.80311606465378E-02 
2318	 8.78696981350909E-02 
2319	 8.77088901161267E-02 
2320	 8.75347107096067E-02 
2321	 8.73095547514688E-02 
2322	 8.71187327214156E-02 
2323	 8.69532766691915E-02 
2324	 8.67664137152954E-02 
2325	 8.65437044789148E-02 
2326	 8.63872575616419E-02 
2327	 8.62573953381564E-02 
2328	 0.086140867749272 
2329	 8.60374613424672E-02 
2330	 8.59319442687206E-02 
2331	 8.58032420044338E-02 
2332	 8.56187698307053E-02 
2333	 8.54251661595515E-02 
2334	 8.52553052355634E-02 
2335	 8.50846713785506E-02 
2336	 8.49069263674926E-02 
2337	 8.47725980044253E-02 
2338	 8.46044600232761E-02 
2339	 8.43648819153826E-02 
2340	 8.41867222482118E-02 
2341	 8.40140735375204E-02 
2342	 0.083853856915804 
2343	 8.37055670999797E-02 
2344	 8.35156156125546E-02 
2345	 8.33450827022802E-02 
2346	 8.31648967717847E-02 
2347	 8.29644479302173E-02 
2348	 8.27799288734704E-02 
2349	 8.25691671141996E-02 
2350	 8.22961823428104E-02 
2351	 8.20846317539673E-02 
2352	 8.19013299034242E-02 
2353	 0.081701991576008 
2354	 8.15403660329586E-02 
2355	 8.13327227475149E-02 
2356	 8.10903492927599E-02 
2357	 0.08085534775167 
2358	 8.05779090375285E-02 
2359	 8.03463611969889E-02 
2360	 8.01588956885401E-02 
2361	 7.99348812554157E-02 
2362	 7.96818570908289E-02 
2363	 7.94927306504853E-02 
2364	 7.93436239818463E-02 
2365	 0.079154154497915 
2366	 7.90189628807812E-02 
2367	 7.88274862261013E-02 
2368	 7.85189172678141E-02 
2369	 7.82772743844652E-02 
2370	 7.80608276207462E-02 
2371	 7.78684802826009E-02 
2372	 7.76486057979085E-02 
2373	 7.74263398287192E-02 
2374	 7.71816968702104E-02 
2375	 7.69331336263681E-02 
2376	 7.67240503607076E-02 
2377	 7.65551626224586E-02 
2378	 7.63957023696242E-02 
2379	 7.61567796675036E-02 
2380	 7.58814326921698E-02 
2381	 7.56659646312403E-02 
2382	 7.54025358115778E-02 
2383	 7.51396462246589E-02 
2384	 7.49776852317443E-02 
2385	 7.47867009717783E-02 
2386	 0.074584248398675 
2387	 7.44276456014553E-02 
2388	 7.42023362123724E-02 
2389	 7.38907842161671E-02 
2390	 0.073625741210165 
2391	 7.33837331047397E-02 
2392	 7.30965281520246E-02 
2393	 7.29027981187765E-02 
2394	 7.27337302463289E-02 
2395	 7.25609828063937E-02 
2396	 7.24657578251391E-02 
2397	 7.23009107631475E-02 
2398	 7.20770269716595E-02 
2399	 7.19356330943176E-02 
2400	 7.17889356841613E-02 
2401	 7.16194964059035E-02 
2402	 7.15330739905368E-02 
2403	 7.13690095754019E-02 
2404	 7.11362750912019E-02 
2405	 7.10354956897797E-02 
2406	 7.09321052331092E-02 
2407	 7.07314129711336E-02 
2408	 7.05778952486205E-02 
2409	 7.03171266568736E-02 
2410	 7.00116372970194E-02 
2411	 0.06988621901324 
2412	 6.96866137859369E-02 
2413	 6.94901832198729E-02 
2414	 6.94619719150974E-02 
2415	 6.93618730146836E-02 
2416	 0.069224760334089 
2417	 6.91831819738342E-02 
2418	 6.90081709404562E-02 
2419	 6.86066226140857E-02 
2420	 6.83930411011704E-02 
2421	 6.82267907135692E-02 
2422	 6.80351113416376E-02 
2423	 6.79272074834606E-02 
2424	 6.78199762514111E-02 
2425	 6.76885901798001E-02 
2426	 0.067531950486792 
2427	 0.067413294959426 
2428	 6.72537662786404E-02 
2429	 6.70271906499132E-02 
2430	 6.68987131025728E-02 
2431	 6.68405663337288E-02 
2432	 6.66795029276763E-02 
2433	 6.64907023591113E-02 
2434	 6.62567587975061E-02 
2435	 6.59007135990006E-02 
2436	 6.56700903187762E-02 
2437	 6.55088546003946E-02 
2438	 6.53647336007615E-02 
2439	 6.53336587773003E-02 
2440	 6.51798029461732E-02 
2441	 6.49141443193464E-02 
2442	 6.47451011196397E-02 
2443	 6.45257887733358E-02 
2444	 6.44499946399731E-02 
2445	 6.46349955714421E-02 
2446	 6.45183955480301E-02 
2447	 6.42927029505402E-02 
2448	 0.064050988760021 
2449	 6.35132215143773E-02 
2450	 6.32482427670307E-02 
2451	 6.32032400160781E-02 
2452	 6.30925634514975E-02 
2453	 6.31375717576491E-02 
2454	 6.30340571868591E-02 
2455	 6.27574273440004E-02 
2456	 6.26042208700977E-02 
2457	 6.24323279369829E-02 
2458	 6.22421763270723E-02 
2459	 6.21622884010289E-02 
2460	 0.061944046856595 
2461	 6.15891569943492E-02 
2462	 6.14094355124843E-02 
2463	 6.13221939340135E-02 
2464	 0.061161364959583 
2465	 6.09699821694557E-02 
2466	 6.07940196093272E-02 
2467	 6.05299360079742E-02 
2468	 6.03214287208515E-02 
2469	 6.02822049441473E-02 
2470	 6.02493855667473E-02 
2471	 6.01471092817045E-02 
2472	 6.02737829050863E-02 
2473	 6.00741336127305E-02 
2474	 5.97948207762733E-02 
2475	 0.059711970212309 
2476	 5.93419287397798E-02 
2477	 0.05926269957612 
2478	 5.91545347280022E-02 
2479	 5.87077915261077E-02 
2480	 5.85715433875751E-02 
2481	 5.83553488631783E-02 
2482	 5.81378272180392E-02 
2483	 5.81696065500642E-02 
2484	 5.81512176435718E-02 
2485	 5.80081349305566E-02 
2486	 5.79186354810416E-02 
2487	 0.057831208726093 
2488	 5.74983717847661E-02 
2489	 5.73362014973003E-02 
2490	 5.72102060517564E-02 
2491	 5.69156094527171E-02 
2492	 5.68697403359247E-02 
2493	 5.68717721238279E-02 
2494	 5.67664550057965E-02 
2495	 5.68195270420008E-02 
2496	 5.70046018982026E-02 
2497	 5.71323452521174E-02 
2498	 5.71240410442923E-02 
2499	 0.056997448145928 
2500	 5.67668486360866E-02 
