Wavelength	lmw-9-300001.asd
350	 6.10355722617961E-02 
351	 6.02532596192243E-02 
352	 5.60443439203224E-02 
353	 5.11696163449795E-02 
354	 5.45401006021549E-02 
355	 5.56831405645507E-02 
356	 5.30955060240083E-02 
357	 4.95770088472371E-02 
358	 0.054497300999176 
359	 5.32296338224359E-02 
360	 4.71120321012953E-02 
361	 4.69242335854278E-02 
362	 4.21894722470307E-02 
363	 4.15567261662006E-02 
364	 4.59077270620867E-02 
365	 4.04498659703037E-02 
366	 4.02400171092273E-02 
367	 4.12013788076955E-02 
368	 3.77424369997744E-02 
369	 4.00954115175924E-02 
370	 4.09231113965622E-02 
371	 3.93202362800886E-02 
372	 3.90878486034235E-02 
373	 4.08255544412831E-02 
374	 4.21282693282741E-02 
375	 0.042181311285446 
376	 0.043765561830604 
377	 4.17492581364718E-02 
378	 4.09736630616609E-02 
379	 4.56014561256446E-02 
380	 4.40253253638263E-02 
381	 0.04136109354985 
382	 4.09962484718188E-02 
383	 4.39321037794755E-02 
384	 4.51411264863168E-02 
385	 4.36715665750549E-02 
386	 4.15320606557075E-02 
387	 4.53369832856753E-02 
388	 4.56398212039231E-02 
389	 4.52423985059809E-02 
390	 0.048623647577934 
391	 4.86257558539438E-02 
392	 4.72751103485668E-02 
393	 4.71441795411861E-02 
394	 5.05306571269969E-02 
395	 5.47281666142935E-02 
396	 5.65651630395214E-02 
397	 5.59710489574498E-02 
398	 5.97323429538642E-02 
399	 6.10470443880275E-02 
400	 6.15176788676765E-02 
401	 6.46046742945572E-02 
402	 6.56962028664975E-02 
403	 0.067339277191881 
404	 0.069661982003168 
405	 7.01455758368818E-02 
406	 7.34834812563556E-02 
407	 7.64575716907898E-02 
408	 0.07679766532292 
409	 7.85230763887808E-02 
410	 0.080236548903574 
411	 8.16670037371274E-02 
412	 8.30535486074772E-02 
413	 8.46986736146838E-02 
414	 8.51041165840749E-02 
415	 8.46366253895084E-02 
416	 8.61813020378383E-02 
417	 8.65096012466631E-02 
418	 8.65213570777341E-02 
419	 8.74187803391324E-02 
420	 8.80459696377323E-02 
421	 8.74583136455089E-02 
422	 8.67127544479834E-02 
423	 0.087718915154288 
424	 8.65904608846345E-02 
425	 8.59723931537595E-02 
426	 8.70711960575318E-02 
427	 8.70916973303094E-02 
428	 8.68019401344367E-02 
429	 8.69687814293498E-02 
430	 8.81500359253177E-02 
431	 8.96073059156121E-02 
432	 9.14727148943082E-02 
433	 9.38103297592324E-02 
434	 9.65813734619042E-02 
435	 9.99606092980394E-02 
436	 0.104041435513676 
437	 0.108598984390768 
438	 0.112547590728448 
439	 0.116990761453078 
440	 0.121645179857799 
441	 0.125669947052125 
442	 0.129902865141718 
443	 0.134130406709331 
444	 0.138123688435484 
445	 0.141757603065299 
446	 0.145747446244816 
447	 0.149696434606692 
448	 0.153119405600156 
449	 0.15663834196272 
450	 0.160129462665703 
451	 0.163583982267758 
452	 0.167104374206199 
453	 0.170418361078436 
454	 0.173398923859579 
455	 0.176215660256019 
456	 0.179737683984823 
457	 0.182786198899651 
458	 0.185469669922012 
459	 0.188393942042923 
460	 0.191090081800254 
461	 0.193788475203636 
462	 0.19661001340744 
463	 0.199436576830254 
464	 0.202242204053824 
465	 0.20507114842831 
466	 0.207919046904482 
467	 0.210488630246932 
468	 0.213058599588498 
469	 0.215624702516587 
470	 0.217973178917967 
471	 0.220532624232283 
472	 0.223152460108968 
473	 0.22564830081096 
474	 0.227997895604068 
475	 0.230104951395974 
476	 0.232143379247741 
477	 0.234362448613253 
478	 0.236584587819808 
479	 0.238718181789915 
480	 0.240694615946046 
481	 0.242465721303851 
482	 0.244383924023583 
483	 0.246248511851089 
484	 0.247803126727678 
485	 0.249249270366519 
486	 0.250639328378748 
487	 0.251992437041544 
488	 0.253295898854144 
489	 0.254402726149374 
490	 0.255487985194275 
491	 0.256637762974215 
492	 0.257581280451168 
493	 0.258451923147469 
494	 0.259207522845986 
495	 0.259773734598153 
496	 0.260448790824314 
497	 0.261037965427888 
498	 0.261478605946135 
499	 0.261981009555751 
500	 0.262298113533076 
501	 0.262543890257033 
502	 0.262832521065767 
503	 0.262783835071548 
504	 0.262697321906957 
505	 0.262725679617624 
506	 0.262855233561625 
507	 0.26292518081518 
508	 0.262932214575055 
509	 0.262878830116993 
510	 0.262684812220559 
511	 0.262373307505619 
512	 0.262088851279583 
513	 0.261994033846314 
514	 0.26179434626872 
515	 0.261544407263286 
516	 0.261302864528002 
517	 0.261056893948063 
518	 0.260914039199988 
519	 0.260688083590938 
520	 0.260210444930382 
521	 0.259909444938475 
522	 0.259700489130936 
523	 0.259494430976814 
524	 0.259231754768165 
525	 0.258939565951436 
526	 0.258623095743319 
527	 0.258319403009719 
528	 0.258190244522113 
529	 0.258000299271474 
530	 0.257761093902998 
531	 0.257631224069122 
532	 0.257424060566182 
533	 0.257232839524319 
534	 0.257133217371773 
535	 0.257102855590298 
536	 0.256972389565734 
537	 0.256819575714457 
538	 0.256794818266548 
539	 0.256794022531346 
540	 0.256713726354379 
541	 0.256593352349088 
542	 0.256657424007031 
543	 0.256732222790623 
544	 0.256843760409546 
545	 0.257023523382749 
546	 0.257115674596691 
547	 0.257163665843095 
548	 0.257242549442726 
549	 0.257439821873413 
550	 0.257651661471078 
551	 0.257867872951941 
552	 0.25809656903854 
553	 0.258336723726988 
554	 0.258661797810019 
555	 0.259017461422398 
556	 0.259308102621175 
557	 0.259738309973319 
558	 0.260198198934037 
559	 0.26063679621769 
560	 0.261174966981605 
561	 0.261670493707705 
562	 0.262157596444421 
563	 0.262703955910799 
564	 0.263202107163172 
565	 0.263695215152632 
566	 0.264200178588868 
567	 0.264695535744592 
568	 0.265234015372011 
569	 0.265810892892412 
570	 0.266429152568506 
571	 0.267169468598538 
572	 0.267989635042575 
573	 0.268824696547935 
574	 0.269600566707541 
575	 0.270316205569934 
576	 0.271190282959794 
577	 0.272298386053965 
578	 0.273329336994898 
579	 0.274461405895377 
580	 0.275714131724647 
581	 0.277024858545256 
582	 0.278237964532916 
583	 0.279412478513365 
584	 0.280548509504147 
585	 0.281538497455598 
586	 0.282460697979318 
587	 0.283357624103108 
588	 0.284291174435085 
589	 0.285446708198102 
590	 0.286659840141688 
591	 0.287831221206402 
592	 0.28894400352191 
593	 0.290080793448652 
594	 0.291250845405891 
595	 0.292453335239877 
596	 0.293718534530881 
597	 0.294955790024797 
598	 0.296219494456946 
599	 0.297611118178423 
600	 0.298849546286349 
601	 0.299966620995428 
602	 0.301111879205554 
603	 0.302606580265135 
604	 0.303951650926721 
605	 0.305125069770618 
606	 0.306305573748545 
607	 0.307736783896814 
608	 0.309135047090051 
609	 0.310355856406791 
610	 0.311456128894252 
611	 0.312564506675248 
612	 0.313674409575711 
613	 0.314745780426999 
614	 0.315767759802668 
615	 0.3168135029212 
616	 0.317870281711496 
617	 0.318864854560261 
618	 0.319859138185588 
619	 0.320804479053343 
620	 0.321700201823832 
621	 0.32269224520385 
622	 0.323570328379259 
623	 0.324377717562295 
624	 0.325233974706361 
625	 0.325990093674053 
626	 0.326817481404302 
627	 0.327714537685751 
628	 0.328421522752627 
629	 0.329096542183666 
630	 0.329808639690148 
631	 0.330563504634265 
632	 0.331210979240012 
633	 0.331816234294359 
634	 0.332402815429239 
635	 0.332957353365376 
636	 0.333476448325254 
637	 0.334002548159158 
638	 0.334544278408726 
639	 0.335001799386394 
640	 0.335534192539848 
641	 0.336041389485319 
642	 0.336354209839928 
643	 0.336782716166157 
644	 0.337170685638515 
645	 0.337450380650968 
646	 0.337745060923423 
647	 0.338015417924368 
648	 0.338261896229748 
649	 0.338488594980012 
650	 0.338676875767464 
651	 0.338831962679559 
652	 0.338960749087199 
653	 0.339073068467297 
654	 0.339215833665746 
655	 0.339325380421052 
656	 0.33936154016357 
657	 0.339388393408925 
658	 0.339425081561014 
659	 0.339446508303509 
660	 0.339411533331117 
661	 0.339363844282625 
662	 0.339243286269154 
663	 0.339045964394958 
664	 0.338857724125434 
665	 0.33878015869099 
666	 0.338674739886222 
667	 0.338414702700905 
668	 0.338244356121355 
669	 0.338009728554977 
670	 0.337689785534784 
671	 0.337380999423972 
672	 0.337076328226398 
673	 0.336746433692638 
674	 0.336378555162048 
675	 0.336012967741022 
676	 0.33562497235705 
677	 0.335194504801521 
678	 0.334720855900022 
679	 0.334329316639946 
680	 0.333863578811546 
681	 0.333313151158657 
682	 0.332885757378127 
683	 0.332447128892909 
684	 0.331948713784113 
685	 0.33138447779436 
686	 0.330819433562326 
687	 0.330194003625901 
688	 0.329549865752214 
689	 0.328985460912366 
690	 0.328342117746682 
691	 0.327702250025251 
692	 0.327116181677963 
693	 0.32650768827774 
694	 0.325804163981286 
695	 0.325061599116313 
696	 0.324367793449196 
697	 0.323676748584111 
698	 0.322976983656208 
699	 0.32225711078685 
700	 0.321506449896884 
701	 0.320732552846049 
702	 0.319975445719548 
703	 0.319240622334551 
704	 0.318413215860893 
705	 0.317614356511457 
706	 0.316849953407465 
707	 0.316065920036536 
708	 0.315254907554211 
709	 0.314428398929561 
710	 0.313603630118074 
711	 0.31280094611955 
712	 0.311955370502056 
713	 0.311067521885541 
714	 0.310187481168728 
715	 0.309498261835073 
716	 0.308642554835684 
717	 0.307632312980727 
718	 0.30675028449257 
719	 0.305989897684341 
720	 0.305173856353008 
721	 0.304232755645497 
722	 0.303350149364615 
723	 0.302446364339772 
724	 0.301526591486894 
725	 0.300622297761682 
726	 0.299767832207621 
727	 0.298869678098021 
728	 0.29793144222853 
729	 0.297048601330096 
730	 0.296195982781962 
731	 0.295309122866625 
732	 0.294351216175293 
733	 0.293344524607243 
734	 0.292499378258514 
735	 0.291698119156775 
736	 0.290736606243833 
737	 0.289831152270372 
738	 0.288905067285928 
739	 0.287962989976686 
740	 0.287114108526361 
741	 0.286228106981478 
742	 0.285329249928373 
743	 0.284461732599299 
744	 0.283641915327042 
745	 0.282731178508141 
746	 0.281800244517043 
747	 0.280983526381479 
748	 0.280075683465522 
749	 0.279214575268854 
750	 0.278435889753628 
751	 0.277616778769964 
752	 0.276752837301491 
753	 0.275889873950759 
754	 0.275069436098917 
755	 0.274277591485236 
756	 0.273539045092368 
757	 0.272775716303405 
758	 0.271895167725766 
759	 0.271096334887652 
760	 0.270332213220005 
761	 0.269581720260957 
762	 0.268885004738944 
763	 0.268175183201044 
764	 0.267422481848334 
765	 0.266648989370398 
766	 0.265992267475674 
767	 0.265343507796588 
768	 0.264671937485224 
769	 0.263987544479511 
770	 0.263272077754464 
771	 0.26264076260971 
772	 0.262074177257238 
773	 0.261387754305936 
774	 0.26079227670204 
775	 0.260227557582428 
776	 0.259613386163666 
777	 0.258975861112732 
778	 0.258409879546267 
779	 0.257900344820385 
780	 0.257381313844279 
781	 0.256843970226695 
782	 0.256340810248113 
783	 0.255859069088279 
784	 0.255320791124739 
785	 0.254854097649693 
786	 0.254446209143369 
787	 0.254048349194653 
788	 0.253591497842931 
789	 0.253187695233754 
790	 0.252779839403626 
791	 0.252293689413392 
792	 0.251912154630411 
793	 0.25157232186959 
794	 0.251251493697046 
795	 0.250963604131109 
796	 0.250583378301909 
797	 0.250187678349264 
798	 0.249866595389296 
799	 0.249679118648763 
800	 0.24941938348082 
801	 0.249082968273942 
802	 0.248752934037939 
803	 0.248562955254156 
804	 0.248413044003546 
805	 0.24822423474647 
806	 0.247955705204672 
807	 0.247703509968871 
808	 0.2475446136186 
809	 0.24743865118582 
810	 0.247205913276676 
811	 0.246996532894948 
812	 0.246820815559568 
813	 0.246675624520952 
814	 0.246609484999672 
815	 0.246604982417849 
816	 0.246555057432652 
817	 0.246365843113329 
818	 0.246201490550067 
819	 0.24615585268269 
820	 0.246165999412259 
821	 0.246062518123762 
822	 0.246057706028009 
823	 0.246025701685681 
824	 0.245934019003178 
825	 0.245983597304619 
826	 0.245957432899954 
827	 0.24592003880767 
828	 0.245964377384187 
829	 0.246026757684639 
830	 0.246024940789602 
831	 0.246003041595444 
832	 0.246058750947164 
833	 0.246187240006211 
834	 0.246256680289611 
835	 0.246260095286492 
836	 0.246315905712981 
837	 0.246449028205044 
838	 0.246577608895786 
839	 0.24666104856789 
840	 0.246761615651511 
841	 0.246891270380231 
842	 0.247006487541861 
843	 0.247083440928053 
844	 0.247201298288498 
845	 0.247421561791901 
846	 0.247672036476189 
847	 0.247847052350487 
848	 0.248061194713363 
849	 0.248261235537387 
850	 0.248421687000486 
851	 0.248552741427652 
852	 0.248656505673229 
853	 0.248882243784041 
854	 0.249220434196454 
855	 0.249414988301436 
856	 0.249691223127371 
857	 0.24993618872171 
858	 0.250084180625328 
859	 0.250394253095531 
860	 0.25068126565771 
861	 0.250945701409239 
862	 0.251227909545268 
863	 0.251426263607421 
864	 0.251778429197818 
865	 0.252176508530968 
866	 0.252358374848918 
867	 0.252634302716503 
868	 0.252969570022676 
869	 0.253323417534237 
870	 0.253678571990157 
871	 0.253990614763307 
872	 0.254295644423543 
873	 0.254632149122145 
874	 0.255016166582139 
875	 0.255374903251112 
876	 0.255693598782718 
877	 0.256009353399335 
878	 0.256445484917791 
879	 0.256935716337458 
880	 0.257395528764502 
881	 0.257777633579768 
882	 0.258214271549821 
883	 0.258636899906804 
884	 0.259037668960595 
885	 0.259449594312233 
886	 0.259918607284903 
887	 0.260383383301253 
888	 0.260795156634878 
889	 0.261147059883944 
890	 0.261628982233185 
891	 0.262138905295516 
892	 0.262618820440608 
893	 0.263113980939658 
894	 0.263559605564476 
895	 0.264035102490711 
896	 0.264566227912208 
897	 0.26503418430553 
898	 0.265631611757828 
899	 0.266176767486962 
900	 0.266553618046759 
901	 0.26707327725496 
902	 0.267683009869835 
903	 0.268282953520845 
904	 0.268816595433935 
905	 0.269487640326769 
906	 0.270104967045377 
907	 0.270625924816609 
908	 0.271110171969983 
909	 0.271684256816848 
910	 0.272319110121061 
911	 0.272975521777393 
912	 0.273606787157419 
913	 0.274121297399669 
914	 0.274755456741413 
915	 0.275503840513429 
916	 0.2761434200891 
917	 0.276783463506598 
918	 0.277339884191398 
919	 0.277869597287908 
920	 0.27858764394035 
921	 0.279362134166306 
922	 0.280017561619667 
923	 0.280549148841538 
924	 0.281199970443635 
925	 0.281870242134684 
926	 0.282568312978114 
927	 0.283285756610834 
928	 0.283949641998739 
929	 0.284723269548108 
930	 0.285512476391277 
931	 0.286211426679956 
932	 0.286851675861173 
933	 0.287486083185808 
934	 0.288204680350833 
935	 0.28904989973939 
936	 0.289936622434607 
937	 0.290631000715285 
938	 0.291232590333195 
939	 0.291928163231151 
940	 0.292745021640406 
941	 0.293530708153676 
942	 0.294365040756161 
943	 0.295308748964678 
944	 0.295962212618447 
945	 0.296652542333427 
946	 0.297387489836575 
947	 0.298065642932192 
948	 0.29885225878081 
949	 0.299537793134808 
950	 0.30022069787254 
951	 0.301066318238582 
952	 0.301719739766788 
953	 0.302307333741926 
954	 0.302948855246423 
955	 0.303709047551254 
956	 0.30448696178353 
957	 0.305154812428391 
958	 0.305760895993263 
959	 0.306434864201903 
960	 0.307069150197182 
961	 0.307830022070936 
962	 0.308711134082265 
963	 0.309547759515365 
964	 0.310047085862593 
965	 0.310732556399521 
966	 0.311702112975806 
967	 0.312703381992661 
968	 0.313580024641656 
969	 0.314460498672758 
970	 0.315407834094405 
971	 0.316399067078471 
972	 0.317332727816521 
973	 0.318291329320647 
974	 0.31921432107612 
975	 0.32002282848999 
976	 0.321175054762741 
977	 0.322149140829655 
978	 0.322916430792211 
979	 0.323796943053777 
980	 0.324814371555274 
981	 0.325771612301553 
982	 0.32662486060422 
983	 0.327469042731432 
984	 0.328478659762229 
985	 0.329434448387503 
986	 0.330381492673801 
987	 0.331460392854813 
988	 0.332441866288548 
989	 0.33327684883478 
990	 0.334092293726688 
991	 0.335069286869866 
992	 0.336205530705618 
993	 0.337225065583102 
994	 0.338222111197601 
995	 0.339362243805831 
996	 0.340340046508867 
997	 0.341341599344174 
998	 0.342382424522743 
999	 0.34344283095628 
1000	 0.344655245808616 
1001	 0.350076336638353 
1002	 0.351079503319637 
1003	 0.352105460290041 
1004	 0.353119105164119 
1005	 0.354105215407866 
1006	 0.355091508893083 
1007	 0.356085137527583 
1008	 0.357073375237435 
1009	 0.358040670581143 
1010	 0.358955558810963 
1011	 0.359955948079619 
1012	 0.36096766471438 
1013	 0.361955625259398 
1014	 0.363053990002052 
1015	 0.364094348780828 
1016	 0.365070719895085 
1017	 0.366081813446405 
1018	 0.367108157233257 
1019	 0.368045469237025 
1020	 0.368974752216122 
1021	 0.369957321898887 
1022	 0.370849796728284 
1023	 0.371750423567671 
1024	 0.372677933607418 
1025	 0.373599780288089 
1026	 0.374551976715491 
1027	 0.375441261043366 
1028	 0.376357715586971 
1029	 0.377299315641531 
1030	 0.378186812085358 
1031	 0.379069186315719 
1032	 0.379962899616951 
1033	 0.380855271475731 
1034	 0.381701596725987 
1035	 0.382536238095258 
1036	 0.383446367194145 
1037	 0.384349265357106 
1038	 0.385199012507924 
1039	 0.386062288707092 
1040	 0.386899740437159 
1041	 0.387727605193782 
1042	 0.388625204341424 
1043	 0.38954181113314 
1044	 0.390372244455583 
1045	 0.391172013739219 
1046	 0.391924157645226 
1047	 0.392631633741855 
1048	 0.393339064500764 
1049	 0.394108814725785 
1050	 0.394943673130246 
1051	 0.395801459955844 
1052	 0.396599144285538 
1053	 0.39734544959295 
1054	 0.398109149186283 
1055	 0.398910673167316 
1056	 0.39971537078178 
1057	 0.400498991203327 
1058	 0.401320946218645 
1059	 0.40210026688748 
1060	 0.402822652216018 
1061	 0.403549700330472 
1062	 0.404318479794928 
1063	 0.405115548897711 
1064	 0.405900198524827 
1065	 0.406626825836313 
1066	 0.407352027073021 
1067	 0.408084879292936 
1068	 0.408866148717235 
1069	 0.409680453742948 
1070	 0.4104645449963 
1071	 0.411294090822464 
1072	 0.412065593308195 
1073	 0.412746548268326 
1074	 0.413487839109839 
1075	 0.414258481873267 
1076	 0.414991815391696 
1077	 0.415724393126532 
1078	 0.41642889542555 
1079	 0.417079074508104 
1080	 0.41772367475523 
1081	 0.418378268349448 
1082	 0.419062159951956 
1083	 0.419728051620323 
1084	 0.420404113715702 
1085	 0.421054511692014 
1086	 0.421692646803607 
1087	 0.422313440516003 
1088	 0.422911849789567 
1089	 0.423527561083516 
1090	 0.424145387503082 
1091	 0.424712488200113 
1092	 0.425254171824894 
1093	 0.425768023883524 
1094	 0.426273034130183 
1095	 0.426767092785326 
1096	 0.427195360654917 
1097	 0.427641464996004 
1098	 0.428071071087573 
1099	 0.428457310465097 
1100	 0.428828860212805 
1101	 0.429213247239996 
1102	 0.429567864109353 
1103	 0.429885798281122 
1104	 0.430198670669143 
1105	 0.430489905112785 
1106	 0.430783812729251 
1107	 0.431051272669695 
1108	 0.431303968528503 
1109	 0.431551127486961 
1110	 0.431785506651307 
1111	 0.431985500221892 
1112	 0.432151577396513 
1113	 0.432301513783111 
1114	 0.43241437931714 
1115	 0.432541764044192 
1116	 0.432680990111696 
1117	 0.432778641416132 
1118	 0.432860524979818 
1119	 0.432939565106105 
1120	 0.432968635804164 
1121	 0.432977250862076 
1122	 0.432996085919934 
1123	 0.433003980153755 
1124	 0.432979304996833 
1125	 0.432942697622963 
1126	 0.432866811385954 
1127	 0.432757545049644 
1128	 0.432628927385094 
1129	 0.432490820653419 
1130	 0.432309916283648 
1131	 0.43213351474424 
1132	 0.4318663718826 
1133	 0.431532051650762 
1134	 0.431162268251619 
1135	 0.430733852394428 
1136	 0.430293769207743 
1137	 0.429776975525737 
1138	 0.429195185556533 
1139	 0.428518315518457 
1140	 0.427771021104056 
1141	 0.426899899920795 
1142	 0.425958871461998 
1143	 0.424899431245048 
1144	 0.423713967008942 
1145	 0.422467249383996 
1146	 0.42110670440861 
1147	 0.419727662674913 
1148	 0.418231637115414 
1149	 0.416782846261633 
1150	 0.415285775645957 
1151	 0.413834929428283 
1152	 0.412432211259816 
1153	 0.411134966152502 
1154	 0.409972459817675 
1155	 0.408844029718343 
1156	 0.407994576570983 
1157	 0.407297868955395 
1158	 0.406777831837383 
1159	 0.406497530205552 
1160	 0.406281728735446 
1161	 0.406237649073214 
1162	 0.406212205454828 
1163	 0.406334912934028 
1164	 0.406417519238204 
1165	 0.406542813720331 
1166	 0.406655536732703 
1167	 0.40672429066209 
1168	 0.406781116610336 
1169	 0.406790186115082 
1170	 0.406752462682463 
1171	 0.406702565611092 
1172	 0.406628785633956 
1173	 0.406529279805086 
1174	 0.406386340799326 
1175	 0.406263493727069 
1176	 0.406124315391048 
1177	 0.405988070801306 
1178	 0.40585178025613 
1179	 0.405725483389421 
1180	 0.4056009845727 
1181	 0.405472015675372 
1182	 0.405369413751012 
1183	 0.405231018435926 
1184	 0.405094133999246 
1185	 0.404946136692103 
1186	 0.404793304688232 
1187	 0.404645026337606 
1188	 0.40446268455679 
1189	 0.404242456873525 
1190	 0.404052968746385 
1191	 0.403853947364933 
1192	 0.403664647078304 
1193	 0.403502672454885 
1194	 0.403322582924664 
1195	 0.403120729692408 
1196	 0.402934558238122 
1197	 0.402757698304697 
1198	 0.402578412997817 
1199	 0.402401093157125 
1200	 0.40221968733688 
1201	 0.402068972084049 
1202	 0.401924063121739 
1203	 0.401793966917013 
1204	 0.401689910803487 
1205	 0.40158744421345 
1206	 0.401493096598758 
1207	 0.401398935823194 
1208	 0.401329542914105 
1209	 0.401235813317946 
1210	 0.401126862240046 
1211	 0.401021231485787 
1212	 0.400890910525383 
1213	 0.400789511310197 
1214	 0.40070561888064 
1215	 0.400621476692098 
1216	 0.400545385188116 
1217	 0.400495461925362 
1218	 0.400413162509954 
1219	 0.400307025237533 
1220	 0.400234535326893 
1221	 0.400169226226493 
1222	 0.400098365428305 
1223	 0.400057857868786 
1224	 0.399982897109508 
1225	 0.399874089594554 
1226	 0.399783176476225 
1227	 0.39969833905381 
1228	 0.399599492659597 
1229	 0.399490807911647 
1230	 0.399390980810123 
1231	 0.399276735381733 
1232	 0.399175017015887 
1233	 0.399082347414795 
1234	 0.399007515299307 
1235	 0.398924343566213 
1236	 0.39884743742031 
1237	 0.398759428349749 
1238	 0.398663982627143 
1239	 0.398576963529237 
1240	 0.398486500250355 
1241	 0.398399638279409 
1242	 0.398319869792548 
1243	 0.398238359602056 
1244	 0.398153762789464 
1245	 0.3980731358395 
1246	 0.398006304664298 
1247	 0.397924899392897 
1248	 0.397847249433023 
1249	 0.39774798786093 
1250	 0.397639007350934 
1251	 0.397517571262661 
1252	 0.39740011918571 
1253	 0.397275792880533 
1254	 0.397151214986522 
1255	 0.397037157243857 
1256	 0.396893416597476 
1257	 0.396738122967443 
1258	 0.396567064960107 
1259	 0.396354499745605 
1260	 0.396175657646215 
1261	 0.395995618270242 
1262	 0.39582572321051 
1263	 0.395684163413168 
1264	 0.395527514854704 
1265	 0.395360013306648 
1266	 0.395203852911456 
1267	 0.395062555437746 
1268	 0.394896405154851 
1269	 0.394741226167629 
1270	 0.394592367112212 
1271	 0.394441171833661 
1272	 0.39428873173234 
1273	 0.394135123739424 
1274	 0.39398969609842 
1275	 0.393823132288567 
1276	 0.393643503720408 
1277	 0.393463623617286 
1278	 0.393289756202508 
1279	 0.393086393657988 
1280	 0.392880416590304 
1281	 0.392642328160546 
1282	 0.392359039032921 
1283	 0.392079945314078 
1284	 0.391795205500132 
1285	 0.391488751238312 
1286	 0.391153441414308 
1287	 0.390836954189242 
1288	 0.390506355335464 
1289	 0.390157859377984 
1290	 0.38981159383683 
1291	 0.389468876957077 
1292	 0.389111378253904 
1293	 0.388748211504075 
1294	 0.388367509936696 
1295	 0.387976602596339 
1296	 0.387577241539071 
1297	 0.387164525365963 
1298	 0.386738655412178 
1299	 0.386305352474501 
1300	 0.385860541206587 
1301	 0.385396367696695 
1302	 0.384927459282118 
1303	 0.384454365155788 
1304	 0.383975624687274 
1305	 0.383483120748423 
1306	 0.382962377297391 
1307	 0.3824016727286 
1308	 0.381806053747549 
1309	 0.381195686446095 
1310	 0.380564563363331 
1311	 0.37988595604712 
1312	 0.379183734395126 
1313	 0.378451640347719 
1314	 0.377677675183093 
1315	 0.376878443660284 
1316	 0.376066381496147 
1317	 0.375212055036811 
1318	 0.374329961766262 
1319	 0.373400685963568 
1320	 0.37244350242297 
1321	 0.371437463165981 
1322	 0.370398885372929 
1323	 0.369294557466256 
1324	 0.368144346148722 
1325	 0.366964361545534 
1326	 0.365744361352753 
1327	 0.364498471002876 
1328	 0.363192667831217 
1329	 0.361869237461331 
1330	 0.360523768217073 
1331	 0.359142548554743 
1332	 0.357733352653178 
1333	 0.356317918932356 
1334	 0.354858346909496 
1335	 0.353341589280857 
1336	 0.351838198434576 
1337	 0.350307623733687 
1338	 0.348803180659666 
1339	 0.347307476939637 
1340	 0.345801032556535 
1341	 0.344285914129904 
1342	 0.342790384284897 
1343	 0.341274740492665 
1344	 0.339807099916511 
1345	 0.338363557664425 
1346	 0.336955321637713 
1347	 0.33557778210123 
1348	 0.33421866524634 
1349	 0.332878964227091 
1350	 0.331563480459994 
1351	 0.330293175670397 
1352	 0.329069518548633 
1353	 0.327827628821362 
1354	 0.326606582346887 
1355	 0.325400822842261 
1356	 0.324187517331041 
1357	 0.322990052748562 
1358	 0.321823290771002 
1359	 0.320655373256283 
1360	 0.319487826941757 
1361	 0.318328342510573 
1362	 0.317190871157873 
1363	 0.316046824989585 
1364	 0.314910126205874 
1365	 0.313755713137478 
1366	 0.312606395118731 
1367	 0.311441581670495 
1368	 0.310257466136106 
1369	 0.309047318204462 
1370	 0.307790237693267 
1371	 0.306519240368032 
1372	 0.305203068082933 
1373	 0.303825764487096 
1374	 0.302380161120838 
1375	 0.300892938264271 
1376	 0.299296772289301 
1377	 0.297636906874973 
1378	 0.295841762177445 
1379	 0.293937055289332 
1380	 0.291949138751845 
1381	 0.28986152775658 
1382	 0.287656869767404 
1383	 0.28539009260917 
1384	 0.282976016712405 
1385	 0.280464538489408 
1386	 0.277803009357089 
1387	 0.275045927763136 
1388	 0.272108833755384 
1389	 0.269040939050609 
1390	 0.26576870884549 
1391	 0.26231695956929 
1392	 0.258679295654769 
1393	 0.25487970110535 
1394	 0.250950318314621 
1395	 0.246815108172968 
1396	 0.242621281260309 
1397	 0.238369924574469 
1398	 0.233946825523917 
1399	 0.229601471021234 
1400	 0.225193509405106 
1401	 0.220916987192982 
1402	 0.216620811216557 
1403	 0.212519456086401 
1404	 0.208453358930785 
1405	 0.204692165390806 
1406	 0.20102886176653 
1407	 0.19770024095823 
1408	 0.194609124471089 
1409	 0.191840017854888 
1410	 0.189374449174699 
1411	 0.187162838552818 
1412	 0.18525587423617 
1413	 0.183598336434877 
1414	 0.182152675126091 
1415	 0.180838213172634 
1416	 0.179676767896853 
1417	 0.178597542742069 
1418	 0.177552410767522 
1419	 0.176566590662296 
1420	 0.175568572256502 
1421	 0.17458257371497 
1422	 0.173597123638677 
1423	 0.172577862159399 
1424	 0.171557821879811 
1425	 0.170519196557244 
1426	 0.169507605665245 
1427	 0.168480227480767 
1428	 0.167500474113 
1429	 0.166547350245938 
1430	 0.165625076950476 
1431	 0.16473967561352 
1432	 0.163849514569612 
1433	 0.162980193257771 
1434	 0.162118351263615 
1435	 0.161253335755014 
1436	 0.160420843245918 
1437	 0.159619790012505 
1438	 0.158817561248709 
1439	 0.158037962436371 
1440	 0.157245194621311 
1441	 0.156450462013759 
1442	 0.155665486171771 
1443	 0.154880117451537 
1444	 0.154113640718766 
1445	 0.153349649799635 
1446	 0.152602258423614 
1447	 0.151884059749256 
1448	 0.15116504007233 
1449	 0.150461828271756 
1450	 0.149787313176194 
1451	 0.149145014562856 
1452	 0.148517365372585 
1453	 0.14793671662391 
1454	 0.1474113820845 
1455	 0.146880648610509 
1456	 0.146373636038071 
1457	 0.145869395736706 
1458	 0.145381747309238 
1459	 0.14488383538307 
1460	 0.144398388820597 
1461	 0.143902988077923 
1462	 0.143396894841654 
1463	 0.142895366664301 
1464	 0.142381895981348 
1465	 0.141885946330391 
1466	 0.141388584405454 
1467	 0.140908680370243 
1468	 0.140435593093336 
1469	 0.139994415515801 
1470	 0.139563789636147 
1471	 0.139169233165612 
1472	 0.138814084734368 
1473	 0.138492017066868 
1474	 0.138201143727944 
1475	 0.137936822896443 
1476	 0.137707692326528 
1477	 0.137510992296809 
1478	 0.1373487102412 
1479	 0.137222488850629 
1480	 0.137132258346475 
1481	 0.137059176767936 
1482	 0.13701643205349 
1483	 0.137009793457654 
1484	 0.137017144147206 
1485	 0.137052100763774 
1486	 0.137095824205753 
1487	 0.137160750475121 
1488	 0.137227469771411 
1489	 0.137308077779907 
1490	 0.137392397816067 
1491	 0.137489640472314 
1492	 0.137579550503556 
1493	 0.137678377743547 
1494	 0.137762611666813 
1495	 0.137829062561071 
1496	 0.137912615955767 
1497	 0.138003472777947 
1498	 0.13808577194532 
1499	 0.13818409787843 
1500	 0.138258898771125 
1501	 0.138309021794601 
1502	 0.138364549792927 
1503	 0.13841390343073 
1504	 0.138458661502081 
1505	 0.138506515294566 
1506	 0.138550112567583 
1507	 0.138595211968286 
1508	 0.138633310799551 
1509	 0.138659209204678 
1510	 0.138690086124738 
1511	 0.138706996420065 
1512	 0.138708661958028 
1513	 0.138709928878699 
1514	 0.13870651181793 
1515	 0.138706707167224 
1516	 0.138710545884476 
1517	 0.138716171701708 
1518	 0.138739583102094 
1519	 0.1387303110682 
1520	 0.138705756740354 
1521	 0.138684328554115 
1522	 0.138642562319357 
1523	 0.138614441193377 
1524	 0.138599600522821 
1525	 0.13856689000359 
1526	 0.138530025395722 
1527	 0.138486987157521 
1528	 0.13842978880877 
1529	 0.138380459041038 
1530	 0.138338075489866 
1531	 0.138278945422781 
1532	 0.138212823372106 
1533	 0.138142261306141 
1534	 0.138058467510327 
1535	 0.137974920809309 
1536	 0.137885657053319 
1537	 0.137804749690818 
1538	 0.1377281592398 
1539	 0.137642974785733 
1540	 0.137566418581601 
1541	 0.137476142676077 
1542	 0.13737192434465 
1543	 0.137262256270227 
1544	 0.137137058544915 
1545	 0.13702343611496 
1546	 0.136912899898436 
1547	 0.136795512456622 
1548	 0.136693098869679 
1549	 0.136571453012607 
1550	 0.136429042742426 
1551	 0.136304613808847 
1552	 0.136181906212355 
1553	 0.136060119087265 
1554	 0.135940601786879 
1555	 0.135816269200808 
1556	 0.13568182804833 
1557	 0.135547001286272 
1558	 0.135423428657698 
1559	 0.135284747881397 
1560	 0.135138237648733 
1561	 0.134983314823173 
1562	 0.134831215393799 
1563	 0.134667078601357 
1564	 0.134517937217072 
1565	 0.134379536846238 
1566	 0.134227926858329 
1567	 0.134072869543501 
1568	 0.133921850101572 
1569	 0.133768542496123 
1570	 0.133617015544442 
1571	 0.133469895526123 
1572	 0.13331785413777 
1573	 0.133157387744852 
1574	 0.133006244499639 
1575	 0.132864315608665 
1576	 0.132713247932619 
1577	 0.132564005510459 
1578	 0.132409078422513 
1579	 0.132244313699944 
1580	 0.132084333865845 
1581	 0.131919250770386 
1582	 0.131762588536583 
1583	 0.131617517092844 
1584	 0.131458883463747 
1585	 0.131308534176468 
1586	 0.131139469643223 
1587	 0.130943544114189 
1588	 0.130761133916407 
1589	 0.130567400157724 
1590	 0.130392175226437 
1591	 0.13023608899759 
1592	 0.130072985003219 
1593	 0.12991311466038 
1594	 0.129757159260577 
1595	 0.129606442319192 
1596	 0.129445943890198 
1597	 0.129282779856528 
1598	 0.129122227999025 
1599	 0.128963259410994 
1600	 0.128790768032782 
1601	 0.128613750031711 
1602	 0.128439146035669 
1603	 0.1282446309477 
1604	 0.128063696539686 
1605	 0.127902508594402 
1606	 0.127730445742369 
1607	 0.127558882033176 
1608	 0.127376395115005 
1609	 0.127200494990942 
1610	 0.127026555635032 
1611	 0.126848555818814 
1612	 0.126675452721007 
1613	 0.126495030771183 
1614	 0.126310483484915 
1615	 0.126139673322275 
1616	 0.125967855371802 
1617	 0.125786905265261 
1618	 0.12561673377027 
1619	 0.125437575288547 
1620	 0.125251627078328 
1621	 0.125066488561085 
1622	 0.124879841866087 
1623	 0.124692145023079 
1624	 0.124500271159777 
1625	 0.124316996170869 
1626	 0.124143926692904 
1627	 0.123950862112644 
1628	 0.123750718660169 
1629	 0.123552288674359 
1630	 0.123337378765325 
1631	 0.123142666252694 
1632	 0.122965946041636 
1633	 0.122769308181335 
1634	 0.122571269025334 
1635	 0.122366600665803 
1636	 0.122150777203058 
1637	 0.121934748380928 
1638	 0.121716852541644 
1639	 0.121496284061084 
1640	 0.121264949540677 
1641	 0.121049694790504 
1642	 0.120841070757655 
1643	 0.120630062349676 
1644	 0.120431138699227 
1645	 0.120214148218893 
1646	 0.119980756802324 
1647	 0.119765859519289 
1648	 0.119554917582415 
1649	 0.119336514619908 
1650	 0.119128356014023 
1651	 0.118908836902129 
1652	 0.11868179409998 
1653	 0.118441228415875 
1654	 0.118190907765058 
1655	 0.117944269008404 
1656	 0.117680902450533 
1657	 0.117429103645559 
1658	 0.117188204806383 
1659	 0.116942798483508 
1660	 0.116691495346064 
1661	 0.116447381570129 
1662	 0.116208411411481 
1663	 0.115970374997453 
1664	 0.115738537665564 
1665	 0.115497728091312 
1666	 0.115251438373735 
1667	 0.115013322343667 
1668	 0.114765227034101 
1669	 0.114539497045994 
1670	 0.114339422349938 
1671	 0.114120557270381 
1672	 0.113916001698304 
1673	 0.113680751383585 
1674	 0.113419825954155 
1675	 0.113167203672288 
1676	 0.112888563500301 
1677	 0.112646848913513 
1678	 0.112432439801339 
1679	 0.11219798870479 
1680	 0.111975587154814 
1681	 0.111739810726884 
1682	 0.111479525463664 
1683	 0.111237988329582 
1684	 0.111000650047787 
1685	 0.110772664271967 
1686	 0.110559334171917 
1687	 0.110333486987227 
1688	 0.110111218043055 
1689	 0.109883822636137 
1690	 0.109640617804624 
1691	 0.109413042466812 
1692	 0.109191879377507 
1693	 0.108976040816976 
1694	 0.108776081745851 
1695	 0.108558204576922 
1696	 0.108346001019327 
1697	 0.108111027327969 
1698	 0.107839544105849 
1699	 0.107603798691784 
1700	 0.10737001716178 
1701	 0.107143957568415 
1702	 0.106941346547674 
1703	 0.106734733258399 
1704	 0.106525692282918 
1705	 0.106322409022538 
1706	 0.106139061237159 
1707	 0.105930201532079 
1708	 0.105700759466673 
1709	 0.105492549298536 
1710	 0.105285044698298 
1711	 0.105074830845993 
1712	 0.104880957850916 
1713	 0.104667905393269 
1714	 0.104420748625692 
1715	 0.1042210414227 
1716	 0.104040373103102 
1717	 0.103860915960273 
1718	 0.103712131144943 
1719	 0.103543766500609 
1720	 0.103360413679824 
1721	 0.103191069087058 
1722	 0.103039277673316 
1723	 0.102864498293426 
1724	 0.102670289168516 
1725	 0.102505147403626 
1726	 0.102341031730028 
1727	 0.102176022980687 
1728	 0.102035817476311 
1729	 0.1018836644304 
1730	 0.101710223592848 
1731	 0.101556145741847 
1732	 0.101425659786195 
1733	 0.101268698323645 
1734	 0.101102397119213 
1735	 0.100940206897227 
1736	 0.100756362892854 
1737	 0.100607627972563 
1738	 0.100481161597652 
1739	 0.100348159244693 
1740	 0.100227155252198 
1741	 0.100101369153779 
1742	 9.99710719005656E-02 
1743	 9.98498535428938E-02 
1744	 9.97400782154663E-02 
1745	 0.099621224640272 
1746	 9.94977952908818E-02 
1747	 9.93734777760843E-02 
1748	 9.92572496900585E-02 
1749	 9.91318473764611E-02 
1750	 9.90093151958951E-02 
1751	 9.89051959274872E-02 
1752	 9.87989174555141E-02 
1753	 9.87041201059399E-02 
1754	 9.86163702019701E-02 
1755	 9.85011723057037E-02 
1756	 0.098387048548317 
1757	 9.82712135685852E-02 
1758	 9.81431925809455E-02 
1759	 9.80135863117892E-02 
1760	 9.78990714991087E-02 
1761	 9.78118847271456E-02 
1762	 9.77234003274375E-02 
1763	 9.76553746753577E-02 
1764	 9.75810568504485E-02 
1765	 9.74718637807207E-02 
1766	 9.73860296023866E-02 
1767	 9.72826626523701E-02 
1768	 9.71583250964644E-02 
1769	 9.70588406156794E-02 
1770	 9.69434840896747E-02 
1771	 9.68611241432125E-02 
1772	 0.096799050767405 
1773	 9.66936973830095E-02 
1774	 9.66006872506672E-02 
1775	 9.64832965405982E-02 
1776	 9.63532903574019E-02 
1777	 0.096269622734649 
1778	 9.61855484163285E-02 
1779	 0.096094094289947 
1780	 9.60113086610519E-02 
1781	 9.59312404461349E-02 
1782	 9.58405724675732E-02 
1783	 9.57992959709743E-02 
1784	 9.57227257767291E-02 
1785	 9.56088598722837E-02 
1786	 9.55451708274307E-02 
1787	 9.54953712562411E-02 
1788	 9.54289063143311E-02 
1789	 9.53900953787792E-02 
1790	 9.53232579129113E-02 
1791	 9.52231263984991E-02 
1792	 9.51448812474753E-02 
1793	 9.50714671360088E-02 
1794	 9.50194764166088E-02 
1795	 9.49682336191505E-02 
1796	 9.49242377358324E-02 
1797	 9.49196169504747E-02 
1798	 9.48720991775755E-02 
1799	 9.47921099112057E-02 
1800	 9.47506306704164E-02 
1801	 9.42495156575308E-02 
1802	 9.42268349307423E-02 
1803	 9.42433031033903E-02 
1804	 9.42553382196994E-02 
1805	 9.42548453296233E-02 
1806	 9.42692794403404E-02 
1807	 9.42798787541582E-02 
1808	 9.42752128000986E-02 
1809	 9.42480378339772E-02 
1810	 9.42295708009028E-02 
1811	 9.42028258678115E-02 
1812	 9.41920394037793E-02 
1813	 9.41693238560567E-02 
1814	 9.41415528241314E-02 
1815	 9.41206321755312E-02 
1816	 0.094081371008105 
1817	 9.40540744829844E-02 
1818	 9.40359169293567E-02 
1819	 9.40158150343058E-02 
1820	 9.39900269074579E-02 
1821	 9.39789464277601E-02 
1822	 9.39740681832392E-02 
1823	 9.39740920751333E-02 
1824	 9.39856998606056E-02 
1825	 9.39672961760983E-02 
1826	 9.39458845203682E-02 
1827	 9.39303458716122E-02 
1828	 9.38864533284558E-02 
1829	 0.093802217810694 
1830	 9.37533483512584E-02 
1831	 9.37056304272071E-02 
1832	 9.36566654780583E-02 
1833	 9.36190288494636E-02 
1834	 9.36057504896811E-02 
1835	 9.35785647351456E-02 
1836	 9.35158344496072E-02 
1837	 9.34695721353658E-02 
1838	 9.34316574067983E-02 
1839	 9.33868650216137E-02 
1840	 9.33359783489379E-02 
1841	 9.33076196795258E-02 
1842	 9.32714339788497E-02 
1843	 0.09321200570364 
1844	 9.31329406978621E-02 
1845	 9.30287165754623E-02 
1846	 9.29275940826293E-02 
1847	 9.28312560341502E-02 
1848	 9.27431827491916E-02 
1849	 9.26551013916336E-02 
1850	 9.25661551400335E-02 
1851	 9.24733577199491E-02 
1852	 9.23772047746798E-02 
1853	 0.092272454616929 
1854	 0.09214950188029 
1855	 9.19722902628514E-02 
1856	 9.17710870505189E-02 
1857	 9.15825414015709E-02 
1858	 9.14172453377199E-02 
1859	 9.12719474192727E-02 
1860	 9.10899163819635E-02 
1861	 9.09056576395931E-02 
1862	 9.06916349752026E-02 
1863	 9.04399933913572E-02 
1864	 9.01702750035359E-02 
1865	 8.99022893239379E-02 
1866	 8.95840789990905E-02 
1867	 8.92674630922313E-02 
1868	 8.89502485268725E-02 
1869	 8.85851955152636E-02 
1870	 8.82243651473072E-02 
1871	 8.78413521487521E-02 
1872	 8.74403631254235E-02 
1873	 8.69983281142846E-02 
1874	 0.086550669346793 
1875	 8.60859066418777E-02 
1876	 8.55921589136486E-02 
1877	 8.50647080179064E-02 
1878	 8.45319858355308E-02 
1879	 8.39872733521724E-02 
1880	 8.33928557183744E-02 
1881	 8.27783458172986E-02 
1882	 8.21179942140917E-02 
1883	 8.14249763045603E-02 
1884	 8.06417927430954E-02 
1885	 7.98514376928364E-02 
1886	 7.90091022397799E-02 
1887	 0.07809782620205 
1888	 7.71948887709923E-02 
1889	 7.62234960805851E-02 
1890	 7.52092200050491E-02 
1891	 7.41648591481652E-02 
1892	 0.073056018712738 
1893	 7.19411884508995E-02 
1894	 7.08093419725012E-02 
1895	 6.96368605271341E-02 
1896	 6.84441758751735E-02 
1897	 6.72617687814379E-02 
1898	 6.60320954459086E-02 
1899	 6.48146563886424E-02 
1900	 6.36151677191643E-02 
1901	 6.24402413081935E-02 
1902	 0.06137413275067 
1903	 6.03718114755392E-02 
1904	 5.94648074228885E-02 
1905	 5.86424100682304E-02 
1906	 5.79247954720091E-02 
1907	 0.05727720874052 
1908	 5.67062540271364E-02 
1909	 5.62118390338939E-02 
1910	 0.05579274206938 
1911	 5.54003932048921E-02 
1912	 5.50389248037807E-02 
1913	 5.47083286653932E-02 
1914	 5.44210120973812E-02 
1915	 5.41308299222164E-02 
1916	 5.38716621378334E-02 
1917	 5.36080602037266E-02 
1918	 5.33680147472744E-02 
1919	 0.053137687833933 
1920	 5.28970645138376E-02 
1921	 5.26801645356188E-02 
1922	 5.24598606618252E-02 
1923	 5.22264830835592E-02 
1924	 5.20047591356093E-02 
1925	 5.17968432860755E-02 
1926	 5.15974478326592E-02 
1927	 5.14093912881261E-02 
1928	 5.11978721431821E-02 
1929	 5.10251801723347E-02 
1930	 5.08358025307859E-02 
1931	 5.06342673742155E-02 
1932	 5.04858496785896E-02 
1933	 5.03312763585856E-02 
1934	 5.01732036085908E-02 
1935	 5.00375785902476E-02 
1936	 4.99196293595689E-02 
1937	 4.98028651322666E-02 
1938	 4.96978085702917E-02 
1939	 0.049603923706945 
1940	 4.95201698073517E-02 
1941	 4.94393894709321E-02 
1942	 4.93740448860543E-02 
1943	 4.93019706630192E-02 
1944	 0.049228360260531 
1945	 4.91624377513576E-02 
1946	 4.91074112395239E-02 
1947	 4.90567963508596E-02 
1948	 4.90172625462432E-02 
1949	 4.89974730355845E-02 
1950	 4.89718201104006E-02 
1951	 4.89507151717662E-02 
1952	 4.89296060455883E-02 
1953	 4.89040568453096E-02 
1954	 4.88600679647548E-02 
1955	 0.048827121722597 
1956	 4.88081497440116E-02 
1957	 0.048793698371914 
1958	 4.88159868897458E-02 
1959	 4.87955862260904E-02 
1960	 4.87498451161369E-02 
1961	 4.87138857949939E-02 
1962	 4.86466068551496E-02 
1963	 4.86089533990445E-02 
1964	 4.85844177436129E-02 
1965	 4.85831317181696E-02 
1966	 4.85764763539798E-02 
1967	 0.048578405770449 
1968	 4.85880567637908E-02 
1969	 4.86012077008862E-02 
1970	 4.86235199159384E-02 
1971	 4.86608752086957E-02 
1972	 4.86942224115156E-02 
1973	 4.87257964940249E-02 
1974	 4.87704078807126E-02 
1975	 0.048821588715973 
1976	 4.88768856334412E-02 
1977	 4.89457443566048E-02 
1978	 4.90219142226671E-02 
1979	 4.90974012066636E-02 
1980	 4.91996172014224E-02 
1981	 4.93024304023769E-02 
1982	 4.94156825481642E-02 
1983	 4.95307560520487E-02 
1984	 4.96539476177621E-02 
1985	 4.97785238723993E-02 
1986	 4.99174630314583E-02 
1987	 5.00401871726497E-02 
1988	 5.01513430581236E-02 
1989	 0.050278503066976 
1990	 5.03883673498342E-02 
1991	 5.05076188543537E-02 
1992	 5.06303746316858E-02 
1993	 5.07661339767289E-02 
1994	 5.08867708376343E-02 
1995	 0.05100598506043 
1996	 0.051119331556853 
1997	 5.12166893013396E-02 
1998	 5.13305338851609E-02 
1999	 0.051457226064914 
2000	 5.15694125947243E-02 
2001	 5.16786286346863E-02 
2002	 5.17918343931372E-02 
2003	 5.19020034329637E-02 
2004	 5.20099318168438E-02 
2005	 5.21241593994345E-02 
2006	 5.22538502713477E-02 
2007	 5.23754116882105E-02 
2008	 5.24914528376477E-02 
2009	 5.26072009299455E-02 
2010	 5.27207770930261E-02 
2011	 5.28401992069119E-02 
2012	 5.29634474586523E-02 
2013	 5.30839539433645E-02 
2014	 5.32014367252479E-02 
2015	 0.053331541508154 
2016	 5.34709715273505E-02 
2017	 5.35842471597704E-02 
2018	 5.37037093366346E-02 
2019	 5.38332884446273E-02 
2020	 5.39451499437072E-02 
2021	 5.40320889344889E-02 
2022	 5.41387248485264E-02 
2023	 5.42549503825636E-02 
2024	 5.43619417689298E-02 
2025	 5.44615157279378E-02 
2026	 5.45771328010175E-02 
2027	 5.47070247341006E-02 
2028	 5.48127726695471E-02 
2029	 5.49290826147683E-02 
2030	 5.50646851231594E-02 
2031	 5.51774460826987E-02 
2032	 5.52673999628185E-02 
2033	 5.53755802071918E-02 
2034	 5.54904391610684E-02 
2035	 0.055595459666332 
2036	 5.57057825592243E-02 
2037	 5.58083735165717E-02 
2038	 5.58954598774069E-02 
2039	 0.055991330716606 
2040	 5.60924487791809E-02 
2041	 5.61873221961348E-02 
2042	 0.056279439219457 
2043	 5.63718870750636E-02 
2044	 5.64669322879707E-02 
2045	 5.65552534483834E-02 
2046	 5.66548702943284E-02 
2047	 5.67662743782075E-02 
2048	 5.68710170913371E-02 
2049	 0.056981315052408 
2050	 5.70823683932178E-02 
2051	 5.71711534929833E-02 
2052	 5.72706661548721E-02 
2053	 5.73773546835161E-02 
2054	 5.74754608501092E-02 
2055	 5.75732992667871E-02 
2056	 0.057673367342015 
2057	 5.77678278937201E-02 
2058	 5.78558444613181E-02 
2059	 0.057937435776415 
2060	 5.80111043510124E-02 
2061	 5.80937891122599E-02 
2062	 5.81555236802249E-02 
2063	 5.82515964959063E-02 
2064	 5.83893465679016E-02 
2065	 5.84983468867163E-02 
2066	 5.86243379802282E-02 
2067	 5.87212717076316E-02 
2068	 5.87906727812819E-02 
2069	 5.88452026114534E-02 
2070	 0.058921684843604 
2071	 5.89909347470552E-02 
2072	 5.90772611750373E-02 
2073	 5.91868796176631E-02 
2074	 5.92768336994242E-02 
2075	 5.93621541786177E-02 
2076	 5.94487758153273E-02 
2077	 5.95250202176658E-02 
2078	 5.96151211197956E-02 
2079	 5.97230365404171E-02 
2080	 5.98130495205354E-02 
2081	 5.98970203884308E-02 
2082	 5.99842391795826E-02 
2083	 6.00649836478877E-02 
2084	 6.01405810110749E-02 
2085	 6.02220412297573E-02 
2086	 6.03022092951237E-02 
2087	 6.04049515996647E-02 
2088	 6.05280749791807E-02 
2089	 0.060623837381141 
2090	 6.07314148458216E-02 
2091	 6.08219737699536E-02 
2092	 6.08759532783873E-02 
2093	 0.060949519508559 
2094	 6.10284345327815E-02 
2095	 6.11134687943016E-02 
2096	 6.11973668991256E-02 
2097	 6.12901982660292E-02 
2098	 6.13891763754843E-02 
2099	 6.15064116114127E-02 
2100	 6.16098518711055E-02 
2101	 6.17127405182613E-02 
2102	 6.18177067779383E-02 
2103	 6.19200708042185E-02 
2104	 6.20234910481777E-02 
2105	 6.21279196634685E-02 
2106	 6.22366210216198E-02 
2107	 6.23439271477116E-02 
2108	 6.24580003472874E-02 
2109	 6.25788660648884E-02 
2110	 6.27011357790774E-02 
2111	 6.28347840234535E-02 
2112	 6.29558191722986E-02 
2113	 0.063062653866339 
2114	 6.31904856417834E-02 
2115	 6.33065117922248E-02 
2116	 6.34097535094561E-02 
2117	 6.35304355019262E-02 
2118	 6.36588056913855E-02 
2119	 6.37888038859391E-02 
2120	 6.39362218198286E-02 
2121	 6.40586484044752E-02 
2122	 6.41704540432307E-02 
2123	 6.42857577182418E-02 
2124	 6.43856375670133E-02 
2125	 0.064493462434561 
2126	 6.46048609619336E-02 
2127	 6.47229151060971E-02 
2128	 6.48546647280099E-02 
2129	 6.49680673001724E-02 
2130	 6.50774348167262E-02 
2131	 6.51821549270831E-02 
2132	 6.52963031041871E-02 
2133	 6.53999227643176E-02 
2134	 6.55113990555713E-02 
2135	 6.56508516904708E-02 
2136	 6.57521381629135E-02 
2137	 6.58281546685235E-02 
2138	 6.59131751622914E-02 
2139	 6.59825118944845E-02 
2140	 0.066061786814364 
2141	 6.61576484100584E-02 
2142	 6.62313807548593E-02 
2143	 6.62876057340121E-02 
2144	 6.63556074686549E-02 
2145	 6.64151102353371E-02 
2146	 6.64779200424858E-02 
2147	 6.65498339050936E-02 
2148	 6.66266710278812E-02 
2149	 6.66936810534502E-02 
2150	 6.67631032969819E-02 
2151	 6.68091256151655E-02 
2152	 6.68417871206453E-02 
2153	 6.68746473911141E-02 
2154	 6.68828949797536E-02 
2155	 6.69089392935747E-02 
2156	 0.066947731525371 
2157	 6.69785841701226E-02 
2158	 6.70120051151244E-02 
2159	 6.70369322632853E-02 
2160	 6.70477007046419E-02 
2161	 6.70695569857383E-02 
2162	 6.71003634496453E-02 
2163	 6.71196353952189E-02 
2164	 6.71326399820651E-02 
2165	 6.71620197927967E-02 
2166	 6.71674105390153E-02 
2167	 6.71485091318883E-02 
2168	 0.067152395809375 
2169	 6.71572847805085E-02 
2170	 6.71658239197247E-02 
2171	 6.71913355285624E-02 
2172	 0.06719760451865 
2173	 6.71923320348326E-02 
2174	 6.71943038587508E-02 
2175	 6.71937813161782E-02 
2176	 6.71900512992858E-02 
2177	 6.71879548149786E-02 
2178	 6.71849679937714E-02 
2179	 6.71688296197846E-02 
2180	 6.71658698522237E-02 
2181	 0.067189140390933 
2182	 6.71872982634166E-02 
2183	 6.71716033347146E-02 
2184	 6.71582511723367E-02 
2185	 6.71474669559139E-02 
2186	 6.71126335940298E-02 
2187	 6.71133075275223E-02 
2188	 6.71425188838273E-02 
2189	 6.71568906718461E-02 
2190	 6.71852085167361E-02 
2191	 6.71925107865331E-02 
2192	 6.71804734608469E-02 
2193	 6.71840118623361E-02 
2194	 6.71957551623292E-02 
2195	 6.71907851018227E-02 
2196	 6.71798466450905E-02 
2197	 0.067176014567761 
2198	 6.71439952871527E-02 
2199	 6.71408291403414E-02 
2200	 6.71745700373583E-02 
2201	 6.71925708511945E-02 
2202	 6.72033187600974E-02 
2203	 0.067237322219109 
2204	 6.72566445997885E-02 
2205	 6.72760481686436E-02 
2206	 6.72738839973555E-02 
2207	 6.72454925787139E-02 
2208	 6.72599865701584E-02 
2209	 6.72811785375345E-02 
2210	 6.72968908976437E-02 
2211	 6.73483772934247E-02 
2212	 6.73709992697379E-02 
2213	 6.73542633412995E-02 
2214	 6.73651315721932E-02 
2215	 6.73857668870976E-02 
2216	 6.74161052783784E-02 
2217	 6.74643381417288E-02 
2218	 6.74970744306547E-02 
2219	 6.75225932467945E-02 
2220	 6.75621577748113E-02 
2221	 6.76019363633655E-02 
2222	 6.76484516956299E-02 
2223	 6.76940117767428E-02 
2224	 0.067714968931187 
2225	 6.77212560710608E-02 
2226	 6.76811196997247E-02 
2227	 6.76962028386745E-02 
2228	 6.77370769873974E-02 
2229	 6.77462324560498E-02 
2230	 6.77588483166003E-02 
2231	 6.77744447975411E-02 
2232	 6.77512677244212E-02 
2233	 6.77774785096811E-02 
2234	 6.78664312430362E-02 
2235	 6.78977542419492E-02 
2236	 6.79100060798031E-02 
2237	 6.79351142437779E-02 
2238	 6.79494157216057E-02 
2239	 6.79520227747264E-02 
2240	 6.79594674067613E-02 
2241	 6.79644704552233E-02 
2242	 6.79435071597136E-02 
2243	 6.79322372671372E-02 
2244	 6.79342865397609E-02 
2245	 6.79352332023226E-02 
2246	 6.79343416656213E-02 
2247	 6.79166308764807E-02 
2248	 6.79002161414846E-02 
2249	 6.78815903051543E-02 
2250	 6.78662654646844E-02 
2251	 0.067838572772178 
2252	 6.78334387646123E-02 
2253	 6.78573057205417E-02 
2254	 6.78440646395362E-02 
2255	 6.78123632653448E-02 
2256	 6.78044098058362E-02 
2257	 6.77956894230699E-02 
2258	 6.77709905884066E-02 
2259	 6.77676182179064E-02 
2260	 6.77352172719938E-02 
2261	 6.76453827654677E-02 
2262	 0.067605904404085 
2263	 6.75991061997449E-02 
2264	 6.75668122977632E-02 
2265	 6.75473941028371E-02 
2266	 6.75149438600874E-02 
2267	 0.067438594795011 
2268	 6.73979399991494E-02 
2269	 6.73944206774137E-02 
2270	 6.73589775360551E-02 
2271	 6.73331956529866E-02 
2272	 6.73113649962419E-02 
2273	 6.72578147515939E-02 
2274	 6.71786187938084E-02 
2275	 6.70964806414032E-02 
2276	 6.69844419805855E-02 
2277	 6.69168507326632E-02 
2278	 6.68604615464511E-02 
2279	 6.67972009552368E-02 
2280	 0.066775960552704 
2281	 6.66958477381878E-02 
2282	 6.65631933905567E-02 
2283	 0.066470026284071 
2284	 6.63666424282802E-02 
2285	 6.62811179890307E-02 
2286	 6.62339080886456E-02 
2287	 0.066152803149342 
2288	 6.60651260203563E-02 
2289	 6.59564037445578E-02 
2290	 6.58228318743611E-02 
2291	 6.56948019894853E-02 
2292	 6.55365203417843E-02 
2293	 6.54173129209489E-02 
2294	 6.53285129923413E-02 
2295	 6.52209886398364E-02 
2296	 6.51434276375669E-02 
2297	 6.50256331975585E-02 
2298	 6.48855453186998E-02 
2299	 6.47333410147693E-02 
2300	 6.45921720352766E-02 
2301	 6.44687806022546E-02 
2302	 0.064323211176638 
2303	 6.42062171178274E-02 
2304	 6.41073294454065E-02 
2305	 6.40017351720764E-02 
2306	 0.063871398945519 
2307	 6.37444206214764E-02 
2308	 6.36112923932958E-02 
2309	 6.34347917492556E-02 
2310	 6.32881295323765E-02 
2311	 6.31637075147954E-02 
2312	 6.30379940401586E-02 
2313	 6.29098501822037E-02 
2314	 0.062785974561721 
2315	 6.26996376611369E-02 
2316	 6.25639676494149E-02 
2317	 6.23991691823365E-02 
2318	 6.22368932946989E-02 
2319	 6.20306243284975E-02 
2320	 6.18613472949951E-02 
2321	 6.16913029525807E-02 
2322	 6.15536190930474E-02 
2323	 6.14723715417924E-02 
2324	 6.13641227621117E-02 
2325	 6.13027050402168E-02 
2326	 6.11607451904478E-02 
2327	 0.06097423024506 
2328	 6.07438931113958E-02 
2329	 6.04849992832811E-02 
2330	 6.02701238755721E-02 
2331	 6.01273992060593E-02 
2332	 5.99856072244223E-02 
2333	 5.98249933584079E-02 
2334	 5.96784731019151E-02 
2335	 5.95382102738887E-02 
2336	 5.93876639614925E-02 
2337	 5.92606306599879E-02 
2338	 5.91250860996049E-02 
2339	 5.89630557087456E-02 
2340	 0.058840281789085 
2341	 5.87002754746823E-02 
2342	 5.85438589087235E-02 
2343	 5.84306090684701E-02 
2344	 5.82184180220149E-02 
2345	 5.80286282864091E-02 
2346	 0.057844251381444 
2347	 0.057665181935902 
2348	 5.74671272971309E-02 
2349	 5.72926280356228E-02 
2350	 5.71168819829972E-02 
2351	 5.69540972198398E-02 
2352	 5.68271642337642E-02 
2353	 5.66478050174825E-02 
2354	 5.64739354302214E-02 
2355	 5.62899665007194E-02 
2356	 5.60302093258096E-02 
2357	 5.58304762962156E-02 
2358	 5.56863717246189E-02 
2359	 5.54874144068132E-02 
2360	 5.52638249065862E-02 
2361	 5.50736738905777E-02 
2362	 5.48838834831074E-02 
2363	 5.46750646485489E-02 
2364	 5.44868524256766E-02 
2365	 5.42926169368265E-02 
2366	 5.40739419498348E-02 
2367	 5.38493479783999E-02 
2368	 5.36182957222355E-02 
2369	 5.34136089371625E-02 
2370	 5.32027843562752E-02 
2371	 5.30044121492356E-02 
2372	 5.28345070561614E-02 
2373	 5.26289333121313E-02 
2374	 5.24019785850613E-02 
2375	 5.21885917393909E-02 
2376	 5.19525803830428E-02 
2377	 5.17370734557828E-02 
2378	 5.15638110781582E-02 
2379	 5.13244511860898E-02 
2380	 5.11414526309793E-02 
2381	 5.10025979460499E-02 
2382	 5.07904385691794E-02 
2383	 5.05895986273339E-02 
2384	 5.03185945408475E-02 
2385	 5.00500580648466E-02 
2386	 4.98282437397893E-02 
2387	 4.96115300167803E-02 
2388	 4.94637649400983E-02 
2389	 4.92644584406053E-02 
2390	 4.90399275713478E-02 
2391	 4.88593885175383E-02 
2392	 4.86719716089012E-02 
2393	 0.04855235908 
2394	 4.84225163926155E-02 
2395	 4.82012340516864E-02 
2396	 0.048014752817023 
2397	 4.77973238963509E-02 
2398	 4.75545594231028E-02 
2399	 4.73271947740188E-02 
2400	 4.70827362984101E-02 
2401	 4.68554380425233E-02 
2402	 4.66276671631478E-02 
2403	 4.65171643435091E-02 
2404	 4.64094775417968E-02 
2405	 0.046223368472163 
2406	 4.60572846676658E-02 
2407	 4.58542182753637E-02 
2408	 4.57537007556397E-02 
2409	 4.56790191990042E-02 
2410	 4.55425113909179E-02 
2411	 4.54640557745895E-02 
2412	 4.53207644856886E-02 
2413	 4.50930117512325E-02 
2414	 4.48712328360599E-02 
2415	 4.45952033260461E-02 
2416	 4.43482374289002E-02 
2417	 4.40144189104047E-02 
2418	 4.38422680349485E-02 
2419	 4.38045080236184E-02 
2420	 4.37206768182922E-02 
2421	 4.37127577817154E-02 
2422	 4.36147537747476E-02 
2423	 0.043397453255403 
2424	 0.043337546863169 
2425	 4.33833526325992E-02 
2426	 4.33083306175031E-02 
2427	 4.33050012459817E-02 
2428	 4.31982108929428E-02 
2429	 4.28811829891507E-02 
2430	 4.27160565995036E-02 
2431	 4.26240566017833E-02 
2432	 4.24987798811443E-02 
2433	 4.23840531821586E-02 
2434	 4.22400589835565E-02 
2435	 4.21150470011556E-02 
2436	 4.19807268991478E-02 
2437	 4.18408871505214E-02 
2438	 4.16886335103205E-02 
2439	 0.041470839430458 
2440	 4.12757144050229E-02 
2441	 4.10672087256464E-02 
2442	 4.09241967214271E-02 
2443	 4.08821860244196E-02 
2444	 4.07511970370654E-02 
2445	 4.05574286511531E-02 
2446	 4.04805113780645E-02 
2447	 4.04613815288283E-02 
2448	 4.03400431685849E-02 
2449	 4.02401230715099E-02 
2450	 4.01443334335789E-02 
2451	 3.99251150013171E-02 
2452	 3.98291873794157E-02 
2453	 3.98410179692341E-02 
2454	 3.97779762958089E-02 
2455	 3.97654217325489E-02 
2456	 3.96434682305504E-02 
2457	 3.94653044326224E-02 
2458	 3.92889232475867E-02 
2459	 3.89457230741429E-02 
2460	 3.87719550723196E-02 
2461	 3.87443577846595E-02 
2462	 3.86766003482769E-02 
2463	 3.86785999982303E-02 
2464	 3.86356951212255E-02 
2465	 3.84833652342644E-02 
2466	 3.84232701187622E-02 
2467	 3.85023410851506E-02 
2468	 3.84093667993045E-02 
2469	 3.82344395816602E-02 
2470	 3.81665930047624E-02 
2471	 3.80068328127334E-02 
2472	 3.80264706509192E-02 
2473	 3.80731962133134E-02 
2474	 3.78847078729348E-02 
2475	 3.76651242986228E-02 
2476	 3.75614584572894E-02 
2477	 3.74181130758938E-02 
2478	 3.72305581105865E-02 
2479	 3.71808170590913E-02 
2480	 3.71913754654121E-02 
2481	 3.70704250351436E-02 
2482	 3.69705978847527E-02 
2483	 3.69319343780543E-02 
2484	 3.67686704196056E-02 
2485	 3.66038725627967E-02 
2486	 0.036433265726347 
2487	 0.036255135979051 
2488	 3.60996069925947E-02 
2489	 3.60015480250555E-02 
2490	 3.61108610044689E-02 
2491	 3.61736974086068E-02 
2492	 3.61917753229214E-02 
2493	 3.62433766096483E-02 
2494	 3.60450239009907E-02 
2495	 3.58741771030141E-02 
2496	 3.59287957549207E-02 
2497	 3.57877477923489E-02 
2498	 3.56949783078854E-02 
2499	 3.58036963662335E-02 
2500	 3.56758434675379E-02 
