Wavelength	lmw-9-300009.asd
350	 5.21093543918692E-02 
351	 0.050878421016779 
352	 4.35125254272084E-02 
353	 3.57987360589253E-02 
354	 4.73437121533075E-02 
355	 5.05756834374236E-02 
356	 0.047532785618046 
357	 4.71021865162135E-02 
358	 5.19387191161697E-02 
359	 4.96480392936214E-02 
360	 4.29075224915857E-02 
361	 4.29675887882689E-02 
362	 3.86426228231563E-02 
363	 3.97417208794002E-02 
364	 4.68573433608004E-02 
365	 4.26879601280175E-02 
366	 3.96823901353604E-02 
367	 3.97517356131661E-02 
368	 4.13519436324815E-02 
369	 4.24052518598525E-02 
370	 3.95842122695945E-02 
371	 3.61751379207528E-02 
372	 3.90530134680633E-02 
373	 4.20477617110275E-02 
374	 4.30348067155098E-02 
375	 4.15382321796771E-02 
376	 3.83049487722862E-02 
377	 4.12354395482266E-02 
378	 4.44913064379563E-02 
379	 4.16141754944568E-02 
380	 4.32024838678797E-02 
381	 4.11710551865489E-02 
382	 3.84212643704034E-02 
383	 0.04484167421281 
384	 4.53912144463181E-02 
385	 4.24971546282455E-02 
386	 0.040746425221669 
387	 4.39464313003135E-02 
388	 0.045742814428471 
389	 0.045811489175194 
390	 4.54977399742234E-02 
391	 4.34937683371148E-02 
392	 4.37278335663154E-02 
393	 4.71654785176739E-02 
394	 5.18016350051742E-02 
395	 5.23002288275487E-02 
396	 5.14804864309424E-02 
397	 0.052451467414356 
398	 0.056229285682463 
399	 5.83679029522591E-02 
400	 5.90173011089056E-02 
401	 6.00574869181353E-02 
402	 6.19791369869065E-02 
403	 6.40125730874193E-02 
404	 6.54265847095376E-02 
405	 6.57759307067273E-02 
406	 6.92519221882067E-02 
407	 7.27352575797173E-02 
408	 7.35641741801057E-02 
409	 7.37719339571415E-02 
410	 7.42298908733219E-02 
411	 7.53630536216502E-02 
412	 7.71794369642974E-02 
413	 0.079107361616134 
414	 8.04320060837038E-02 
415	 8.10640037920831E-02 
416	 8.16707359283802E-02 
417	 8.21045735006949E-02 
418	 0.082428158721356 
419	 0.082683909569533 
420	 8.27347213580226E-02 
421	 8.25362435853687E-02 
422	 8.23411268409346E-02 
423	 8.25339734873548E-02 
424	 8.28455504122937E-02 
425	 8.28213403537273E-02 
426	 8.24893835498308E-02 
427	 8.27160291935099E-02 
428	 8.34460786730177E-02 
429	 8.42837382221971E-02 
430	 8.49294594837437E-02 
431	 8.61631320556936E-02 
432	 8.81084116360441E-02 
433	 9.05114690535654E-02 
434	 9.28468734396766E-02 
435	 9.61514262368767E-02 
436	 9.97746641307341E-02 
437	 0.10325597475718 
438	 0.107456608345927 
439	 0.111990857027873 
440	 0.116585031750153 
441	 0.120987317670095 
442	 0.12476571474624 
443	 0.128872743431475 
444	 0.133474114183951 
445	 0.137387871751124 
446	 0.140938271067873 
447	 0.144647496082989 
448	 0.14880593051586 
449	 0.152442480845018 
450	 0.156026328889575 
451	 0.159748430887656 
452	 0.163511841654871 
453	 0.166772107301027 
454	 0.169970636670266 
455	 0.173398628689038 
456	 0.176529409373706 
457	 0.179620591668939 
458	 0.18271115534463 
459	 0.185755991655788 
460	 0.188879715868684 
461	 0.191773085315145 
462	 0.194528174497144 
463	 0.19784072487633 
464	 0.200903803064751 
465	 0.203834094041439 
466	 0.206837987533306 
467	 0.20936476214134 
468	 0.21197860348775 
469	 0.21471647500018 
470	 0.217205676091967 
471	 0.220012747997322 
472	 0.22275195977687 
473	 0.22514097776455 
474	 0.227470547022958 
475	 0.229901318573651 
476	 0.232287383734818 
477	 0.234428649955351 
478	 0.23691098688186 
479	 0.239097614005625 
480	 0.240865076889674 
481	 0.242938742905658 
482	 0.24492794230266 
483	 0.246817034567923 
484	 0.248643773524907 
485	 0.250291691779862 
486	 0.251750259527277 
487	 0.253135097540981 
488	 0.254633224558646 
489	 0.25576588890419 
490	 0.256884362045756 
491	 0.258217200555172 
492	 0.259379280837386 
493	 0.260120291899384 
494	 0.26068062645868 
495	 0.261495575108042 
496	 0.26242186036359 
497	 0.263056240629292 
498	 0.26335969418777 
499	 0.263854451645819 
500	 0.264383232165637 
501	 0.264756980137678 
502	 0.264878762069877 
503	 0.265128410692167 
504	 0.265322835494798 
505	 0.265432986467482 
506	 0.265579034996888 
507	 0.265591919145022 
508	 0.265608442275254 
509	 0.265689172626869 
510	 0.265547018116311 
511	 0.265202113338914 
512	 0.2648893266791 
513	 0.264900721521102 
514	 0.264909962793234 
515	 0.264789048189752 
516	 0.264569133195737 
517	 0.264513787707757 
518	 0.264311444299219 
519	 0.264016797459465 
520	 0.263772051472442 
521	 0.263484639580894 
522	 0.263277436688146 
523	 0.263114039323959 
524	 0.262788644159386 
525	 0.262555729493682 
526	 0.26236309724863 
527	 0.262131176668797 
528	 0.261915510786046 
529	 0.261756185941595 
530	 0.261610986974361 
531	 0.261401841538397 
532	 0.261324775151722 
533	 0.261259993185712 
534	 0.261134793560472 
535	 0.261072305170787 
536	 0.260973519719111 
537	 0.260900317291735 
538	 0.260938327784072 
539	 0.260893728307161 
540	 0.260831133439061 
541	 0.26081207281635 
542	 0.260864509439047 
543	 0.260975775462619 
544	 0.261137988382526 
545	 0.261324421801755 
546	 0.261433399302869 
547	 0.261559275770894 
548	 0.261741484562952 
549	 0.261961889151792 
550	 0.262101723732478 
551	 0.262250208902207 
552	 0.262495381467368 
553	 0.262827079284425 
554	 0.263160000014226 
555	 0.263467205187263 
556	 0.263768721444572 
557	 0.264185388955131 
558	 0.264590033266834 
559	 0.264970871449275 
560	 0.265575652398603 
561	 0.266169261013757 
562	 0.266728575855691 
563	 0.267287715026808 
564	 0.267771570924082 
565	 0.26824018452954 
566	 0.268748935596669 
567	 0.269336342249938 
568	 0.269886683370915 
569	 0.27039554815575 
570	 0.270927421431477 
571	 0.271674499952397 
572	 0.272492513616161 
573	 0.2732974237377 
574	 0.274058209922059 
575	 0.274791386250078 
576	 0.275704539987774 
577	 0.276855889251867 
578	 0.277925385342221 
579	 0.279001148970809 
580	 0.280162253996397 
581	 0.28146249447087 
582	 0.282752936438869 
583	 0.283898522661288 
584	 0.284877190756154 
585	 0.285822317240701 
586	 0.286701508695343 
587	 0.28760146036497 
588	 0.288622321295678 
589	 0.289790102972925 
590	 0.291002976214933 
591	 0.292191988464882 
592	 0.293333698475157 
593	 0.294508773440645 
594	 0.295687036070249 
595	 0.296876488588149 
596	 0.298269142076389 
597	 0.299629314085261 
598	 0.300927913990014 
599	 0.302244536928529 
600	 0.303494514845917 
601	 0.304686894577194 
602	 0.30590177138713 
603	 0.307348988727044 
604	 0.308731630048127 
605	 0.309992714810197 
606	 0.311210872773606 
607	 0.312679750855443 
608	 0.314138203562682 
609	 0.315436526609747 
610	 0.316597051590431 
611	 0.317755845012158 
612	 0.31891942071114 
613	 0.32005019080233 
614	 0.321090760380689 
615	 0.322207992836044 
616	 0.32335346038753 
617	 0.324340378448279 
618	 0.325348704394853 
619	 0.326391240262812 
620	 0.327443115917694 
621	 0.328461030390874 
622	 0.329348418248867 
623	 0.330189780609975 
624	 0.331115422710621 
625	 0.331976404180279 
626	 0.332796296921569 
627	 0.333615574191459 
628	 0.334477589704296 
629	 0.335259218682266 
630	 0.335985835701314 
631	 0.336716110270869 
632	 0.33746082508733 
633	 0.33812842552532 
634	 0.338712730627224 
635	 0.339283546442661 
636	 0.339904855026268 
637	 0.340490865986817 
638	 0.340981806697529 
639	 0.34143466725781 
640	 0.341994124828892 
641	 0.342545884630438 
642	 0.34290026871307 
643	 0.343350934723802 
644	 0.34375233649417 
645	 0.344049315916105 
646	 0.344375716064945 
647	 0.344694913051316 
648	 0.344949853002367 
649	 0.345116530277748 
650	 0.345338007783983 
651	 0.345559150730317 
652	 0.345741503683741 
653	 0.345870057460894 
654	 0.345984246720699 
655	 0.346080444848664 
656	 0.346146178899363 
657	 0.346161315706009 
658	 0.34619816929008 
659	 0.346226361784522 
660	 0.346169885224717 
661	 0.346017991689703 
662	 0.345900368123891 
663	 0.345825163780664 
664	 0.345603859295049 
665	 0.345484587970566 
666	 0.345344202775576 
667	 0.345050353569671 
668	 0.344895331017963 
669	 0.344719164834787 
670	 0.344447080427012 
671	 0.344091031005173 
672	 0.34368584509319 
673	 0.343320565019144 
674	 0.343010880997792 
675	 0.342579938807384 
676	 0.342176342846958 
677	 0.341765439131922 
678	 0.341262878513683 
679	 0.340833115756395 
680	 0.340341418315898 
681	 0.339761555767772 
682	 0.339238675443286 
683	 0.338759227240694 
684	 0.338268291334685 
685	 0.337709236832552 
686	 0.337067961079479 
687	 0.336404050823925 
688	 0.335762598525623 
689	 0.335163982859958 
690	 0.334477416350061 
691	 0.333798778051525 
692	 0.333187725089977 
693	 0.332579285794206 
694	 0.331805957846776 
695	 0.331002917810621 
696	 0.330347403734706 
697	 0.329557824760429 
698	 0.328746538162239 
699	 0.32798739448389 
700	 0.327285328425071 
701	 0.326504382868638 
702	 0.325683520590341 
703	 0.324862789147214 
704	 0.323952168713753 
705	 0.323130080874712 
706	 0.322369991851936 
707	 0.321545001721752 
708	 0.320685423022347 
709	 0.319813533461708 
710	 0.318951852342159 
711	 0.318121862623915 
712	 0.317236562089314 
713	 0.316304400899178 
714	 0.315380446346593 
715	 0.314595613762454 
716	 0.313719091549073 
717	 0.312746198973704 
718	 0.311840322902192 
719	 0.311011759108977 
720	 0.310137735442203 
721	 0.30917735753727 
722	 0.308286753595516 
723	 0.307306977592908 
724	 0.306305527115818 
725	 0.30539789740435 
726	 0.304534969002779 
727	 0.303628788512569 
728	 0.302671567058222 
729	 0.301732180228134 
730	 0.300835031798268 
731	 0.29991066660642 
732	 0.298919983627209 
733	 0.297918639725201 
734	 0.297073009354052 
735	 0.296245136591302 
736	 0.295232784069942 
737	 0.294315443395828 
738	 0.293388698534132 
739	 0.292422458579924 
740	 0.291496326063111 
741	 0.290623527539094 
742	 0.289756432255991 
743	 0.288858807760603 
744	 0.28796954285551 
745	 0.287027841365955 
746	 0.286092419884065 
747	 0.285252562474477 
748	 0.28437906998296 
749	 0.283535891363168 
750	 0.28273388797493 
751	 0.281899554158959 
752	 0.280980737085855 
753	 0.280076451420292 
754	 0.279268467856326 
755	 0.278478992794795 
756	 0.277751008081053 
757	 0.277014615452941 
758	 0.276167056936964 
759	 0.275293966434664 
760	 0.274511195085286 
761	 0.273812691966385 
762	 0.273041943845754 
763	 0.272318987870711 
764	 0.271606756777282 
765	 0.270870134951086 
766	 0.270179413187966 
767	 0.269543505742684 
768	 0.268872039524774 
769	 0.268070880325607 
770	 0.267392745450067 
771	 0.266787294883806 
772	 0.266186944115688 
773	 0.265543150166138 
774	 0.264973929148578 
775	 0.264408212164867 
776	 0.263783724684329 
777	 0.263176347140449 
778	 0.262609439262903 
779	 0.262073910170751 
780	 0.261544651252858 
781	 0.261019195908359 
782	 0.260536869686196 
783	 0.260062815355152 
784	 0.259494005636921 
785	 0.2590280586844 
786	 0.258620819855718 
787	 0.258203461623384 
788	 0.257762765136108 
789	 0.257390077738102 
790	 0.257006449367267 
791	 0.256520524241614 
792	 0.256125951787709 
793	 0.255818230498469 
794	 0.255545543434794 
795	 0.255224903600814 
796	 0.254802359852689 
797	 0.254404918079466 
798	 0.254122341608034 
799	 0.253928775486022 
800	 0.253683897599853 
801	 0.253376118848436 
802	 0.253061147481222 
803	 0.252853993884257 
804	 0.252707322624527 
805	 0.252533202589864 
806	 0.252252720886093 
807	 0.252055024340979 
808	 0.251872175628811 
809	 0.25167567588152 
810	 0.251523896702425 
811	 0.251370342411428 
812	 0.251223927893879 
813	 0.251093107719975 
814	 0.250936804437117 
815	 0.250929449408498 
816	 0.250939550765303 
817	 0.25076880455671 
818	 0.250599527207658 
819	 0.250566791124444 
820	 0.25059080095763 
821	 0.250445822324646 
822	 0.25045340224528 
823	 0.250476365192966 
824	 0.250427664352137 
825	 0.250415837662071 
826	 0.250414561612966 
827	 0.250425680244323 
828	 0.250454265598127 
829	 0.25050577192103 
830	 0.250500904551696 
831	 0.250482165783857 
832	 0.250545615811433 
833	 0.250712374322862 
834	 0.250801821063283 
835	 0.250800942005203 
836	 0.250865256872295 
837	 0.251000765203107 
838	 0.251121203450577 
839	 0.251197676546012 
840	 0.251327870964012 
841	 0.251456582709508 
842	 0.251580135221411 
843	 0.251705229802847 
844	 0.251819310663952 
845	 0.251991225127715 
846	 0.252223861319759 
847	 0.252481995173642 
848	 0.252740993828028 
849	 0.25294258108555 
850	 0.253094973023015 
851	 0.253260148527067 
852	 0.253391063193265 
853	 0.253631035093525 
854	 0.253960340053843 
855	 0.254099965679006 
856	 0.25439509822394 
857	 0.254723409212223 
858	 0.254956808054868 
859	 0.255247678748325 
860	 0.255500145761729 
861	 0.255737505259168 
862	 0.256004983348536 
863	 0.256236450551111 
864	 0.256603652540279 
865	 0.25701435615839 
866	 0.257257552609311 
867	 0.257547449970196 
868	 0.257906604592542 
869	 0.258287614372661 
870	 0.258600142843812 
871	 0.258918803919423 
872	 0.259275547580864 
873	 0.259661909906366 
874	 0.260017836328694 
875	 0.260391318964182 
876	 0.260745112942624 
877	 0.261067247058924 
878	 0.261453433065439 
879	 0.261964594969391 
880	 0.262508474267932 
881	 0.262964826029299 
882	 0.263368044180237 
883	 0.26372687395922 
884	 0.264083384820968 
885	 0.264494496850557 
886	 0.264994302452911 
887	 0.265532906288228 
888	 0.266021649507541 
889	 0.26638378740103 
890	 0.266886293235551 
891	 0.267425367283839 
892	 0.267913129635254 
893	 0.268353889133471 
894	 0.268874920900986 
895	 0.269395696858787 
896	 0.269874237592255 
897	 0.270412380073101 
898	 0.271034912627309 
899	 0.271596408988527 
900	 0.272013503062864 
901	 0.272472093255364 
902	 0.273065094292434 
903	 0.273709246322652 
904	 0.274300003771888 
905	 0.274937879206011 
906	 0.275597067940046 
907	 0.276180323079249 
908	 0.276630161516573 
909	 0.277237176961229 
910	 0.277871071839807 
911	 0.278506329307197 
912	 0.279179632628874 
913	 0.279757198217279 
914	 0.280395320036285 
915	 0.28110687655808 
916	 0.281764087024261 
917	 0.282390699838111 
918	 0.283000923443527 
919	 0.283610870866029 
920	 0.284240762354532 
921	 0.285025575010405 
922	 0.285731693046125 
923	 0.286293177390591 
924	 0.286972689236435 
925	 0.287699674708554 
926	 0.288392051202982 
927	 0.289030692640102 
928	 0.28971578623252 
929	 0.290553844684055 
930	 0.291388006865513 
931	 0.292057069018424 
932	 0.292552666101581 
933	 0.293270880987984 
934	 0.294058646034493 
935	 0.294754300589172 
936	 0.295707246433808 
937	 0.296463419282566 
938	 0.297104751694839 
939	 0.29784549114134 
940	 0.298664975777657 
941	 0.299453779627102 
942	 0.300269463970055 
943	 0.301155283496373 
944	 0.301817248746782 
945	 0.302481796472195 
946	 0.303225346357201 
947	 0.304013678002151 
948	 0.304721792534591 
949	 0.305313609932226 
950	 0.305953846695049 
951	 0.306802778272718 
952	 0.307504774867291 
953	 0.308101537170458 
954	 0.308763406782618 
955	 0.309630249533022 
956	 0.31036784347154 
957	 0.310997521374907 
958	 0.311604456180851 
959	 0.312268482029663 
960	 0.312851830455775 
961	 0.313565826945868 
962	 0.31443816427595 
963	 0.315316100228867 
964	 0.315873136897627 
965	 0.316647860578493 
966	 0.31761991313152 
967	 0.31843308695354 
968	 0.319431641238342 
969	 0.320402899666861 
970	 0.32127403110546 
971	 0.322127202435978 
972	 0.323185586806684 
973	 0.324195290084052 
974	 0.32510686177831 
975	 0.326023176258264 
976	 0.326892059263048 
977	 0.327790221550576 
978	 0.328726606794943 
979	 0.329669589392407 
980	 0.330684968218796 
981	 0.33159117059314 
982	 0.332422892602035 
983	 0.333339560207642 
984	 0.334326930841195 
985	 0.335258905991814 
986	 0.336210768440344 
987	 0.337322527558814 
988	 0.338471086625393 
989	 0.339289372048065 
990	 0.340079194089008 
991	 0.341268835042527 
992	 0.342165807475676 
993	 0.343078967756859 
994	 0.344112493418849 
995	 0.345234931702412 
996	 0.346384978349123 
997	 0.347426703531354 
998	 0.348374309422904 
999	 0.349336198164349 
1000	 0.350479526524166 
1001	 0.356203532042896 
1002	 0.357238550934124 
1003	 0.35823821005991 
1004	 0.359273688114335 
1005	 0.36032846987528 
1006	 0.361339926473641 
1007	 0.362348831977905 
1008	 0.363349538475777 
1009	 0.364324639713599 
1010	 0.365348001830143 
1011	 0.366373645746775 
1012	 0.367396723163543 
1013	 0.368442437529183 
1014	 0.369425986070992 
1015	 0.370411953675284 
1016	 0.371486267718527 
1017	 0.3724827403143 
1018	 0.37344258208613 
1019	 0.374378080442751 
1020	 0.375370002512516 
1021	 0.376299001071554 
1022	 0.377323722774057 
1023	 0.378349391985994 
1024	 0.379244558719493 
1025	 0.380159442841719 
1026	 0.381075090143152 
1027	 0.381991781340175 
1028	 0.382959869440126 
1029	 0.383927014680271 
1030	 0.384814709775317 
1031	 0.385697212595939 
1032	 0.386542347139414 
1033	 0.38740529237724 
1034	 0.388262524970857 
1035	 0.389146634714998 
1036	 0.390047446576024 
1037	 0.39093035966376 
1038	 0.391808326215531 
1039	 0.392684550561398 
1040	 0.39352082965903 
1041	 0.394317474928928 
1042	 0.395194436095585 
1043	 0.396050689302581 
1044	 0.39685597113529 
1045	 0.39763921177976 
1046	 0.398479739662163 
1047	 0.399233264186305 
1048	 0.400013474293991 
1049	 0.400876905231537 
1050	 0.401687149706161 
1051	 0.402524192837217 
1052	 0.403313259250153 
1053	 0.404080674148739 
1054	 0.404921279593937 
1055	 0.405696878784021 
1056	 0.406450299924062 
1057	 0.40723355559664 
1058	 0.408017421631953 
1059	 0.408797254321248 
1060	 0.409577499297834 
1061	 0.410401606130845 
1062	 0.411186610554664 
1063	 0.411990497794585 
1064	 0.412820475638932 
1065	 0.413628438996391 
1066	 0.414455655466021 
1067	 0.41530550687999 
1068	 0.416102990488271 
1069	 0.416875482701793 
1070	 0.417702559456513 
1071	 0.418554146322758 
1072	 0.419372251161969 
1073	 0.420233960886834 
1074	 0.42106067287991 
1075	 0.421837833474505 
1076	 0.422605169675498 
1077	 0.423422935409651 
1078	 0.424190116716164 
1079	 0.424983584688662 
1080	 0.425759635470514 
1081	 0.426464091229302 
1082	 0.427204152271404 
1083	 0.427943275421459 
1084	 0.428663478975701 
1085	 0.429394965142292 
1086	 0.430180968674281 
1087	 0.430872640136492 
1088	 0.431520922389756 
1089	 0.432152715841765 
1090	 0.432738326983179 
1091	 0.433310664748537 
1092	 0.433887163148496 
1093	 0.434426298368277 
1094	 0.434983595557635 
1095	 0.435562087799165 
1096	 0.436132902808184 
1097	 0.43667509853208 
1098	 0.437193891620976 
1099	 0.437724275607303 
1100	 0.438166560399356 
1101	 0.438553484617583 
1102	 0.438920468024645 
1103	 0.439246185149323 
1104	 0.439508906787663 
1105	 0.439788288181039 
1106	 0.440089344849795 
1107	 0.440392820945958 
1108	 0.440661965953196 
1109	 0.440905340010153 
1110	 0.441149294738869 
1111	 0.441365426633203 
1112	 0.441562112387309 
1113	 0.441737146394683 
1114	 0.441884354318139 
1115	 0.442025227258285 
1116	 0.442154098625591 
1117	 0.442257725542307 
1118	 0.442342614441916 
1119	 0.442435380906518 
1120	 0.442484684927428 
1121	 0.442502312499046 
1122	 0.442494103927275 
1123	 0.442475365441163 
1124	 0.442438918972565 
1125	 0.442392180406513 
1126	 0.442291677935607 
1127	 0.442173756123663 
1128	 0.442020725683453 
1129	 0.441816058377132 
1130	 0.441611320535552 
1131	 0.441426724108771 
1132	 0.441152543420372 
1133	 0.440846538762133 
1134	 0.440484805359118 
1135	 0.440082558279078 
1136	 0.439602437650075 
1137	 0.43905277612476 
1138	 0.438457995486355 
1139	 0.437767135869009 
1140	 0.437010077264914 
1141	 0.436135142146669 
1142	 0.435204048815437 
1143	 0.434125754374159 
1144	 0.43292998742662 
1145	 0.431635981642395 
1146	 0.430171912083287 
1147	 0.428737679346486 
1148	 0.427167815100968 
1149	 0.425684899407006 
1150	 0.424203561569908 
1151	 0.422766848488564 
1152	 0.421359095508667 
1153	 0.420065905275394 
1154	 0.418917065356982 
1155	 0.417798821483579 
1156	 0.416965632058892 
1157	 0.416314805749907 
1158	 0.415809985715639 
1159	 0.415506233180514 
1160	 0.415312974028572 
1161	 0.415294574280414 
1162	 0.415311162683735 
1163	 0.415526853775492 
1164	 0.415672177255496 
1165	 0.415850452054321 
1166	 0.416022803128623 
1167	 0.416131459293013 
1168	 0.416211657346994 
1169	 0.416259046339124 
1170	 0.416262204461888 
1171	 0.416250050120104 
1172	 0.416201771922483 
1173	 0.416162460642257 
1174	 0.416095009934227 
1175	 0.416039814537682 
1176	 0.416005853950268 
1177	 0.415940128920176 
1178	 0.41583479775644 
1179	 0.415764069330218 
1180	 0.415706110256006 
1181	 0.415632030696225 
1182	 0.415572030480129 
1183	 0.415512410517264 
1184	 0.415421184979937 
1185	 0.415300832176248 
1186	 0.415178182833583 
1187	 0.415037191594345 
1188	 0.414908917296423 
1189	 0.414765835490186 
1190	 0.414640498507599 
1191	 0.414536060099395 
1192	 0.414416840872609 
1193	 0.414298988237113 
1194	 0.414171826009453 
1195	 0.414033751600218 
1196	 0.41389844749695 
1197	 0.413752304125565 
1198	 0.413617623235897 
1199	 0.413487771314166 
1200	 0.413355504427162 
1201	 0.413247098057459 
1202	 0.413153922681246 
1203	 0.413060811492111 
1204	 0.412978824635326 
1205	 0.412904094337614 
1206	 0.412823821274577 
1207	 0.412769686089044 
1208	 0.412763418647364 
1209	 0.412709496438416 
1210	 0.412637885223878 
1211	 0.412579289519031 
1212	 0.41249255902587 
1213	 0.412425420097166 
1214	 0.412390094949419 
1215	 0.412343599276031 
1216	 0.412294635928577 
1217	 0.412245298729054 
1218	 0.412183226014726 
1219	 0.412105077032057 
1220	 0.412052891708135 
1221	 0.412004718804643 
1222	 0.411952519977259 
1223	 0.411914782436815 
1224	 0.411873097219545 
1225	 0.411816595347317 
1226	 0.411772399538346 
1227	 0.411756741604027 
1228	 0.411713738182237 
1229	 0.41166012696417 
1230	 0.411599978311623 
1231	 0.411521364901255 
1232	 0.41144342763215 
1233	 0.411362504989947 
1234	 0.411271736883482 
1235	 0.411201436133055 
1236	 0.411134865562033 
1237	 0.411074905623367 
1238	 0.411044534506585 
1239	 0.410973572471465 
1240	 0.410878714930659 
1241	 0.410799448118542 
1242	 0.410705160818629 
1243	 0.410622326768164 
1244	 0.41055763607429 
1245	 0.410483659923763 
1246	 0.410394212771235 
1247	 0.410320223570184 
1248	 0.410252760451041 
1249	 0.410199762390894 
1250	 0.410125551859859 
1251	 0.410049594433059 
1252	 0.409953128415866 
1253	 0.409827987355014 
1254	 0.40971692422512 
1255	 0.409619606258228 
1256	 0.409480360008092 
1257	 0.409326716794297 
1258	 0.409155779791473 
1259	 0.408915777402447 
1260	 0.408743167556358 
1261	 0.408608495272516 
1262	 0.408448637943612 
1263	 0.408308507000732 
1264	 0.408160099210794 
1265	 0.407973116705021 
1266	 0.407814092531532 
1267	 0.407684709113561 
1268	 0.407552470513161 
1269	 0.407405070112846 
1270	 0.407258216410596 
1271	 0.407105098275976 
1272	 0.406943772231026 
1273	 0.406771057508579 
1274	 0.406594747626856 
1275	 0.406408913040528 
1276	 0.406208100899617 
1277	 0.406002451363497 
1278	 0.405797676303443 
1279	 0.405578018929041 
1280	 0.405355082896492 
1281	 0.405103991525569 
1282	 0.404825119100389 
1283	 0.404550488018009 
1284	 0.404266689844562 
1285	 0.403961241002851 
1286	 0.403646101023144 
1287	 0.40334232832239 
1288	 0.403021025897931 
1289	 0.402675960140055 
1290	 0.402338180726829 
1291	 0.401991754476414 
1292	 0.401665820727638 
1293	 0.401352752618317 
1294	 0.401019196729093 
1295	 0.400708980741141 
1296	 0.400357048846407 
1297	 0.399966132491957 
1298	 0.39957905392307 
1299	 0.399181685117345 
1300	 0.398775099176058 
1301	 0.398362581937585 
1302	 0.397935258733361 
1303	 0.397497865820522 
1304	 0.397056324096533 
1305	 0.396582551513008 
1306	 0.39607769959788 
1307	 0.395536522828078 
1308	 0.394948636442909 
1309	 0.394349034197324 
1310	 0.393734052026008 
1311	 0.393060883753279 
1312	 0.39235056730801 
1313	 0.391626661571545 
1314	 0.390877030729835 
1315	 0.390073360797204 
1316	 0.389253113005009 
1317	 0.388378143875463 
1318	 0.387430993292166 
1319	 0.386475929780286 
1320	 0.385525770456566 
1321	 0.384506330421346 
1322	 0.383460823559111 
1323	 0.382343192893665 
1324	 0.381168950283573 
1325	 0.379918641313138 
1326	 0.378624485724344 
1327	 0.37730968857987 
1328	 0.375926671240416 
1329	 0.374546670736901 
1330	 0.373131678761374 
1331	 0.371684154213937 
1332	 0.370201755955253 
1333	 0.368702951748547 
1334	 0.367163220931012 
1335	 0.365570188009569 
1336	 0.36399250977176 
1337	 0.362395230575415 
1338	 0.360803817751212 
1339	 0.359198971339085 
1340	 0.35760577725839 
1341	 0.356015850830387 
1342	 0.354429091701387 
1343	 0.352825369222421 
1344	 0.351271087094877 
1345	 0.349724311241144 
1346	 0.348204644826735 
1347	 0.346749118981047 
1348	 0.345312819046557 
1349	 0.343899169941246 
1350	 0.342492121546638 
1351	 0.341103813362331 
1352	 0.339721488696323 
1353	 0.338374140479576 
1354	 0.337044526239897 
1355	 0.335739648682765 
1356	 0.334466561966571 
1357	 0.333193251987473 
1358	 0.331936796323385 
1359	 0.330683884307897 
1360	 0.329442637044748 
1361	 0.328200548324114 
1362	 0.326961941368079 
1363	 0.325735959401531 
1364	 0.324532062129794 
1365	 0.323305959923876 
1366	 0.322086104915136 
1367	 0.320860730888416 
1368	 0.319604096229787 
1369	 0.318328427698661 
1370	 0.317011889199504 
1371	 0.315648454071604 
1372	 0.314243240126365 
1373	 0.312775287997988 
1374	 0.311223449514453 
1375	 0.309616781759239 
1376	 0.307902198284277 
1377	 0.306107818716578 
1378	 0.304190386215308 
1379	 0.302165690153265 
1380	 0.300057271743531 
1381	 0.297851934724136 
1382	 0.295531579610606 
1383	 0.293150499080102 
1384	 0.290621244237809 
1385	 0.288009692314619 
1386	 0.285223166356837 
1387	 0.282328724837774 
1388	 0.279254865671449 
1389	 0.276040976812117 
1390	 0.272605693817412 
1391	 0.269020062004775 
1392	 0.265228951561905 
1393	 0.261266272924875 
1394	 0.257209773112204 
1395	 0.252949706886414 
1396	 0.248610138697036 
1397	 0.24422986124113 
1398	 0.239695275592346 
1399	 0.235223651894699 
1400	 0.230683883328166 
1401	 0.226281004622224 
1402	 0.221833516814456 
1403	 0.2176318730096 
1404	 0.213492561440875 
1405	 0.20966569297933 
1406	 0.205980614291879 
1407	 0.202605033071414 
1408	 0.199462665298476 
1409	 0.196634433694646 
1410	 0.194099332937455 
1411	 0.191825767701065 
1412	 0.189849588205126 
1413	 0.188131399813487 
1414	 0.186646807540217 
1415	 0.185290768666234 
1416	 0.184090145677429 
1417	 0.182993981859228 
1418	 0.181940260154855 
1419	 0.18094425979196 
1420	 0.179950075298943 
1421	 0.178975694439416 
1422	 0.177989321117903 
1423	 0.176980958157338 
1424	 0.175988793649002 
1425	 0.174990279133976 
1426	 0.174022682396557 
1427	 0.173060392202556 
1428	 0.172135857514337 
1429	 0.171249096604556 
1430	 0.170362465640405 
1431	 0.169486387296424 
1432	 0.168632393043624 
1433	 0.167793908265099 
1434	 0.166966574275124 
1435	 0.166164698155825 
1436	 0.165370628465942 
1437	 0.16457876697845 
1438	 0.163807983357908 
1439	 0.163065225446 
1440	 0.162312653321584 
1441	 0.16156977026006 
1442	 0.160824490542216 
1443	 0.160079227087231 
1444	 0.159353233017433 
1445	 0.158625114034828 
1446	 0.157917269377757 
1447	 0.157219414628095 
1448	 0.156521752070446 
1449	 0.155851482669077 
1450	 0.155191618315388 
1451	 0.154569785393433 
1452	 0.153972834304122 
1453	 0.15340539425944 
1454	 0.152879968302741 
1455	 0.15235641184484 
1456	 0.15185515659782 
1457	 0.151354066763309 
1458	 0.150867671469959 
1459	 0.15037114175383 
1460	 0.149886532381399 
1461	 0.149382888034329 
1462	 0.148859827990577 
1463	 0.148354516444151 
1464	 0.147838337114079 
1465	 0.147338543807732 
1466	 0.146846592584653 
1467	 0.146371129335809 
1468	 0.145888497416407 
1469	 0.145453607409541 
1470	 0.145047273293694 
1471	 0.144668917990696 
1472	 0.144326119775718 
1473	 0.144010345883875 
1474	 0.143721216046142 
1475	 0.143469753391145 
1476	 0.143259959219006 
1477	 0.143088160954111 
1478	 0.142956814620839 
1479	 0.142857057725302 
1480	 0.1427875671969 
1481	 0.142752007378748 
1482	 0.142735474619903 
1483	 0.142751303175405 
1484	 0.142771449997578 
1485	 0.14280931873716 
1486	 0.142867182411073 
1487	 0.142943864390336 
1488	 0.143027546991558 
1489	 0.143137830045584 
1490	 0.143236242560146 
1491	 0.143342847760214 
1492	 0.143436398417433 
1493	 0.143519971399208 
1494	 0.143616351819666 
1495	 0.143712030858448 
1496	 0.143806055745836 
1497	 0.143916978517108 
1498	 0.144007624684077 
1499	 0.144079598390323 
1500	 0.14415622396093 
1501	 0.144233751852566 
1502	 0.144301753539817 
1503	 0.14436397292595 
1504	 0.144425409106408 
1505	 0.144477016366134 
1506	 0.1445240186357 
1507	 0.144559284533575 
1508	 0.144589556617876 
1509	 0.144623137996347 
1510	 0.144644086931481 
1511	 0.144673114924435 
1512	 0.144694380916258 
1513	 0.144688649409945 
1514	 0.144679893043147 
1515	 0.144679666593542 
1516	 0.144679145176229 
1517	 0.144672304726913 
1518	 0.144672467271826 
1519	 0.14466351377358 
1520	 0.144640583095704 
1521	 0.144623315852572 
1522	 0.144613170102064 
1523	 0.144586889140306 
1524	 0.144550746489674 
1525	 0.14451318869528 
1526	 0.144465525426219 
1527	 0.144424025624796 
1528	 0.144383349444176 
1529	 0.144341684650354 
1530	 0.14431244156983 
1531	 0.144256519341335 
1532	 0.144186557719186 
1533	 0.144109213115033 
1534	 0.144007662284803 
1535	 0.143919327322281 
1536	 0.143835613175879 
1537	 0.143747949327114 
1538	 0.143663669650895 
1539	 0.14356652779465 
1540	 0.143455046481106 
1541	 0.143351528984411 
1542	 0.143253115455443 
1543	 0.143143846496586 
1544	 0.143028146481539 
1545	 0.142916876649142 
1546	 0.142806460434062 
1547	 0.142679320593931 
1548	 0.142564751896506 
1549	 0.142440168821772 
1550	 0.142283319773124 
1551	 0.142142148263929 
1552	 0.142000627410415 
1553	 0.1418776292477 
1554	 0.141776353267988 
1555	 0.141647492457813 
1556	 0.1415138686003 
1557	 0.141373779641449 
1558	 0.141232579669583 
1559	 0.141107059233832 
1560	 0.140964777928013 
1561	 0.14082541861448 
1562	 0.140672085148372 
1563	 0.140496096113446 
1564	 0.140341152701316 
1565	 0.140194943400529 
1566	 0.140036211069329 
1567	 0.139883960560074 
1568	 0.139714093896272 
1569	 0.139517554695761 
1570	 0.139353707739689 
1571	 0.139202454850662 
1572	 0.139040414221478 
1573	 0.138891364279752 
1574	 0.138730566824977 
1575	 0.138543941497103 
1576	 0.1383848044311 
1577	 0.138250022635975 
1578	 0.13809428356776 
1579	 0.137943079386443 
1580	 0.137780947079346 
1581	 0.137593085861795 
1582	 0.137425915850085 
1583	 0.137267456913499 
1584	 0.13710474558354 
1585	 0.136948519033843 
1586	 0.13679039787791 
1587	 0.13663456312058 
1588	 0.136468702544847 
1589	 0.136299847322507 
1590	 0.136128946632177 
1591	 0.135944259729816 
1592	 0.135766627841612 
1593	 0.135593384477992 
1594	 0.135420644075677 
1595	 0.135251548569792 
1596	 0.135075163307084 
1597	 0.134894700213223 
1598	 0.134718403718589 
1599	 0.134550667486967 
1600	 0.134364817261138 
1601	 0.134158843882415 
1602	 0.133971878581001 
1603	 0.133787151532497 
1604	 0.133595213039746 
1605	 0.133407673405752 
1606	 0.133230838721222 
1607	 0.133054101247124 
1608	 0.132868698796411 
1609	 0.132698569693046 
1610	 0.132528339506983 
1611	 0.132332940850419 
1612	 0.132119908368723 
1613	 0.131905807008125 
1614	 0.13171209272784 
1615	 0.131530621810504 
1616	 0.131352811268316 
1617	 0.131177769291392 
1618	 0.130993270726968 
1619	 0.130793383938929 
1620	 0.130585400399968 
1621	 0.130386828222436 
1622	 0.130190114841615 
1623	 0.129991294969035 
1624	 0.129794218064547 
1625	 0.129596974884777 
1626	 0.129400533416707 
1627	 0.129194069674168 
1628	 0.128981918175103 
1629	 0.128777605418055 
1630	 0.128567417384393 
1631	 0.128364437290284 
1632	 0.128173621556775 
1633	 0.127975058767713 
1634	 0.127774511773373 
1635	 0.127564118240631 
1636	 0.127359138610393 
1637	 0.127126791238686 
1638	 0.126866717980903 
1639	 0.126629808731058 
1640	 0.1263832168029 
1641	 0.126151859980824 
1642	 0.125941652876177 
1643	 0.125714513845325 
1644	 0.125482078874849 
1645	 0.125252354348798 
1646	 0.12501567086891 
1647	 0.124792856139689 
1648	 0.124582157257501 
1649	 0.124357318989686 
1650	 0.124137510552056 
1651	 0.123905504761252 
1652	 0.123661158871186 
1653	 0.123413495128637 
1654	 0.123156955114157 
1655	 0.122907798540426 
1656	 0.12265533432115 
1657	 0.122402674970699 
1658	 0.122152237468166 
1659	 0.121905223869347 
1660	 0.121661895127991 
1661	 0.121404770953763 
1662	 0.121148968922747 
1663	 0.120885426463405 
1664	 0.12059843658501 
1665	 0.120331395755472 
1666	 0.120069621443848 
1667	 0.119816589459785 
1668	 0.119570975090778 
1669	 0.119331132776157 
1670	 0.119108567061161 
1671	 0.118871251103873 
1672	 0.118631579755194 
1673	 0.118393355851831 
1674	 0.118153324392593 
1675	 0.117907144957292 
1676	 0.117667601801472 
1677	 0.117409918863682 
1678	 0.117123475617993 
1679	 0.11686681489362 
1680	 0.116621996010243 
1681	 0.11636381437796 
1682	 0.11610450405329 
1683	 0.115863491980819 
1684	 0.115617840854145 
1685	 0.115381451757148 
1686	 0.115177925084279 
1687	 0.114950897518195 
1688	 0.114708475028697 
1689	 0.114470090403872 
1690	 0.114228912491845 
1691	 0.113992730218889 
1692	 0.113759498346701 
1693	 0.113519709128506 
1694	 0.113279597948129 
1695	 0.113041667404243 
1696	 0.112788605536902 
1697	 0.112559559526473 
1698	 0.112349509212278 
1699	 0.11213137082447 
1700	 0.111929014797085 
1701	 0.111707476269596 
1702	 0.111470894573643 
1703	 0.111246323779731 
1704	 0.111017693461497 
1705	 0.110792351070808 
1706	 0.110579411276028 
1707	 0.110349233172895 
1708	 0.110095071167488 
1709	 0.109880883584182 
1710	 0.109681899951267 
1711	 0.1094821368803 
1712	 0.109320985259507 
1713	 0.109112934705245 
1714	 0.108860021065698 
1715	 0.10864971866495 
1716	 0.10843911107062 
1717	 0.108246351770317 
1718	 0.10809039384372 
1719	 0.107913210585762 
1720	 0.107732095567531 
1721	 0.107543677624582 
1722	 0.107353162223769 
1723	 0.10715934276813 
1724	 0.106948905680021 
1725	 0.10676069348708 
1726	 0.1065821434086 
1727	 0.106400869162156 
1728	 0.106229482821806 
1729	 0.106055967100441 
1730	 0.10587250556697 
1731	 0.105712382270556 
1732	 0.105565958961794 
1733	 0.105417822577142 
1734	 0.105287128103942 
1735	 0.105135413000424 
1736	 0.104971773968904 
1737	 0.104823824740959 
1738	 0.104676039167071 
1739	 0.10453109959672 
1740	 0.104388417502621 
1741	 0.104259115205917 
1742	 0.104138332273285 
1743	 0.104010429564268 
1744	 0.103897932454517 
1745	 0.103764467553508 
1746	 0.103609169732913 
1747	 0.103449342587061 
1748	 0.103323106719747 
1749	 0.103177525331852 
1750	 0.103044255946972 
1751	 0.10295027550733 
1752	 0.102827628967405 
1753	 0.102727718037591 
1754	 0.102618781304938 
1755	 0.10245370705261 
1756	 0.102328862910652 
1757	 0.102222215906411 
1758	 0.10212327670988 
1759	 0.10206555313447 
1760	 0.101985175747732 
1761	 0.101865737098185 
1762	 0.10174125321793 
1763	 0.101602142761393 
1764	 0.101471582349527 
1765	 0.101363453897912 
1766	 0.101253246853533 
1767	 0.101163791208128 
1768	 0.101065980356145 
1769	 0.100950368239789 
1770	 0.100845321753415 
1771	 0.100728637877641 
1772	 0.100621660675541 
1773	 0.100547005871046 
1774	 0.100465935587676 
1775	 0.10036279885523 
1776	 0.10026963384837 
1777	 0.100182911659916 
1778	 0.10009439948213 
1779	 0.100018190449531 
1780	 9.99241828596904E-02 
1781	 9.98006216420411E-02 
1782	 9.96934247636093E-02 
1783	 9.96186876765483E-02 
1784	 9.95335830998446E-02 
1785	 9.94464202345665E-02 
1786	 9.93748210096429E-02 
1787	 9.93224453321856E-02 
1788	 9.92414146114418E-02 
1789	 9.91515804916004E-02 
1790	 9.90725997143002E-02 
1791	 9.89683721556532E-02 
1792	 9.88919718966469E-02 
1793	 9.88400009161319E-02 
1794	 9.87980677095713E-02 
1795	 9.87830935592781E-02 
1796	 9.87249724919384E-02 
1797	 9.86706300837334E-02 
1798	 9.86079460125088E-02 
1799	 9.84889364471895E-02 
1800	 9.84106679826809E-02 
1801	 9.75866585030103E-02 
1802	 9.76029154913727E-02 
1803	 9.76019636079549E-02 
1804	 9.75940980045561E-02 
1805	 9.76133236335992E-02 
1806	 9.76000917321602E-02 
1807	 9.76203358816115E-02 
1808	 9.76230539115411E-02 
1809	 9.76206428137321E-02 
1810	 9.76048232527939E-02 
1811	 9.75896658196727E-02 
1812	 9.75559391464799E-02 
1813	 0.097497115827509 
1814	 9.74720569576757E-02 
1815	 9.74438446816236E-02 
1816	 9.74143100931934E-02 
1817	 9.73791781775115E-02 
1818	 0.097339678400148 
1819	 9.73095281677593E-02 
1820	 9.72820307641186E-02 
1821	 9.72434056710436E-02 
1822	 9.72200529854651E-02 
1823	 9.71998519125436E-02 
1824	 9.71868807799044E-02 
1825	 9.71644236071428E-02 
1826	 9.71234187765675E-02 
1827	 9.71235636255222E-02 
1828	 9.71076619467171E-02 
1829	 9.70890321302146E-02 
1830	 9.70529477159847E-02 
1831	 9.70169174625856E-02 
1832	 9.69584825207413E-02 
1833	 0.096905256364062 
1834	 9.68539587969653E-02 
1835	 9.68066008583322E-02 
1836	 9.67676842996553E-02 
1837	 9.67196124054987E-02 
1838	 9.66784088597585E-02 
1839	 0.096627927807727 
1840	 9.65845673238735E-02 
1841	 9.65228595749897E-02 
1842	 9.64656119458412E-02 
1843	 9.63984713522786E-02 
1844	 9.63134661199638E-02 
1845	 0.096243569691188 
1846	 9.61743410202024E-02 
1847	 9.60756158103818E-02 
1848	 9.59757910659507E-02 
1849	 9.58831931918528E-02 
1850	 0.095776933863186 
1851	 9.56463590985531E-02 
1852	 9.55329755387224E-02 
1853	 9.54173182391787E-02 
1854	 0.095261057018221 
1855	 9.51070004427694E-02 
1856	 9.49251757136273E-02 
1857	 9.47334022797414E-02 
1858	 9.45511495171338E-02 
1859	 9.43491181389291E-02 
1860	 9.41373524718663E-02 
1861	 9.39181130375408E-02 
1862	 9.36765826140526E-02 
1863	 0.093419635938789 
1864	 9.31663760510103E-02 
1865	 9.28958508002577E-02 
1866	 9.25884569328274E-02 
1867	 9.22669290054031E-02 
1868	 9.19031158351682E-02 
1869	 9.14907883104835E-02 
1870	 9.10737159875818E-02 
1871	 9.06402673750339E-02 
1872	 9.01839709014614E-02 
1873	 8.97262059690853E-02 
1874	 8.92618499715086E-02 
1875	 0.088773320174143 
1876	 0.088266254093158 
1877	 0.087733039295599 
1878	 8.71723251230823E-02 
1879	 8.65807208454814E-02 
1880	 8.59423584774665E-02 
1881	 8.52700072851147E-02 
1882	 8.45510608418964E-02 
1883	 8.37856822658885E-02 
1884	 8.29717373318452E-02 
1885	 8.21394687567536E-02 
1886	 8.12444769784782E-02 
1887	 8.02868925880168E-02 
1888	 7.93032278026308E-02 
1889	 7.82533841059247E-02 
1890	 0.0771753148781 
1891	 7.60733610798721E-02 
1892	 7.49336886212886E-02 
1893	 7.37697253467352E-02 
1894	 7.25820302499767E-02 
1895	 0.071355424001832 
1896	 7.00980028937735E-02 
1897	 6.88377084132613E-02 
1898	 6.75556298308002E-02 
1899	 6.62835068275311E-02 
1900	 6.50653743522479E-02 
1901	 6.38896264804016E-02 
1902	 6.28020617165495E-02 
1903	 6.17749079023484E-02 
1904	 6.08505453109207E-02 
1905	 6.00046403525287E-02 
1906	 5.92622149009143E-02 
1907	 5.85874699973932E-02 
1908	 5.80027117110133E-02 
1909	 5.75026518107979E-02 
1910	 5.70324674504647E-02 
1911	 5.66197936920368E-02 
1912	 5.62526050565343E-02 
1913	 5.59058945737574E-02 
1914	 5.55911870370609E-02 
1915	 5.52984537079944E-02 
1916	 0.055044995046851 
1917	 5.47996936874288E-02 
1918	 5.45605742664996E-02 
1919	 5.43135815816661E-02 
1920	 5.40692061066733E-02 
1921	 5.38335414896385E-02 
1922	 0.053592744470088 
1923	 0.053357569436676 
1924	 5.31487486300214E-02 
1925	 0.052958708101954 
1926	 0.052767784041328 
1927	 0.05259075921149 
1928	 5.24380623239367E-02 
1929	 5.22570532683414E-02 
1930	 5.20752760142079E-02 
1931	 5.19077154554214E-02 
1932	 5.17501071908185E-02 
1933	 5.16092377282988E-02 
1934	 5.14835793622062E-02 
1935	 5.13562834179938E-02 
1936	 5.12308301094024E-02 
1937	 0.051114650150642 
1938	 5.10056289258381E-02 
1939	 5.08998419728946E-02 
1940	 0.050795248364578 
1941	 5.07128406818696E-02 
1942	 5.06407202331195E-02 
1943	 5.05603637561679E-02 
1944	 5.04932946665512E-02 
1945	 5.04410423657206E-02 
1946	 5.03903320738552E-02 
1947	 5.03426820465115E-02 
1948	 5.03064342172609E-02 
1949	 0.050276639550975 
1950	 5.02532822353298E-02 
1951	 5.02496791623738E-02 
1952	 5.02231992212885E-02 
1953	 5.01953895278821E-02 
1954	 5.01777983099822E-02 
1955	 0.050155482156268 
1956	 5.01302596677348E-02 
1957	 5.01062741471182E-02 
1958	 5.00956363836197E-02 
1959	 5.00725380046726E-02 
1960	 5.00292181132485E-02 
1961	 5.00020446943092E-02 
1962	 4.99834930485452E-02 
1963	 4.99614040166307E-02 
1964	 4.99320509466052E-02 
1965	 4.99244862397731E-02 
1966	 0.049924904165092 
1967	 4.99219840740157E-02 
1968	 4.99370878297881E-02 
1969	 4.99778514276974E-02 
1970	 5.00066299109201E-02 
1971	 0.05002761750899 
1972	 5.00699852876113E-02 
1973	 5.01260735952357E-02 
1974	 5.01785835422124E-02 
1975	 0.050224606236694 
1976	 5.03083892477533E-02 
1977	 5.04010597911756E-02 
1978	 5.04907987777423E-02 
1979	 5.06090344557054E-02 
1980	 5.07321880636837E-02 
1981	 5.08570813078724E-02 
1982	 5.09895055831473E-02 
1983	 5.11077816323708E-02 
1984	 5.12149747217905E-02 
1985	 5.13446264248067E-02 
1986	 5.14772167440805E-02 
1987	 5.16041343581772E-02 
1988	 5.17396344797887E-02 
1989	 5.18962550914715E-02 
1990	 5.20216468496655E-02 
1991	 5.21387776327698E-02 
1992	 5.22656739486388E-02 
1993	 5.24045092899997E-02 
1994	 5.25228628830999E-02 
1995	 5.26230199787844E-02 
1996	 5.27492049854955E-02 
1997	 0.052880963493869 
1998	 5.30090738955172E-02 
1999	 5.31523753274813E-02 
2000	 5.32886248655789E-02 
2001	 5.34212407088424E-02 
2002	 5.35471100421494E-02 
2003	 5.36629805877726E-02 
2004	 5.37768779996992E-02 
2005	 0.053897012198416 
2006	 5.40087804431042E-02 
2007	 5.41231010963578E-02 
2008	 5.42504203658797E-02 
2009	 0.054366039521142 
2010	 5.44624365876213E-02 
2011	 5.45759891050245E-02 
2012	 5.47029318512501E-02 
2013	 5.48220111576185E-02 
2014	 5.49494223016935E-02 
2015	 5.50570285635121E-02 
2016	 5.51703682455017E-02 
2017	 5.52995214482771E-02 
2018	 5.54178407255225E-02 
2019	 5.55438473062574E-02 
2020	 5.56570422930329E-02 
2021	 5.57535634637435E-02 
2022	 5.58619771867172E-02 
2023	 5.59684614059362E-02 
2024	 5.60820586085483E-02 
2025	 5.62034495801614E-02 
2026	 5.63232300809204E-02 
2027	 5.64364728403914E-02 
2028	 5.65680290549886E-02 
2029	 5.67008446132739E-02 
2030	 5.68414738447184E-02 
2031	 0.056974079788923 
2032	 5.71149308813646E-02 
2033	 0.057242080517024 
2034	 5.73608437464884E-02 
2035	 5.74769187965395E-02 
2036	 5.75854638572253E-02 
2037	 5.76961199597592E-02 
2038	 5.77974435548371E-02 
2039	 5.79053146699823E-02 
2040	 5.80235550138453E-02 
2041	 5.81356477036162E-02 
2042	 0.058227198602353 
2043	 0.058326854885747 
2044	 5.84217671142455E-02 
2045	 5.84998441708308E-02 
2046	 5.85968316256237E-02 
2047	 5.87022722170143E-02 
2048	 5.88115522753686E-02 
2049	 5.89349972039605E-02 
2050	 5.90437453986747E-02 
2051	 5.91584949493675E-02 
2052	 5.92598615063213E-02 
2053	 5.93354408534966E-02 
2054	 5.94277982229545E-02 
2055	 5.95240726670217E-02 
2056	 5.96186129177284E-02 
2057	 5.97181691543073E-02 
2058	 5.98283731640628E-02 
2059	 5.99313690686579E-02 
2060	 6.00328456613138E-02 
2061	 6.01326011694654E-02 
2062	 6.02315697373963E-02 
2063	 6.03307904773596E-02 
2064	 6.04299860799842E-02 
2065	 6.05241842842891E-02 
2066	 6.06174464461508E-02 
2067	 0.060709310304654 
2068	 6.07898163367799E-02 
2069	 6.08803962465671E-02 
2070	 6.09728287246561E-02 
2071	 0.061069607041535 
2072	 6.11633449373538E-02 
2073	 6.12606703655106E-02 
2074	 0.061354693263686 
2075	 0.061449797765394 
2076	 6.15361480322052E-02 
2077	 6.16046341589775E-02 
2078	 6.16991275653199E-02 
2079	 6.18028021188703E-02 
2080	 6.19035334404797E-02 
2081	 6.20291913291977E-02 
2082	 6.21380176975208E-02 
2083	 6.22302656008662E-02 
2084	 6.23242040564804E-02 
2085	 0.062421502849255 
2086	 6.25225306350984E-02 
2087	 6.26141560079192E-02 
2088	 6.26992730853323E-02 
2089	 6.27940352647992E-02 
2090	 6.28953430510284E-02 
2091	 6.29791719574605E-02 
2092	 6.30550335234814E-02 
2093	 6.31404392465562E-02 
2094	 6.32093409303252E-02 
2095	 6.32925360103494E-02 
2096	 6.34007611370715E-02 
2097	 6.34981437525414E-02 
2098	 6.35732534766427E-02 
2099	 6.36776143613287E-02 
2100	 6.37919685467998E-02 
2101	 6.39205098284301E-02 
2102	 0.06403824135534 
2103	 6.41765351577651E-02 
2104	 6.42901145230059E-02 
2105	 6.43791893762272E-02 
2106	 6.44845248590852E-02 
2107	 6.45924236984474E-02 
2108	 6.46983944462575E-02 
2109	 6.47982745150934E-02 
2110	 6.49136148398082E-02 
2111	 6.50276267064258E-02 
2112	 6.51556368650859E-02 
2113	 6.53198564035108E-02 
2114	 6.54627225681183E-02 
2115	 6.55876414535821E-02 
2116	 0.06570197991168 
2117	 6.58254615089701E-02 
2118	 0.06592575499249 
2119	 6.60528988194389E-02 
2120	 0.066210182810492 
2121	 6.63418432330873E-02 
2122	 6.64640944461043E-02 
2123	 6.65914244426442E-02 
2124	 6.67204586448166E-02 
2125	 6.68385563665295E-02 
2126	 0.066954000348135 
2127	 0.067066136183234 
2128	 6.71657544852375E-02 
2129	 0.06726503351485 
2130	 0.067358603983646 
2131	 6.74641016716589E-02 
2132	 0.067561922766932 
2133	 0.067652394503781 
2134	 6.77510287022784E-02 
2135	 6.78574226597102E-02 
2136	 6.79545064781675E-02 
2137	 6.80500771183262E-02 
2138	 0.068142324014215 
2139	 6.82343549568693E-02 
2140	 6.83153912816783E-02 
2141	 6.83906665726674E-02 
2142	 0.068462129544573 
2143	 6.85156704390446E-02 
2144	 0.068579604135419 
2145	 6.86508260344916E-02 
2146	 6.87163568682682E-02 
2147	 0.068775388504309 
2148	 6.88462731122318E-02 
2149	 6.89137731212983E-02 
2150	 6.89848827795807E-02 
2151	 6.90390571848213E-02 
2152	 0.069085643940963 
2153	 6.91398814921758E-02 
2154	 6.91808156716552E-02 
2155	 6.92319412047032E-02 
2156	 0.069314421374026 
2157	 6.93569696233005E-02 
2158	 6.93803267444875E-02 
2159	 6.93977485782012E-02 
2160	 6.93748485195704E-02 
2161	 6.93823811249872E-02 
2162	 6.94071046303743E-02 
2163	 6.94227518616577E-02 
2164	 6.94450662116694E-02 
2165	 6.94745324469032E-02 
2166	 6.94854010863201E-02 
2167	 6.94754798866792E-02 
2168	 6.94833353718003E-02 
2169	 6.94948607943967E-02 
2170	 6.95024360152083E-02 
2171	 6.95145915750593E-02 
2172	 6.95215580770361E-02 
2173	 6.95231739372085E-02 
2174	 6.95244296822043E-02 
2175	 6.95338207543184E-02 
2176	 6.95257039315128E-02 
2177	 6.94826682691069E-02 
2178	 6.94805756046931E-02 
2179	 6.95055302783282E-02 
2180	 6.95077677238814E-02 
2181	 6.95343001413307E-02 
2182	 6.95400937709579E-02 
2183	 6.95169764724694E-02 
2184	 6.94708205290051E-02 
2185	 6.94650799454365E-02 
2186	 6.94824942594997E-02 
2187	 6.94763915381587E-02 
2188	 6.94699017526768E-02 
2189	 6.94785555700656E-02 
2190	 6.94828326210485E-02 
2191	 6.94852395885042E-02 
2192	 6.95076845706487E-02 
2193	 6.95189510784414E-02 
2194	 6.95146254485233E-02 
2195	 6.95130229664642E-02 
2196	 6.95165073469037E-02 
2197	 6.95201187969244E-02 
2198	 6.95186956065996E-02 
2199	 6.95144290312819E-02 
2200	 6.95105194778553E-02 
2201	 0.069509887644987 
2202	 6.94959878250911E-02 
2203	 6.95036849434596E-02 
2204	 6.94972054512782E-02 
2205	 0.069489933218864 
2206	 6.94926264857348E-02 
2207	 6.94891385002726E-02 
2208	 6.94964792647137E-02 
2209	 6.95214753338507E-02 
2210	 0.069543594496715 
2211	 0.069567035650478 
2212	 6.95896783073983E-02 
2213	 6.96221178167282E-02 
2214	 6.96421064877336E-02 
2215	 6.96610582387976E-02 
2216	 6.96660539178073E-02 
2217	 6.96498592070714E-02 
2218	 6.96496866169387E-02 
2219	 6.96338592717994E-02 
2220	 6.96416675253855E-02 
2221	 6.96786000476566E-02 
2222	 6.97017451973204E-02 
2223	 6.97537972219991E-02 
2224	 6.98074192144277E-02 
2225	 6.98318380560487E-02 
2226	 6.98470201980463E-02 
2227	 6.98629845673346E-02 
2228	 6.98497076468442E-02 
2229	 6.98640598389954E-02 
2230	 6.99049090813612E-02 
2231	 6.99194595019588E-02 
2232	 0.069920222191593 
2233	 6.99360992760797E-02 
2234	 6.99449010803632E-02 
2235	 6.99612840167794E-02 
2236	 7.00111052693245E-02 
2237	 7.00243143520946E-02 
2238	 0.070006161669764 
2239	 7.00071479731676E-02 
2240	 7.00024209027332E-02 
2241	 6.99937989665032E-02 
2242	 6.99899974404939E-02 
2243	 6.99948310373205E-02 
2244	 7.00095620490239E-02 
2245	 7.00023961058118E-02 
2246	 6.99922744983989E-02 
2247	 6.99772600690513E-02 
2248	 6.99618950821931E-02 
2249	 6.99196647699277E-02 
2250	 6.99089074697304E-02 
2251	 0.069934322325106 
2252	 6.99084056132102E-02 
2253	 6.98521845511813E-02 
2254	 6.98288610841668E-02 
2255	 6.97960149436537E-02 
2256	 0.069773770832364 
2257	 6.97858472620027E-02 
2258	 6.97718869326402E-02 
2259	 6.97314139030157E-02 
2260	 6.97116488285459E-02 
2261	 6.97070901937346E-02 
2262	 6.96882748335083E-02 
2263	 6.96795862303703E-02 
2264	 6.96460624557096E-02 
2265	 6.95797999404848E-02 
2266	 6.95370286063902E-02 
2267	 6.94904365732542E-02 
2268	 6.94469598639255E-02 
2269	 6.94270445217492E-02 
2270	 6.93918453360823E-02 
2271	 6.93307191778088E-02 
2272	 6.92613974496644E-02 
2273	 6.91967194129087E-02 
2274	 6.91280647314549E-02 
2275	 6.90478792689806E-02 
2276	 6.89736687349117E-02 
2277	 6.88796307297319E-02 
2278	 6.87549717376282E-02 
2279	 6.86522006652948E-02 
2280	 6.85535543206485E-02 
2281	 6.84517468924124E-02 
2282	 6.83598607287961E-02 
2283	 6.82557151906604E-02 
2284	 6.81216146313483E-02 
2285	 6.80300889001071E-02 
2286	 6.79684450991732E-02 
2287	 6.78721008375664E-02 
2288	 0.067802798754198 
2289	 6.76981734737934E-02 
2290	 6.75271633405156E-02 
2291	 6.74090942902277E-02 
2292	 6.73099219543367E-02 
2293	 6.72012767165917E-02 
2294	 0.06711632982501 
2295	 6.70139436751538E-02 
2296	 6.68962044796913E-02 
2297	 6.67803860591708E-02 
2298	 0.066656855086094 
2299	 6.65226792686464E-02 
2300	 6.63828705676039E-02 
2301	 6.62401808222336E-02 
2302	 6.60788004214601E-02 
2303	 0.065939186616036 
2304	 6.58128211718951E-02 
2305	 6.56480943671996E-02 
2306	 6.55160357199822E-02 
2307	 6.54206588754353E-02 
2308	 6.52772832847763E-02 
2309	 6.51082044318565E-02 
2310	 6.49723668810493E-02 
2311	 6.48195980125044E-02 
2312	 6.46865253000532E-02 
2313	 6.46139179124677E-02 
2314	 6.44828135379288E-02 
2315	 6.42992877862351E-02 
2316	 6.41635914016191E-02 
2317	 6.40489583725619E-02 
2318	 6.38861223114076E-02 
2319	 6.37220589909131E-02 
2320	 0.063566846486084 
2321	 6.33583327025207E-02 
2322	 6.31933224012313E-02 
2323	 6.30922068821832E-02 
2324	 6.29417128434553E-02 
2325	 6.27716600443611E-02 
2326	 0.062598773738069 
2327	 6.23870263653847E-02 
2328	 6.22217548984354E-02 
2329	 6.20755022570356E-02 
2330	 6.18860384050261E-02 
2331	 6.17226179087714E-02 
2332	 0.061572075605509 
2333	 6.13918493296416E-02 
2334	 6.12401073681623E-02 
2335	 6.10953110191168E-02 
2336	 6.09477856004758E-02 
2337	 0.060797847500448 
2338	 6.06911479965647E-02 
2339	 6.06177920669013E-02 
2340	 6.04664448808664E-02 
2341	 6.03057853789038E-02 
2342	 6.01437647478465E-02 
2343	 5.99572733626827E-02 
2344	 5.97590010549174E-02 
2345	 5.95402592294794E-02 
2346	 5.92920462592957E-02 
2347	 5.90903182146326E-02 
2348	 5.88833637600717E-02 
2349	 5.86992406907137E-02 
2350	 5.85809950176663E-02 
2351	 5.84142002764075E-02 
2352	 5.82211336565954E-02 
2353	 5.80211638227117E-02 
2354	 5.78083047553676E-02 
2355	 5.75739622430225E-02 
2356	 5.72831813889239E-02 
2357	 5.70865444836229E-02 
2358	 0.056944351591515 
2359	 5.67729803710494E-02 
2360	 5.66449974412564E-02 
2361	 5.64893471792302E-02 
2362	 0.056324275867534 
2363	 5.61153283217451E-02 
2364	 5.58928520274248E-02 
2365	 0.055653963791737 
2366	 5.53013714592078E-02 
2367	 5.50380778997474E-02 
2368	 5.48273968963243E-02 
2369	 5.46337832446237E-02 
2370	 5.44780546284275E-02 
2371	 5.43680583436075E-02 
2372	 0.054173798486214 
2373	 5.39521345306589E-02 
2374	 5.36696103310856E-02 
2375	 0.053348133027265 
2376	 5.30973915524267E-02 
2377	 5.28735472152278E-02 
2378	 5.27463167466574E-02 
2379	 5.25462002826982E-02 
2380	 5.23083033134597E-02 
2381	 5.21583963115541E-02 
2382	 5.19356229595532E-02 
2383	 0.051756022443734 
2384	 5.16001305062469E-02 
2385	 5.13442763899674E-02 
2386	 5.10358134422208E-02 
2387	 5.07754062318202E-02 
2388	 5.05373171713974E-02 
2389	 5.03232858711049E-02 
2390	 5.02044086185463E-02 
2391	 5.00225134240279E-02 
2392	 4.98528722784608E-02 
2393	 4.96977487874349E-02 
2394	 4.94596090535216E-02 
2395	 4.92276010097716E-02 
2396	 4.90192480581917E-02 
2397	 4.87920696626047E-02 
2398	 4.85778975064859E-02 
2399	 4.84980321996357E-02 
2400	 4.83618328640848E-02 
2401	 4.81740607694662E-02 
2402	 4.80036488097373E-02 
2403	 4.77568833559815E-02 
2404	 4.76259352826487E-02 
2405	 4.74835726905116E-02 
2406	 4.72839571239331E-02 
2407	 4.72082779820227E-02 
2408	 4.70417000331043E-02 
2409	 4.67454915298455E-02 
2410	 4.65632482574143E-02 
2411	 4.63733748047978E-02 
2412	 4.61281809890821E-02 
2413	 0.046056537191941 
2414	 4.59457648289771E-02 
2415	 4.56575900639365E-02 
2416	 4.54774849165766E-02 
2417	 0.045302230247455 
2418	 4.51508094756362E-02 
2419	 4.51143998553356E-02 
2420	 4.50483813837741E-02 
2421	 4.49497141321108E-02 
2422	 4.48113050610137E-02 
2423	 4.46125841859166E-02 
2424	 4.44226373125017E-02 
2425	 0.044234868624961 
2426	 4.40592291735034E-02 
2427	 4.39161915017806E-02 
2428	 4.37983829972345E-02 
2429	 4.36493032139115E-02 
2430	 4.35670096356551E-02 
2431	 4.35701452905538E-02 
2432	 4.34872239468124E-02 
2433	 4.33948923331527E-02 
2434	 4.32743969315566E-02 
2435	 4.30940301221459E-02 
2436	 4.29637640237528E-02 
2437	 4.28560322380457E-02 
2438	 4.26939491559072E-02 
2439	 4.25463007454047E-02 
2440	 0.042368732764329 
2441	 0.04211507319302 
2442	 4.19446087491897E-02 
2443	 4.17777353534139E-02 
2444	 4.16391577575319E-02 
2445	 4.15746775623689E-02 
2446	 4.14433522772077E-02 
2447	 0.041308306081278 
2448	 4.11726230049699E-02 
2449	 4.09903998338961E-02 
2450	 4.08472204849792E-02 
2451	 4.07644468059384E-02 
2452	 4.06250620276727E-02 
2453	 4.03807575923166E-02 
2454	 4.03054978933758E-02 
2455	 4.03047791858605E-02 
2456	 4.01951402366021E-02 
2457	 4.02215219783277E-02 
2458	 4.01246557688103E-02 
2459	 3.98476064558114E-02 
2460	 3.96906760140314E-02 
2461	 3.95496573572063E-02 
2462	 3.94028493894868E-02 
2463	 3.92521843558423E-02 
2464	 3.92011861661123E-02 
2465	 3.92553300515388E-02 
2466	 3.91778116501151E-02 
2467	 3.91037002888233E-02 
2468	 0.039014372571569 
2469	 3.88482135174439E-02 
2470	 3.88779706864854E-02 
2471	 3.86804287390606E-02 
2472	 3.85762720001435E-02 
2473	 3.83350328631412E-02 
2474	 3.79679145508247E-02 
2475	 0.037801500747076 
2476	 3.76718697360027E-02 
2477	 3.76889187169928E-02 
2478	 3.77600175660849E-02 
2479	 3.77601756585413E-02 
2480	 3.78641031423012E-02 
2481	 3.78854115955612E-02 
2482	 3.78049882867007E-02 
2483	 3.79255580613352E-02 
2484	 3.79319738669073E-02 
2485	 3.76207286050951E-02 
2486	 3.74352672249157E-02 
2487	 3.73366474915739E-02 
2488	 3.71746617274675E-02 
2489	 3.71397871948479E-02 
2490	 3.71264801155577E-02 
2491	 3.68687558609507E-02 
2492	 0.036497408142677 
2493	 3.62768467905066E-02 
2494	 3.61033570465161E-02 
2495	 3.60397558661396E-02 
2496	 0.036091126400219 
2497	 3.60231982012017E-02 
2498	 3.60572046132373E-02 
2499	 3.61929384181933E-02 
2500	 3.62821164568887E-02 
