Wavelength	lmw-9-200007.asd
350	 6.40242534016871E-02 
351	 0.061249635607831 
352	 5.57189578003722E-02 
353	 5.07622631810075E-02 
354	 5.71033643613505E-02 
355	 5.96242803274382E-02 
356	 5.86681214309216E-02 
357	 5.78394061069646E-02 
358	 5.58938766577075E-02 
359	 0.048844974753668 
360	 4.39987309607983E-02 
361	 5.30462075833855E-02 
362	 5.35395102226941E-02 
363	 5.17401715145955E-02 
364	 5.28824216218031E-02 
365	 5.51610413576441E-02 
366	 5.40640011170181E-02 
367	 5.17245842845906E-02 
368	 5.12043961422398E-02 
369	 5.10243261325845E-02 
370	 5.07546302350274E-02 
371	 5.16529715546021E-02 
372	 5.52464957087205E-02 
373	 5.26576816692056E-02 
374	 5.00439563176822E-02 
375	 5.14842764936047E-02 
376	 5.44240079050073E-02 
377	 5.48416181857739E-02 
378	 5.41154582201576E-02 
379	 5.44309517551161E-02 
380	 5.34685131492922E-02 
381	 5.04641816313187E-02 
382	 4.89635137363114E-02 
383	 0.054462514147337 
384	 5.70202983038422E-02 
385	 5.51801900097509E-02 
386	 0.051309524240514 
387	 5.22993814087009E-02 
388	 5.32527263588451E-02 
389	 5.39285577948683E-02 
390	 5.49856781237284E-02 
391	 5.42469470512743E-02 
392	 5.37285315907365E-02 
393	 5.47326708004581E-02 
394	 5.74442362893673E-02 
395	 5.65202306417246E-02 
396	 0.05568432844105 
397	 0.057303906977947 
398	 0.05773679113165 
399	 0.057028608996794 
400	 5.68681518954387E-02 
401	 5.88555919968062E-02 
402	 0.060503002982331 
403	 6.00364598193709E-02 
404	 5.84533950481025E-02 
405	 5.92284099135586E-02 
406	 0.060438830837975 
407	 6.09610434101472E-02 
408	 0.060412069021666 
409	 5.96122576508773E-02 
410	 5.98685684944413E-02 
411	 6.05565293751526E-02 
412	 6.04751731691105E-02 
413	 6.18034590668804E-02 
414	 0.06221491864203 
415	 6.11789173271393E-02 
416	 6.08510797332276E-02 
417	 6.12007553838275E-02 
418	 6.19192576977057E-02 
419	 6.24530348654338E-02 
420	 6.19031029099286E-02 
421	 0.060646299442365 
422	 6.01098044154861E-02 
423	 6.18753742829276E-02 
424	 6.18002403282209E-02 
425	 0.061394714031579 
426	 6.16547034253532E-02 
427	 0.061248691100451 
428	 6.10684822494227E-02 
429	 6.10421985842664E-02 
430	 6.09565073503218E-02 
431	 6.15617401669246E-02 
432	 0.061654887493773 
433	 6.12780233223586E-02 
434	 6.16833432443714E-02 
435	 6.23082010080865E-02 
436	 0.062893114315529 
437	 6.32711371798457E-02 
438	 0.063256387043589 
439	 6.39124723396006E-02 
440	 6.48472386616129E-02 
441	 6.50618451087177E-02 
442	 6.51113678820731E-02 
443	 6.57473407439943E-02 
444	 0.06681231665635 
445	 6.67870040632756E-02 
446	 6.68463710859616E-02 
447	 6.71320855510695E-02 
448	 6.74831250427087E-02 
449	 6.77468403373643E-02 
450	 6.81997798415949E-02 
451	 6.87527669065201E-02 
452	 6.90292978829669E-02 
453	 0.069436094993735 
454	 6.96292097813835E-02 
455	 6.95237169458644E-02 
456	 6.99873623172696E-02 
457	 7.04177498749398E-02 
458	 0.070690483658058 
459	 0.070893012147249 
460	 7.10202638228394E-02 
461	 7.10713282764126E-02 
462	 7.11284642916804E-02 
463	 7.13881708495674E-02 
464	 7.16864278649546E-02 
465	 7.20106030572245E-02 
466	 7.23233892616419E-02 
467	 7.22885126557344E-02 
468	 7.25135478350258E-02 
469	 7.28227274245626E-02 
470	 7.24777587630852E-02 
471	 0.072539220248328 
472	 7.27870552606943E-02 
473	 7.29337961361027E-02 
474	 7.30664393792275E-02 
475	 7.32289847983507E-02 
476	 7.32729709953979E-02 
477	 7.30642637112188E-02 
478	 7.32013627921764E-02 
479	 7.34342376718434E-02 
480	 7.35304984615509E-02 
481	 7.33804125799565E-02 
482	 0.073625438858643 
483	 7.39293934127353E-02 
484	 7.38812486637243E-02 
485	 7.39726223026162E-02 
486	 7.39892103296081E-02 
487	 7.39050856828867E-02 
488	 7.38670973094061E-02 
489	 7.40025360407797E-02 
490	 7.41420677320476E-02 
491	 7.41509233157654E-02 
492	 7.41033107702721E-02 
493	 7.40710126092001E-02 
494	 0.074019184207653 
495	 7.39219001377079E-02 
496	 7.42952899831053E-02 
497	 7.44447458587927E-02 
498	 7.41766265045655E-02 
499	 7.41968964680363E-02 
500	 0.07413691045983 
501	 7.40672683424535E-02 
502	 7.41112558545317E-02 
503	 7.40816869928146E-02 
504	 0.074087040446643 
505	 7.41358663820194E-02 
506	 7.41382321121076E-02 
507	 7.40411277289713E-02 
508	 7.40390242099416E-02 
509	 7.41961921472721E-02 
510	 0.074107609565645 
511	 7.39672236413471E-02 
512	 7.38763058716717E-02 
513	 7.38697201369429E-02 
514	 7.38167594773106E-02 
515	 7.38089368241685E-02 
516	 7.38774831467559E-02 
517	 7.39174931743101E-02 
518	 0.073876194023262 
519	 7.37869837582618E-02 
520	 7.37201103442115E-02 
521	 7.37377346274436E-02 
522	 7.37914426749656E-02 
523	 0.073806698797825 
524	 7.36952306296727E-02 
525	 7.37390229311612E-02 
526	 7.37962876176684E-02 
527	 0.073725535708326 
528	 7.37056788794277E-02 
529	 7.36449665999664E-02 
530	 7.35977057355084E-02 
531	 7.36941283360585E-02 
532	 0.073769430295344 
533	 7.37984325261065E-02 
534	 0.073787120136612 
535	 7.37575051748967E-02 
536	 7.36845875373069E-02 
537	 0.073663043980434 
538	 7.37830704718499E-02 
539	 7.37877542834362E-02 
540	 7.37253727685821E-02 
541	 7.37039915726026E-02 
542	 0.073879871128607 
543	 7.38958997110974E-02 
544	 0.07390405068857 
545	 7.40918938100043E-02 
546	 7.42056300639872E-02 
547	 7.42172932963986E-02 
548	 7.42001460440816E-02 
549	 7.42954871616481E-02 
550	 7.43251150046665E-02 
551	 7.43840074000784E-02 
552	 0.074534027233218 
553	 0.074622358067404 
554	 7.47170024028012E-02 
555	 7.48270862333261E-02 
556	 7.49340565363542E-02 
557	 7.50470225351308E-02 
558	 7.51636464335834E-02 
559	 7.52975630964803E-02 
560	 7.54996040424263E-02 
561	 0.075641511274313 
562	 7.57790776019085E-02 
563	 7.59978137675022E-02 
564	 7.61600580955571E-02 
565	 7.63330923798056E-02 
566	 7.65727906252637E-02 
567	 7.69067601863427E-02 
568	 7.72744854401088E-02 
569	 7.75645299775994E-02 
570	 7.77392224518715E-02 
571	 7.80147167141606E-02 
572	 7.84317604949599E-02 
573	 7.89033614390185E-02 
574	 7.92613992560834E-02 
575	 7.95629436430844E-02 
576	 7.99022146026753E-02 
577	 8.03238178578745E-02 
578	 8.07434866637206E-02 
579	 8.12622843209181E-02 
580	 0.081826820766185 
581	 0.0823489237656 
582	 8.30158217498645E-02 
583	 8.36108705190895E-02 
584	 8.40710740859912E-02 
585	 8.45969270461645E-02 
586	 8.51842399873343E-02 
587	 8.57867730299366E-02 
588	 8.63630344718374E-02 
589	 8.69856499784306E-02 
590	 8.75858047230328E-02 
591	 8.81698794058463E-02 
592	 8.88117623324169E-02 
593	 8.93816426725624E-02 
594	 8.99317926078386E-02 
595	 9.05308316956781E-02 
596	 9.11930271349587E-02 
597	 9.19047566850647E-02 
598	 9.26307003463531E-02 
599	 9.33331234456116E-02 
600	 9.40563012893024E-02 
601	 9.47369552457087E-02 
602	 9.53509532071467E-02 
603	 9.59690519229751E-02 
604	 9.65398447514237E-02 
605	 9.70879674914559E-02 
606	 9.76641632059736E-02 
607	 9.83141068235678E-02 
608	 9.88975584049328E-02 
609	 9.94118314461426E-02 
610	 0.10001994663682 
611	 0.100561135562741 
612	 0.101064582053829 
613	 0.101577807515486 
614	 0.102062046077521 
615	 0.102479811604732 
616	 0.102861269744794 
617	 0.103277585673905 
618	 0.103709595649221 
619	 0.104082326120396 
620	 0.104377516476903 
621	 0.104711765288334 
622	 0.105048542746442 
623	 0.105347908954557 
624	 0.105591552362673 
625	 0.105934455367612 
626	 0.106258697430747 
627	 0.106509913261776 
628	 0.106744898155868 
629	 0.106990555204388 
630	 0.107240799602745 
631	 0.107480277060479 
632	 0.107702946529554 
633	 0.107923861755923 
634	 0.108137576519608 
635	 0.108327591415183 
636	 0.108585790080315 
637	 0.108845748636349 
638	 0.109054698146582 
639	 0.109260921098413 
640	 0.109476648563222 
641	 0.109678896511087 
642	 0.109839491340036 
643	 0.110033797720962 
644	 0.110267695836809 
645	 0.110515291883517 
646	 0.110716076024698 
647	 0.110895495036613 
648	 0.111095903410471 
649	 0.111341433302343 
650	 0.11155838011204 
651	 0.111763939139142 
652	 0.111969060839603 
653	 0.112178496053218 
654	 0.112420947745292 
655	 0.11263316099485 
656	 0.112805219542353 
657	 0.113108275629665 
658	 0.113389648465868 
659	 0.113593819979927 
660	 0.113737324453173 
661	 0.113994117865323 
662	 0.114286374761749 
663	 0.11455368407026 
664	 0.114797655419079 
665	 0.115075387292746 
666	 0.115355121833741 
667	 0.115599482796928 
668	 0.115856973944507 
669	 0.116163776950223 
670	 0.116510292620895 
671	 0.116844912257996 
672	 0.117080469677615 
673	 0.117361521523144 
674	 0.117752378372222 
675	 0.118024628644228 
676	 0.118350295616736 
677	 0.118710617247956 
678	 0.119017026163411 
679	 0.119297483173271 
680	 0.119624036726221 
681	 0.120017355816259 
682	 0.120427305282799 
683	 0.120840111736206 
684	 0.121216985203132 
685	 0.121555900436666 
686	 0.122004554583839 
687	 0.122415833975166 
688	 0.122772392537628 
689	 0.123153335983481 
690	 0.123577617424783 
691	 0.124017470723593 
692	 0.124452292142305 
693	 0.12489483697117 
694	 0.12532234557942 
695	 0.125755004400483 
696	 0.126219842051658 
697	 0.126687291252146 
698	 0.127147786657155 
699	 0.127600105208997 
700	 0.128050486774242 
701	 0.128522454290795 
702	 0.129013428887631 
703	 0.129511701788611 
704	 0.130000520152839 
705	 0.130487496758328 
706	 0.130957610290829 
707	 0.131397388910644 
708	 0.131906389016802 
709	 0.132416539171566 
710	 0.132898940021899 
711	 0.13340963323889 
712	 0.133885998782687 
713	 0.13431354438683 
714	 0.134723207586757 
715	 0.135261064497271 
716	 0.135759751557008 
717	 0.136183400640699 
718	 0.136601955634488 
719	 0.137059452849282 
720	 0.137499745206376 
721	 0.137895017327719 
722	 0.138306491236582 
723	 0.138681792019356 
724	 0.139044065894656 
725	 0.139425980024705 
726	 0.139775528321047 
727	 0.140087957857183 
728	 0.140384519938068 
729	 0.140704337056302 
730	 0.141000732838499 
731	 0.141271321237378 
732	 0.141512783519628 
733	 0.141687938374701 
734	 0.141927933210993 
735	 0.142158890743793 
736	 0.142257548745939 
737	 0.142375457881193 
738	 0.14249463593423 
739	 0.142590747905135 
740	 0.142646625865944 
741	 0.14266080822767 
742	 0.142653156572808 
743	 0.142646713019792 
744	 0.142667097985973 
745	 0.142626401990924 
746	 0.142551999154144 
747	 0.142505719872107 
748	 0.142360549912533 
749	 0.142189046836486 
750	 0.142032510731054 
751	 0.141871709252161 
752	 0.141664386759521 
753	 0.14141459799905 
754	 0.141149700182284 
755	 0.140930361984983 
756	 0.14068206853891 
757	 0.140391166782201 
758	 0.140082340656515 
759	 0.139802592976237 
760	 0.139479413962472 
761	 0.139101767442318 
762	 0.138748208073591 
763	 0.138417257568081 
764	 0.138076207742554 
765	 0.137698352869281 
766	 0.137293788319123 
767	 0.136922898221982 
768	 0.136561455846587 
769	 0.136151775446367 
770	 0.135742125290904 
771	 0.135357614495903 
772	 0.134968795625231 
773	 0.134489259308322 
774	 0.134056867243679 
775	 0.133663043733908 
776	 0.133270806696336 
777	 0.132866617922781 
778	 0.132441149025683 
779	 0.132000843734358 
780	 0.131562256956305 
781	 0.131146775467107 
782	 0.130730073367777 
783	 0.130312765175401 
784	 0.129924558446374 
785	 0.129517827559852 
786	 0.129116254753426 
787	 0.12873366427181 
788	 0.12832300444953 
789	 0.127942609335398 
790	 0.127565659342705 
791	 0.127153132251954 
792	 0.126777452713336 
793	 0.126417891988378 
794	 0.126062892997516 
795	 0.125710565891398 
796	 0.125316706304141 
797	 0.124945381316091 
798	 0.124627100746648 
799	 0.124302447657025 
800	 0.123967681213115 
801	 0.123623409759416 
802	 0.123284653592435 
803	 0.123009100672991 
804	 0.122714338377813 
805	 0.122404238400609 
806	 0.122132224225538 
807	 0.121852466445771 
808	 0.121547676901452 
809	 0.121229234870349 
810	 0.120939243496496 
811	 0.120687360631573 
812	 0.120442922165604 
813	 0.120192978405254 
814	 0.120003979980882 
815	 0.119810068648231 
816	 0.119572461441042 
817	 0.119287372336957 
818	 0.119049000096304 
819	 0.118880560804101 
820	 0.118729706731789 
821	 0.118499366512163 
822	 0.118316958791228 
823	 0.118117605185925 
824	 0.117886904730458 
825	 0.117737634468046 
826	 0.117583179591078 
827	 0.117429536582293 
828	 0.117297081167902 
829	 0.117174534665284 
830	 0.117012581162936 
831	 0.116838253246375 
832	 0.11671054953032 
833	 0.116626633790985 
834	 0.116536466894482 
835	 0.116416652277349 
836	 0.116280816128248 
837	 0.11622824768112 
838	 0.116177505976569 
839	 0.11607509552132 
840	 0.115968043756264 
841	 0.1158571302721 
842	 0.115742346741831 
843	 0.115637312474788 
844	 0.115601131445744 
845	 0.115612350942918 
846	 0.115593562053213 
847	 0.115490967453704 
848	 0.11553327715049 
849	 0.115527808730049 
850	 0.115455520358108 
851	 0.115456243746934 
852	 0.115458378414931 
853	 0.115453473572095 
854	 0.1154342692437 
855	 0.115385748057284 
856	 0.115413577999711 
857	 0.115479261199684 
858	 0.115524513957842 
859	 0.115535699572668 
860	 0.115552223692888 
861	 0.11558966532263 
862	 0.115645146392541 
863	 0.115677868194408 
864	 0.115765400904647 
865	 0.115882227297145 
866	 0.115944103043525 
867	 0.115952798407878 
868	 0.116007261255453 
869	 0.116105987305901 
870	 0.11614885776129 
871	 0.116274549379515 
872	 0.11639125430146 
873	 0.116470916684469 
874	 0.116645166613954 
875	 0.11674584138708 
876	 0.116797741984398 
877	 0.116876245041257 
878	 0.117057736837667 
879	 0.117220521938633 
880	 0.117359936040527 
881	 0.117507718071718 
882	 0.117650245923767 
883	 0.117826095601836 
884	 0.117998553238832 
885	 0.118116895046146 
886	 0.118319749497119 
887	 0.118529645039477 
888	 0.11871053882423 
889	 0.11888049278064 
890	 0.119076103332146 
891	 0.119273776237496 
892	 0.119481877647571 
893	 0.119750569874964 
894	 0.1199488046872 
895	 0.120155660963422 
896	 0.120413423898879 
897	 0.120622778619727 
898	 0.120922274302171 
899	 0.121204809453957 
900	 0.121393671807334 
901	 0.121663745342429 
902	 0.121954116427009 
903	 0.122253235712854 
904	 0.122557643304532 
905	 0.122848434099938 
906	 0.123098243715577 
907	 0.123369876885716 
908	 0.12373342873878 
909	 0.124073946059122 
910	 0.124366978198077 
911	 0.124659083786454 
912	 0.125021256931096 
913	 0.12536827265711 
914	 0.125740354931594 
915	 0.126127495422296 
916	 0.126477429282114 
917	 0.126857447194183 
918	 0.12721665855788 
919	 0.127554276809061 
920	 0.127938668680807 
921	 0.128362062153282 
922	 0.128843583606278 
923	 0.129332493185035 
924	 0.129689417370721 
925	 0.130086980025027 
926	 0.130500277851602 
927	 0.130916350566134 
928	 0.131419152570833 
929	 0.131908739735864 
930	 0.132435818483013 
931	 0.132997995562711 
932	 0.133386734664414 
933	 0.133851546901185 
934	 0.13440618954193 
935	 0.134996660089584 
936	 0.135611141536846 
937	 0.136090437699306 
938	 0.136548855015502 
939	 0.137146131519534 
940	 0.137854274778497 
941	 0.138457269350271 
942	 0.139007200366527 
943	 0.139625214685241 
944	 0.14021128949126 
945	 0.140820118538671 
946	 0.141453866006662 
947	 0.142080163458874 
948	 0.142636467477275 
949	 0.143262060123702 
950	 0.143927281953171 
951	 0.144554729763902 
952	 0.145324267245552 
953	 0.145999207604518 
954	 0.14659461653053 
955	 0.147276824816957 
956	 0.148114593838456 
957	 0.148874088624223 
958	 0.149568302383818 
959	 0.150349060796088 
960	 0.151145575998737 
961	 0.151891578680326 
962	 0.152668226081806 
963	 0.153577184344507 
964	 0.154277460966725 
965	 0.154996833058939 
966	 0.155825185972618 
967	 0.156721939566529 
968	 0.157677910308852 
969	 0.158520406917461 
970	 0.159305443055651 
971	 0.160211789901102 
972	 0.161114493629217 
973	 0.162092903250457 
974	 0.163080531516404 
975	 0.163952544433476 
976	 0.164883581797627 
977	 0.165874258435781 
978	 0.166862834827355 
979	 0.167788361645137 
980	 0.16878946789803 
981	 0.169777076455978 
982	 0.17075279911822 
983	 0.171773749293883 
984	 0.172818928893852 
985	 0.173870990545366 
986	 0.17484647031935 
987	 0.175712531760614 
988	 0.176842633427705 
989	 0.177898218025663 
990	 0.178926828224538 
991	 0.180114928886331 
992	 0.181227803600452 
993	 0.182190302418878 
994	 0.183205322194438 
995	 0.184450832864715 
996	 0.185508080760419 
997	 0.186564277687576 
998	 0.187629665009096 
999	 0.188668629895091 
1000	 0.189745029260143 
1001	 0.197247223943509 
1002	 0.198379496809376 
1003	 0.199508284566126 
1004	 0.200637706475616 
1005	 0.20179114668562 
1006	 0.202898143387529 
1007	 0.203977690130228 
1008	 0.205079074368853 
1009	 0.206151915014275 
1010	 0.20720634653724 
1011	 0.208355018191948 
1012	 0.209436664101309 
1013	 0.210488970910456 
1014	 0.211618968819518 
1015	 0.212734332128789 
1016	 0.213879104333494 
1017	 0.214990361450141 
1018	 0.216107375883784 
1019	 0.217187589123703 
1020	 0.218228097324275 
1021	 0.219217474656022 
1022	 0.220264683880493 
1023	 0.221337412455112 
1024	 0.222393916444988 
1025	 0.223474513097674 
1026	 0.224513214102563 
1027	 0.225512447940279 
1028	 0.226514358311588 
1029	 0.22749302795342 
1030	 0.22847335803528 
1031	 0.229436277095301 
1032	 0.230374712840539 
1033	 0.231314596887491 
1034	 0.232281210206879 
1035	 0.23325021923875 
1036	 0.234224232117851 
1037	 0.235207867019304 
1038	 0.236227197468603 
1039	 0.237272168387496 
1040	 0.23826381536642 
1041	 0.239190093766635 
1042	 0.240110726533307 
1043	 0.240963256113547 
1044	 0.241858196263291 
1045	 0.242765757585894 
1046	 0.243741316125295 
1047	 0.244661663226842 
1048	 0.245646942631716 
1049	 0.246666680124076 
1050	 0.247618008496669 
1051	 0.248615537771085 
1052	 0.249635023597457 
1053	 0.250576380301711 
1054	 0.251538591124671 
1055	 0.252523854002498 
1056	 0.253455323128776 
1057	 0.254403870755769 
1058	 0.255344108563491 
1059	 0.256338003660155 
1060	 0.257353976705578 
1061	 0.258366288986027 
1062	 0.25940710257075 
1063	 0.26042678504642 
1064	 0.261424870112814 
1065	 0.262429970388402 
1066	 0.263466053349912 
1067	 0.264497881413625 
1068	 0.265480901515073 
1069	 0.266512524831655 
1070	 0.267568982295607 
1071	 0.268625612139872 
1072	 0.269690657719514 
1073	 0.270828848351549 
1074	 0.271894753738543 
1075	 0.272909712593113 
1076	 0.273930458032954 
1077	 0.274949195480361 
1078	 0.275932405523482 
1079	 0.27696330922707 
1080	 0.278005235019186 
1081	 0.278993014043878 
1082	 0.280048686341689 
1083	 0.281104666432393 
1084	 0.282144299251248 
1085	 0.283184486828119 
1086	 0.28426474931634 
1087	 0.285294401752798 
1088	 0.286243014111811 
1089	 0.287306457940705 
1090	 0.288379466102176 
1091	 0.289411714138598 
1092	 0.290448207327212 
1093	 0.291428131807637 
1094	 0.292424148188358 
1095	 0.293436002500439 
1096	 0.294461283775622 
1097	 0.29551552559166 
1098	 0.296534240804865 
1099	 0.297532144585364 
1100	 0.298518549755128 
1101	 0.299462208108336 
1102	 0.300463411814634 
1103	 0.301493099032614 
1104	 0.302490539470461 
1105	 0.303521658485805 
1106	 0.30457306091472 
1107	 0.30555371700201 
1108	 0.306551608582704 
1109	 0.307558634438195 
1110	 0.308545794389043 
1111	 0.309554248401376 
1112	 0.310584347657138 
1113	 0.311585254333435 
1114	 0.312579766322779 
1115	 0.313577154061929 
1116	 0.314559487286148 
1117	 0.315543777010925 
1118	 0.31652459592833 
1119	 0.317523773958075 
1120	 0.318545373115781 
1121	 0.319543578605963 
1122	 0.320534013701255 
1123	 0.321552939235545 
1124	 0.322558228524884 
1125	 0.323539767361771 
1126	 0.324538048096464 
1127	 0.325549945331229 
1128	 0.326552288196137 
1129	 0.327545919687158 
1130	 0.328540994956178 
1131	 0.329556579189876 
1132	 0.330546267909656 
1133	 0.331515300663502 
1134	 0.332489028609165 
1135	 0.333463459474345 
1136	 0.33440338373189 
1137	 0.335376096321912 
1138	 0.33634961004736 
1139	 0.337276892236502 
1140	 0.338193016009824 
1141	 0.339079594574711 
1142	 0.339924320315532 
1143	 0.34076568255724 
1144	 0.341599299171998 
1145	 0.34241225914621 
1146	 0.343204805891048 
1147	 0.343979981268987 
1148	 0.344726642843811 
1149	 0.345481226033524 
1150	 0.346207825105858 
1151	 0.346956666908446 
1152	 0.347739607033973 
1153	 0.348537267684408 
1154	 0.349355716450619 
1155	 0.350193218655024 
1156	 0.351066074643788 
1157	 0.351949982770426 
1158	 0.352877043817899 
1159	 0.35386156070568 
1160	 0.354842186790185 
1161	 0.355861928584773 
1162	 0.356855407675532 
1163	 0.357863746976289 
1164	 0.358842976146785 
1165	 0.359787949493174 
1166	 0.360757666001828 
1167	 0.361717736884065 
1168	 0.362671016248528 
1169	 0.363595703626304 
1170	 0.364505790611101 
1171	 0.365419819685829 
1172	 0.366321727707167 
1173	 0.367206897238747 
1174	 0.368089619484405 
1175	 0.368969612637748 
1176	 0.369831256270167 
1177	 0.370685090188304 
1178	 0.371550377656999 
1179	 0.372398518387776 
1180	 0.373224360677794 
1181	 0.374044509093915 
1182	 0.374863934674651 
1183	 0.375679631406768 
1184	 0.376460941947661 
1185	 0.377210540964169 
1186	 0.377979016396563 
1187	 0.378747578387993 
1188	 0.379484356705126 
1189	 0.380225446902693 
1190	 0.380936140870877 
1191	 0.381589338097604 
1192	 0.382277441605147 
1193	 0.38299492059907 
1194	 0.383666604816705 
1195	 0.384325917640155 
1196	 0.384973971260035 
1197	 0.385580971330239 
1198	 0.386196204841872 
1199	 0.38681029522322 
1200	 0.387428776177334 
1201	 0.388037691980355 
1202	 0.388643675221539 
1203	 0.389238465124892 
1204	 0.389824710761664 
1205	 0.390413243371068 
1206	 0.391007100536073 
1207	 0.391572601021636 
1208	 0.392141358447477 
1209	 0.392677730881079 
1210	 0.393173417203923 
1211	 0.393673462137639 
1212	 0.394146705229658 
1213	 0.394637006746724 
1214	 0.395142010470813 
1215	 0.395629572657069 
1216	 0.396112403395994 
1217	 0.396606450868354 
1218	 0.39706725084658 
1219	 0.397496649445895 
1220	 0.397945323088747 
1221	 0.398397099766267 
1222	 0.398829286120143 
1223	 0.399269664833904 
1224	 0.399680628467671 
1225	 0.400063189162602 
1226	 0.400442209566061 
1227	 0.400802911633675 
1228	 0.401165936351861 
1229	 0.401513100934898 
1230	 0.401871090214513 
1231	 0.402252433289211 
1232	 0.402605507523517 
1233	 0.402947437964561 
1234	 0.403289552135408 
1235	 0.403608083261906 
1236	 0.403892192204292 
1237	 0.404197059070851 
1238	 0.40450621135483 
1239	 0.404800419091592 
1240	 0.40509619661047 
1241	 0.405377814754031 
1242	 0.405640550212558 
1243	 0.40590612042996 
1244	 0.406171216195186 
1245	 0.406426163524109 
1246	 0.40666451764767 
1247	 0.406915316643658 
1248	 0.407169226712747 
1249	 0.40742400394894 
1250	 0.40766798387125 
1251	 0.407894904103537 
1252	 0.408102910376529 
1253	 0.408279810841031 
1254	 0.408461855134884 
1255	 0.408633627733496 
1256	 0.408804446884783 
1257	 0.408969874864027 
1258	 0.40912636026532 
1259	 0.40927733561336 
1260	 0.40942443245053 
1261	 0.409563344210378 
1262	 0.409697216160614 
1263	 0.409822851306362 
1264	 0.409953034211542 
1265	 0.410073977317668 
1266	 0.410201459421532 
1267	 0.410329440084757 
1268	 0.410471845330908 
1269	 0.410611226821072 
1270	 0.410754016876779 
1271	 0.410895401296874 
1272	 0.411041626003893 
1273	 0.411179976372276 
1274	 0.411312783381679 
1275	 0.411452004210221 
1276	 0.411584762962138 
1277	 0.411729886221657 
1278	 0.411894881925278 
1279	 0.412036993171023 
1280	 0.412170706377784 
1281	 0.412309975516418 
1282	 0.412455857028307 
1283	 0.412574190237939 
1284	 0.412681508155296 
1285	 0.41278395830026 
1286	 0.412870960113803 
1287	 0.412960795085288 
1288	 0.41306028849287 
1289	 0.413178856008197 
1290	 0.413286107568022 
1291	 0.413386899307867 
1292	 0.413490170329969 
1293	 0.413605953823814 
1294	 0.413698348474096 
1295	 0.413783177627838 
1296	 0.413854622271685 
1297	 0.413918339953375 
1298	 0.413962761530303 
1299	 0.413989925809038 
1300	 0.414008869522125 
1301	 0.414000250070234 
1302	 0.413999043193539 
1303	 0.413993356441975 
1304	 0.413995598658291 
1305	 0.413979824520325 
1306	 0.413940053832082 
1307	 0.41389748506299 
1308	 0.41382312656653 
1309	 0.41376475774023 
1310	 0.413724716447014 
1311	 0.413631926580977 
1312	 0.413522699988117 
1313	 0.413401170727797 
1314	 0.413250259651858 
1315	 0.41308294468774 
1316	 0.412912491087087 
1317	 0.412708782734764 
1318	 0.412452947693687 
1319	 0.412218348495688 
1320	 0.411995188322945 
1321	 0.411742101161833 
1322	 0.411477458818392 
1323	 0.411212387408614 
1324	 0.410897099556622 
1325	 0.410564792463203 
1326	 0.410266586970704 
1327	 0.409929326065787 
1328	 0.409578095728085 
1329	 0.409224702296742 
1330	 0.408828674264413 
1331	 0.408383323656885 
1332	 0.40795414469161 
1333	 0.407501501688575 
1334	 0.407069379635875 
1335	 0.406646631583915 
1336	 0.406215625059941 
1337	 0.405790303306181 
1338	 0.405355946198486 
1339	 0.404901079505937 
1340	 0.40446620483696 
1341	 0.404047147437899 
1342	 0.403618612222356 
1343	 0.403188415699533 
1344	 0.402766942518011 
1345	 0.402346151159051 
1346	 0.401919075310961 
1347	 0.401512587865962 
1348	 0.401125206891671 
1349	 0.400725249753766 
1350	 0.400331446706367 
1351	 0.399951815934389 
1352	 0.39958610456188 
1353	 0.399208685335851 
1354	 0.398837896866136 
1355	 0.39846047853594 
1356	 0.398067931962479 
1357	 0.397692899892993 
1358	 0.397327900104604 
1359	 0.396958276419298 
1360	 0.396601216848845 
1361	 0.39622858943346 
1362	 0.395847433165011 
1363	 0.39546563252199 
1364	 0.395065925514162 
1365	 0.394679002359331 
1366	 0.394295205846046 
1367	 0.393924959018199 
1368	 0.393549991160685 
1369	 0.393183962081292 
1370	 0.392772394722822 
1371	 0.392322718653432 
1372	 0.391860177448928 
1373	 0.391383152932745 
1374	 0.390879178022109 
1375	 0.390380381642616 
1376	 0.389796048931114 
1377	 0.389172866576698 
1378	 0.388484181517583 
1379	 0.387717864813359 
1380	 0.386938148627649 
1381	 0.386123683253423 
1382	 0.385252243604662 
1383	 0.384360555498669 
1384	 0.383393232018301 
1385	 0.382381011410817 
1386	 0.381292896367618 
1387	 0.380144516903683 
1388	 0.378929816266701 
1389	 0.377656043327503 
1390	 0.376293047896143 
1391	 0.374886336720879 
1392	 0.373384036960363 
1393	 0.371778557330377 
1394	 0.370124276735354 
1395	 0.36834768018381 
1396	 0.36653700240149 
1397	 0.364703560723525 
1398	 0.362810222662247 
1399	 0.360904346949208 
1400	 0.358950661690223 
1401	 0.357037864784053 
1402	 0.355091950701775 
1403	 0.353217780931123 
1404	 0.351360314580809 
1405	 0.349588468095948 
1406	 0.347841002296181 
1407	 0.34618654554191 
1408	 0.344580014815542 
1409	 0.343109337297699 
1410	 0.341730057205639 
1411	 0.340454956543768 
1412	 0.33930500044368 
1413	 0.338241791186885 
1414	 0.337246305381759 
1415	 0.336314205049129 
1416	 0.335468569424369 
1417	 0.334672208801329 
1418	 0.333896094909767 
1419	 0.333159101107526 
1420	 0.332441473126614 
1421	 0.331740345237419 
1422	 0.331075203131711 
1423	 0.330429679595813 
1424	 0.32979169803 
1425	 0.329153326771598 
1426	 0.328566947876527 
1427	 0.328001377674617 
1428	 0.327475436775034 
1429	 0.327000491622367 
1430	 0.32652792884719 
1431	 0.32607054616021 
1432	 0.325640684942103 
1433	 0.325233768019311 
1434	 0.32485243842024 
1435	 0.324497944643314 
1436	 0.324164109483719 
1437	 0.323859322165448 
1438	 0.323557516091631 
1439	 0.3232681888461 
1440	 0.323005505554713 
1441	 0.32274050334981 
1442	 0.32247229437092 
1443	 0.322223092424626 
1444	 0.321973039296298 
1445	 0.321729820376115 
1446	 0.32151395601162 
1447	 0.321312548904886 
1448	 0.321108342926585 
1449	 0.320899397240048 
1450	 0.320695368987253 
1451	 0.32050788356222 
1452	 0.320325549127807 
1453	 0.320148373279916 
1454	 0.319986699122802 
1455	 0.319832019482532 
1456	 0.319675534552816 
1457	 0.319533061605483 
1458	 0.319417150534484 
1459	 0.319279303807201 
1460	 0.319132507281563 
1461	 0.318993323278522 
1462	 0.318847309192975 
1463	 0.318716213674425 
1464	 0.318594265509534 
1465	 0.318476447992783 
1466	 0.318355175108683 
1467	 0.318256775818181 
1468	 0.318143810696708 
1469	 0.318089114357325 
1470	 0.318076361629022 
1471	 0.318087690430556 
1472	 0.318119071940298 
1473	 0.318190883397999 
1474	 0.318254846850205 
1475	 0.318313279031143 
1476	 0.318399129855938 
1477	 0.318501403766624 
1478	 0.318598007883787 
1479	 0.318713741472236 
1480	 0.318852433782465 
1481	 0.318986068069124 
1482	 0.319147988135388 
1483	 0.319339311760189 
1484	 0.319530798368919 
1485	 0.319740500146651 
1486	 0.319945578814773 
1487	 0.320151774481757 
1488	 0.320366836679133 
1489	 0.320587111076722 
1490	 0.32080875196989 
1491	 0.321048195714584 
1492	 0.321272786748296 
1493	 0.321488137776376 
1494	 0.321705268184384 
1495	 0.321924359625231 
1496	 0.322128890069644 
1497	 0.322329199313886 
1498	 0.322527622086098 
1499	 0.322710600943638 
1500	 0.32289752486436 
1501	 0.323090273082191 
1502	 0.32326938666569 
1503	 0.323433980204728 
1504	 0.323610994452988 
1505	 0.323793223416793 
1506	 0.323961071878131 
1507	 0.324124835443281 
1508	 0.324279390683651 
1509	 0.324394304881148 
1510	 0.324512472120314 
1511	 0.324647345344806 
1512	 0.324774717881957 
1513	 0.324900047335556 
1514	 0.325044455711765 
1515	 0.325184239423843 
1516	 0.325308096807208 
1517	 0.325462102759776 
1518	 0.325649778503785 
1519	 0.32579510502884 
1520	 0.325947168372409 
1521	 0.326067506688507 
1522	 0.326146653713973 
1523	 0.326239606403816 
1524	 0.326322101202388 
1525	 0.326412182353906 
1526	 0.32650252264417 
1527	 0.326593271346285 
1528	 0.326685101734499 
1529	 0.326776081440876 
1530	 0.326872776429625 
1531	 0.326958226794726 
1532	 0.327044412694951 
1533	 0.327114780776092 
1534	 0.327171678992853 
1535	 0.327226682829125 
1536	 0.327261043138457 
1537	 0.327311216655022 
1538	 0.32737197553367 
1539	 0.327419710769203 
1540	 0.327464228461717 
1541	 0.327517442242495 
1542	 0.327566795550345 
1543	 0.327613386022056 
1544	 0.32767841126033 
1545	 0.327722804256413 
1546	 0.327752064971798 
1547	 0.327778848436674 
1548	 0.32778934285362 
1549	 0.327790625779998 
1550	 0.327786665290977 
1551	 0.327783646156684 
1552	 0.327799598931251 
1553	 0.327820791171689 
1554	 0.327849237401416 
1555	 0.327879876028757 
1556	 0.327893453787467 
1557	 0.327887134257208 
1558	 0.327879233204948 
1559	 0.327860956150719 
1560	 0.327859417199188 
1561	 0.327863519022865 
1562	 0.327871917657976 
1563	 0.327891593625959 
1564	 0.327907986979669 
1565	 0.327930276306034 
1566	 0.327935591631145 
1567	 0.327943211943449 
1568	 0.327927233836602 
1569	 0.327882060895733 
1570	 0.327857393526632 
1571	 0.327832946527439 
1572	 0.327801381850544 
1573	 0.327765591140764 
1574	 0.327746929883554 
1575	 0.327742521784006 
1576	 0.327705193038495 
1577	 0.327663173053007 
1578	 0.327625580788919 
1579	 0.327542970080941 
1580	 0.3275112249049 
1581	 0.32752762849283 
1582	 0.327521977733383 
1583	 0.327534273313561 
1584	 0.327518458333046 
1585	 0.327476204662113 
1586	 0.327453030686617 
1587	 0.327430916342688 
1588	 0.327396817477351 
1589	 0.327373502000433 
1590	 0.327332452816754 
1591	 0.327264637533876 
1592	 0.327207421360737 
1593	 0.327147482136841 
1594	 0.327092940645139 
1595	 0.327042267120332 
1596	 0.326987547138012 
1597	 0.326932080005327 
1598	 0.326879572109618 
1599	 0.326832090288781 
1600	 0.326775672044685 
1601	 0.326710740470897 
1602	 0.326658748412818 
1603	 0.326604992811956 
1604	 0.3265534967634 
1605	 0.326516697581589 
1606	 0.326475671265034 
1607	 0.326436067602583 
1608	 0.326383775879049 
1609	 0.326338586428858 
1610	 0.326295269605033 
1611	 0.326231320238867 
1612	 0.326166612491982 
1613	 0.3260950076347 
1614	 0.326007571973781 
1615	 0.32593507319532 
1616	 0.325866684601482 
1617	 0.325786256669758 
1618	 0.325700705707423 
1619	 0.325608946992853 
1620	 0.325509212541406 
1621	 0.325425512394585 
1622	 0.325357114299346 
1623	 0.325269683781197 
1624	 0.325178116380455 
1625	 0.325090243056769 
1626	 0.324996106787618 
1627	 0.324898860962147 
1628	 0.324803391107495 
1629	 0.324713833238707 
1630	 0.324610690557101 
1631	 0.324535514226751 
1632	 0.324482773588007 
1633	 0.324422225086513 
1634	 0.324376537121229 
1635	 0.324306654434109 
1636	 0.324235489342381 
1637	 0.324141960703596 
1638	 0.324018254973972 
1639	 0.323919804684163 
1640	 0.323815576134706 
1641	 0.323723782916611 
1642	 0.323651681102026 
1643	 0.323565415300543 
1644	 0.323477024772206 
1645	 0.323382411167446 
1646	 0.323288958539909 
1647	 0.32318105476646 
1648	 0.323062679149992 
1649	 0.322941300524274 
1650	 0.322801400854614 
1651	 0.322679731210831 
1652	 0.322562595141144 
1653	 0.322447195917794 
1654	 0.322341813185361 
1655	 0.322231684490945 
1656	 0.322136475692944 
1657	 0.321997811863006 
1658	 0.321835375470858 
1659	 0.321680671596493 
1660	 0.321487029126025 
1661	 0.321332041330827 
1662	 0.321208637609483 
1663	 0.321066208748066 
1664	 0.320917331101538 
1665	 0.320785100614705 
1666	 0.32064865078736 
1667	 0.320534702137215 
1668	 0.320463811231002 
1669	 0.320345042835542 
1670	 0.320220725022426 
1671	 0.320079513218058 
1672	 0.319888828540742 
1673	 0.319742829457844 
1674	 0.319617238057092 
1675	 0.31947994813041 
1676	 0.31936228125007 
1677	 0.319219905057721 
1678	 0.319052384676587 
1679	 0.318900441647104 
1680	 0.318738731715029 
1681	 0.31859945515403 
1682	 0.318465835178609 
1683	 0.318355738036991 
1684	 0.31829130611739 
1685	 0.318176400767458 
1686	 0.318067495429699 
1687	 0.317922440558431 
1688	 0.317712263131405 
1689	 0.31754850709602 
1690	 0.31738500675481 
1691	 0.317240895318466 
1692	 0.317120707953685 
1693	 0.317000530741004 
1694	 0.316916817473149 
1695	 0.316772590557432 
1696	 0.316587900165723 
1697	 0.316438938553437 
1698	 0.316262724442953 
1699	 0.316112843448422 
1700	 0.316021648216233 
1701	 0.315881209555417 
1702	 0.315712154470947 
1703	 0.315549896066293 
1704	 0.315372883887196 
1705	 0.315206658669315 
1706	 0.315047763443583 
1707	 0.314879395029429 
1708	 0.314701602122314 
1709	 0.314543999238932 
1710	 0.31439181894557 
1711	 0.314239875818934 
1712	 0.314108506644931 
1713	 0.313957405494205 
1714	 0.313789795811879 
1715	 0.313627909910727 
1716	 0.313461121913168 
1717	 0.313304640141462 
1718	 0.313141942387014 
1719	 0.313007115914862 
1720	 0.312900886896425 
1721	 0.312770415931008 
1722	 0.312653065935654 
1723	 0.312517487051849 
1724	 0.3123611283414 
1725	 0.312204916174194 
1726	 0.31204238798579 
1727	 0.311882707291969 
1728	 0.31171469833093 
1729	 0.311548145448527 
1730	 0.311391141731362 
1731	 0.311216959740511 
1732	 0.311034932700117 
1733	 0.310852462574184 
1734	 0.310659429255426 
1735	 0.310473897969886 
1736	 0.310284443124118 
1737	 0.310097585054296 
1738	 0.309906518520785 
1739	 0.309743659448115 
1740	 0.309591696664036 
1741	 0.309450730476449 
1742	 0.309336435257248 
1743	 0.309211244763367 
1744	 0.309092054678947 
1745	 0.308949650220472 
1746	 0.308812165884902 
1747	 0.308609285345511 
1748	 0.308410002860338 
1749	 0.308247082329886 
1750	 0.308090813772245 
1751	 0.307958384468384 
1752	 0.307849359306242 
1753	 0.307722863161892 
1754	 0.307577622528544 
1755	 0.307426938070972 
1756	 0.307264238434119 
1757	 0.307095467881029 
1758	 0.306936483275307 
1759	 0.306794310241223 
1760	 0.306662364905242 
1761	 0.306516613000376 
1762	 0.306360478347969 
1763	 0.306213716780315 
1764	 0.306076205373096 
1765	 0.305924401535001 
1766	 0.305743416307142 
1767	 0.305557226092289 
1768	 0.305368116850926 
1769	 0.305194589049246 
1770	 0.305077691979811 
1771	 0.304986483275987 
1772	 0.304864973240205 
1773	 0.304720015282095 
1774	 0.304581308544122 
1775	 0.304440541929026 
1776	 0.304315764750915 
1777	 0.304240046660844 
1778	 0.304149049311052 
1779	 0.304019358139749 
1780	 0.303883901091616 
1781	 0.303727896032486 
1782	 0.30360211501336 
1783	 0.303485785311247 
1784	 0.303381609864305 
1785	 0.303301778284263 
1786	 0.303209737477085 
1787	 0.303133487013384 
1788	 0.303040706133658 
1789	 0.302941442951403 
1790	 0.302837914603467 
1791	 0.302697496159769 
1792	 0.302611589748676 
1793	 0.302542224679211 
1794	 0.302489291218721 
1795	 0.302495118993997 
1796	 0.302447056117976 
1797	 0.30238900016331 
1798	 0.302321783160755 
1799	 0.302216743428378 
1800	 0.302156090938487 
1801	 0.306432210851609 
1802	 0.306414635348093 
1803	 0.306395995179259 
1804	 0.306351000999325 
1805	 0.306360551593005 
1806	 0.30639806210414 
1807	 0.306397067458726 
1808	 0.306390816003826 
1809	 0.306417493422344 
1810	 0.306382004655956 
1811	 0.306277837978397 
1812	 0.306216283134607 
1813	 0.306176556854038 
1814	 0.306100526680889 
1815	 0.306062789390839 
1816	 0.306044774142531 
1817	 0.305990898491107 
1818	 0.305898900234243 
1819	 0.305848165225916 
1820	 0.305808282394075 
1821	 0.305755030475475 
1822	 0.305716459543266 
1823	 0.305692244790622 
1824	 0.305654293408487 
1825	 0.305591275596188 
1826	 0.305538374846394 
1827	 0.305473749620813 
1828	 0.305383090476475 
1829	 0.305259073932281 
1830	 0.305140272270433 
1831	 0.304990609154137 
1832	 0.304884141376749 
1833	 0.304767743246022 
1834	 0.304676459826282 
1835	 0.304611724366759 
1836	 0.304504942644333 
1837	 0.304402877030354 
1838	 0.304321961261849 
1839	 0.304212936054135 
1840	 0.304081597698189 
1841	 0.303958604637931 
1842	 0.303841539197473 
1843	 0.30370132891736 
1844	 0.303591065502847 
1845	 0.30347416588343 
1846	 0.303333606379858 
1847	 0.303203814549011 
1848	 0.303058418852309 
1849	 0.302870166006079 
1850	 0.30268127655806 
1851	 0.302479426716241 
1852	 0.302274412000351 
1853	 0.302062824153327 
1854	 0.301848080020828 
1855	 0.30160218471666 
1856	 0.301303776865363 
1857	 0.300952232723467 
1858	 0.30059542043941 
1859	 0.300233296075573 
1860	 0.299836288701518 
1861	 0.299421199479996 
1862	 0.298986495016084 
1863	 0.298493219668776 
1864	 0.297963928984927 
1865	 0.297424676187169 
1866	 0.296835404448453 
1867	 0.296226133012892 
1868	 0.295568773849884 
1869	 0.294828734878098 
1870	 0.294039589300617 
1871	 0.293194426447302 
1872	 0.292282301376775 
1873	 0.291334389259301 
1874	 0.290370718124566 
1875	 0.289350661123898 
1876	 0.288288776499516 
1877	 0.287155909959999 
1878	 0.285887934795814 
1879	 0.284562576975862 
1880	 0.283144701650923 
1881	 0.28162457696602 
1882	 0.280020627570469 
1883	 0.27835325248713 
1884	 0.276538398417565 
1885	 0.27465827351056 
1886	 0.272699902673053 
1887	 0.270613415985875 
1888	 0.268451457508961 
1889	 0.266151554115949 
1890	 0.263783865158882 
1891	 0.261416048212787 
1892	 0.258990338423648 
1893	 0.256538181510891 
1894	 0.254069807619654 
1895	 0.251568721337716 
1896	 0.24898216393187 
1897	 0.246402471474768 
1898	 0.243820676983532 
1899	 0.241248655704728 
1900	 0.238751468984172 
1901	 0.236304742100811 
1902	 0.233963010030716 
1903	 0.23170587873068 
1904	 0.229561996699916 
1905	 0.227504539069235 
1906	 0.225560112714538 
1907	 0.22374387774057 
1908	 0.222034832362014 
1909	 0.220452833267166 
1910	 0.218982288969804 
1911	 0.217599113993996 
1912	 0.216298118340947 
1913	 0.215057402257936 
1914	 0.213870857477052 
1915	 0.212777527474432 
1916	 0.211767534162881 
1917	 0.210824964748222 
1918	 0.209965280590766 
1919	 0.209151313108992 
1920	 0.208388404646993 
1921	 0.207691577672268 
1922	 0.207046122022498 
1923	 0.206472944184826 
1924	 0.205964459899789 
1925	 0.205532744416371 
1926	 0.205144477977787 
1927	 0.204817295397804 
1928	 0.204541010864059 
1929	 0.204308919918589 
1930	 0.204120821578861 
1931	 0.203965570228334 
1932	 0.203835146667821 
1933	 0.203745032941764 
1934	 0.203699312675547 
1935	 0.203669572094954 
1936	 0.203663027222665 
1937	 0.203697571670203 
1938	 0.203764726751332 
1939	 0.203852553938311 
1940	 0.203970655344173 
1941	 0.204127172299828 
1942	 0.20429987360199 
1943	 0.204487749574287 
1944	 0.204736333469528 
1945	 0.205006349419995 
1946	 0.205268918132254 
1947	 0.205549436010112 
1948	 0.205842964399249 
1949	 0.206129366288128 
1950	 0.206438124639894 
1951	 0.206777825695684 
1952	 0.207114671474654 
1953	 0.207452296810635 
1954	 0.207824749626362 
1955	 0.208204465500483 
1956	 0.208582675747286 
1957	 0.208963793526018 
1958	 0.209347796563521 
1959	 0.209732726965943 
1960	 0.210130479282002 
1961	 0.210513367457123 
1962	 0.210876582706427 
1963	 0.211262961452208 
1964	 0.211646308537626 
1965	 0.212039250207917 
1966	 0.212462244777761 
1967	 0.212913177211895 
1968	 0.213355696001734 
1969	 0.213808953487752 
1970	 0.214258446324175 
1971	 0.214713905014782 
1972	 0.215163160897799 
1973	 0.215596752668388 
1974	 0.21605742676828 
1975	 0.216518395329165 
1976	 0.217000294493048 
1977	 0.217520151798583 
1978	 0.218046873516223 
1979	 0.218560580014529 
1980	 0.219067624002317 
1981	 0.219579754000173 
1982	 0.220074877136974 
1983	 0.220591964790602 
1984	 0.221120767568819 
1985	 0.221659691925897 
1986	 0.222220486130462 
1987	 0.222760149972043 
1988	 0.223299175811323 
1989	 0.2238504309866 
1990	 0.224355160000753 
1991	 0.224865722830391 
1992	 0.225394255309432 
1993	 0.225927275676523 
1994	 0.226463705463319 
1995	 0.227021889492247 
1996	 0.227560625296401 
1997	 0.22809650865999 
1998	 0.228623444137924 
1999	 0.229139608733402 
2000	 0.229662275142021 
2001	 0.230181965695284 
2002	 0.230697958787961 
2003	 0.231232062059236 
2004	 0.231734948658978 
2005	 0.232235537008824 
2006	 0.232729755760034 
2007	 0.233212930696903 
2008	 0.233674131995609 
2009	 0.234148897063559 
2010	 0.234625095273699 
2011	 0.235096129455779 
2012	 0.235569155691421 
2013	 0.236038744250633 
2014	 0.236506897461708 
2015	 0.236960123397576 
2016	 0.237422082615724 
2017	 0.237893328375898 
2018	 0.238344157792649 
2019	 0.238781280499936 
2020	 0.239228423035496 
2021	 0.239662379598395 
2022	 0.240110646612245 
2023	 0.240577264246737 
2024	 0.241033358599621 
2025	 0.241496527389748 
2026	 0.241943786314216 
2027	 0.242384734031127 
2028	 0.242813186921437 
2029	 0.243242377082607 
2030	 0.243665697006358 
2031	 0.244080234716008 
2032	 0.244490031097468 
2033	 0.244896287753046 
2034	 0.245298624970475 
2035	 0.245682065038887 
2036	 0.246045016365367 
2037	 0.246425944482138 
2038	 0.246807967790184 
2039	 0.247176181262409 
2040	 0.247555442468823 
2041	 0.247920168389733 
2042	 0.248267874399118 
2043	 0.248601176892507 
2044	 0.248950793613338 
2045	 0.249306811332971 
2046	 0.24966763438884 
2047	 0.25004128425568 
2048	 0.250398472185963 
2049	 0.250771908786558 
2050	 0.25110799232272 
2051	 0.251403996211278 
2052	 0.251715758002695 
2053	 0.252011699681006 
2054	 0.252313550145024 
2055	 0.2526148634317 
2056	 0.252937683644697 
2057	 0.253245785039282 
2058	 0.253542103747646 
2059	 0.253857578963414 
2060	 0.254186239139424 
2061	 0.254503293456967 
2062	 0.254832918625891 
2063	 0.255142837762328 
2064	 0.255448678708852 
2065	 0.255730847502632 
2066	 0.255994464718668 
2067	 0.256252549276939 
2068	 0.256479169033582 
2069	 0.256712947820907 
2070	 0.256969435682965 
2071	 0.257223128615727 
2072	 0.257514338679853 
2073	 0.257848184003097 
2074	 0.258151128869112 
2075	 0.258472267834049 
2076	 0.258771137335225 
2077	 0.259043577532232 
2078	 0.259327857541334 
2079	 0.259623044609603 
2080	 0.259898686909597 
2081	 0.260159591328289 
2082	 0.26042649511954 
2083	 0.260687352877138 
2084	 0.260931723612494 
2085	 0.261210872894316 
2086	 0.261518070112438 
2087	 0.261793483313237 
2088	 0.262068100540231 
2089	 0.262346704081957 
2090	 0.262622422747899 
2091	 0.2628745636114 
2092	 0.26312046831996 
2093	 0.263372853830068 
2094	 0.263596277361836 
2095	 0.263837446972504 
2096	 0.264114003199551 
2097	 0.264364004077309 
2098	 0.264607084165105 
2099	 0.264825356567553 
2100	 0.265055188830563 
2101	 0.265276369475061 
2102	 0.265505557663351 
2103	 0.265735502968853 
2104	 0.265971063392748 
2105	 0.266202567099701 
2106	 0.266452188602992 
2107	 0.266717013483695 
2108	 0.266980307048817 
2109	 0.2672630389199 
2110	 0.267528783580898 
2111	 0.267769343155044 
2112	 0.268038131324924 
2113	 0.268311388702694 
2114	 0.268601498035855 
2115	 0.268882611392771 
2116	 0.269185121195624 
2117	 0.269466092428338 
2118	 0.269727640307109 
2119	 0.270002463644716 
2120	 0.27028684011214 
2121	 0.270560499140978 
2122	 0.270834214954287 
2123	 0.27109610410829 
2124	 0.271357126411243 
2125	 0.27159910329278 
2126	 0.271827520024431 
2127	 0.272047469060609 
2128	 0.272254346851771 
2129	 0.272447150288117 
2130	 0.2726167364846 
2131	 0.272795060592453 
2132	 0.272969441226285 
2133	 0.273145474850419 
2134	 0.273294797355882 
2135	 0.273436606333085 
2136	 0.273567414863584 
2137	 0.273669134214356 
2138	 0.273774321352347 
2139	 0.273891292291007 
2140	 0.273981181394526 
2141	 0.274049361016679 
2142	 0.274109677857539 
2143	 0.274164098179416 
2144	 0.274196065623397 
2145	 0.274194506834385 
2146	 0.274206091220386 
2147	 0.274208078327349 
2148	 0.274203180430693 
2149	 0.274208609628104 
2150	 0.274238920051897 
2151	 0.274224941105924 
2152	 0.2741926266039 
2153	 0.274156519692091 
2154	 0.274091952821851 
2155	 0.274041540694925 
2156	 0.274025452959526 
2157	 0.27394410710931 
2158	 0.273828372065443 
2159	 0.273708378194343 
2160	 0.273533690772731 
2161	 0.2733795440711 
2162	 0.273233872938683 
2163	 0.273085600168453 
2164	 0.27291867399545 
2165	 0.272778941744052 
2166	 0.272641128921089 
2167	 0.272517711567774 
2168	 0.2723757224449 
2169	 0.272238789000018 
2170	 0.272090007000981 
2171	 0.271917408651967 
2172	 0.271766134128788 
2173	 0.271621932257375 
2174	 0.271477103741939 
2175	 0.271346205722065 
2176	 0.271199537558354 
2177	 0.271027448548217 
2178	 0.27088829067888 
2179	 0.270764268526553 
2180	 0.270633733592547 
2181	 0.270522241172448 
2182	 0.270408521363762 
2183	 0.270279858893425 
2184	 0.270161625636334 
2185	 0.270046955321169 
2186	 0.269943859689903 
2187	 0.269835917877451 
2188	 0.269727078037674 
2189	 0.269618870781125 
2190	 0.269509781238065 
2191	 0.269409296896504 
2192	 0.269307635181574 
2193	 0.269216790535377 
2194	 0.269138000074203 
2195	 0.269059011902518 
2196	 0.268997498648959 
2197	 0.268916069561041 
2198	 0.268815865983253 
2199	 0.268733963355865 
2200	 0.268659602312113 
2201	 0.268572214169784 
2202	 0.268480905522381 
2203	 0.268407614211973 
2204	 0.268322603443459 
2205	 0.268207637973441 
2206	 0.268140274903651 
2207	 0.268098934858515 
2208	 0.268055665862628 
2209	 0.268031302758603 
2210	 0.268005994843133 
2211	 0.267994706574369 
2212	 0.267962958342286 
2213	 0.267925516830159 
2214	 0.267893037708928 
2215	 0.267856012818105 
2216	 0.267806569585523 
2217	 0.267748848594802 
2218	 0.267703446182334 
2219	 0.267640940022119 
2220	 0.267598717530994 
2221	 0.267590633935033 
2222	 0.267573677495817 
2223	 0.267520203478021 
2224	 0.267465204984027 
2225	 0.267423186382721 
2226	 0.267366118287714 
2227	 0.267324011470006 
2228	 0.26730145878258 
2229	 0.267281207456212 
2230	 0.267267104413162 
2231	 0.267238875409362 
2232	 0.267217790568548 
2233	 0.267190002480461 
2234	 0.267145241301731 
2235	 0.267098313391166 
2236	 0.267057358592585 
2237	 0.267010128664338 
2238	 0.266943007282542 
2239	 0.266887017093515 
2240	 0.2668336910037 
2241	 0.266791075207495 
2242	 0.266760525727278 
2243	 0.266721209664498 
2244	 0.266700924672823 
2245	 0.266661264481285 
2246	 0.266576878891265 
2247	 0.266476650404925 
2248	 0.266390129832464 
2249	 0.266280574744726 
2250	 0.266193829695047 
2251	 0.266124657645539 
2252	 0.266056596762265 
2253	 0.265979318047464 
2254	 0.265930714522827 
2255	 0.265920067000695 
2256	 0.265873847397764 
2257	 0.265822363029444 
2258	 0.265776861230263 
2259	 0.265728152215087 
2260	 0.265663528534025 
2261	 0.265595229905687 
2262	 0.265531104354214 
2263	 0.265461171430711 
2264	 0.265366441420744 
2265	 0.265257787004988 
2266	 0.265164731428368 
2267	 0.26502870585554 
2268	 0.264942575199668 
2269	 0.264900484485729 
2270	 0.264869834689204 
2271	 0.264860694593893 
2272	 0.264838106983637 
2273	 0.264762244730281 
2274	 0.264648880497111 
2275	 0.264524558912823 
2276	 0.264338923802373 
2277	 0.264193259869283 
2278	 0.264037563648576 
2279	 0.263927888885113 
2280	 0.263843449927363 
2281	 0.263762236463967 
2282	 0.263723239493067 
2283	 0.263660241227294 
2284	 0.26359045772121 
2285	 0.263508642793301 
2286	 0.263428869322925 
2287	 0.263332579258721 
2288	 0.263214024953159 
2289	 0.263105104453374 
2290	 0.26300452165633 
2291	 0.262878421695092 
2292	 0.26273454520263 
2293	 0.262590789046077 
2294	 0.262424905427632 
2295	 0.262259548167144 
2296	 0.262089575481676 
2297	 0.261932144380165 
2298	 0.261796726785407 
2299	 0.261643054037281 
2300	 0.261477278227161 
2301	 0.261387400395548 
2302	 0.261225003560888 
2303	 0.261027765979715 
2304	 0.260860737624782 
2305	 0.260623402165165 
2306	 0.260421315024728 
2307	 0.260225727534113 
2308	 0.260035538835667 
2309	 0.25983650313814 
2310	 0.259662383774781 
2311	 0.259516101178432 
2312	 0.259329400262705 
2313	 0.259141803260846 
2314	 0.258963211295014 
2315	 0.258766939179061 
2316	 0.258558562970063 
2317	 0.258355553018188 
2318	 0.25815651524001 
2319	 0.257932092702333 
2320	 0.25771774236404 
2321	 0.257551598017748 
2322	 0.257325069118339 
2323	 0.257036017944442 
2324	 0.256789179871536 
2325	 0.25653547047087 
2326	 0.256294527653592 
2327	 0.256077532667909 
2328	 0.255862195728911 
2329	 0.255632270981595 
2330	 0.255379815655012 
2331	 0.255191233086528 
2332	 0.255011804647471 
2333	 0.25484245807958 
2334	 0.254681083926648 
2335	 0.254449185537309 
2336	 0.254215121862749 
2337	 0.253993224918693 
2338	 0.253760042354636 
2339	 0.253476338998529 
2340	 0.253129592791119 
2341	 0.252800202885691 
2342	 0.252480041024725 
2343	 0.252163829757359 
2344	 0.251912580523212 
2345	 0.251643112725229 
2346	 0.251374554198032 
2347	 0.251053324996729 
2348	 0.250741047761972 
2349	 0.250395630893511 
2350	 0.249983398716481 
2351	 0.249608304087642 
2352	 0.249244040947604 
2353	 0.248855128541396 
2354	 0.248425913631526 
2355	 0.248056860272811 
2356	 0.247728561673184 
2357	 0.247368389361383 
2358	 0.247042339287548 
2359	 0.246668168542768 
2360	 0.246236347642252 
2361	 0.245822787954416 
2362	 0.245399986873869 
2363	 0.244990815951006 
2364	 0.244581774072071 
2365	 0.244183294494129 
2366	 0.243809727532958 
2367	 0.243413137364953 
2368	 0.242983538073393 
2369	 0.242585611814924 
2370	 0.242190210378843 
2371	 0.24182386222301 
2372	 0.241440936043237 
2373	 0.241093696363801 
2374	 0.240711211667308 
2375	 0.24029509159878 
2376	 0.239889380024009 
2377	 0.239452165057005 
2378	 0.239054818118818 
2379	 0.238604503480236 
2380	 0.238067264593708 
2381	 0.237598150101678 
2382	 0.237105248500159 
2383	 0.236579498973723 
2384	 0.236111226366251 
2385	 0.23568811034323 
2386	 0.235219405406421 
2387	 0.234719802092094 
2388	 0.234316801165325 
2389	 0.23391722461228 
2390	 0.233475953567856 
2391	 0.233063117441096 
2392	 0.23265244830559 
2393	 0.232163402651719 
2394	 0.231637327230373 
2395	 0.231207132106449 
2396	 0.230805819876422 
2397	 0.230340798220893 
2398	 0.229916862235199 
2399	 0.229468589549671 
2400	 0.228934882280177 
2401	 0.228457326366643 
2402	 0.227982878011439 
2403	 0.22750602202522 
2404	 0.227055174396097 
2405	 0.226682119289794 
2406	 0.226385887002534 
2407	 0.226100965047177 
2408	 0.225899396134291 
2409	 0.22556081248293 
2410	 0.22506079718442 
2411	 0.224583676337784 
2412	 0.22400111338875 
2413	 0.223409949129111 
2414	 0.222992704648484 
2415	 0.222608331507022 
2416	 0.222223197697475 
2417	 0.221933941071447 
2418	 0.221560033162144 
2419	 0.221117617722657 
2420	 0.220712331833487 
2421	 0.220313749930725 
2422	 0.219888346656876 
2423	 0.219464292547032 
2424	 0.219019945772591 
2425	 0.218545130500354 
2426	 0.218089990387661 
2427	 0.217670962617658 
2428	 0.217215899758835 
2429	 0.216692185667211 
2430	 0.216195248945751 
2431	 0.215683508623602 
2432	 0.215213932798571 
2433	 0.214785233125605 
2434	 0.214373036967437 
2435	 0.214003989635379 
2436	 0.213592742061446 
2437	 0.213196176177015 
2438	 0.212805784879148 
2439	 0.212380267634155 
2440	 0.211948217073332 
2441	 0.211558013532099 
2442	 0.211118046181448 
2443	 0.210641182969817 
2444	 0.210147297040712 
2445	 0.209526654142385 
2446	 0.209031499862846 
2447	 0.208622612125399 
2448	 0.208198003305426 
2449	 0.207847146489096 
2450	 0.207505323177098 
2451	 0.207133775892004 
2452	 0.206717039202557 
2453	 0.206432150291025 
2454	 0.206013186214106 
2455	 0.205399341668488 
2456	 0.204978525558176 
2457	 0.20454153514725 
2458	 0.204060377011902 
2459	 0.203733843668267 
2460	 0.203305284684365 
2461	 0.202751722216447 
2462	 0.202336242127917 
2463	 0.201935886897643 
2464	 0.201502790656274 
2465	 0.201078699410351 
2466	 0.200731567784554 
2467	 0.200491861612194 
2468	 0.200097922267421 
2469	 0.199687454820849 
2470	 0.199443198005121 
2471	 0.198978302386673 
2472	 0.198508024462239 
2473	 0.198066105366046 
2474	 0.197575117092321 
2475	 0.197017525807486 
2476	 0.196663461593578 
2477	 0.196419760456264 
2478	 0.195873467740575 
2479	 0.195451658645266 
2480	 0.195272268723372 
2481	 0.194892235919443 
2482	 0.194495074784263 
2483	 0.194283171068751 
2484	 0.193879394487162 
2485	 0.193514010442732 
2486	 0.193319702987868 
2487	 0.192883991860888 
2488	 0.192509918859902 
2489	 0.192167309181157 
2490	 0.191782808761622 
2491	 0.191582059033705 
2492	 0.191235689450439 
2493	 0.190808810906294 
2494	 0.190466499195859 
2495	 0.190164791853922 
2496	 0.189893267918306 
2497	 0.189576875993791 
2498	 0.189442103322604 
2499	 0.189302116909705 
2500	 0.188998289944354 
