Wavelength	mm1200007.asd
350	 2.50010510674585E-02 
351	 3.45589428558495E-02 
352	 2.96398654530738E-02 
353	 1.07859301189908E-02 
354	 2.77045181203957E-02 
355	 3.13817196426696E-02 
356	 2.71478395431863E-02 
357	 2.94324774285321E-02 
358	 0.029090416717632 
359	 2.81904900701256E-02 
360	 2.73190886683124E-02 
361	 2.57426594698803E-02 
362	 1.98104324682059E-02 
363	 1.85259150525963E-02 
364	 2.32795188749759E-02 
365	 2.15898771964708E-02 
366	 0.0220215472037 
367	 2.40659332426211E-02 
368	 0.025069368809717 
369	 2.35517833173159E-02 
370	 2.59356426333847E-02 
371	 2.92044220079777E-02 
372	 2.52910734800143E-02 
373	 2.80347628124329E-02 
374	 3.03051129533965E-02 
375	 2.85593716277909E-02 
376	 0.030149649081383 
377	 3.00725391519259E-02 
378	 2.96123061796146E-02 
379	 3.09425405486458E-02 
380	 0.03235170815544 
381	 3.07591197233348E-02 
382	 2.89755243471056E-02 
383	 3.31368778754024E-02 
384	 3.31507098426203E-02 
385	 3.21907936908981E-02 
386	 3.34718281982955E-02 
387	 3.67345235955096E-02 
388	 3.86966120875504E-02 
389	 3.93511567372733E-02 
390	 3.97499642910184E-02 
391	 3.98284830394174E-02 
392	 4.14656543853471E-02 
393	 4.40636677894627E-02 
394	 4.50329852866195E-02 
395	 4.53866466943891E-02 
396	 4.53529444512886E-02 
397	 4.56412435875124E-02 
398	 4.84833480640514E-02 
399	 5.05114956279912E-02 
400	 5.14560643899177E-02 
401	 5.23288489813283E-02 
402	 5.40710260176744E-02 
403	 5.52148991657653E-02 
404	 5.54630110017196E-02 
405	 5.58581353074508E-02 
406	 5.79648248973154E-02 
407	 5.99631174490879E-02 
408	 6.01539934203768E-02 
409	 5.84181195217111E-02 
410	 5.89508639385126E-02 
411	 0.060975749645386 
412	 6.16769870908351E-02 
413	 6.25190646716351E-02 
414	 6.32793576764437E-02 
415	 6.36992966251441E-02 
416	 6.36490436300236E-02 
417	 6.33169636645579E-02 
418	 6.37736459005751E-02 
419	 6.52862576695369E-02 
420	 6.48920804094845E-02 
421	 6.41885421630472E-02 
422	 6.41672036897663E-02 
423	 6.51038750144817E-02 
424	 6.45514654116936E-02 
425	 6.40501826264905E-02 
426	 6.43706161012195E-02 
427	 6.39406645409661E-02 
428	 6.38343138595925E-02 
429	 6.36981949744594E-02 
430	 6.31102625920892E-02 
431	 0.063655521507616 
432	 6.38319472457987E-02 
433	 6.34633999737586E-02 
434	 6.37241801422566E-02 
435	 6.39037430791972E-02 
436	 6.39386652365393E-02 
437	 0.063909533166689 
438	 6.38630597928313E-02 
439	 6.44685077660843E-02 
440	 0.065283562851023 
441	 6.54403219341146E-02 
442	 6.55814532983179E-02 
443	 6.60446768267426E-02 
444	 6.67522609136285E-02 
445	 6.70669516020228E-02 
446	 6.74676466335106E-02 
447	 6.80368290234319E-02 
448	 6.86647382248507E-02 
449	 6.89098561378234E-02 
450	 6.93920537652985E-02 
451	 7.01041501848957E-02 
452	 7.05056205734361E-02 
453	 7.08151728321404E-02 
454	 7.09287881702222E-02 
455	 7.09461790579939E-02 
456	 7.16390158314518E-02 
457	 7.20684929993346E-02 
458	 7.20335680083543E-02 
459	 0.07176749698038 
460	 7.18805281269889E-02 
461	 7.22319648215421E-02 
462	 7.25692717397036E-02 
463	 7.25938997587072E-02 
464	 0.0727619577297 
465	 7.31776342305346E-02 
466	 7.36862518643145E-02 
467	 7.35648537104871E-02 
468	 7.33998549804387E-02 
469	 7.35024143545328E-02 
470	 7.38776645093796E-02 
471	 7.38230614717085E-02 
472	 7.36950790606475E-02 
473	 7.38209763206992E-02 
474	 0.074040009667254 
475	 7.41322220044412E-02 
476	 7.41323914398253E-02 
477	 7.41815271403172E-02 
478	 7.41974945180854E-02 
479	 7.43005191396849E-02 
480	 7.44168959747677E-02 
481	 7.41797438552873E-02 
482	 7.41886643471337E-02 
483	 7.43859506124483E-02 
484	 7.45427306203201E-02 
485	 7.45679789969628E-02 
486	 7.45628229948953E-02 
487	 7.45441798227311E-02 
488	 7.44672165432301E-02 
489	 7.45674070464547E-02 
490	 7.46891002252214E-02 
491	 7.46628453180198E-02 
492	 7.44012117504318E-02 
493	 7.44905624416634E-02 
494	 7.47768627134962E-02 
495	 7.48015844483689E-02 
496	 7.48064049991685E-02 
497	 7.48049861147623E-02 
498	 7.48199094532043E-02 
499	 7.49219220969548E-02 
500	 0.074923443780841 
501	 7.48914726141383E-02 
502	 7.49344628503126E-02 
503	 7.49783206886643E-02 
504	 7.50364836132004E-02 
505	 7.51005576860068E-02 
506	 0.075137639795095 
507	 7.50276336305119E-02 
508	 7.49674109303253E-02 
509	 7.50627227652706E-02 
510	 7.50166032914637E-02 
511	 7.49400474566127E-02 
512	 7.49066798252675E-02 
513	 7.49518485625209E-02 
514	 7.49234575936195E-02 
515	 0.074908499217001 
516	 7.49710630324194E-02 
517	 7.51040177897155E-02 
518	 0.075115830801094 
519	 7.50726736598084E-02 
520	 7.51030437472194E-02 
521	 7.51475161167178E-02 
522	 7.52185792430218E-02 
523	 7.52780683375998E-02 
524	 7.52358750799085E-02 
525	 7.52232726980165E-02 
526	 0.075239081780575 
527	 7.52654836522828E-02 
528	 0.075338361999635 
529	 7.54224835850849E-02 
530	 7.54611318719032E-02 
531	 7.54057175711264E-02 
532	 7.54740491091702E-02 
533	 7.55318067229447E-02 
534	 7.55135796028457E-02 
535	 7.56092226489577E-02 
536	 7.56857978094192E-02 
537	 7.57482202648812E-02 
538	 7.58359209917589E-02 
539	 7.58436514717922E-02 
540	 7.58728024346403E-02 
541	 7.59699199812945E-02 
542	 7.60892496697318E-02 
543	 7.62118546457754E-02 
544	 7.63317940782028E-02 
545	 0.076448924995794 
546	 0.076561063616539 
547	 0.076680338994821 
548	 7.68193602142519E-02 
549	 7.69893907674274E-02 
550	 7.71896696553829E-02 
551	 7.73307340734156E-02 
552	 0.077414851724749 
553	 7.77419492663608E-02 
554	 7.79442496758599E-02 
555	 7.80707288509767E-02 
556	 7.83647856685713E-02 
557	 7.86689533763104E-02 
558	 7.89963801002978E-02 
559	 7.93630699722251E-02 
560	 7.97663264213893E-02 
561	 8.00753444817788E-02 
562	 8.04159895852833E-02 
563	 8.09472270154605E-02 
564	 8.14784944566794E-02 
565	 8.19666945914507E-02 
566	 8.24773571514792E-02 
567	 8.31810526215702E-02 
568	 0.083853896163567 
569	 8.44856873001394E-02 
570	 8.51180193849316E-02 
571	 8.57735885818654E-02 
572	 0.086471019718009 
573	 0.087242241923632 
574	 8.81135358136046E-02 
575	 8.89362392926373E-02 
576	 8.97362301168446E-02 
577	 9.05768040473981E-02 
578	 9.15404461142275E-02 
579	 9.25528634134661E-02 
580	 9.35909542931192E-02 
581	 9.46572187382048E-02 
582	 9.57808683091149E-02 
583	 9.68572522346586E-02 
584	 9.78672597970655E-02 
585	 9.89285909073232E-02 
586	 0.100119335502209 
587	 0.101286314777279 
588	 0.102310222774363 
589	 0.103554483126995 
590	 0.104786505054935 
591	 0.105943765036825 
592	 0.107134870473742 
593	 0.108220485796397 
594	 0.109296606825853 
595	 0.110433750971688 
596	 0.111513641706048 
597	 0.112604430113258 
598	 0.11369494688727 
599	 0.114745255594964 
600	 0.115831853295619 
601	 0.116871787302331 
602	 0.117819301033554 
603	 0.118728837021354 
604	 0.119626056733867 
605	 0.12049590396164 
606	 0.121323353620156 
607	 0.122198896172578 
608	 0.122992230711981 
609	 0.12369837260296 
610	 0.12446678437438 
611	 0.125129092285068 
612	 0.125741970259128 
613	 0.126370195348375 
614	 0.126921606936548 
615	 0.127450847128434 
616	 0.127969897677297 
617	 0.128455724175907 
618	 0.128890965384036 
619	 0.129261468235319 
620	 0.129596334339854 
621	 0.130022413923561 
622	 0.13038291834995 
623	 0.130706005264724 
624	 0.131070627158072 
625	 0.131351242486189 
626	 0.131619953719933 
627	 0.131921044165316 
628	 0.132241513968634 
629	 0.132535848315968 
630	 0.132792227967403 
631	 0.133017237240457 
632	 0.133228848406192 
633	 0.133484305365393 
634	 0.133778870913611 
635	 0.134055190810941 
636	 0.134281319958292 
637	 0.134496655513392 
638	 0.134736350650128 
639	 0.134993752893447 
640	 0.135244366724396 
641	 0.135507123830703 
642	 0.13580232300058 
643	 0.135991424397129 
644	 0.136214879546803 
645	 0.136515384910964 
646	 0.136754930826034 
647	 0.137036149250017 
648	 0.137344885580766 
649	 0.137640891046181 
650	 0.137926579841308 
651	 0.138175748492359 
652	 0.138419800344074 
653	 0.138734430800362 
654	 0.139052302239744 
655	 0.139356549595379 
656	 0.139653000068672 
657	 0.139972475261621 
658	 0.140354647073899 
659	 0.140725647086961 
660	 0.140986035757382 
661	 0.141298995261828 
662	 0.141666876043128 
663	 0.142059216522539 
664	 0.142422288728415 
665	 0.142803896466822 
666	 0.143201140273347 
667	 0.143598607281239 
668	 0.143991003407501 
669	 0.144392613597775 
670	 0.144818967896926 
671	 0.145278184331861 
672	 0.145660195471607 
673	 0.14606093934597 
674	 0.146539383895651 
675	 0.146977267288196 
676	 0.147459682944561 
677	 0.147951391277771 
678	 0.148384739775423 
679	 0.148838886023984 
680	 0.149355177930362 
681	 0.149906106671542 
682	 0.150381043841796 
683	 0.150913506264321 
684	 0.151455013729349 
685	 0.151951561913945 
686	 0.152510750412283 
687	 0.153066704336742 
688	 0.153606355966219 
689	 0.154152727833909 
690	 0.154668303524493 
691	 0.155204567825044 
692	 0.155789292672952 
693	 0.156385952974227 
694	 0.156938078707808 
695	 0.157478065141407 
696	 0.158058979862362 
697	 0.15863270978169 
698	 0.159204384223167 
699	 0.159788620852777 
700	 0.160403301979019 
701	 0.160970701693332 
702	 0.161536448375254 
703	 0.162137278769 
704	 0.162710602223787 
705	 0.163255756706082 
706	 0.163790696579586 
707	 0.164341007103559 
708	 0.164896017612524 
709	 0.165474114503056 
710	 0.166064730449189 
711	 0.166614770443096 
712	 0.167139422986316 
713	 0.167634620198259 
714	 0.168120003411077 
715	 0.168728154893811 
716	 0.169243116307319 
717	 0.169672503677358 
718	 0.17018234893857 
719	 0.170691965825584 
720	 0.171131661001985 
721	 0.171503183610202 
722	 0.171942793441638 
723	 0.172394783655662 
724	 0.17282452622951 
725	 0.173208031395572 
726	 0.173551448370169 
727	 0.173870989245224 
728	 0.174182560282763 
729	 0.174499971479963 
730	 0.174832912520123 
731	 0.175111256545706 
732	 0.175317787049855 
733	 0.175597190191139 
734	 0.175842103898864 
735	 0.176037877150783 
736	 0.176208054127183 
737	 0.176365584119315 
738	 0.176491947669698 
739	 0.176591342996961 
740	 0.176694187318991 
741	 0.17678454959623 
742	 0.176840417247949 
743	 0.176858867381445 
744	 0.176898066395428 
745	 0.17685899047055 
746	 0.176799081147012 
747	 0.176815849874215 
748	 0.176718317721641 
749	 0.176585854769167 
750	 0.176479754797824 
751	 0.176407440816777 
752	 0.176285446091338 
753	 0.1761221445556 
754	 0.175942699280859 
755	 0.175745904391353 
756	 0.17556581899174 
757	 0.175366429681633 
758	 0.175097427274664 
759	 0.174890919536216 
760	 0.174665977749879 
761	 0.174393823329359 
762	 0.174135305238428 
763	 0.173856080844088 
764	 0.173543439633111 
765	 0.173205492021868 
766	 0.172892559908059 
767	 0.172584958435436 
768	 0.172268622574528 
769	 0.171933935423388 
770	 0.17158834996233 
771	 0.171224582819851 
772	 0.17084335961552 
773	 0.17045669872126 
774	 0.170098965346675 
775	 0.16973826498001 
776	 0.169348544059622 
777	 0.168964994799334 
778	 0.168553994488649 
779	 0.168165042368009 
780	 0.167848314001976 
781	 0.167408380998725 
782	 0.16698283010311 
783	 0.166608455575432 
784	 0.166193151643283 
785	 0.16579958360025 
786	 0.165410034921897 
787	 0.165016746767282 
788	 0.164676462172289 
789	 0.16432248664188 
790	 0.163911007852909 
791	 0.163442830839078 
792	 0.163080265369032 
793	 0.162723787616289 
794	 0.162335244337279 
795	 0.161942402627305 
796	 0.161533919270231 
797	 0.161159218570574 
798	 0.160824393553105 
799	 0.160442893159892 
800	 0.160061960404801 
801	 0.15969441234407 
802	 0.159338716479053 
803	 0.15897639066368 
804	 0.158636028674671 
805	 0.158306694916407 
806	 0.157957587727565 
807	 0.157618354809691 
808	 0.157286491328914 
809	 0.15696544027597 
810	 0.156668814051202 
811	 0.156364097732512 
812	 0.156029026121908 
813	 0.155674812293709 
814	 0.155390974515957 
815	 0.155131840107742 
816	 0.154844074965734 
817	 0.154501651508303 
818	 0.154234728954423 
819	 0.1540018209121 
820	 0.153752841017332 
821	 0.15345098798038 
822	 0.153192414285904 
823	 0.152946841675364 
824	 0.152690870385068 
825	 0.152443557654831 
826	 0.152242196342355 
827	 0.152013806018397 
828	 0.151723123174612 
829	 0.151558031126995 
830	 0.15134219305451 
831	 0.151095242508792 
832	 0.150921058360318 
833	 0.15080091617181 
834	 0.150612808868535 
835	 0.150369115111591 
836	 0.15020920154379 
837	 0.150116279745075 
838	 0.149984187734689 
839	 0.14977735343337 
840	 0.149605180654422 
841	 0.149427586021358 
842	 0.149284596437508 
843	 0.14920678134132 
844	 0.149142546895466 
845	 0.149044915818926 
846	 0.148926941839642 
847	 0.148827549947938 
848	 0.148738060044131 
849	 0.148642280443743 
850	 0.148538112134036 
851	 0.148437157474906 
852	 0.148347098204863 
853	 0.148312395429291 
854	 0.148315946294418 
855	 0.14825089374649 
856	 0.148214522793455 
857	 0.148213086636391 
858	 0.148220512232752 
859	 0.148184860116192 
860	 0.148154628415472 
861	 0.148153561271428 
862	 0.148171040109299 
863	 0.148086197067498 
864	 0.14810323881511 
865	 0.148183563250771 
866	 0.14816349499319 
867	 0.148195293095873 
868	 0.148223962853556 
869	 0.148241862513932 
870	 0.148302120211005 
871	 0.148364382851675 
872	 0.148416884627198 
873	 0.14848163090177 
874	 0.148624247817396 
875	 0.148684258128776 
876	 0.148713036654371 
877	 0.148793143924022 
878	 0.148939006087323 
879	 0.149117005462461 
880	 0.149253087293837 
881	 0.149310600797293 
882	 0.149451175514183 
883	 0.149585785685977 
884	 0.149710613089158 
885	 0.149863612541743 
886	 0.150005327725349 
887	 0.150176959302713 
888	 0.150365952452226 
889	 0.150517026142216 
890	 0.150664376959897 
891	 0.150861816750837 
892	 0.151100003556441 
893	 0.151294445182973 
894	 0.15150727474131 
895	 0.151715300261583 
896	 0.15189611270008 
897	 0.15205583382468 
898	 0.152320921647727 
899	 0.152603750026954 
900	 0.152828410334598 
901	 0.153108806571237 
902	 0.15343270123009 
903	 0.153737016579503 
904	 0.153973203146398 
905	 0.154219881203995 
906	 0.154487480607869 
907	 0.154792439088325 
908	 0.155134806333672 
909	 0.155441009223269 
910	 0.15572066120747 
911	 0.155998398276922 
912	 0.156299741004533 
913	 0.156602680968825 
914	 0.156924821819655 
915	 0.157317727257712 
916	 0.157822362122953 
917	 0.158143515905934 
918	 0.158423662228851 
919	 0.158760475234196 
920	 0.159126196554605 
921	 0.159513809055461 
922	 0.159936163509763 
923	 0.160357872478296 
924	 0.160680929374289 
925	 0.161036539532335 
926	 0.16144305412512 
927	 0.161868577192255 
928	 0.162239587025596 
929	 0.162710858353814 
930	 0.16326575240328 
931	 0.163787683436729 
932	 0.164045275977669 
933	 0.164492977775027 
934	 0.165024719296572 
935	 0.165473208084731 
936	 0.166027628556794 
937	 0.166434646917222 
938	 0.166768512132166 
939	 0.167187768037858 
940	 0.167710056027616 
941	 0.168311498099151 
942	 0.168904588190344 
943	 0.169416952909148 
944	 0.169929942227202 
945	 0.170390345892457 
946	 0.170854803947875 
947	 0.171387970697765 
948	 0.171865146866249 
949	 0.172326574754004 
950	 0.172808351687124 
951	 0.173336180047011 
952	 0.173914539703115 
953	 0.174441687256043 
954	 0.17498869198199 
955	 0.175654958300875 
956	 0.176133863552936 
957	 0.176601220947329 
958	 0.177140200679694 
959	 0.177743066054759 
960	 0.178367165770841 
961	 0.178945985590917 
962	 0.179497291772029 
963	 0.180072773464697 
964	 0.180565379132973 
965	 0.181154737893903 
966	 0.181816045731838 
967	 0.182395040299582 
968	 0.182935865387449 
969	 0.183472564661186 
970	 0.184029620280777 
971	 0.184618922800385 
972	 0.185247540037463 
973	 0.185916098613073 
974	 0.186554750507585 
975	 0.187091129922903 
976	 0.187699705729108 
977	 0.188341391110742 
978	 0.188941503856676 
979	 0.189453552666875 
980	 0.190051395792231 
981	 0.190639448379785 
982	 0.191150577098925 
983	 0.191604152461912 
984	 0.192279540390289 
985	 0.192907416443143 
986	 0.193479420575132 
987	 0.194124489215696 
988	 0.194769776088644 
989	 0.195208711290185 
990	 0.195616246266175 
991	 0.196281550025549 
992	 0.197060258300872 
993	 0.197548005212104 
994	 0.19794723367556 
995	 0.19859121357976 
996	 0.199082282704655 
997	 0.199664609190189 
998	 0.200163503224608 
999	 0.200440609698815 
1000	 0.201066647255612 
1001	 0.205055976299235 
1002	 0.205559939961426 
1003	 0.206062558849457 
1004	 0.206551606282261 
1005	 0.207037332987929 
1006	 0.207501583669283 
1007	 0.207962777262496 
1008	 0.208369841437572 
1009	 0.208826046022731 
1010	 0.209288937209853 
1011	 0.209718412776731 
1012	 0.210188785913993 
1013	 0.210614826076923 
1014	 0.210993121220914 
1015	 0.211430927232347 
1016	 0.211869106544391 
1017	 0.212294151792651 
1018	 0.2127143836911 
1019	 0.213146141229259 
1020	 0.213541412655282 
1021	 0.213898571144901 
1022	 0.214226858697163 
1023	 0.214521952336595 
1024	 0.21480131347566 
1025	 0.215110526482985 
1026	 0.215453711613157 
1027	 0.215779372974191 
1028	 0.216115614552022 
1029	 0.216453948349208 
1030	 0.216737992197559 
1031	 0.217030121387914 
1032	 0.217319073823304 
1033	 0.217593341678763 
1034	 0.217835877384222 
1035	 0.218154948989501 
1036	 0.218504425133793 
1037	 0.218773613399877 
1038	 0.219061041455709 
1039	 0.21934188069975 
1040	 0.219555459687233 
1041	 0.219851357251636 
1042	 0.220142919719423 
1043	 0.220359252657292 
1044	 0.220583507368948 
1045	 0.220793974395179 
1046	 0.220972590381151 
1047	 0.221172911725783 
1048	 0.221426013276876 
1049	 0.221672349293141 
1050	 0.221888640465073 
1051	 0.222101011305343 
1052	 0.222307012003621 
1053	 0.222585296138897 
1054	 0.222968088739946 
1055	 0.223275053207337 
1056	 0.223527847416236 
1057	 0.223800041730501 
1058	 0.224008181114446 
1059	 0.22422279343192 
1060	 0.224443274834014 
1061	 0.224728396334266 
1062	 0.224922760967506 
1063	 0.22510126496432 
1064	 0.225373390065438 
1065	 0.225660032235626 
1066	 0.225902869590522 
1067	 0.226170183068531 
1068	 0.226412503684027 
1069	 0.226629933553943 
1070	 0.226876076327586 
1071	 0.227180273969439 
1072	 0.227422636000708 
1073	 0.227623997939935 
1074	 0.227856797196745 
1075	 0.228095274247123 
1076	 0.228314592411469 
1077	 0.228516913543943 
1078	 0.228690374360681 
1079	 0.228867463464611 
1080	 0.229090981564664 
1081	 0.229338377395597 
1082	 0.229606524643404 
1083	 0.22983753298559 
1084	 0.230017032440349 
1085	 0.230238653717439 
1086	 0.230495109846583 
1087	 0.23069805760304 
1088	 0.230879639136674 
1089	 0.231097815382794 
1090	 0.23126154267291 
1091	 0.231384758803634 
1092	 0.231552573483875 
1093	 0.231731241540534 
1094	 0.231911271487939 
1095	 0.23211467195603 
1096	 0.232334026975746 
1097	 0.232487370250501 
1098	 0.232635746274106 
1099	 0.232761657965523 
1100	 0.232897191420519 
1101	 0.23300705603241 
1102	 0.233133035064684 
1103	 0.233279194403083 
1104	 0.233392119613652 
1105	 0.233493072994405 
1106	 0.23363637857157 
1107	 0.23378618063677 
1108	 0.233928234081774 
1109	 0.234060328898311 
1110	 0.234191986743337 
1111	 0.234311703566441 
1112	 0.23441248199046 
1113	 0.23450416553916 
1114	 0.234576410670893 
1115	 0.234678949069792 
1116	 0.234782198456053 
1117	 0.234892375771925 
1118	 0.235037185071574 
1119	 0.235152958939461 
1120	 0.235252347238278 
1121	 0.23534927159193 
1122	 0.235412266157892 
1123	 0.235503715808769 
1124	 0.235583380383695 
1125	 0.235662145791724 
1126	 0.235711213152395 
1127	 0.235739936760042 
1128	 0.235785306453278 
1129	 0.235819310755489 
1130	 0.235862580288994 
1131	 0.235936072677753 
1132	 0.235978775154336 
1133	 0.235997656461189 
1134	 0.236013281982993 
1135	 0.236012106085311 
1136	 0.23602923181609 
1137	 0.236035846726316 
1138	 0.236031638933864 
1139	 0.23601555485825 
1140	 0.235990017833043 
1141	 0.235957685639377 
1142	 0.235910786344013 
1143	 0.235869213057687 
1144	 0.235830244407115 
1145	 0.235777356772054 
1146	 0.235706752077969 
1147	 0.235652566542921 
1148	 0.235586916365011 
1149	 0.235542296533 
1150	 0.23551233110551 
1151	 0.23549372277336 
1152	 0.235484156575119 
1153	 0.235484637385956 
1154	 0.235483364898315 
1155	 0.235482170235069 
1156	 0.235497142620321 
1157	 0.235516709980843 
1158	 0.235546412291401 
1159	 0.235599170752793 
1160	 0.235641773770606 
1161	 0.235680373130278 
1162	 0.235723844968482 
1163	 0.235770349888772 
1164	 0.235817629840819 
1165	 0.235858672913823 
1166	 0.235920633177495 
1167	 0.235984094463974 
1168	 0.236041546360017 
1169	 0.236102623351619 
1170	 0.236171948208709 
1171	 0.236232115925835 
1172	 0.236284235856501 
1173	 0.236344156315274 
1174	 0.236410314940551 
1175	 0.236466189465441 
1176	 0.236515716831186 
1177	 0.236572727227012 
1178	 0.236625874540905 
1179	 0.236683495176039 
1180	 0.236754833913067 
1181	 0.236817499827522 
1182	 0.236889185843983 
1183	 0.236927356218764 
1184	 0.236984384927911 
1185	 0.237038744015542 
1186	 0.23710296747587 
1187	 0.237178887306618 
1188	 0.237240509851684 
1189	 0.23730235980083 
1190	 0.237358191584436 
1191	 0.237403454071297 
1192	 0.237450985660812 
1193	 0.237490614346076 
1194	 0.237543517045771 
1195	 0.237604765733176 
1196	 0.237660551775367 
1197	 0.237727866226923 
1198	 0.237785592274194 
1199	 0.237837317570294 
1200	 0.237875265258564 
1201	 0.237926033507051 
1202	 0.237978103766939 
1203	 0.238032360556065 
1204	 0.238089152121576 
1205	 0.238149177123281 
1206	 0.238211720950721 
1207	 0.238274291433698 
1208	 0.238348725918987 
1209	 0.23840736875979 
1210	 0.23845957993474 
1211	 0.238508135909586 
1212	 0.238544903292422 
1213	 0.238584266853241 
1214	 0.238610738528878 
1215	 0.238654741164815 
1216	 0.238706463999041 
1217	 0.238769412582101 
1218	 0.23881748299128 
1219	 0.238869910811558 
1220	 0.238922359834228 
1221	 0.238968352208738 
1222	 0.239009775290343 
1223	 0.23905350889415 
1224	 0.239099654469847 
1225	 0.239137010888861 
1226	 0.239175850027418 
1227	 0.239224756518518 
1228	 0.239268868469292 
1229	 0.239307276661411 
1230	 0.239341780173854 
1231	 0.239375834839517 
1232	 0.23940994405973 
1233	 0.239441525316456 
1234	 0.239464419707119 
1235	 0.239494612828223 
1236	 0.23952437744961 
1237	 0.239565115546517 
1238	 0.239615597954592 
1239	 0.239655530129199 
1240	 0.239705045807344 
1241	 0.239741489670283 
1242	 0.239759262495581 
1243	 0.239787488093938 
1244	 0.239814417621005 
1245	 0.239846345011374 
1246	 0.239886147283615 
1247	 0.239920855230065 
1248	 0.239953496165441 
1249	 0.239990982164366 
1250	 0.240027952317928 
1251	 0.24006184550796 
1252	 0.240096544847812 
1253	 0.240139180903471 
1254	 0.240167033894216 
1255	 0.240188741067261 
1256	 0.24020340351454 
1257	 0.240209796406361 
1258	 0.240213959605705 
1259	 0.24020780476767 
1260	 0.240206716969318 
1261	 0.24020278584096 
1262	 0.240199454538296 
1263	 0.240201301043739 
1264	 0.240198592175536 
1265	 0.24018671747404 
1266	 0.240185065198978 
1267	 0.240191536467727 
1268	 0.240192143694619 
1269	 0.240185013357984 
1270	 0.240178846453508 
1271	 0.240170015386746 
1272	 0.240143642102378 
1273	 0.240133169110826 
1274	 0.24013738599536 
1275	 0.240130965238593 
1276	 0.240121005358229 
1277	 0.240117437324976 
1278	 0.24010098169653 
1279	 0.240109045653657 
1280	 0.240140483606568 
1281	 0.240159931820137 
1282	 0.240194394079437 
1283	 0.240219377630935 
1284	 0.240242273968256 
1285	 0.240240327743088 
1286	 0.240257825451114 
1287	 0.240277746983876 
1288	 0.240305532740979 
1289	 0.240350942576172 
1290	 0.240367507423705 
1291	 0.240369886864462 
1292	 0.240389699085231 
1293	 0.240398631786712 
1294	 0.240417911290636 
1295	 0.240468586742889 
1296	 0.24048799933044 
1297	 0.240496005320333 
1298	 0.240489130939981 
1299	 0.240457731635997 
1300	 0.240438513700223 
1301	 0.240401204016345 
1302	 0.240383404899503 
1303	 0.240385324164449 
1304	 0.240388405936983 
1305	 0.240374932755391 
1306	 0.240355945988347 
1307	 0.240304708510614 
1308	 0.240235051311963 
1309	 0.240172096623013 
1310	 0.240101956141117 
1311	 0.240023645206838 
1312	 0.239953238049514 
1313	 0.239855932777567 
1314	 0.239729805525993 
1315	 0.239614867146752 
1316	 0.23949633329101 
1317	 0.239366174985577 
1318	 0.239237944601855 
1319	 0.239102631134474 
1320	 0.23895305106337 
1321	 0.238800816176125 
1322	 0.238658141249127 
1323	 0.238486122244058 
1324	 0.238304852863843 
1325	 0.238116919758552 
1326	 0.23792574291231 
1327	 0.237741622240511 
1328	 0.237545420919752 
1329	 0.23734147048165 
1330	 0.23711744471075 
1331	 0.236862986940783 
1332	 0.236628240244357 
1333	 0.236393947568645 
1334	 0.236150909643449 
1335	 0.235907459752961 
1336	 0.235669442909249 
1337	 0.235421853935172 
1338	 0.235180694110497 
1339	 0.234959121976164 
1340	 0.234718025111872 
1341	 0.234450238110866 
1342	 0.234210668712312 
1343	 0.233985667484032 
1344	 0.2337516846071 
1345	 0.233513337452903 
1346	 0.233289751936133 
1347	 0.233044135156 
1348	 0.232790669833257 
1349	 0.232561602058758 
1350	 0.232331133687095 
1351	 0.232104250211062 
1352	 0.231888263265602 
1353	 0.231656954934012 
1354	 0.231421019357805 
1355	 0.231183135318952 
1356	 0.230931977351947 
1357	 0.230688780596861 
1358	 0.23044730373131 
1359	 0.230207621437245 
1360	 0.229982547893415 
1361	 0.229734516053534 
1362	 0.22948728917324 
1363	 0.229222028261157 
1364	 0.228930483224667 
1365	 0.228638739289536 
1366	 0.228345280714434 
1367	 0.228038421630209 
1368	 0.227722405754143 
1369	 0.227398253090009 
1370	 0.227010080248931 
1371	 0.2265809613424 
1372	 0.226131447068411 
1373	 0.225637264238399 
1374	 0.225116754868144 
1375	 0.224603056241 
1376	 0.223974904078813 
1377	 0.223289128882543 
1378	 0.222528874310695 
1379	 0.221679542853217 
1380	 0.220793002137988 
1381	 0.219863448575621 
1382	 0.21884415958019 
1383	 0.217757879333444 
1384	 0.216607806997847 
1385	 0.21540899647008 
1386	 0.214122489280258 
1387	 0.212759097475441 
1388	 0.211343275536041 
1389	 0.209871528115557 
1390	 0.208283749071832 
1391	 0.206657148114542 
1392	 0.204973061552039 
1393	 0.203201316222579 
1394	 0.20141240136829 
1395	 0.199575953344672 
1396	 0.197734338454886 
1397	 0.195897404851191 
1398	 0.194038288918098 
1399	 0.192192603917556 
1400	 0.190328285968819 
1401	 0.188526581768135 
1402	 0.186732125676729 
1403	 0.184998015341587 
1404	 0.183308010380894 
1405	 0.181684389937337 
1406	 0.180102754630148 
1407	 0.178567363454045 
1408	 0.177073625152141 
1409	 0.17565948329447 
1410	 0.174288636424042 
1411	 0.173003238478441 
1412	 0.171795958984594 
1413	 0.170670191148836 
1414	 0.169621234591951 
1415	 0.168607511691893 
1416	 0.167667985396236 
1417	 0.166784614005969 
1418	 0.165931800818995 
1419	 0.165143455609245 
1420	 0.164398003540202 
1421	 0.163715735473773 
1422	 0.163086663126386 
1423	 0.162459628648858 
1424	 0.161868340719248 
1425	 0.161306926457272 
1426	 0.160786050653091 
1427	 0.160289858107941 
1428	 0.159838599908541 
1429	 0.159446596636388 
1430	 0.159054372204888 
1431	 0.1586856495738 
1432	 0.158335338885818 
1433	 0.157991294316938 
1434	 0.157683805282088 
1435	 0.157403802328797 
1436	 0.157153739393398 
1437	 0.156943274244798 
1438	 0.15674467543609 
1439	 0.156578040759835 
1440	 0.156404934564046 
1441	 0.156247790286327 
1442	 0.156111337935439 
1443	 0.155987997399474 
1444	 0.155889067863897 
1445	 0.155805778824682 
1446	 0.155734441849178 
1447	 0.155670285333163 
1448	 0.155613619690709 
1449	 0.155565899527723 
1450	 0.155526906676494 
1451	 0.155502785309445 
1452	 0.155489887821751 
1453	 0.155486820888873 
1454	 0.15549533027031 
1455	 0.155517598388912 
1456	 0.155545317470078 
1457	 0.1556019563103 
1458	 0.155676262579977 
1459	 0.155769877805003 
1460	 0.155889616921277 
1461	 0.156017383427267 
1462	 0.156141897303396 
1463	 0.156318479006618 
1464	 0.156527489187623 
1465	 0.156754963791174 
1466	 0.15702655891694 
1467	 0.157310382933838 
1468	 0.157595377581245 
1469	 0.157917249675061 
1470	 0.158275790381342 
1471	 0.15865165003805 
1472	 0.159030517401707 
1473	 0.159446069233457 
1474	 0.159874014926778 
1475	 0.160306342046608 
1476	 0.160760898909953 
1477	 0.16121942167584 
1478	 0.161687478030505 
1479	 0.162166990558093 
1480	 0.162646794222327 
1481	 0.163135064414292 
1482	 0.16362791464573 
1483	 0.164123459927576 
1484	 0.164622052912966 
1485	 0.165126632257417 
1486	 0.165638755678766 
1487	 0.166146003822196 
1488	 0.166665896235513 
1489	 0.167206886984514 
1490	 0.167739849591142 
1491	 0.168283399696017 
1492	 0.168814231461261 
1493	 0.169338495989055 
1494	 0.169860355121353 
1495	 0.170373279002363 
1496	 0.170885020982535 
1497	 0.171396570889466 
1498	 0.171908308256063 
1499	 0.172423181663121 
1500	 0.17292669958161 
1501	 0.173419695685722 
1502	 0.173911746220177 
1503	 0.174398362737689 
1504	 0.174881092617074 
1505	 0.175353682178135 
1506	 0.175850830120062 
1507	 0.176321543214282 
1508	 0.176777265006198 
1509	 0.177243855800577 
1510	 0.17768891337973 
1511	 0.178128935907751 
1512	 0.178570330678508 
1513	 0.179010523048198 
1514	 0.179458948587655 
1515	 0.179917608964661 
1516	 0.180387866855381 
1517	 0.180851453864358 
1518	 0.181322200114731 
1519	 0.181770213818445 
1520	 0.182215203214818 
1521	 0.182640842823941 
1522	 0.183038416862144 
1523	 0.183447688211122 
1524	 0.18385895415642 
1525	 0.184251726487204 
1526	 0.184632938046064 
1527	 0.185021210220486 
1528	 0.185401847850425 
1529	 0.185775037710423 
1530	 0.186152094662762 
1531	 0.186520841843821 
1532	 0.1868738790657 
1533	 0.187229086673506 
1534	 0.187594639103247 
1535	 0.187941811746008 
1536	 0.188263100576174 
1537	 0.188599233841278 
1538	 0.188937995321197 
1539	 0.189269365949881 
1540	 0.189607934858722 
1541	 0.189940663535067 
1542	 0.190271277494362 
1543	 0.190582077614134 
1544	 0.190876450924512 
1545	 0.191175485915715 
1546	 0.19145431344174 
1547	 0.191749845538314 
1548	 0.192051765898627 
1549	 0.192340010200284 
1550	 0.192622782764342 
1551	 0.192889683417805 
1552	 0.19314631546852 
1553	 0.193420773435614 
1554	 0.193702211367606 
1555	 0.193968639879915 
1556	 0.194248061062928 
1557	 0.194513925153102 
1558	 0.194739285782386 
1559	 0.194971435692733 
1560	 0.195200153101336 
1561	 0.195410231236228 
1562	 0.195630781594299 
1563	 0.195863043452769 
1564	 0.196081566825761 
1565	 0.196289965650399 
1566	 0.196502409258718 
1567	 0.196717877709111 
1568	 0.196924616262972 
1569	 0.197134812058773 
1570	 0.197321165670655 
1571	 0.197486036889907 
1572	 0.197660165046871 
1573	 0.197819928284681 
1574	 0.197993790086829 
1575	 0.19818513102363 
1576	 0.198359177161049 
1577	 0.198524316984066 
1578	 0.19869020511769 
1579	 0.198851808624007 
1580	 0.199011331614957 
1581	 0.199171753238255 
1582	 0.199328146029664 
1583	 0.199481744786103 
1584	 0.199627241746776 
1585	 0.199771211384653 
1586	 0.199905459323277 
1587	 0.200027764308842 
1588	 0.200150683462816 
1589	 0.200266546059178 
1590	 0.200383739700274 
1591	 0.200497472832762 
1592	 0.200610823910009 
1593	 0.200719006017321 
1594	 0.200836282668557 
1595	 0.200969835954607 
1596	 0.201085725606395 
1597	 0.201203088613743 
1598	 0.201306920158145 
1599	 0.201384848049964 
1600	 0.201468926122191 
1601	 0.201545888399612 
1602	 0.20163119500136 
1603	 0.201719745681532 
1604	 0.201812819095971 
1605	 0.201924781472691 
1606	 0.202018049504081 
1607	 0.202108508747153 
1608	 0.202182838821682 
1609	 0.202260356034406 
1610	 0.202332183420192 
1611	 0.202395598004251 
1612	 0.202465406834244 
1613	 0.202516605398976 
1614	 0.202565180979564 
1615	 0.202647266036668 
1616	 0.202718271822964 
1617	 0.202775029339294 
1618	 0.202827352043138 
1619	 0.202856955853662 
1620	 0.202887324918435 
1621	 0.202925767196293 
1622	 0.202971240494343 
1623	 0.203017286825485 
1624	 0.203062497856234 
1625	 0.203115536222566 
1626	 0.203179061502583 
1627	 0.203229797502294 
1628	 0.203284611394252 
1629	 0.203323686951584 
1630	 0.203347919971976 
1631	 0.20338117912643 
1632	 0.203405999339344 
1633	 0.203442387146291 
1634	 0.203488786446083 
1635	 0.203527556852527 
1636	 0.203579754323098 
1637	 0.203594233006063 
1638	 0.203586252763043 
1639	 0.203586087911303 
1640	 0.203553663462153 
1641	 0.203564599051538 
1642	 0.203606101815137 
1643	 0.203626453064628 
1644	 0.203654987228116 
1645	 0.203675468548739 
1646	 0.203679219333204 
1647	 0.20370018634152 
1648	 0.203737145730089 
1649	 0.203755062055908 
1650	 0.203772914840358 
1651	 0.203778878385574 
1652	 0.203769843078041 
1653	 0.203762775908585 
1654	 0.203752156465674 
1655	 0.203737303844054 
1656	 0.20371642972678 
1657	 0.203695501452447 
1658	 0.203676163381967 
1659	 0.203644301758981 
1660	 0.203600743079529 
1661	 0.203566642071557 
1662	 0.203523175078065 
1663	 0.203492697754173 
1664	 0.203479892741436 
1665	 0.203452675857617 
1666	 0.203417786774228 
1667	 0.203393219909575 
1668	 0.203367064338563 
1669	 0.203346684214959 
1670	 0.203354569875277 
1671	 0.203317106247175 
1672	 0.203256477738808 
1673	 0.203199211174261 
1674	 0.203097935309776 
1675	 0.203049497343395 
1676	 0.203030642111085 
1677	 0.203007909380337 
1678	 0.203028177798347 
1679	 0.202992249287348 
1680	 0.202920768326483 
1681	 0.202870437738836 
1682	 0.202804068582432 
1683	 0.202741651462043 
1684	 0.202687954550983 
1685	 0.202641245581835 
1686	 0.202594149344824 
1687	 0.202536572646118 
1688	 0.202488769546893 
1689	 0.202435884198395 
1690	 0.202369037708379 
1691	 0.202298133211187 
1692	 0.202238225408096 
1693	 0.202160242657389 
1694	 0.202050784749955 
1695	 0.201963443047408 
1696	 0.20188675278942 
1697	 0.201801329417598 
1698	 0.20171498228072 
1699	 0.201633671808181 
1700	 0.201558240651892 
1701	 0.201464607177411 
1702	 0.20137034997643 
1703	 0.201266173905881 
1704	 0.201139353647068 
1705	 0.201020655201946 
1706	 0.200909317139836 
1707	 0.200784479955224 
1708	 0.200640398720234 
1709	 0.200521499157543 
1710	 0.200410907364025 
1711	 0.200294122023128 
1712	 0.200195317154482 
1713	 0.200076004550752 
1714	 0.199933148990016 
1715	 0.199810205531686 
1716	 0.199694759795766 
1717	 0.199571663197928 
1718	 0.199460919139909 
1719	 0.199323762660099 
1720	 0.19916991973438 
1721	 0.19900950303248 
1722	 0.198826290974514 
1723	 0.198665718286942 
1724	 0.198504565975966 
1725	 0.19835632647633 
1726	 0.198230308107275 
1727	 0.198077030971567 
1728	 0.197914301805426 
1729	 0.197759959694492 
1730	 0.197616905915242 
1731	 0.197428851060747 
1732	 0.197220730444835 
1733	 0.197021890266835 
1734	 0.196789380430091 
1735	 0.196575788433735 
1736	 0.196383829437117 
1737	 0.196177313282491 
1738	 0.19595359703241 
1739	 0.195741078012018 
1740	 0.19554707235185 
1741	 0.195338472717476 
1742	 0.195115888635384 
1743	 0.194900220771801 
1744	 0.194692309223332 
1745	 0.194456359843933 
1746	 0.194207725616986 
1747	 0.193965179987673 
1748	 0.193709510226435 
1749	 0.193509064599815 
1750	 0.193316949222315 
1751	 0.193095094606041 
1752	 0.192870289126112 
1753	 0.192606036269855 
1754	 0.192320970619198 
1755	 0.192061588612379 
1756	 0.191793802282656 
1757	 0.191530331029506 
1758	 0.191304732701186 
1759	 0.191090818723901 
1760	 0.190894059063436 
1761	 0.190719397271029 
1762	 0.190516791849719 
1763	 0.190268293049763 
1764	 0.190031964959324 
1765	 0.189783795724206 
1766	 0.189492366730632 
1767	 0.189251075329724 
1768	 0.18902693323625 
1769	 0.188814655747456 
1770	 0.188645647818221 
1771	 0.18846525972432 
1772	 0.188275947259658 
1773	 0.18805225564926 
1774	 0.187849927128038 
1775	 0.187680272108411 
1776	 0.18747388068939 
1777	 0.18728706312898 
1778	 0.187115190536331 
1779	 0.18693458480892 
1780	 0.186790711676979 
1781	 0.186662036227716 
1782	 0.186520981424178 
1783	 0.186369642471693 
1784	 0.186236334397963 
1785	 0.18611044059775 
1786	 0.186006214999749 
1787	 0.185928630018949 
1788	 0.185844825917145 
1789	 0.185775508742439 
1790	 0.185700125412529 
1791	 0.185617943735679 
1792	 0.185530881260803 
1793	 0.185446541185279 
1794	 0.185371920643088 
1795	 0.185276751820501 
1796	 0.185214639022964 
1797	 0.185184251430052 
1798	 0.185143255898514 
1799	 0.185122627759781 
1800	 0.185097611465366 
1801	 0.18391781596589 
1802	 0.183950836071607 
1803	 0.183995948734387 
1804	 0.184053617616309 
1805	 0.184122675625865 
1806	 0.184195315394656 
1807	 0.184251403919528 
1808	 0.184276895946192 
1809	 0.184271510568961 
1810	 0.184268907587828 
1811	 0.184234451926657 
1812	 0.184224746512899 
1813	 0.18423445335439 
1814	 0.18419925384483 
1815	 0.184168816780641 
1816	 0.184134165191812 
1817	 0.184087128397039 
1818	 0.184014921423263 
1819	 0.183959407896939 
1820	 0.183903169226462 
1821	 0.183851181177608 
1822	 0.183811608934828 
1823	 0.183772848304799 
1824	 0.183717284887892 
1825	 0.183650865504183 
1826	 0.183585131972888 
1827	 0.18350331478375 
1828	 0.183411199481786 
1829	 0.183330885502136 
1830	 0.183222834471608 
1831	 0.183091913702276 
1832	 0.18294282384733 
1833	 0.182785682221143 
1834	 0.18260256052041 
1835	 0.182419980554371 
1836	 0.182248273835359 
1837	 0.182085675467242 
1838	 0.181904557236961 
1839	 0.181704358332545 
1840	 0.181492007293424 
1841	 0.181257798006925 
1842	 0.180992961168146 
1843	 0.180735339015451 
1844	 0.180458578952497 
1845	 0.180152597001242 
1846	 0.179840231126923 
1847	 0.179487767944336 
1848	 0.179118255218476 
1849	 0.178755154346475 
1850	 0.178352162899277 
1851	 0.1779353932089 
1852	 0.177479498199818 
1853	 0.176972161295466 
1854	 0.176398218446046 
1855	 0.175764107542525 
1856	 0.175085139250326 
1857	 0.174375077129628 
1858	 0.173636463047551 
1859	 0.172825454245178 
1860	 0.171938492095331 
1861	 0.170993028371911 
1862	 0.169984447106667 
1863	 0.168876063470766 
1864	 0.167700072876011 
1865	 0.166477351899153 
1866	 0.165154048797473 
1867	 0.163754343281679 
1868	 0.162286349054192 
1869	 0.160672850870236 
1870	 0.158956280493996 
1871	 0.157150192696349 
1872	 0.155238911763925 
1873	 0.15323350709037 
1874	 0.151177001674599 
1875	 0.14899796116056 
1876	 0.146742569057711 
1877	 0.1443725174248 
1878	 0.141849349865443 
1879	 0.139266313715834 
1880	 0.136602895964682 
1881	 0.133782676204992 
1882	 0.130977649356786 
1883	 0.12814575025934 
1884	 0.125197220746107 
1885	 0.122224073650851 
1886	 0.119212576601931 
1887	 0.116099273166344 
1888	 0.113022003382857 
1889	 0.109936117406103 
1890	 0.106868033254998 
1891	 0.103913833342609 
1892	 0.100994755693636 
1893	 9.81781695065971E-02 
1894	 9.54372324781722E-02 
1895	 9.28342684804502E-02 
1896	 9.02603412028364E-02 
1897	 0.087843394218406 
1898	 8.55343877874213E-02 
1899	 8.33153840935776E-02 
1900	 8.12833230896353E-02 
1901	 0.079391288828829 
1902	 7.76248645222418E-02 
1903	 7.60487377963427E-02 
1904	 7.45364192745289E-02 
1905	 7.31169282177114E-02 
1906	 7.18299390362728E-02 
1907	 7.06602326625485E-02 
1908	 6.95771112002245E-02 
1909	 6.86089335535635E-02 
1910	 6.77031009048785E-02 
1911	 0.066853130361127 
1912	 6.60846663593403E-02 
1913	 6.53734266125517E-02 
1914	 6.47346119989589E-02 
1915	 6.41372655096043E-02 
1916	 6.35994730425376E-02 
1917	 6.31119596667837E-02 
1918	 6.26793987020357E-02 
1919	 6.22821930202163E-02 
1920	 6.19221420193859E-02 
1921	 6.15978953188367E-02 
1922	 6.12954655307842E-02 
1923	 6.10409349369052E-02 
1924	 6.08262681490232E-02 
1925	 6.06698307395698E-02 
1926	 6.05249305801691E-02 
1927	 6.04120507912859E-02 
1928	 6.03213728367038E-02 
1929	 0.060259902711963 
1930	 6.02259734448243E-02 
1931	 6.02063521517755E-02 
1932	 6.02098514129645E-02 
1933	 6.02405236392784E-02 
1934	 6.02897589436984E-02 
1935	 6.03586297421133E-02 
1936	 6.04593499160582E-02 
1937	 6.05698305960637E-02 
1938	 0.06068124698848 
1939	 0.060828134097298 
1940	 6.09986414280694E-02 
1941	 6.11982066302393E-02 
1942	 6.14189479381596E-02 
1943	 6.16663555361377E-02 
1944	 6.19195154573843E-02 
1945	 6.21874628051855E-02 
1946	 6.24679609378356E-02 
1947	 0.062760204435547 
1948	 6.30607967706094E-02 
1949	 6.33769379306575E-02 
1950	 6.37011493251208E-02 
1951	 6.40293885433781E-02 
1952	 0.064386721718421 
1953	 0.064731424082896 
1954	 6.50668345776871E-02 
1955	 6.54102207924988E-02 
1956	 6.57539281020144E-02 
1957	 6.61311241625785E-02 
1958	 6.65386728209502E-02 
1959	 6.69512892805935E-02 
1960	 6.73880081823775E-02 
1961	 6.78211247807757E-02 
1962	 6.82607677022008E-02 
1963	 6.87064557419649E-02 
1964	 6.91536810400136E-02 
1965	 6.96169664346865E-02 
1966	 7.00827437323262E-02 
1967	 7.05550657325417E-02 
1968	 7.10410612449356E-02 
1969	 7.15394665161931E-02 
1970	 0.072035558263281 
1971	 7.25480005101626E-02 
1972	 7.30533011022819E-02 
1973	 7.35541237992335E-02 
1974	 7.40601366347711E-02 
1975	 7.45695535613135E-02 
1976	 7.50758674088413E-02 
1977	 7.56003645000541E-02 
1978	 7.61118508498043E-02 
1979	 7.66351642167067E-02 
1980	 7.71796783848903E-02 
1981	 7.77001945307629E-02 
1982	 7.82027416162156E-02 
1983	 7.87286423682592E-02 
1984	 7.92433142985212E-02 
1985	 7.97825091200151E-02 
1986	 8.03605278736828E-02 
1987	 8.09169249477791E-02 
1988	 0.081476290851459 
1989	 0.082032465887003 
1990	 8.25728350258536E-02 
1991	 8.31104163474925E-02 
1992	 8.36614620631106E-02 
1993	 8.42185625032179E-02 
1994	 8.47766444714864E-02 
1995	 0.085349575433764 
1996	 8.59076969137438E-02 
1997	 8.64520709545893E-02 
1998	 8.70093030243311E-02 
1999	 8.75642668595613E-02 
2000	 0.088126198894532 
2001	 8.87040392469285E-02 
2002	 8.92843321119445E-02 
2003	 8.98387273111359E-02 
2004	 9.03820573620374E-02 
2005	 9.09173668611915E-02 
2006	 9.14218139316103E-02 
2007	 9.19535174102514E-02 
2008	 9.24893041690492E-02 
2009	 9.30315307077139E-02 
2010	 0.09358980093037 
2011	 9.41380733127815E-02 
2012	 0.094694491620065 
2013	 0.09523478238789 
2014	 9.57534952374384E-02 
2015	 0.096288736982506 
2016	 9.68229755255697E-02 
2017	 9.73556372750957E-02 
2018	 9.78955310344815E-02 
2019	 9.84571352877241E-02 
2020	 9.89923367368962E-02 
2021	 9.95193146623862E-02 
2022	 0.100040265406211 
2023	 0.100544416249817 
2024	 0.101055932550208 
2025	 0.101568277293809 
2026	 0.102077059746724 
2027	 0.102586914582554 
2028	 0.103089877701627 
2029	 0.10359547731272 
2030	 0.104095826942946 
2031	 0.104603410500462 
2032	 0.105121588645376 
2033	 0.105622382244272 
2034	 0.106126034077418 
2035	 0.106608715076511 
2036	 0.107068991980518 
2037	 0.107536539768385 
2038	 0.107993185650787 
2039	 0.108452680417991 
2040	 0.108914434059764 
2041	 0.109373796560316 
2042	 0.109829930854828 
2043	 0.11027731549731 
2044	 0.110730017827435 
2045	 0.111167489051993 
2046	 0.111640193063144 
2047	 0.112144983321362 
2048	 0.112618671349813 
2049	 0.113127534065389 
2050	 0.113578772970758 
2051	 0.11395753647089 
2052	 0.114377152209723 
2053	 0.114781707224611 
2054	 0.115200838119446 
2055	 0.115639704794275 
2056	 0.116096772589021 
2057	 0.116531303006168 
2058	 0.116957181219149 
2059	 0.117389902495334 
2060	 0.117817600828688 
2061	 0.118249222085464 
2062	 0.118686067584725 
2063	 0.119123019822835 
2064	 0.119570430836992 
2065	 0.119998723206903 
2066	 0.120426755845288 
2067	 0.120840324416935 
2068	 0.121237630442055 
2069	 0.121618672494876 
2070	 0.122011098142554 
2071	 0.122400460760556 
2072	 0.122793851606801 
2073	 0.123192019393449 
2074	 0.123583860169506 
2075	 0.123968730310421 
2076	 0.124362808660164 
2077	 0.124758711162162 
2078	 0.125155143208574 
2079	 0.125562765622118 
2080	 0.125960224853924 
2081	 0.126357221228646 
2082	 0.126744501911512 
2083	 0.127114724748157 
2084	 0.12750031691215 
2085	 0.127875754405318 
2086	 0.128239730023796 
2087	 0.128615106465633 
2088	 0.128996453788896 
2089	 0.129372690178796 
2090	 0.1297591816046 
2091	 0.130124438938163 
2092	 0.130478667942373 
2093	 0.130829372304719 
2094	 0.131160555240291 
2095	 0.131501300423073 
2096	 0.131846837865362 
2097	 0.132188247942744 
2098	 0.132536183230035 
2099	 0.132863169202822 
2100	 0.133209066907931 
2101	 0.133559636788121 
2102	 0.133903140614504 
2103	 0.13425846130619 
2104	 0.134594762659437 
2105	 0.134904759050755 
2106	 0.135239327140723 
2107	 0.135577687122538 
2108	 0.135918504898527 
2109	 0.136284087571113 
2110	 0.136626923870131 
2111	 0.13695430392894 
2112	 0.13728579430824 
2113	 0.137608704615074 
2114	 0.137935284633183 
2115	 0.138256348917544 
2116	 0.138578070771176 
2117	 0.13889802873896 
2118	 0.139216481683465 
2119	 0.139524597639715 
2120	 0.139836141712612 
2121	 0.140130282015202 
2122	 0.140404972232272 
2123	 0.140682918219526 
2124	 0.140949579676773 
2125	 0.141222320151071 
2126	 0.14150559613274 
2127	 0.141770959453303 
2128	 0.142050975443547 
2129	 0.142291502614849 
2130	 0.142500754854528 
2131	 0.14268563835064 
2132	 0.142890562073943 
2133	 0.143078046763235 
2134	 0.143272317759227 
2135	 0.143486346866923 
2136	 0.143678650482272 
2137	 0.143858091790201 
2138	 0.144026324822607 
2139	 0.144186800940829 
2140	 0.144342448942376 
2141	 0.144477433169632 
2142	 0.144619040388482 
2143	 0.144774816208672 
2144	 0.144907485989738 
2145	 0.145029842810857 
2146	 0.145140978188106 
2147	 0.145240291469531 
2148	 0.145326166973524 
2149	 0.1453910273091 
2150	 0.145429792838947 
2151	 0.145490007751629 
2152	 0.145536737262455 
2153	 0.145591131027346 
2154	 0.145666260284491 
2155	 0.145722646989392 
2156	 0.14577390284603 
2157	 0.145808950493306 
2158	 0.145848579879686 
2159	 0.145857023898271 
2160	 0.145820210754219 
2161	 0.145802266726993 
2162	 0.145772625113534 
2163	 0.145747523406299 
2164	 0.145718486007286 
2165	 0.145713492261844 
2166	 0.145703968484568 
2167	 0.145696817764009 
2168	 0.145682407482461 
2169	 0.145681748276428 
2170	 0.145655064196336 
2171	 0.145602783223107 
2172	 0.145567896821598 
2173	 0.145519772915841 
2174	 0.145494784014258 
2175	 0.145506201843406 
2176	 0.145479506851709 
2177	 0.145441415552451 
2178	 0.145405366637202 
2179	 0.145358261338825 
2180	 0.145296878463828 
2181	 0.14522803881324 
2182	 0.145164973324802 
2183	 0.145090608031871 
2184	 0.145000085811122 
2185	 0.14493545813162 
2186	 0.144894899826133 
2187	 0.144834474525983 
2188	 0.14477784822146 
2189	 0.144706647293638 
2190	 0.1446182798848 
2191	 0.144542453599794 
2192	 0.144446805288431 
2193	 0.144388394802778 
2194	 0.144363369293272 
2195	 0.144321802442009 
2196	 0.144316026787735 
2197	 0.144265335380364 
2198	 0.144153341233951 
2199	 0.144089323656876 
2200	 0.144018052710965 
2201	 0.143970202425668 
2202	 0.143952580671535 
2203	 0.143966997266218 
2204	 0.14396498315746 
2205	 0.14396395860708 
2206	 0.143969787551488 
2207	 0.143991326481635 
2208	 0.143988579573584 
2209	 0.143973972983884 
2210	 0.143970891349439 
2211	 0.143954429568216 
2212	 0.143952548348175 
2213	 0.143969627640034 
2214	 0.14398096449626 
2215	 0.144007977465917 
2216	 0.144006236618312 
2217	 0.143978345541992 
2218	 0.143969588809799 
2219	 0.143956015371698 
2220	 0.143935924100734 
2221	 0.143919703196128 
2222	 0.143924346141871 
2223	 0.143889541501058 
2224	 0.143828284464163 
2225	 0.143784653828358 
2226	 0.143737610518579 
2227	 0.143691204090579 
2228	 0.14363795535229 
2229	 0.14361242634471 
2230	 0.143612507175327 
2231	 0.143573445166098 
2232	 0.143534054533136 
2233	 0.143494854855679 
2234	 0.143435510136467 
2235	 0.143371099586587 
2236	 0.143324996106909 
2237	 0.143249425415847 
2238	 0.143129582119473 
2239	 0.14302658597419 
2240	 0.142910538163018 
2241	 0.14281771627239 
2242	 0.142748475775853 
2243	 0.142663248906652 
2244	 0.142578518022534 
2245	 0.142511891088697 
2246	 0.142416238831263 
2247	 0.142297685835279 
2248	 0.142179721137821 
2249	 0.142048066457823 
2250	 0.141935775105467 
2251	 0.141819285123208 
2252	 0.141711839531569 
2253	 0.141623113814979 
2254	 0.141520892204279 
2255	 0.141408662185603 
2256	 0.141311174200925 
2257	 0.141233317031052 
2258	 0.141125957712823 
2259	 0.141007460589662 
2260	 0.14089170201018 
2261	 0.140740731948124 
2262	 0.140627993263477 
2263	 0.140566298536222 
2264	 0.140456705947309 
2265	 0.140338259770654 
2266	 0.140215254035522 
2267	 0.140044898476885 
2268	 0.139903648912224 
2269	 0.139779395924434 
2270	 0.139661742792895 
2271	 0.139549079138728 
2272	 0.139434230618981 
2273	 0.13930633681358 
2274	 0.139163078856797 
2275	 0.139018957119422 
2276	 0.138844788952037 
2277	 0.138721443940427 
2278	 0.138629483148192 
2279	 0.138507775708033 
2280	 0.138407117118351 
2281	 0.138273134387177 
2282	 0.13810072360136 
2283	 0.137949605692532 
2284	 0.137800074108977 
2285	 0.137648255174642 
2286	 0.137501219512275 
2287	 0.137336707768373 
2288	 0.137141780495381 
2289	 0.136987963953027 
2290	 0.136870388991316 
2291	 0.136711726773646 
2292	 0.136573917240051 
2293	 0.136392898736475 
2294	 0.136142024237252 
2295	 0.135919030565289 
2296	 0.135674901872071 
2297	 0.135468627256566 
2298	 0.13529774494017 
2299	 0.135073036701368 
2300	 0.134882520373683 
2301	 0.134709710754187 
2302	 0.134465948638197 
2303	 0.134232563101265 
2304	 0.133975006128066 
2305	 0.133700358669652 
2306	 0.133465326095799 
2307	 0.133257209044796 
2308	 0.133036450416282 
2309	 0.132833215378531 
2310	 0.132617920186333 
2311	 0.132403550954126 
2312	 0.132178571267738 
2313	 0.131949850203795 
2314	 0.131707203209466 
2315	 0.131448640649072 
2316	 0.13119327500757 
2317	 0.130921001610803 
2318	 0.130668366464612 
2319	 0.130440165726378 
2320	 0.130168842771502 
2321	 0.129865766509274 
2322	 0.129606320549283 
2323	 0.129339612632536 
2324	 0.129091283187136 
2325	 0.128883799699935 
2326	 0.128669373049365 
2327	 0.12847493930062 
2328	 0.128225149622553 
2329	 0.127983482072054 
2330	 0.127780035002328 
2331	 0.127491519628418 
2332	 0.12721196916769 
2333	 0.126970618554968 
2334	 0.126694441982776 
2335	 0.126470913305087 
2336	 0.126264575198222 
2337	 0.126041923440803 
2338	 0.125816992241103 
2339	 0.125536968034039 
2340	 0.125266413311994 
2341	 0.124938568901224 
2342	 0.124595871627328 
2343	 0.12433877447003 
2344	 0.124031190292433 
2345	 0.123729870380969 
2346	 0.123473709272423 
2347	 0.123152825688543 
2348	 0.122769814236175 
2349	 0.12242076523564 
2350	 0.122052305888114 
2351	 0.121734077100527 
2352	 0.121452056248008 
2353	 0.121134157343485 
2354	 0.120842560652919 
2355	 0.120499334036654 
2356	 0.120087748544568 
2357	 0.119745086830485 
2358	 0.11943211900717 
2359	 0.119097964268641 
2360	 0.118768159689544 
2361	 0.11843908974176 
2362	 0.118124151555655 
2363	 0.117760953897974 
2364	 0.117374264416138 
2365	 0.117014180289667 
2366	 0.116597699359503 
2367	 0.116231047144026 
2368	 0.1159451603443 
2369	 0.115611477528321 
2370	 0.115286750851506 
2371	 0.114913803071111 
2372	 0.11446991795178 
2373	 0.114054627279862 
2374	 0.113709889008029 
2375	 0.113349870762461 
2376	 0.113037103825823 
2377	 0.112709293658711 
2378	 0.112297547457264 
2379	 0.111919154810893 
2380	 0.111571548448689 
2381	 0.111227375854883 
2382	 0.110880588136542 
2383	 0.110556597948426 
2384	 0.110189613891966 
2385	 0.109804848680153 
2386	 0.109408150190837 
2387	 0.108936970222726 
2388	 0.108515088000024 
2389	 0.108119038692437 
2390	 0.10774305078381 
2391	 0.10740445640757 
2392	 0.107025844533265 
2393	 0.106653128798555 
2394	 0.106297157575596 
2395	 0.105875241484082 
2396	 0.105486902442963 
2397	 0.105117076656775 
2398	 0.104625070751579 
2399	 0.104197015712922 
2400	 0.103819937485814 
2401	 0.103382166094294 
2402	 0.10302480794088 
2403	 0.102706685532373 
2404	 0.102332865091607 
2405	 0.101944232966837 
2406	 0.101556390413463 
2407	 0.101230722497204 
2408	 0.100930381163234 
2409	 0.100530377214836 
2410	 0.100153865872375 
2411	 9.97560689572063E-02 
2412	 9.92080655694138E-02 
2413	 9.87003436559901E-02 
2414	 9.82570656540002E-02 
2415	 9.77505649667772E-02 
2416	 9.73178725233866E-02 
2417	 9.69840480858189E-02 
2418	 9.66474712200878E-02 
2419	 9.63571610892518E-02 
2420	 0.096004768738168 
2421	 9.56406711332699E-02 
2422	 9.52766694566116E-02 
2423	 9.48677799344455E-02 
2424	 9.44792298893494E-02 
2425	 9.41074605369197E-02 
2426	 9.36962387930194E-02 
2427	 9.32757438794869E-02 
2428	 9.28680145674052E-02 
2429	 9.24612407512947E-02 
2430	 9.20717502241985E-02 
2431	 9.17082302885131E-02 
2432	 9.12541944329689E-02 
2433	 0.090707683092701 
2434	 9.02884616914878E-02 
2435	 8.98717048413056E-02 
2436	 8.94886815078177E-02 
2437	 8.92388115125216E-02 
2438	 8.88986312403376E-02 
2439	 8.85598805574641E-02 
2440	 8.81132063063688E-02 
2441	 8.75431520880533E-02 
2442	 0.087154821473158 
2443	 8.67697895542068E-02 
2444	 8.63720636336413E-02 
2445	 8.60815955881415E-02 
2446	 8.57050050800189E-02 
2447	 8.52178784669935E-02 
2448	 8.48490899238316E-02 
2449	 8.46160210631044E-02 
2450	 8.42450807658753E-02 
2451	 8.37828703273619E-02 
2452	 8.33963355262912E-02 
2453	 8.30078285348329E-02 
2454	 8.26744049481188E-02 
2455	 8.24106352894374E-02 
2456	 8.20866771102581E-02 
2457	 8.17185790248668E-02 
2458	 8.13258699553338E-02 
2459	 8.09589267764957E-02 
2460	 8.06133721597744E-02 
2461	 0.080262112990488 
2462	 7.98890055646023E-02 
2463	 7.95421512466664E-02 
2464	 7.90974789705824E-02 
2465	 7.85274964165187E-02 
2466	 7.80739431941684E-02 
2467	 7.75899896746523E-02 
2468	 7.72245030632079E-02 
2469	 7.69615744267944E-02 
2470	 7.66898514031788E-02 
2471	 0.076477536768846 
2472	 7.60467404049123E-02 
2473	 7.57087236204446E-02 
2474	 7.53865202913062E-02 
2475	 7.49291944762986E-02 
2476	 7.45829926218669E-02 
2477	 7.44046950343304E-02 
2478	 7.41385457976732E-02 
2479	 7.37069009650583E-02 
2480	 7.33817092231951E-02 
2481	 7.30797518096769E-02 
2482	 7.26457161678956E-02 
2483	 7.23612857730168E-02 
2484	 7.21835441307018E-02 
2485	 7.18273352206731E-02 
2486	 7.14112127869703E-02 
2487	 7.11574726723724E-02 
2488	 7.08738399892133E-02 
2489	 7.04302014679706E-02 
2490	 7.01383329814531E-02 
2491	 6.99788554763595E-02 
2492	 6.96654235179555E-02 
2493	 6.94079984820264E-02 
2494	 6.93695314677601E-02 
2495	 6.90932199484242E-02 
2496	 6.87932022241371E-02 
2497	 6.86662684274819E-02 
2498	 6.83042338070442E-02 
2499	 6.81043110922999E-02 
2500	 6.79942579343401E-02 
