Wavelength	mm1200005.asd
350	 4.19771321703556E-02 
351	 4.80195391274899E-02 
352	 4.53901299100669E-02 
353	 3.31798589821409E-02 
354	 3.04209054592684E-02 
355	 3.33729665659775E-02 
356	 3.72331062365741E-02 
357	 3.78027984685741E-02 
358	 3.46538766568055E-02 
359	 2.91233324272473E-02 
360	 2.50135515347579E-02 
361	 2.66721024665505E-02 
362	 2.69471263939793E-02 
363	 0.028568506771433 
364	 0.031675171578225 
365	 3.06480935172284E-02 
366	 2.73343092739378E-02 
367	 2.46139368472678E-02 
368	 2.52807880537234E-02 
369	 3.17927313367033E-02 
370	 3.22416524850454E-02 
371	 2.79925921384499E-02 
372	 2.90861685521351E-02 
373	 3.11912437240522E-02 
374	 3.25660484102045E-02 
375	 3.32017545508382E-02 
376	 3.58488241571409E-02 
377	 3.25839045887297E-02 
378	 0.030338611320289 
379	 3.57311016964558E-02 
380	 3.41188422961867E-02 
381	 3.30571992620405E-02 
382	 3.47392354918818E-02 
383	 3.67127704980515E-02 
384	 3.91640125544919E-02 
385	 3.94118968158012E-02 
386	 3.73808610766901E-02 
387	 3.84643067571243E-02 
388	 4.00635589132128E-02 
389	 4.20702779567405E-02 
390	 0.044452057802278 
391	 0.044183739267962 
392	 4.38666730076901E-02 
393	 4.47112384786589E-02 
394	 4.64457246951407E-02 
395	 4.87587708036338E-02 
396	 5.03527620736601E-02 
397	 5.06791005162115E-02 
398	 5.08188155614189E-02 
399	 5.22183642974226E-02 
400	 5.42762556097819E-02 
401	 5.56023779551727E-02 
402	 5.54436860876907E-02 
403	 5.53788595622214E-02 
404	 5.61816143270446E-02 
405	 5.76358570216668E-02 
406	 5.90970737710282E-02 
407	 6.02555410331287E-02 
408	 6.09069986398251E-02 
409	 0.060659795726541 
410	 6.10505055654195E-02 
411	 6.21115003842458E-02 
412	 6.32079788152044E-02 
413	 6.49667603817472E-02 
414	 6.53749823980901E-02 
415	 6.44383034158992E-02 
416	 6.49126191940112E-02 
417	 6.51591582001459E-02 
418	 6.53473089045391E-02 
419	 6.57964603039524E-02 
420	 6.59509702052032E-02 
421	 6.55352417742034E-02 
422	 6.52846359014089E-02 
423	 6.62713871105297E-02 
424	 6.57545097069075E-02 
425	 6.51585023807092E-02 
426	 6.53210577927713E-02 
427	 6.50924717788324E-02 
428	 6.44635635067916E-02 
429	 6.40991701649115E-02 
430	 6.45492737037116E-02 
431	 6.45916625393803E-02 
432	 6.45338231469857E-02 
433	 6.45509244826376E-02 
434	 6.46109159660129E-02 
435	 0.06466882323574 
436	 6.48516902068733E-02 
437	 6.50814566072969E-02 
438	 6.44928709314679E-02 
439	 0.065031958860275 
440	 6.61574972807837E-02 
441	 6.62999484371855E-02 
442	 6.67049062401361E-02 
443	 6.71283949845287E-02 
444	 6.74113779076734E-02 
445	 6.77255470487859E-02 
446	 6.83101670495305E-02 
447	 6.88331775041643E-02 
448	 6.90187685358953E-02 
449	 6.95837366052372E-02 
450	 7.01145587537745E-02 
451	 7.05479638794851E-02 
452	 0.071118841156607 
453	 7.13222932030726E-02 
454	 7.14204492745309E-02 
455	 7.17251664919511E-02 
456	 0.072396851177143 
457	 7.27156180028647E-02 
458	 7.27286404607766E-02 
459	 7.28300643545168E-02 
460	 7.30276550229728E-02 
461	 7.30610551177036E-02 
462	 7.30070661346383E-02 
463	 7.34526101470212E-02 
464	 0.073612670491702 
465	 7.36232856566921E-02 
466	 7.37821938628006E-02 
467	 7.39345388065183E-02 
468	 7.40385317429896E-02 
469	 7.41163372379931E-02 
470	 7.42380321043695E-02 
471	 7.44047566313621E-02 
472	 7.45041607072846E-02 
473	 7.45028119079415E-02 
474	 7.46000893263755E-02 
475	 7.46331891492568E-02 
476	 7.46121740260895E-02 
477	 7.46054772226645E-02 
478	 7.44982578021064E-02 
479	 7.45216634635032E-02 
480	 7.47041332968045E-02 
481	 7.47597541600203E-02 
482	 7.49166193453663E-02 
483	 7.50268326950679E-02 
484	 7.49675862579574E-02 
485	 0.075156790599871 
486	 7.51383075922359E-02 
487	 7.49431580566844E-02 
488	 7.50036307700664E-02 
489	 7.51771927580783E-02 
490	 7.51819427412585E-02 
491	 7.49909447985514E-02 
492	 7.53007965449709E-02 
493	 7.53194779500106E-02 
494	 7.51190291031869E-02 
495	 0.075140629543832 
496	 7.52561782839331E-02 
497	 7.53453916939388E-02 
498	 7.53797678278113E-02 
499	 7.54765165927708E-02 
500	 7.53473260188692E-02 
501	 7.51562804320602E-02 
502	 7.51495635782537E-02 
503	 7.53053446376233E-02 
504	 7.54126287386449E-02 
505	 7.54274823661084E-02 
506	 7.54609588067265E-02 
507	 7.54303057822628E-02 
508	 7.54465682087133E-02 
509	 7.55494004071144E-02 
510	 7.55027334863433E-02 
511	 7.53549017392667E-02 
512	 0.075281246111264 
513	 7.54624627422034E-02 
514	 7.54527441214358E-02 
515	 7.54089402951654E-02 
516	 7.54444225303657E-02 
517	 7.54793833300757E-02 
518	 7.55173957228198E-02 
519	 7.55780553205759E-02 
520	 7.56570300412672E-02 
521	 7.55822238694133E-02 
522	 7.55640800536231E-02 
523	 7.56526742026413E-02 
524	 7.57101381957144E-02 
525	 7.56902764454851E-02 
526	 7.56266521332394E-02 
527	 7.55912148670859E-02 
528	 7.57250336601712E-02 
529	 7.57164801764164E-02 
530	 0.075647176028045 
531	 7.58200231444313E-02 
532	 7.58480809209734E-02 
533	 7.58681721887994E-02 
534	 7.59814259693721E-02 
535	 7.60734064574946E-02 
536	 7.60411717681695E-02 
537	 7.60219897416504E-02 
538	 7.61893487449773E-02 
539	 7.62230699661102E-02 
540	 7.62804415605736E-02 
541	 7.64076006447402E-02 
542	 7.64531498808851E-02 
543	 7.65393466595489E-02 
544	 7.66471504605304E-02 
545	 7.67406911620329E-02 
546	 7.68793472682645E-02 
547	 7.70012853094129E-02 
548	 7.71355222218041E-02 
549	 0.077375962687956 
550	 7.74600192671574E-02 
551	 7.75622097407206E-02 
552	 7.78151638679414E-02 
553	 7.80385856725711E-02 
554	 7.82207056114081E-02 
555	 7.84040659905949E-02 
556	 7.86576149749515E-02 
557	 7.89559709318676E-02 
558	 7.92812193545242E-02 
559	 7.96131611676585E-02 
560	 7.99209672603197E-02 
561	 8.02951466864073E-02 
562	 8.07353985895527E-02 
563	 8.12110514612878E-02 
564	 8.17267672224578E-02 
565	 8.22580849200849E-02 
566	 8.27958167795637E-02 
567	 8.33501783707081E-02 
568	 8.40340368110968E-02 
569	 8.47546022396631E-02 
570	 8.54185353164894E-02 
571	 8.61073851920091E-02 
572	 8.68199553370577E-02 
573	 8.75690800432095E-02 
574	 8.83722599449909E-02 
575	 8.91769494149372E-02 
576	 9.00584434423518E-02 
577	 9.10262767848131E-02 
578	 9.18894964036424E-02 
579	 0.092849576375264 
580	 9.38819116376959E-02 
581	 9.48914185281426E-02 
582	 9.60145066398613E-02 
583	 9.71447151273049E-02 
584	 9.82257912215769E-02 
585	 9.93071194392895E-02 
586	 0.100374210939178 
587	 0.101478811655798 
588	 0.102659456798516 
589	 0.103822363274402 
590	 0.105027477614694 
591	 0.106244586024674 
592	 0.107368272045751 
593	 0.108486385603791 
594	 0.109590459389138 
595	 0.110660742463758 
596	 0.111691284060552 
597	 0.112771634965192 
598	 0.11390115912922 
599	 0.115024124595664 
600	 0.11605779495829 
601	 0.117045434047746 
602	 0.11801558121538 
603	 0.118948257814521 
604	 0.119819463173782 
605	 0.120681958807153 
606	 0.121580983184517 
607	 0.122351400671147 
608	 0.12312336452843 
609	 0.123928383010815 
610	 0.124668601617518 
611	 0.125354558801719 
612	 0.125992375966737 
613	 0.126582911204469 
614	 0.127106880127595 
615	 0.127614643181302 
616	 0.128108498959914 
617	 0.128556468187113 
618	 0.128988965843852 
619	 0.129408458429676 
620	 0.129809396530831 
621	 0.130175553951802 
622	 0.130515789216916 
623	 0.130854393435453 
624	 0.131211638789483 
625	 0.131535590370718 
626	 0.131810345625842 
627	 0.132057529941784 
628	 0.132341941556185 
629	 0.132611602811301 
630	 0.132871487938045 
631	 0.133133401082701 
632	 0.133370195239836 
633	 0.133614072469967 
634	 0.133866435655856 
635	 0.134105379542012 
636	 0.134374790418238 
637	 0.134630251795619 
638	 0.134842232861726 
639	 0.135045308673939 
640	 0.13531965443751 
641	 0.135617807590442 
642	 0.135844504376238 
643	 0.136064351613002 
644	 0.136323886063539 
645	 0.136617548333195 
646	 0.136867956122884 
647	 0.137090400044119 
648	 0.137337120277778 
649	 0.137652244676894 
650	 0.138006246024541 
651	 0.13827253402419 
652	 0.138494376945451 
653	 0.138851495302299 
654	 0.139182790543996 
655	 0.139465010792273 
656	 0.139725913734228 
657	 0.140053019573022 
658	 0.140395845561784 
659	 0.1407230805202 
660	 0.141022639566605 
661	 0.141362848036217 
662	 0.141733036153608 
663	 0.142115764277569 
664	 0.14249655351827 
665	 0.142863663606303 
666	 0.143212642985742 
667	 0.143563732680595 
668	 0.144026498213601 
669	 0.14446274220641 
670	 0.144863801164947 
671	 0.145324573306264 
672	 0.145707066260598 
673	 0.146116502049816 
674	 0.146613684542089 
675	 0.147055562181858 
676	 0.147507473500246 
677	 0.147986639783528 
678	 0.148483797322365 
679	 0.148938416062154 
680	 0.149429416539951 
681	 0.149962589659083 
682	 0.15043372343442 
683	 0.150973117637305 
684	 0.15152531803534 
685	 0.152027965885077 
686	 0.15258018670415 
687	 0.153126216355552 
688	 0.153654786351021 
689	 0.15418640169915 
690	 0.154707126929399 
691	 0.155249797721077 
692	 0.155833459824017 
693	 0.156446662594172 
694	 0.157004940719376 
695	 0.157554210385796 
696	 0.158161455525744 
697	 0.158705681277776 
698	 0.159264834395085 
699	 0.1598625091584 
700	 0.160452563005385 
701	 0.161021373706393 
702	 0.161604824075061 
703	 0.162214079154325 
704	 0.162756611143704 
705	 0.163308208267603 
706	 0.163873172676009 
707	 0.164423610628496 
708	 0.165004262435653 
709	 0.165588899875657 
710	 0.166155889005971 
711	 0.166703296314757 
712	 0.167215627551291 
713	 0.167715493833393 
714	 0.168236826157466 
715	 0.168815987375194 
716	 0.169355842202829 
717	 0.169833041840485 
718	 0.170286568942251 
719	 0.170771221891057 
720	 0.171244659850731 
721	 0.171678129028739 
722	 0.172100277067796 
723	 0.172512271899056 
724	 0.172920170290141 
725	 0.173324129505812 
726	 0.173698035681533 
727	 0.174017917218609 
728	 0.174313260065574 
729	 0.174655720999408 
730	 0.174963832957879 
731	 0.175235684556104 
732	 0.175488375112234 
733	 0.175749318921074 
734	 0.175991867928437 
735	 0.176180644615045 
736	 0.176300199484548 
737	 0.176475422940039 
738	 0.176613854557086 
739	 0.176698433296666 
740	 0.176809788274207 
741	 0.176921517526665 
742	 0.176991457324322 
743	 0.177006078617839 
744	 0.177048093987007 
745	 0.17698248257679 
746	 0.176896279390751 
747	 0.176937297012606 
748	 0.176872916706642 
749	 0.176759136542639 
750	 0.176657280249258 
751	 0.176600373858916 
752	 0.176468242240873 
753	 0.176278544065556 
754	 0.176080840837226 
755	 0.175911655428713 
756	 0.175750749286221 
757	 0.175548603174875 
758	 0.175265239810171 
759	 0.175039816089527 
760	 0.174808005122679 
761	 0.174535442500463 
762	 0.17425027923907 
763	 0.173963614636373 
764	 0.173657121325487 
765	 0.1733228776557 
766	 0.173001765491029 
767	 0.172695052809668 
768	 0.172383577134849 
769	 0.172043238127075 
770	 0.171702622553723 
771	 0.171357611272619 
772	 0.170994633296264 
773	 0.170594433695531 
774	 0.170219736315519 
775	 0.16985921941975 
776	 0.169481886257411 
777	 0.169047591134323 
778	 0.168639460841819 
779	 0.168275603287082 
780	 0.167925903061558 
781	 0.16747836188742 
782	 0.167068197099023 
783	 0.166717307861667 
784	 0.166312880794768 
785	 0.165917083842585 
786	 0.165511364266894 
787	 0.16509350468676 
788	 0.164737137284683 
789	 0.164384519899097 
790	 0.163985564775564 
791	 0.163526712604682 
792	 0.163150771034782 
793	 0.162815922497166 
794	 0.162469292071017 
795	 0.162062888348111 
796	 0.161610100553675 
797	 0.161208000026537 
798	 0.160881602257636 
799	 0.160504377728566 
800	 0.160137758114524 
801	 0.159790674087197 
802	 0.159450966264473 
803	 0.159083703010774 
804	 0.158732501656865 
805	 0.158399609916958 
806	 0.158058683193845 
807	 0.157690918503311 
808	 0.157320417720035 
809	 0.156980018312327 
810	 0.156702466463993 
811	 0.156397936135317 
812	 0.156059064679268 
813	 0.155719207015603 
814	 0.155469025841352 
815	 0.155175442008336 
816	 0.154858461554111 
817	 0.154585154526185 
818	 0.154287680276778 
819	 0.154054151580071 
820	 0.153834281728708 
821	 0.153480401392095 
822	 0.153225224754106 
823	 0.152987999090172 
824	 0.152715903961079 
825	 0.152479138051868 
826	 0.152287613837267 
827	 0.152072630922454 
828	 0.151799904135297 
829	 0.151621132612031 
830	 0.151393753093008 
831	 0.151143864773715 
832	 0.150967100393359 
833	 0.150836737492331 
834	 0.150660671365958 
835	 0.150447358722687 
836	 0.15029720118807 
837	 0.150155598880328 
838	 0.150000155211595 
839	 0.149829833795597 
840	 0.149671500109166 
841	 0.14949859671232 
842	 0.149345427145674 
843	 0.149235933134941 
844	 0.149108157890313 
845	 0.149024127176101 
846	 0.148954502522147 
847	 0.148845976156585 
848	 0.148770829417543 
849	 0.148702798491182 
850	 0.148608338098818 
851	 0.148466326685448 
852	 0.148387406921205 
853	 0.148363335514604 
854	 0.148355009036156 
855	 0.148309661578492 
856	 0.148273520662133 
857	 0.148248847983962 
858	 0.148222998492901 
859	 0.148169002619412 
860	 0.148137612383761 
861	 0.148137251231046 
862	 0.148153560505087 
863	 0.148151566279932 
864	 0.1481823120866 
865	 0.148215290535334 
866	 0.14819062827218 
867	 0.148228099696269 
868	 0.148273462753822 
869	 0.148299256959625 
870	 0.148325375313714 
871	 0.14840256831218 
872	 0.14849347253516 
873	 0.148568459732436 
874	 0.14863633507606 
875	 0.148728984175 
876	 0.148799572202304 
877	 0.148833744683916 
878	 0.148947364522589 
879	 0.149147666065256 
880	 0.149311444205766 
881	 0.149339860537442 
882	 0.149428658642959 
883	 0.149587630204942 
884	 0.149763784942821 
885	 0.149892741585594 
886	 0.150073445546413 
887	 0.150270344398552 
888	 0.15044834163933 
889	 0.150588551776544 
890	 0.150727325541001 
891	 0.150902448581808 
892	 0.151110038232012 
893	 0.151298921273728 
894	 0.151518569880342 
895	 0.151734150179862 
896	 0.151925756367496 
897	 0.152127588435475 
898	 0.152396815630773 
899	 0.152664658561148 
900	 0.152888667297829 
901	 0.153194785619669 
902	 0.153459489475803 
903	 0.153696068646514 
904	 0.153952061837582 
905	 0.1542111923313 
906	 0.154484710955704 
907	 0.154780402222912 
908	 0.155103846096601 
909	 0.15547064991249 
910	 0.15579080005031 
911	 0.15605917646349 
912	 0.15633224953838 
913	 0.156621677663019 
914	 0.156988247710147 
915	 0.157415269617508 
916	 0.157816123778659 
917	 0.158148665512851 
918	 0.158481944722749 
919	 0.158840948857732 
920	 0.159184970226097 
921	 0.159578811259361 
922	 0.160015685607627 
923	 0.16044662609285 
924	 0.160791878537163 
925	 0.161153188872288 
926	 0.16154886533002 
927	 0.161957610835655 
928	 0.162321716443839 
929	 0.162818127646686 
930	 0.163343606591693 
931	 0.163787588443783 
932	 0.16420064613821 
933	 0.164623809666811 
934	 0.165097333264007 
935	 0.165623194142218 
936	 0.166119644971119 
937	 0.166519659324218 
938	 0.16687638749126 
939	 0.167301401078271 
940	 0.167940958144902 
941	 0.1684959823579 
942	 0.168979881153189 
943	 0.169506589720825 
944	 0.170018953313158 
945	 0.170522430842818 
946	 0.170996009486036 
947	 0.171442580901699 
948	 0.172016172091239 
949	 0.172575825465802 
950	 0.173076415463772 
951	 0.17355257015851 
952	 0.174117085034143 
953	 0.17460468759748 
954	 0.17506453776645 
955	 0.175646175319168 
956	 0.176300072445284 
957	 0.176876492569466 
958	 0.177378273152005 
959	 0.177911061353722 
960	 0.178537926270696 
961	 0.179099809141822 
962	 0.179633695540724 
963	 0.180272746078871 
964	 0.180860267286387 
965	 0.181498655015162 
966	 0.1821199540543 
967	 0.1825922242028 
968	 0.183162983298161 
969	 0.183758162413629 
970	 0.184318764269864 
971	 0.184844552044141 
972	 0.185520341226596 
973	 0.18617774684399 
974	 0.186800834606915 
975	 0.187462732162496 
976	 0.188000051071129 
977	 0.188573577679617 
978	 0.189175353410087 
979	 0.189720740554962 
980	 0.19045885264356 
981	 0.191062196474579 
982	 0.191552793725163 
983	 0.192142841437681 
984	 0.192649255499122 
985	 0.193320038174098 
986	 0.193987162725718 
987	 0.194377873214068 
988	 0.195001176378447 
989	 0.195497818160233 
990	 0.195962960989688 
991	 0.196668738613301 
992	 0.197489424863643 
993	 0.19796114128013 
994	 0.198410038206807 
995	 0.199236603148555 
996	 0.199555348036336 
997	 0.200088814535237 
998	 0.200665849561759 
999	 0.20098234550766 
1000	 0.201629062747168 
1001	 0.205491211779782 
1002	 0.206006790115275 
1003	 0.206487939365719 
1004	 0.206942686964931 
1005	 0.207329756041771 
1006	 0.207774601577852 
1007	 0.20820665434869 
1008	 0.208694489127674 
1009	 0.209192128190799 
1010	 0.209668807602117 
1011	 0.210124706611462 
1012	 0.210564336392043 
1013	 0.211010695898522 
1014	 0.211401534873137 
1015	 0.211763140965397 
1016	 0.212240035814099 
1017	 0.212681594737511 
1018	 0.213132005293744 
1019	 0.213564695394534 
1020	 0.214002356412582 
1021	 0.214268205121999 
1022	 0.214506217330842 
1023	 0.214886908592022 
1024	 0.21525480197386 
1025	 0.215638841264653 
1026	 0.215997112044694 
1027	 0.216267825912343 
1028	 0.216595021502201 
1029	 0.216904184833422 
1030	 0.217177954617886 
1031	 0.217474412430645 
1032	 0.217797745073984 
1033	 0.218063722141168 
1034	 0.21832846993115 
1035	 0.218615635947548 
1036	 0.218891363794248 
1037	 0.219137578871382 
1038	 0.219335299421326 
1039	 0.219620562399677 
1040	 0.219984778581714 
1041	 0.220257393977518 
1042	 0.220506318176943 
1043	 0.220796757440445 
1044	 0.221057180931703 
1045	 0.221259607727556 
1046	 0.22147244620166 
1047	 0.221715191834765 
1048	 0.221954811185985 
1049	 0.222164861080728 
1050	 0.222407066209561 
1051	 0.222732099278497 
1052	 0.222985677477227 
1053	 0.22317917560039 
1054	 0.223393879972537 
1055	 0.223614047880911 
1056	 0.22385723668008 
1057	 0.224117059847305 
1058	 0.224443421922988 
1059	 0.224721667150911 
1060	 0.225004951501437 
1061	 0.225229162988457 
1062	 0.225389720839036 
1063	 0.225625234644496 
1064	 0.225911467675243 
1065	 0.226146314151734 
1066	 0.22643298639625 
1067	 0.226723803541534 
1068	 0.226927458347408 
1069	 0.227150057169025 
1070	 0.227394617875089 
1071	 0.227666608133526 
1072	 0.227920596084099 
1073	 0.228184725282865 
1074	 0.228426251421541 
1075	 0.228671167233303 
1076	 0.228878004039198 
1077	 0.229058776241458 
1078	 0.229247212945176 
1079	 0.229448378580455 
1080	 0.229695910950207 
1081	 0.22991714367998 
1082	 0.230159107657939 
1083	 0.230392872313224 
1084	 0.230612276010986 
1085	 0.230822751242409 
1086	 0.231044049612558 
1087	 0.231234108573691 
1088	 0.2313886104703 
1089	 0.231582043593902 
1090	 0.231770124007853 
1091	 0.231961707320408 
1092	 0.232153611229215 
1093	 0.232328309818968 
1094	 0.232478125957009 
1095	 0.232667384004832 
1096	 0.232865436509093 
1097	 0.233010513161225 
1098	 0.233167475927556 
1099	 0.233313812261814 
1100	 0.233450472484868 
1101	 0.233576726605446 
1102	 0.233723751547391 
1103	 0.233876128982054 
1104	 0.234013245580839 
1105	 0.23417019753883 
1106	 0.234334949344467 
1107	 0.234450180413745 
1108	 0.234566693828002 
1109	 0.234690009130242 
1110	 0.23480233048491 
1111	 0.234936422206059 
1112	 0.235112151643079 
1113	 0.235222514948229 
1114	 0.23532086285116 
1115	 0.235408235588469 
1116	 0.235436083356574 
1117	 0.235515008522563 
1118	 0.235625877811334 
1119	 0.235708451195373 
1120	 0.235793290821807 
1121	 0.235891927322737 
1122	 0.236006535934443 
1123	 0.236090289955335 
1124	 0.236176047282799 
1125	 0.236284812637321 
1126	 0.236347753904882 
1127	 0.23636042688838 
1128	 0.236419605684185 
1129	 0.236493231876431 
1130	 0.23654289712059 
1131	 0.236613199240465 
1132	 0.236652088933127 
1133	 0.236649429127091 
1134	 0.236657019028873 
1135	 0.236664621626817 
1136	 0.236662927287376 
1137	 0.236652568009008 
1138	 0.23665343955084 
1139	 0.236661635963178 
1140	 0.2366900881873 
1141	 0.236676080086399 
1142	 0.236656503134463 
1143	 0.236624357927717 
1144	 0.236558100541443 
1145	 0.236500671580343 
1146	 0.236441776914705 
1147	 0.236391116289334 
1148	 0.236313264351943 
1149	 0.236272378192181 
1150	 0.236263735935918 
1151	 0.236252235125271 
1152	 0.236250435102979 
1153	 0.236259918784822 
1154	 0.236255834672569 
1155	 0.236230009219534 
1156	 0.236249389273147 
1157	 0.236290976746761 
1158	 0.23631983480461 
1159	 0.236369368580654 
1160	 0.236410559401456 
1161	 0.236424470311074 
1162	 0.236469341134831 
1163	 0.236546926689738 
1164	 0.236609075996251 
1165	 0.236673360841583 
1166	 0.236731356705738 
1167	 0.236815911428853 
1168	 0.236886187764756 
1169	 0.236956204018086 
1170	 0.23704621968294 
1171	 0.237104668365996 
1172	 0.23713380960117 
1173	 0.237182023070313 
1174	 0.237215364716032 
1175	 0.237274880424652 
1176	 0.237361063264673 
1177	 0.237428381554893 
1178	 0.237508660959105 
1179	 0.237573109303688 
1180	 0.237622061711708 
1181	 0.237664827080538 
1182	 0.237689495596486 
1183	 0.23772278289512 
1184	 0.237776835829065 
1185	 0.237834945763303 
1186	 0.23789947335962 
1187	 0.237998311461417 
1188	 0.238059945737247 
1189	 0.238096501246465 
1190	 0.238150990933123 
1191	 0.238205218907601 
1192	 0.238258103714727 
1193	 0.238313577087111 
1194	 0.238372321514912 
1195	 0.238426705114394 
1196	 0.238485326386942 
1197	 0.238564846126835 
1198	 0.238626035012556 
1199	 0.23867886582963 
1200	 0.238716277099069 
1201	 0.238773382195876 
1202	 0.238827956859723 
1203	 0.238885746068806 
1204	 0.238957640681705 
1205	 0.239022750520197 
1206	 0.239084700298187 
1207	 0.239141239553868 
1208	 0.239204377298951 
1209	 0.239254780328912 
1210	 0.23928644089393 
1211	 0.23932674068908 
1212	 0.23936462008571 
1213	 0.239405925893902 
1214	 0.239447485459197 
1215	 0.239494232945199 
1216	 0.239544348442655 
1217	 0.239597978191906 
1218	 0.239652320079359 
1219	 0.239713743411374 
1220	 0.239767621926447 
1221	 0.239820480025957 
1222	 0.239870067057585 
1223	 0.23991731780083 
1224	 0.239961320425558 
1225	 0.240005362841187 
1226	 0.24004171732573 
1227	 0.240072549982574 
1228	 0.240100208102581 
1229	 0.240103875233735 
1230	 0.24013531745714 
1231	 0.240190830256297 
1232	 0.240230619360708 
1233	 0.240270977359962 
1234	 0.240324707383372 
1235	 0.240367414242265 
1236	 0.240390726133863 
1237	 0.240431194046387 
1238	 0.240493306716316 
1239	 0.240528290195324 
1240	 0.240553989093601 
1241	 0.240576188753301 
1242	 0.240573313926189 
1243	 0.240593657969053 
1244	 0.240617202600068 
1245	 0.240651035645227 
1246	 0.240713584091614 
1247	 0.240754412577826 
1248	 0.240793550622609 
1249	 0.24082323269263 
1250	 0.240842232119202 
1251	 0.240873990772133 
1252	 0.240898818248608 
1253	 0.240929125392495 
1254	 0.240952160725248 
1255	 0.240975928646901 
1256	 0.240979574893332 
1257	 0.240961149501032 
1258	 0.240967198973741 
1259	 0.240965337582557 
1260	 0.2409749122263 
1261	 0.241020353667579 
1262	 0.241037341941111 
1263	 0.241038483580181 
1264	 0.241040711239802 
1265	 0.241029411683955 
1266	 0.241025760624118 
1267	 0.241030663672479 
1268	 0.241025638381331 
1269	 0.241015685910157 
1270	 0.241002612241202 
1271	 0.240992996256218 
1272	 0.240970349933351 
1273	 0.240967274189257 
1274	 0.240985398130879 
1275	 0.240982145564296 
1276	 0.240970354485434 
1277	 0.240970428344684 
1278	 0.24095768430726 
1279	 0.240965129757245 
1280	 0.240994490117315 
1281	 0.241019876642048 
1282	 0.241059356627901 
1283	 0.241085367129928 
1284	 0.241104993686313 
1285	 0.241127935204978 
1286	 0.241138173488329 
1287	 0.241150719032674 
1288	 0.241173287095537 
1289	 0.241203999382048 
1290	 0.241228440414486 
1291	 0.241259616865716 
1292	 0.241282234290248 
1293	 0.241300783327982 
1294	 0.24131493106953 
1295	 0.241319393617998 
1296	 0.241333374351288 
1297	 0.241354667584637 
1298	 0.241361695851971 
1299	 0.241368917660736 
1300	 0.241368953711758 
1301	 0.241357719031252 
1302	 0.241342656592906 
1303	 0.241314065635075 
1304	 0.241306446550884 
1305	 0.241301933708292 
1306	 0.241248942262116 
1307	 0.241210091607072 
1308	 0.241167075230501 
1309	 0.24111249621689 
1310	 0.241047607976298 
1311	 0.240979281990573 
1312	 0.240904550989972 
1313	 0.240820529543449 
1314	 0.240735083131349 
1315	 0.240625627396295 
1316	 0.240501182013824 
1317	 0.240374961637163 
1318	 0.240227645521787 
1319	 0.240080856472219 
1320	 0.239927478342284 
1321	 0.239778362036807 
1322	 0.239619129102271 
1323	 0.239483678813566 
1324	 0.239336152511972 
1325	 0.239167242103012 
1326	 0.238977507692614 
1327	 0.23877784936682 
1328	 0.2385817806581 
1329	 0.238392485946314 
1330	 0.238179793254001 
1331	 0.237961310791241 
1332	 0.237730208319096 
1333	 0.23747399184789 
1334	 0.23722607186034 
1335	 0.236974297870942 
1336	 0.236730895204075 
1337	 0.236482505964902 
1338	 0.236251434320227 
1339	 0.236033037202498 
1340	 0.235811185955862 
1341	 0.235616881623309 
1342	 0.235385142700044 
1343	 0.23512067574805 
1344	 0.234879805866376 
1345	 0.234642886657297 
1346	 0.234391961170293 
1347	 0.234174805144245 
1348	 0.233985527919936 
1349	 0.233758825096944 
1350	 0.233530365726151 
1351	 0.233309661778881 
1352	 0.233087006773988 
1353	 0.232856604196043 
1354	 0.232633716627895 
1355	 0.232397623894536 
1356	 0.232142794292855 
1357	 0.231904536664816 
1358	 0.231666530499363 
1359	 0.231431950140988 
1360	 0.231213020372432 
1361	 0.230977730403186 
1362	 0.230744591037864 
1363	 0.230495806210382 
1364	 0.230243305705765 
1365	 0.229964902359953 
1366	 0.229664885487158 
1367	 0.229361382979451 
1368	 0.229041489981097 
1369	 0.22871463593207 
1370	 0.228358250342139 
1371	 0.227959491447598 
1372	 0.227531721227906 
1373	 0.227054362635838 
1374	 0.226535473471666 
1375	 0.225995555161009 
1376	 0.225372895167334 
1377	 0.224695005312862 
1378	 0.223948804967013 
1379	 0.223124062909461 
1380	 0.222266039058828 
1381	 0.221371390326211 
1382	 0.220386300614608 
1383	 0.2193561169352 
1384	 0.218242080100672 
1385	 0.217043426802637 
1386	 0.215790916747196 
1387	 0.214479075664598 
1388	 0.213102744029348 
1389	 0.211671374905951 
1390	 0.21015668275593 
1391	 0.208569660985331 
1392	 0.206922558267132 
1393	 0.205210402137069 
1394	 0.203474543335478 
1395	 0.201701856182731 
1396	 0.199921831194615 
1397	 0.198134844025283 
1398	 0.19631630251156 
1399	 0.194517352774419 
1400	 0.192701544582705 
1401	 0.190935889939371 
1402	 0.189173710696949 
1403	 0.187476076438447 
1404	 0.185811587288756 
1405	 0.184210814327539 
1406	 0.182648233121601 
1407	 0.18114735701846 
1408	 0.179697175953632 
1409	 0.178315341531042 
1410	 0.176987166046981 
1411	 0.175740247351749 
1412	 0.174561516622643 
1413	 0.173452997337839 
1414	 0.17243385144054 
1415	 0.171447603407365 
1416	 0.170514521555262 
1417	 0.169633874347107 
1418	 0.168810945565116 
1419	 0.168042764507182 
1420	 0.1673105114782 
1421	 0.16663232141653 
1422	 0.165981935859487 
1423	 0.165352239870941 
1424	 0.164765799326522 
1425	 0.164223226426043 
1426	 0.163711495487995 
1427	 0.163233172341664 
1428	 0.162780854866886 
1429	 0.16236427001134 
1430	 0.161978316174047 
1431	 0.16161860870837 
1432	 0.161287610244587 
1433	 0.161003735255397 
1434	 0.160716094976337 
1435	 0.16043518697893 
1436	 0.160187747482025 
1437	 0.159956700812489 
1438	 0.159749882426569 
1439	 0.159575889311883 
1440	 0.159418756669686 
1441	 0.159263089333314 
1442	 0.15911951884854 
1443	 0.15899506830023 
1444	 0.158884248509506 
1445	 0.158784964483402 
1446	 0.158712448686817 
1447	 0.158657048662881 
1448	 0.158599803097904 
1449	 0.158538062348559 
1450	 0.158486957099332 
1451	 0.158461551807631 
1452	 0.158437151999798 
1453	 0.158440270209753 
1454	 0.158484292665526 
1455	 0.158519035994616 
1456	 0.158555776647552 
1457	 0.15861005774657 
1458	 0.158671402544154 
1459	 0.15875563154297 
1460	 0.15884858001002 
1461	 0.158970404993322 
1462	 0.159110721623649 
1463	 0.159285192225467 
1464	 0.159493505348637 
1465	 0.159714481741956 
1466	 0.159964017462825 
1467	 0.160227534481583 
1468	 0.160489382986175 
1469	 0.160797410640799 
1470	 0.161144277385037 
1471	 0.161508070403384 
1472	 0.161893474497702 
1473	 0.162313156173829 
1474	 0.162725748749646 
1475	 0.163154686214765 
1476	 0.163609787149303 
1477	 0.164058067666575 
1478	 0.164524287060504 
1479	 0.16499451389858 
1480	 0.165454397068653 
1481	 0.165934863126777 
1482	 0.166420226596843 
1483	 0.166914936841114 
1484	 0.167408961192008 
1485	 0.167913778972153 
1486	 0.168410924641067 
1487	 0.168896231711112 
1488	 0.16940108354338 
1489	 0.169921684617016 
1490	 0.17043188734428 
1491	 0.17095073162911 
1492	 0.171463374306969 
1493	 0.171963100650496 
1494	 0.172469772710001 
1495	 0.172985869599972 
1496	 0.173492019777879 
1497	 0.173996667056227 
1498	 0.174495834512811 
1499	 0.174992157075236 
1500	 0.175480007093639 
1501	 0.175956501444966 
1502	 0.176435845584452 
1503	 0.176919958453995 
1504	 0.177379662178949 
1505	 0.177846500479299 
1506	 0.178320175461667 
1507	 0.178776294754728 
1508	 0.179240940056515 
1509	 0.179693626933266 
1510	 0.180134572377835 
1511	 0.180586104741872 
1512	 0.181026753666121 
1513	 0.181460801049733 
1514	 0.181918025954438 
1515	 0.182373450005675 
1516	 0.182824173693894 
1517	 0.183273003579738 
1518	 0.183737382411113 
1519	 0.18416155250417 
1520	 0.184559926552495 
1521	 0.18496906040669 
1522	 0.185359018521465 
1523	 0.185764686700535 
1524	 0.18619007488569 
1525	 0.18658531199863 
1526	 0.186968804113594 
1527	 0.187348007236466 
1528	 0.187706690785842 
1529	 0.188074216971571 
1530	 0.188453503642602 
1531	 0.188810508384907 
1532	 0.189152719193274 
1533	 0.189498642118269 
1534	 0.189831838025026 
1535	 0.190167427558349 
1536	 0.190506020111079 
1537	 0.190841984469027 
1538	 0.191178975370892 
1539	 0.191505225204869 
1540	 0.191828816944891 
1541	 0.192146402775176 
1542	 0.192447995171517 
1543	 0.192752078712048 
1544	 0.193061527156728 
1545	 0.193362715106623 
1546	 0.193663475142364 
1547	 0.19395042258784 
1548	 0.194226634953189 
1549	 0.194483345638622 
1550	 0.194741469471481 
1551	 0.195006924934017 
1552	 0.195279092398332 
1553	 0.19555504056003 
1554	 0.19581159447012 
1555	 0.19606754791115 
1556	 0.196318695220728 
1557	 0.196556185966192 
1558	 0.196800288832735 
1559	 0.197029142974071 
1560	 0.197250896798188 
1561	 0.197460586052061 
1562	 0.197676495537559 
1563	 0.197885283292807 
1564	 0.198098460522324 
1565	 0.198321246290467 
1566	 0.19852547844065 
1567	 0.198717998598943 
1568	 0.1989173139417 
1569	 0.199114941497137 
1570	 0.199303722631536 
1571	 0.199494551819766 
1572	 0.199673045922917 
1573	 0.19983003969792 
1574	 0.200004148796813 
1575	 0.200184129983506 
1576	 0.200358932288905 
1577	 0.200550564212351 
1578	 0.200707711443557 
1579	 0.20083125578684 
1580	 0.200981479591017 
1581	 0.201132922943891 
1582	 0.201274548805764 
1583	 0.201424199789263 
1584	 0.201571829809528 
1585	 0.201713645959766 
1586	 0.201839750508035 
1587	 0.201968560962467 
1588	 0.202089154444064 
1589	 0.20217653559964 
1590	 0.202280585106835 
1591	 0.202394591662076 
1592	 0.202508218036002 
1593	 0.202621687081097 
1594	 0.202738569695884 
1595	 0.202864302755639 
1596	 0.202983373089322 
1597	 0.203105240675506 
1598	 0.203218847139247 
1599	 0.203335755111798 
1600	 0.203432071643383 
1601	 0.20350813250486 
1602	 0.203585865846891 
1603	 0.20363740454011 
1604	 0.203709946642647 
1605	 0.203803442167549 
1606	 0.203882387489328 
1607	 0.203961208744967 
1608	 0.204041873763928 
1609	 0.20411284135102 
1610	 0.204185182016822 
1611	 0.204253836931332 
1612	 0.20431637231334 
1613	 0.204357302706201 
1614	 0.204397124329289 
1615	 0.204450836616787 
1616	 0.204489989362232 
1617	 0.204547697702758 
1618	 0.204610615860108 
1619	 0.204649373885724 
1620	 0.204706335725633 
1621	 0.204757762678355 
1622	 0.204804608226893 
1623	 0.20484986551239 
1624	 0.204901871282497 
1625	 0.204941242476629 
1626	 0.204966439879934 
1627	 0.205003541115654 
1628	 0.205039697626196 
1629	 0.205086590389293 
1630	 0.205145462588651 
1631	 0.205191041275714 
1632	 0.205237323083747 
1633	 0.205280380185735 
1634	 0.20532217366384 
1635	 0.205345219494249 
1636	 0.205361547806948 
1637	 0.20537389372759 
1638	 0.205362446418238 
1639	 0.205370889742643 
1640	 0.205386087616017 
1641	 0.205408113595883 
1642	 0.205441052702283 
1643	 0.205459618558142 
1644	 0.205478026270117 
1645	 0.205498904098773 
1646	 0.205507018027035 
1647	 0.205532137153073 
1648	 0.205586715488777 
1649	 0.205596024117366 
1650	 0.20558929371576 
1651	 0.205578537265392 
1652	 0.205530619746264 
1653	 0.205518508156504 
1654	 0.205527396733169 
1655	 0.205520873937086 
1656	 0.205525570617899 
1657	 0.205507998686356 
1658	 0.205465075347687 
1659	 0.205443972814762 
1660	 0.205426745542493 
1661	 0.20540237263039 
1662	 0.205386744582187 
1663	 0.205361862290869 
1664	 0.205324785453134 
1665	 0.205288715289799 
1666	 0.205240661500847 
1667	 0.205221718178606 
1668	 0.205226835410509 
1669	 0.205198093094476 
1670	 0.20518231312894 
1671	 0.20514058632705 
1672	 0.205050032725834 
1673	 0.204989311932238 
1674	 0.204940328997413 
1675	 0.204885942190461 
1676	 0.204824937381628 
1677	 0.204779943326133 
1678	 0.204742606303353 
1679	 0.204707153700714 
1680	 0.204696740506481 
1681	 0.204652662663206 
1682	 0.204586541389857 
1683	 0.204534428015251 
1684	 0.204470164126226 
1685	 0.204413741293435 
1686	 0.204377264138943 
1687	 0.204319899863149 
1688	 0.204244260698784 
1689	 0.204181059673289 
1690	 0.204117060904091 
1691	 0.204055078317335 
1692	 0.204008948332225 
1693	 0.20393788783526 
1694	 0.203848608458954 
1695	 0.20377008046692 
1696	 0.203677628091936 
1697	 0.20360112098644 
1698	 0.203545158881408 
1699	 0.203471972823059 
1700	 0.203401813750625 
1701	 0.203314338503218 
1702	 0.203211550389732 
1703	 0.203111708820511 
1704	 0.203001853613083 
1705	 0.202891876706329 
1706	 0.20278397684102 
1707	 0.202667557668709 
1708	 0.202537650565231 
1709	 0.202422080408203 
1710	 0.202315300487024 
1711	 0.202198330311999 
1712	 0.202074985462873 
1713	 0.201967512859831 
1714	 0.201871060438481 
1715	 0.201745595674236 
1716	 0.201625994188892 
1717	 0.201489975357896 
1718	 0.201306498390926 
1719	 0.201167508745605 
1720	 0.201054227682696 
1721	 0.20092369199006 
1722	 0.200802194582124 
1723	 0.200669689504655 
1724	 0.200523650128215 
1725	 0.200386944566085 
1726	 0.200262407044734 
1727	 0.200111350956352 
1728	 0.199952104661615 
1729	 0.199777690173589 
1730	 0.199576390117347 
1731	 0.199391034016739 
1732	 0.199208960632569 
1733	 0.199014992277667 
1734	 0.198820012639699 
1735	 0.198617207909005 
1736	 0.19840689337105 
1737	 0.198186406943351 
1738	 0.197954743392172 
1739	 0.197727729201052 
1740	 0.197483267836856 
1741	 0.197265611034785 
1742	 0.197071079016565 
1743	 0.196857787555886 
1744	 0.196650270456237 
1745	 0.196427554287667 
1746	 0.196180667444659 
1747	 0.195958130270005 
1748	 0.195749763542916 
1749	 0.195533218531301 
1750	 0.195327337622323 
1751	 0.19509193010882 
1752	 0.194832122649092 
1753	 0.194610396453566 
1754	 0.194388684865781 
1755	 0.194152367635816 
1756	 0.193933070390975 
1757	 0.193683795537114 
1758	 0.193423666044192 
1759	 0.19319742509671 
1760	 0.192989569641908 
1761	 0.192791430627321 
1762	 0.192582915558524 
1763	 0.192358238998107 
1764	 0.192111827300361 
1765	 0.191854253457421 
1766	 0.191603473425821 
1767	 0.191349190564602 
1768	 0.191129070953762 
1769	 0.190934261218967 
1770	 0.190721807786384 
1771	 0.190532935072545 
1772	 0.190350286287663 
1773	 0.190146429930887 
1774	 0.189957586086913 
1775	 0.189782908362687 
1776	 0.189597688624583 
1777	 0.189399651634369 
1778	 0.189238874370749 
1779	 0.189117463001923 
1780	 0.188975217076279 
1781	 0.188840092900432 
1782	 0.188728244416196 
1783	 0.188590410269925 
1784	 0.188462420234624 
1785	 0.18834553732797 
1786	 0.188245126836145 
1787	 0.188150687688319 
1788	 0.188058982542631 
1789	 0.187997104755575 
1790	 0.187913773934404 
1791	 0.187801545493013 
1792	 0.18772142417051 
1793	 0.187659611364079 
1794	 0.187595285125121 
1795	 0.187543140099011 
1796	 0.187492463868654 
1797	 0.187440182835634 
1798	 0.187390444549415 
1799	 0.187350782319814 
1800	 0.187306046662687 
1801	 0.186097002596418 
1802	 0.186183770707698 
1803	 0.18622263652424 
1804	 0.186245177056868 
1805	 0.186297285338606 
1806	 0.186339574282904 
1807	 0.186384199108567 
1808	 0.186403837440636 
1809	 0.186406836090157 
1810	 0.186422737779218 
1811	 0.186433398224086 
1812	 0.18642717551936 
1813	 0.18642590552638 
1814	 0.186427666688181 
1815	 0.18639813500878 
1816	 0.186351434232668 
1817	 0.186308549619943 
1818	 0.186268614299232 
1819	 0.186217144725963 
1820	 0.186145939395471 
1821	 0.186090852000296 
1822	 0.186063062714802 
1823	 0.186040594329964 
1824	 0.18599573473778 
1825	 0.18594164374653 
1826	 0.185872393757985 
1827	 0.185772112573931 
1828	 0.185685139332786 
1829	 0.185634190297975 
1830	 0.185531145079808 
1831	 0.18540546763822 
1832	 0.18525705249074 
1833	 0.185092682811965 
1834	 0.184905842137916 
1835	 0.184739473195914 
1836	 0.184590596474947 
1837	 0.184414669611015 
1838	 0.184229617427921 
1839	 0.184030261028534 
1840	 0.183811315529215 
1841	 0.183575295152325 
1842	 0.183343990724664 
1843	 0.183084589776047 
1844	 0.182820357736244 
1845	 0.182535461024724 
1846	 0.182211101491293 
1847	 0.18190600154703 
1848	 0.181546433655064 
1849	 0.181138638531537 
1850	 0.18072160117565 
1851	 0.180295040288253 
1852	 0.179810362245067 
1853	 0.179309042614449 
1854	 0.178771254291967 
1855	 0.178183530235283 
1856	 0.177551839415158 
1857	 0.176860317454437 
1858	 0.176120626172199 
1859	 0.175317126522801 
1860	 0.174452996781744 
1861	 0.173528164961989 
1862	 0.172540440846336 
1863	 0.171476879644012 
1864	 0.170354456308033 
1865	 0.169148638216172 
1866	 0.167831151900035 
1867	 0.166455302104838 
1868	 0.164994955748954 
1869	 0.163415779328209 
1870	 0.161770665299012 
1871	 0.160006636941218 
1872	 0.158139567671351 
1873	 0.156167817016417 
1874	 0.154127309775216 
1875	 0.151960158293352 
1876	 0.149726892778069 
1877	 0.14739983924844 
1878	 0.144930778621272 
1879	 0.142356366287325 
1880	 0.139714876034511 
1881	 0.136937618578012 
1882	 0.134148126034978 
1883	 0.131302503194186 
1884	 0.128364573712135 
1885	 0.125410278063482 
1886	 0.122426327559167 
1887	 0.119345667383163 
1888	 0.116262499307431 
1889	 0.113187913916202 
1890	 0.110114719334238 
1891	 0.107148439262983 
1892	 0.104224877529249 
1893	 0.101411849158681 
1894	 9.86753735235452E-02 
1895	 9.60261853245457E-02 
1896	 9.34596337337928E-02 
1897	 9.10621189487801E-02 
1898	 8.87567190200832E-02 
1899	 8.65740361565654E-02 
1900	 8.45537867434729E-02 
1901	 8.26116874164877E-02 
1902	 8.08104402338438E-02 
1903	 7.91743131470112E-02 
1904	 7.76305386566247E-02 
1905	 7.61882155726845E-02 
1906	 7.48833800962283E-02 
1907	 7.37068040278439E-02 
1908	 7.25936688258973E-02 
1909	 7.15888066666635E-02 
1910	 7.06751608272558E-02 
1911	 6.98195760352098E-02 
1912	 6.90465709842272E-02 
1913	 6.83309899534253E-02 
1914	 6.76773339838729E-02 
1915	 6.70859400688247E-02 
1916	 0.066574157170642 
1917	 6.61031866294384E-02 
1918	 6.56589686174962E-02 
1919	 6.52682422352206E-02 
1920	 0.064904818683899 
1921	 6.45586373374274E-02 
1922	 0.064266034872565 
1923	 6.40153360596873E-02 
1924	 6.37891690506913E-02 
1925	 6.35980435598103E-02 
1926	 6.34345040474826E-02 
1927	 6.32979711246236E-02 
1928	 6.31898483016275E-02 
1929	 6.31253022517917E-02 
1930	 6.30870802887836E-02 
1931	 6.30879486362458E-02 
1932	 0.063109716698365 
1933	 6.31348753467682E-02 
1934	 6.31957377867446E-02 
1935	 6.32739013169947E-02 
1936	 6.33703130211805E-02 
1937	 6.34869810818672E-02 
1938	 6.36368364375952E-02 
1939	 0.063787181800947 
1940	 6.39384888568156E-02 
1941	 6.41176457088382E-02 
1942	 6.43366100516517E-02 
1943	 6.45640708048488E-02 
1944	 6.48184809555159E-02 
1945	 6.50872425836578E-02 
1946	 6.53603116145983E-02 
1947	 6.56261741008861E-02 
1948	 6.59263904544611E-02 
1949	 6.62615643384758E-02 
1950	 0.066587383134918 
1951	 6.69248782763702E-02 
1952	 0.067264294178893 
1953	 6.76120427765635E-02 
1954	 6.79654796334951E-02 
1955	 0.068330553139565 
1956	 6.87230980654807E-02 
1957	 6.91199860083449E-02 
1958	 6.95260890386468E-02 
1959	 6.99356456149025E-02 
1960	 7.03512222244411E-02 
1961	 7.07856260975897E-02 
1962	 7.12385968584359E-02 
1963	 7.16896295772072E-02 
1964	 0.07215791560442 
1965	 0.072623795662235 
1966	 7.30845486710865E-02 
1967	 7.35343587925694E-02 
1968	 7.40204701847361E-02 
1969	 7.45416755011232E-02 
1970	 7.50376855173658E-02 
1971	 7.55388089520057E-02 
1972	 7.60474218747148E-02 
1973	 7.65417714386032E-02 
1974	 7.70491651827697E-02 
1975	 7.75694667465257E-02 
1976	 7.81046054530579E-02 
1977	 7.86420958141103E-02 
1978	 7.91636481843486E-02 
1979	 7.96940487216491E-02 
1980	 0.080227163689961 
1981	 8.07498126003885E-02 
1982	 8.12538864706382E-02 
1983	 8.17823814381812E-02 
1984	 8.23048671040375E-02 
1985	 8.28514879003078E-02 
1986	 8.34296526110835E-02 
1987	 8.39929097048017E-02 
1988	 8.45628365394401E-02 
1989	 8.51399458501955E-02 
1990	 8.56906281252793E-02 
1991	 8.62479101561574E-02 
1992	 8.68074429980447E-02 
1993	 8.73683980792863E-02 
1994	 8.79211527973022E-02 
1995	 8.84767915172456E-02 
1996	 8.90228443476862E-02 
1997	 8.95515991952338E-02 
1998	 9.01014155049089E-02 
1999	 9.06443271862293E-02 
2000	 9.12069615644035E-02 
2001	 9.18018221092067E-02 
2002	 9.23764536209576E-02 
2003	 9.29566052617991E-02 
2004	 9.35497347809029E-02 
2005	 9.41004560695571E-02 
2006	 9.46150647517677E-02 
2007	 9.51537466341857E-02 
2008	 9.56737887160318E-02 
2009	 9.62085903787747E-02 
2010	 9.67607798706872E-02 
2011	 9.73091070904434E-02 
2012	 9.78620690615615E-02 
2013	 9.84036420195364E-02 
2014	 9.89417479922423E-02 
2015	 9.94833059969154E-02 
2016	 0.100020244169637 
2017	 0.100554016166479 
2018	 0.101085383071434 
2019	 0.101627392027683 
2020	 0.102153975234804 
2021	 0.102665838859796 
2022	 0.103180255821411 
2023	 0.103690498269939 
2024	 0.104202042746303 
2025	 0.104706882036938 
2026	 0.105216354107907 
2027	 0.105729193501237 
2028	 0.106242450599853 
2029	 0.106758802748945 
2030	 0.107284911744826 
2031	 0.107791385081027 
2032	 0.108296098439125 
2033	 0.108791916015449 
2034	 0.109269975082725 
2035	 0.109751119632756 
2036	 0.110228505365259 
2037	 0.110706484768225 
2038	 0.111189036679769 
2039	 0.11165822381962 
2040	 0.112132982492728 
2041	 0.11258148180942 
2042	 0.113015376373868 
2043	 0.113456369893473 
2044	 0.113899882280287 
2045	 0.114337981511511 
2046	 0.114792390945098 
2047	 0.115258139275021 
2048	 0.115720144003108 
2049	 0.116203045480599 
2050	 0.11665996705664 
2051	 0.117097232107679 
2052	 0.117544337191949 
2053	 0.117985445154748 
2054	 0.118423149941808 
2055	 0.118874115443928 
2056	 0.11931345182811 
2057	 0.119729904249403 
2058	 0.120115040495899 
2059	 0.12053365365332 
2060	 0.120954809194893 
2061	 0.12136629754181 
2062	 0.121794307803198 
2063	 0.122205985822835 
2064	 0.122593506627602 
2065	 0.122990761540229 
2066	 0.123387143493985 
2067	 0.1237916894806 
2068	 0.124200917061161 
2069	 0.124603858603727 
2070	 0.125012318077459 
2071	 0.125434267148252 
2072	 0.125841174978528 
2073	 0.126239512547415 
2074	 0.126640605960489 
2075	 0.12703976310119 
2076	 0.127438360139065 
2077	 0.127844549272228 
2078	 0.128231743429515 
2079	 0.128597327525299 
2080	 0.128981395996178 
2081	 0.129367185274071 
2082	 0.129748153804703 
2083	 0.130131707719531 
2084	 0.130530843990159 
2085	 0.130911053278502 
2086	 0.131272515203088 
2087	 0.131650130620962 
2088	 0.132035604108296 
2089	 0.132410129135381 
2090	 0.132790884298002 
2091	 0.133152144064504 
2092	 0.133493558324204 
2093	 0.133845853982102 
2094	 0.134184531949407 
2095	 0.134536938780937 
2096	 0.134908114871652 
2097	 0.135267099140213 
2098	 0.135617362348426 
2099	 0.13598586529002 
2100	 0.136331981445073 
2101	 0.136665031529034 
2102	 0.137004802335149 
2103	 0.137342662552498 
2104	 0.137671889180087 
2105	 0.137997839696912 
2106	 0.138323583372114 
2107	 0.138631449218205 
2108	 0.138960307636811 
2109	 0.139309864387003 
2110	 0.139643604880073 
2111	 0.13997729428768 
2112	 0.140310840810765 
2113	 0.14064278713847 
2114	 0.140964994214117 
2115	 0.14128078622007 
2116	 0.141598276906063 
2117	 0.141905177558363 
2118	 0.142192898204362 
2119	 0.142492360966009 
2120	 0.142802766862994 
2121	 0.143093192208353 
2122	 0.143363061331578 
2123	 0.14365415817737 
2124	 0.143956440795542 
2125	 0.144237764339938 
2126	 0.144535506145882 
2127	 0.144805429155738 
2128	 0.145043199835305 
2129	 0.145276255418565 
2130	 0.145488588816026 
2131	 0.145704078539263 
2132	 0.145928487301515 
2133	 0.146157503895833 
2134	 0.146361851014822 
2135	 0.146575791724871 
2136	 0.14676064656057 
2137	 0.146913680970932 
2138	 0.147061973971855 
2139	 0.147191787994764 
2140	 0.147329614863524 
2141	 0.147460455229889 
2142	 0.147582680969838 
2143	 0.147706314424116 
2144	 0.147825391600334 
2145	 0.147935087974399 
2146	 0.148035421417819 
2147	 0.148137135062488 
2148	 0.148225432091915 
2149	 0.148310442963674 
2150	 0.148372219203377 
2151	 0.14845554275031 
2152	 0.148559075459957 
2153	 0.148627948456954 
2154	 0.148696701332528 
2155	 0.148741086851437 
2156	 0.148755439030346 
2157	 0.148768170392049 
2158	 0.148764235588951 
2159	 0.148762116243342 
2160	 0.148751062811415 
2161	 0.148736772744993 
2162	 0.148717299258705 
2163	 0.148700082681329 
2164	 0.148671533476617 
2165	 0.148657020060072 
2166	 0.14863761929828 
2167	 0.14862206826823 
2168	 0.148605227553259 
2169	 0.148590458276833 
2170	 0.148566423590312 
2171	 0.148538678644609 
2172	 0.148515178403154 
2173	 0.148481953546761 
2174	 0.148457552199821 
2175	 0.14846328280242 
2176	 0.148424908005503 
2177	 0.148367772408338 
2178	 0.148306464865337 
2179	 0.148207409570944 
2180	 0.148123342402828 
2181	 0.148043653732902 
2182	 0.147964610941422 
2183	 0.147885914572064 
2184	 0.147803468220947 
2185	 0.147741160622103 
2186	 0.147690181434837 
2187	 0.147638928837231 
2188	 0.147608459431104 
2189	 0.147556870914427 
2190	 0.147494849403291 
2191	 0.147436280790919 
2192	 0.14736904345141 
2193	 0.147308119777039 
2194	 0.14725346754895 
2195	 0.147193059913567 
2196	 0.147127733926364 
2197	 0.147068911640785 
2198	 0.146991827670827 
2199	 0.14694783336412 
2200	 0.146928972502286 
2201	 0.146911365154364 
2202	 0.146915212011486 
2203	 0.146932616454234 
2204	 0.146918462322563 
2205	 0.146889333506533 
2206	 0.146865499424219 
2207	 0.146818303928396 
2208	 0.146803355902928 
2209	 0.146816577887395 
2210	 0.146801248534296 
2211	 0.146770683558179 
2212	 0.146771141109232 
2213	 0.14676325138753 
2214	 0.146778097114115 
2215	 0.146863381805743 
2216	 0.146882139868152 
2217	 0.146866378251693 
2218	 0.146857988034188 
2219	 0.146804815639545 
2220	 0.146783082791493 
2221	 0.146788031822477 
2222	 0.146790833565761 
2223	 0.146777405208329 
2224	 0.146773973242961 
2225	 0.146730249832546 
2226	 0.146643932438572 
2227	 0.146600984885071 
2228	 0.146549102401918 
2229	 0.14651680439586 
2230	 0.146534729991087 
2231	 0.146493227737994 
2232	 0.14641776044563 
2233	 0.146364998156655 
2234	 0.146291684235893 
2235	 0.146235005482249 
2236	 0.146225017546288 
2237	 0.146163623959678 
2238	 0.146071162861101 
2239	 0.145981560282179 
2240	 0.145856457461643 
2241	 0.145750367148945 
2242	 0.145653102904173 
2243	 0.145561147296197 
2244	 0.145479123408572 
2245	 0.145395771876141 
2246	 0.145313983944358 
2247	 0.14521780420872 
2248	 0.145120693582626 
2249	 0.145018223747149 
2250	 0.144909865909069 
2251	 0.144797789747938 
2252	 0.144677922746697 
2253	 0.144531414336668 
2254	 0.144423674541938 
2255	 0.144336792810547 
2256	 0.144234447620028 
2257	 0.144153938643701 
2258	 0.144053569527923 
2259	 0.143914038724189 
2260	 0.143810758454724 
2261	 0.14373196675328 
2262	 0.143637255247197 
2263	 0.14354738944161 
2264	 0.143459232605984 
2265	 0.143371196832303 
2266	 0.143275778059322 
2267	 0.143207864839832 
2268	 0.143092517864737 
2269	 0.142941579024234 
2270	 0.142769113301418 
2271	 0.142603947080172 
2272	 0.142455173496544 
2273	 0.142341536532947 
2274	 0.142205883940968 
2275	 0.142054317034354 
2276	 0.141874437811435 
2277	 0.14172476412964 
2278	 0.141570673392049 
2279	 0.141437777325546 
2280	 0.141331151060089 
2281	 0.141211241914192 
2282	 0.14108802149023 
2283	 0.140974652276155 
2284	 0.14089174159029 
2285	 0.140752546285881 
2286	 0.14059298177591 
2287	 0.14042641783346 
2288	 0.140203901490511 
2289	 0.140024216266919 
2290	 0.139871075776113 
2291	 0.13970414016068 
2292	 0.139528267510461 
2293	 0.139364860719265 
2294	 0.139224339061923 
2295	 0.139056100897973 
2296	 0.13886153998775 
2297	 0.138723395195642 
2298	 0.138534563039145 
2299	 0.138311120583073 
2300	 0.138138441139553 
2301	 0.137896674691524 
2302	 0.137615173153158 
2303	 0.137387539558881 
2304	 0.137182490178424 
2305	 0.13695480049283 
2306	 0.13673144953647 
2307	 0.136537292227302 
2308	 0.136306039318765 
2309	 0.136037923790341 
2310	 0.135810304487704 
2311	 0.135589363100724 
2312	 0.135372720155355 
2313	 0.135176057276195 
2314	 0.134951720619953 
2315	 0.134729729292979 
2316	 0.13449855483653 
2317	 0.134257499960847 
2318	 0.133997952344826 
2319	 0.133699976554696 
2320	 0.133438009587814 
2321	 0.133181202368039 
2322	 0.132926319368389 
2323	 0.132717808889403 
2324	 0.132474813796249 
2325	 0.132166844009115 
2326	 0.131916535108318 
2327	 0.131717102103354 
2328	 0.131459628476268 
2329	 0.131215790655508 
2330	 0.131015841988532 
2331	 0.130746640214724 
2332	 0.130500675134858 
2333	 0.130247608375182 
2334	 0.129978814339095 
2335	 0.129731802645652 
2336	 0.129472070889128 
2337	 0.129244148921518 
2338	 0.129027035406599 
2339	 0.128780687296774 
2340	 0.128481863664192 
2341	 0.12818360980519 
2342	 0.127893590850319 
2343	 0.127572084532283 
2344	 0.127270147242113 
2345	 0.126945440519447 
2346	 0.126574181283474 
2347	 0.126250726181439 
2348	 0.125953106774392 
2349	 0.12564081122911 
2350	 0.125360310853606 
2351	 0.125020422209162 
2352	 0.124613222072741 
2353	 0.124294685598625 
2354	 0.123969833427223 
2355	 0.123683695831932 
2356	 0.123521279367811 
2357	 0.123226495540324 
2358	 0.122881457585946 
2359	 0.122534150427298 
2360	 0.12211710516229 
2361	 0.121729643106812 
2362	 0.121334587525609 
2363	 0.120975367032668 
2364	 0.120619973729788 
2365	 0.120279737817215 
2366	 0.120011494691159 
2367	 0.119669593453233 
2368	 0.119290666642636 
2369	 0.118925701371966 
2370	 0.118518150966137 
2371	 0.118142803369402 
2372	 0.117821171380406 
2373	 0.117493404562113 
2374	 0.117121634910367 
2375	 0.116703524316079 
2376	 0.116246683377214 
2377	 0.115783338646013 
2378	 0.115435193587073 
2379	 0.115112061023649 
2380	 0.11479162149348 
2381	 0.114508123837827 
2382	 0.114177241542149 
2383	 0.11379474673048 
2384	 0.113378206812724 
2385	 0.11296661906972 
2386	 0.112519197602963 
2387	 0.112093241591745 
2388	 0.111723406134074 
2389	 0.111355522513469 
2390	 0.111039980863398 
2391	 0.110702438585194 
2392	 0.110310170550849 
2393	 0.109900129818602 
2394	 0.109528641272683 
2395	 0.109186787463663 
2396	 0.108795809942048 
2397	 0.108479672509511 
2398	 0.108108724716431 
2399	 0.107578485547383 
2400	 0.107146760337865 
2401	 0.106727101635775 
2402	 0.106297962510974 
2403	 0.10600513317846 
2404	 0.105697226790242 
2405	 0.105349437423436 
2406	 0.10498125787272 
2407	 0.10451811118935 
2408	 0.104098916589069 
2409	 0.10373939850268 
2410	 0.103299698710577 
2411	 0.102892104855443 
2412	 0.10253758740823 
2413	 0.102196107276034 
2414	 0.10187830243944 
2415	 0.101495196544029 
2416	 0.101057649441773 
2417	 0.100496284101533 
2418	 0.100024901843563 
2419	 9.95076652305211E-02 
2420	 9.90978984789143E-02 
2421	 9.88077279586021E-02 
2422	 9.84285714087444E-02 
2423	 9.80661677449673E-02 
2424	 9.76886534734838E-02 
2425	 9.72620638191702E-02 
2426	 9.68729542727518E-02 
2427	 9.65375060795027E-02 
2428	 9.61369247410397E-02 
2429	 9.56770457880763E-02 
2430	 9.52762683262252E-02 
2431	 9.48762418575405E-02 
2432	 9.44585939558166E-02 
2433	 9.40861762696008E-02 
2434	 9.36660987907752E-02 
2435	 9.31684104735463E-02 
2436	 9.27494332773982E-02 
2437	 9.23841240907729E-02 
2438	 9.20241959705921E-02 
2439	 9.16847643346501E-02 
2440	 9.13262165918206E-02 
2441	 9.09730783935475E-02 
2442	 0.09053079408719 
2443	 9.00702141774976E-02 
2444	 8.96008463148422E-02 
2445	 8.90351285941217E-02 
2446	 8.86423744830018E-02 
2447	 0.088305422523259 
2448	 8.79532266808167E-02 
2449	 8.77599074719332E-02 
2450	 8.73886483912365E-02 
2451	 8.68851999663064E-02 
2452	 8.64623301654812E-02 
2453	 8.59183031613307E-02 
2454	 8.55099186674946E-02 
2455	 8.53022767627659E-02 
2456	 0.084998899428514 
2457	 8.47600189957527E-02 
2458	 8.43826148329599E-02 
2459	 8.37878510168823E-02 
2460	 8.33373947491175E-02 
2461	 8.29127914561893E-02 
2462	 8.24890405648958E-02 
2463	 8.21709518963625E-02 
2464	 8.18404616464818E-02 
2465	 8.14130465574401E-02 
2466	 8.09985304148551E-02 
2467	 0.080706201496333 
2468	 8.03843426040994E-02 
2469	 7.99913060835963E-02 
2470	 7.98034055922541E-02 
2471	 7.93450621502833E-02 
2472	 7.87489065266261E-02 
2473	 7.85143304915747E-02 
2474	 7.81417434481148E-02 
2475	 7.75932807303108E-02 
2476	 7.73937223303734E-02 
2477	 7.70909756647999E-02 
2478	 7.66679555684824E-02 
2479	 7.66443046382082E-02 
2480	 7.64585384461566E-02 
2481	 0.076103661941052 
2482	 7.58289650637514E-02 
2483	 7.54919489769645E-02 
2484	 7.53323031655035E-02 
2485	 7.50897768394053E-02 
2486	 7.48562546339134E-02 
2487	 7.47704279916099E-02 
2488	 7.45821093726927E-02 
2489	 7.43232720395026E-02 
2490	 7.40508602719292E-02 
2491	 7.36370482311389E-02 
2492	 0.073027334189322 
2493	 7.27212331644217E-02 
2494	 0.072680699629698 
2495	 7.25316012829992E-02 
2496	 7.23560334438558E-02 
2497	 7.21279194843035E-02 
2498	 7.18082028788921E-02 
2499	 7.16508196052573E-02 
2500	 7.17012703108828E-02 
