Wavelength	mm1200002.asd
350	 2.31799108614686E-02 
351	 2.66459309745968E-02 
352	 0.026532012608164 
353	 1.70520427735207E-02 
354	 3.05014429970665E-02 
355	 3.14621397391705E-02 
356	 2.76782268909704E-02 
357	 0.032473578225113 
358	 3.63619602618767E-02 
359	 2.98117602883387E-02 
360	 2.00076680129911E-02 
361	 2.27516498899295E-02 
362	 2.47991556517228E-02 
363	 2.60886417329218E-02 
364	 0.026299649595651 
365	 0.02141229357342 
366	 2.45927158598617E-02 
367	 2.90776772091379E-02 
368	 2.70672071198289E-02 
369	 0.030281514656355 
370	 2.85918754788296E-02 
371	 2.40188694219484E-02 
372	 0.026208460863243 
373	 2.70875725707055E-02 
374	 2.96825537180759E-02 
375	 3.37328990051789E-02 
376	 3.07315077315055E-02 
377	 2.85862624135838E-02 
378	 3.03158314263158E-02 
379	 3.53762187200983E-02 
380	 0.035837387653126 
381	 3.35932227078094E-02 
382	 3.21421467596731E-02 
383	 3.50809675704312E-02 
384	 3.59002118920989E-02 
385	 3.47426706682607E-02 
386	 3.40566979297188E-02 
387	 3.90838096266851E-02 
388	 4.06470928963549E-02 
389	 4.05896030164401E-02 
390	 4.27907928899449E-02 
391	 4.24375889915438E-02 
392	 4.29966211174052E-02 
393	 4.55977110668577E-02 
394	 4.88816984396123E-02 
395	 4.93033561274509E-02 
396	 4.83664414959818E-02 
397	 4.82024854562864E-02 
398	 5.05104531664296E-02 
399	 5.24779559360578E-02 
400	 5.34656069327835E-02 
401	 5.39478968761584E-02 
402	 5.55238630616836E-02 
403	 0.055772078888545 
404	 5.54233054111657E-02 
405	 5.83391246711679E-02 
406	 5.96727332297851E-02 
407	 6.00090795864011E-02 
408	 6.05783644648939E-02 
409	 6.13778059933133E-02 
410	 0.061635981772639 
411	 6.17444654067691E-02 
412	 6.25189306831832E-02 
413	 6.36478254778885E-02 
414	 6.42532655601464E-02 
415	 6.41758041980396E-02 
416	 6.41688346984588E-02 
417	 6.49151378812466E-02 
418	 0.065712851033571 
419	 6.58152174973096E-02 
420	 6.55950670978756E-02 
421	 6.49098658845913E-02 
422	 6.46222679817602E-02 
423	 6.59114979493934E-02 
424	 6.61299466779292E-02 
425	 6.58436628063185E-02 
426	 6.57003580149283E-02 
427	 0.065748273103489 
428	 6.51110339963753E-02 
429	 6.45404514020325E-02 
430	 6.48978474405181E-02 
431	 6.48342441316878E-02 
432	 6.44663626959187E-02 
433	 0.064230084144979 
434	 0.064727812647839 
435	 6.48608894079845E-02 
436	 6.48647466279433E-02 
437	 0.065029566690021 
438	 6.50194894192278E-02 
439	 6.53201221164856E-02 
440	 6.58100276432474E-02 
441	 6.61423477935303E-02 
442	 6.68846485038753E-02 
443	 0.067561086750293 
444	 6.78839258651217E-02 
445	 0.067959512804342 
446	 6.84784030989427E-02 
447	 6.90860548076907E-02 
448	 6.93277479610318E-02 
449	 6.97412217904581E-02 
450	 7.02746167281019E-02 
451	 7.08558025971448E-02 
452	 7.13932991045957E-02 
453	 7.13823286463953E-02 
454	 7.15583716090104E-02 
455	 7.22796560251397E-02 
456	 7.24600818485574E-02 
457	 7.26496900752671E-02 
458	 7.28183874750288E-02 
459	 7.27607537246294E-02 
460	 7.28856420309192E-02 
461	 0.073224359369348 
462	 0.073623089175565 
463	 7.37253028806377E-02 
464	 7.39827909606907E-02 
465	 0.074176510565181 
466	 7.40579748054212E-02 
467	 7.39663334192266E-02 
468	 7.42896927958161E-02 
469	 7.46912137651277E-02 
470	 7.43498325466852E-02 
471	 7.44866986612527E-02 
472	 7.45613409590675E-02 
473	 7.42390032717497E-02 
474	 7.43877940206061E-02 
475	 7.44830535358046E-02 
476	 7.45281486549038E-02 
477	 7.47016209337772E-02 
478	 7.47521282130277E-02 
479	 7.47429289525691E-02 
480	 7.47692568022642E-02 
481	 7.49314390338139E-02 
482	 0.075065700995198 
483	 7.51537032767021E-02 
484	 7.52226355843652E-02 
485	 0.075325819329592 
486	 7.52058100539649E-02 
487	 7.50158161199383E-02 
488	 7.52091645610598E-02 
489	 7.52352612057153E-02 
490	 7.52250099213626E-02 
491	 7.53174394943415E-02 
492	 7.53867440099625E-02 
493	 7.53380001585288E-02 
494	 7.52500872270697E-02 
495	 7.52753562640757E-02 
496	 7.54127942429152E-02 
497	 7.53824100453798E-02 
498	 7.52389314155382E-02 
499	 7.55778839314325E-02 
500	 7.56972211898552E-02 
501	 0.075580785500771 
502	 0.075445015951602 
503	 7.55526060744416E-02 
504	 7.55883255574966E-02 
505	 7.55504784777865E-02 
506	 7.57205067349742E-02 
507	 7.57526249809406E-02 
508	 7.57315744923551E-02 
509	 7.57695191514391E-02 
510	 7.58368801490222E-02 
511	 7.57919618176178E-02 
512	 7.56447011000146E-02 
513	 7.55062732502649E-02 
514	 7.55602005787816E-02 
515	 7.56082096628295E-02 
516	 7.55987997541328E-02 
517	 7.58309382748668E-02 
518	 7.57893923550463E-02 
519	 7.56327224941036E-02 
520	 7.56884422775954E-02 
521	 7.59263802854699E-02 
522	 7.59379488707759E-02 
523	 7.57512560988884E-02 
524	 7.58570304886817E-02 
525	 7.58698891016556E-02 
526	 7.58249243284577E-02 
527	 7.58286309190156E-02 
528	 7.59179037326024E-02 
529	 7.59964042964199E-02 
530	 0.076047274561873 
531	 7.61007021130486E-02 
532	 0.076047446101991 
533	 7.60683000796546E-02 
534	 0.076218127065671 
535	 7.61962829405248E-02 
536	 7.62831382143955E-02 
537	 7.64008407032501E-02 
538	 7.63799299145344E-02 
539	 7.64312950156704E-02 
540	 7.65448827765393E-02 
541	 0.076656768180074 
542	 7.66529258380322E-02 
543	 7.68021725577172E-02 
544	 7.69874604237442E-02 
545	 7.70532222779491E-02 
546	 7.71445510529594E-02 
547	 7.72529717887737E-02 
548	 7.73817614739753E-02 
549	 7.75452906304414E-02 
550	 7.77249807023202E-02 
551	 7.79008173200567E-02 
552	 7.80804233650046E-02 
553	 7.83594784338241E-02 
554	 7.85195223517924E-02 
555	 7.86645225762928E-02 
556	 7.90213633241165E-02 
557	 7.92385708344717E-02 
558	 7.94926047574653E-02 
559	 7.98898888364602E-02 
560	 8.03235064111919E-02 
561	 8.06650942036653E-02 
562	 8.09982288534247E-02 
563	 8.14634158884021E-02 
564	 8.20408964939981E-02 
565	 8.25625075201375E-02 
566	 0.083045756647582 
567	 0.083718862339195 
568	 8.43686699330474E-02 
569	 8.50046168158604E-02 
570	 0.085668343552991 
571	 8.63106180378539E-02 
572	 8.70757092203086E-02 
573	 8.79314524241273E-02 
574	 8.87238983726871E-02 
575	 8.94765565546752E-02 
576	 9.03153356336459E-02 
577	 9.12748589812615E-02 
578	 9.21433569545533E-02 
579	 9.31044957638135E-02 
580	 9.41566279292437E-02 
581	 9.52240812549551E-02 
582	 9.62992922522855E-02 
583	 9.73858655971461E-02 
584	 9.84736202164101E-02 
585	 9.95336009792569E-02 
586	 0.100666226308553 
587	 0.101811502758333 
588	 0.102913492694698 
589	 0.104167578988882 
590	 0.105394445355458 
591	 0.106537409657614 
592	 0.107667589577722 
593	 0.108779203507362 
594	 0.10988158890664 
595	 0.110978399219016 
596	 0.112053633780608 
597	 0.113167518335955 
598	 0.11428265570354 
599	 0.115327686501003 
600	 0.11642450360444 
601	 0.117452416725327 
602	 0.118360660934244 
603	 0.119275177443566 
604	 0.120162130340332 
605	 0.121042714326871 
606	 0.121932718309436 
607	 0.122731221563921 
608	 0.123491469800048 
609	 0.124244342724941 
610	 0.124985046638674 
611	 0.125663498003647 
612	 0.126307557162361 
613	 0.126936476753823 
614	 0.127480132894764 
615	 0.12796807839097 
616	 0.128431707328046 
617	 0.12889589685663 
618	 0.129322914601414 
619	 0.129722422731549 
620	 0.130120822150241 
621	 0.130582053285099 
622	 0.130895829435454 
623	 0.131138548786574 
624	 0.13147695734573 
625	 0.131797650535939 
626	 0.132089688938779 
627	 0.132369321388714 
628	 0.132677714133745 
629	 0.132965038313355 
630	 0.133211348399413 
631	 0.133423155487011 
632	 0.133669150924142 
633	 0.133889373781096 
634	 0.134109819547337 
635	 0.134417541824811 
636	 0.134673525766289 
637	 0.134898331709537 
638	 0.135130922993738 
639	 0.13538116590901 
640	 0.135666171831254 
641	 0.135939314016402 
642	 0.13614557381823 
643	 0.136419679251675 
644	 0.136682972014048 
645	 0.136912748138709 
646	 0.137197922545034 
647	 0.137425357382601 
648	 0.137668007078783 
649	 0.138000179669189 
650	 0.138262994495793 
651	 0.138537619445686 
652	 0.138843349571311 
653	 0.139141842811154 
654	 0.139451835788324 
655	 0.139734154957051 
656	 0.139993167796495 
657	 0.140368849109865 
658	 0.140743617372773 
659	 0.141074459263695 
660	 0.141365939063736 
661	 0.141696184763337 
662	 0.142035189165871 
663	 0.142381827872862 
664	 0.142794286086575 
665	 0.143173908489232 
666	 0.143525474682857 
667	 0.143894662780965 
668	 0.144366068467591 
669	 0.144770670960108 
670	 0.145135641884267 
671	 0.145639011395303 
672	 0.146068321071679 
673	 0.146459273954409 
674	 0.146879216402421 
675	 0.14737102580745 
676	 0.14784586316558 
677	 0.148302862512891 
678	 0.148778046913208 
679	 0.149260701465287 
680	 0.149748822031743 
681	 0.15024208460788 
682	 0.150741619406791 
683	 0.151253159797661 
684	 0.151793877376093 
685	 0.152362042172134 
686	 0.152881944900427 
687	 0.153413651137604 
688	 0.153980577258031 
689	 0.154568388024335 
690	 0.155068193014453 
691	 0.155583503476875 
692	 0.156171436315491 
693	 0.156736213452868 
694	 0.157297327414434 
695	 0.157874966322612 
696	 0.158479043493895 
697	 0.1590469517234 
698	 0.159600824213145 
699	 0.160173238813799 
700	 0.160796622911191 
701	 0.1613490229057 
702	 0.161910446594145 
703	 0.162539388713348 
704	 0.16311024761409 
705	 0.163667040696544 
706	 0.164218617315639 
707	 0.164763400168961 
708	 0.165362146405185 
709	 0.165974862044097 
710	 0.166560604117243 
711	 0.167095097045136 
712	 0.167612388618404 
713	 0.168111085021301 
714	 0.168603992463154 
715	 0.169204508536577 
716	 0.169725196832725 
717	 0.170177139565801 
718	 0.170707747122601 
719	 0.171196654235745 
720	 0.171612279992067 
721	 0.171984328379551 
722	 0.172436259794293 
723	 0.172890247266441 
724	 0.173321621586122 
725	 0.173724151507442 
726	 0.17409787192596 
727	 0.174437919343788 
728	 0.174753706890304 
729	 0.175067575036416 
730	 0.17539752258672 
731	 0.175687877961977 
732	 0.175916575613816 
733	 0.176174011927356 
734	 0.176411845662744 
735	 0.176610566650649 
736	 0.176765428310256 
737	 0.17688623741627 
738	 0.177027336593504 
739	 0.177181474967064 
740	 0.17727368373979 
741	 0.177335476246296 
742	 0.177382960182733 
743	 0.177424504775882 
744	 0.177459684414519 
745	 0.177437629784606 
746	 0.177391413107892 
747	 0.177374619823494 
748	 0.177269857764026 
749	 0.177151636784885 
750	 0.177063615081736 
751	 0.176990017225592 
752	 0.176871103631447 
753	 0.176698654990094 
754	 0.17649439823305 
755	 0.176320657630978 
756	 0.176155301416604 
757	 0.175952634386115 
758	 0.175676069886342 
759	 0.175447195305395 
760	 0.175212592159948 
761	 0.174940791814802 
762	 0.174649655304755 
763	 0.174365859672179 
764	 0.174070313208951 
765	 0.17374601491614 
766	 0.173410504513905 
767	 0.17310816785348 
768	 0.172806883476065 
769	 0.172446660084787 
770	 0.172078162434668 
771	 0.171724775672078 
772	 0.171375720647788 
773	 0.170984773962858 
774	 0.170604610844089 
775	 0.170237455699322 
776	 0.169866672647164 
777	 0.169454965364935 
778	 0.169048146554886 
779	 0.16866724758083 
780	 0.168305182643501 
781	 0.167863757951546 
782	 0.167446101852552 
783	 0.167074157165535 
784	 0.166671025642429 
785	 0.166267255986396 
786	 0.165862264066429 
787	 0.165461391817056 
788	 0.165097898973991 
789	 0.164742652629174 
790	 0.164350999995359 
791	 0.163903465288329 
792	 0.163529876269965 
793	 0.163170648889218 
794	 0.162785375204194 
795	 0.162363640181556 
796	 0.161926827016809 
797	 0.161540250868292 
798	 0.161216326006861 
799	 0.160865016611939 
800	 0.16049433592247 
801	 0.160109772311194 
802	 0.159729836930637 
803	 0.159415226219089 
804	 0.159084909065165 
805	 0.158728326961197 
806	 0.158379538003498 
807	 0.158012803917844 
808	 0.157642145039108 
809	 0.157302973664765 
810	 0.157046955961244 
811	 0.156712292811026 
812	 0.15634899331216 
813	 0.156031560142698 
814	 0.155764265961724 
815	 0.155474934076705 
816	 0.155162789310302 
817	 0.154859034302923 
818	 0.154566904756813 
819	 0.154344538745384 
820	 0.154137343620773 
821	 0.153815150201726 
822	 0.153562453894231 
823	 0.153307641567758 
824	 0.153019545410262 
825	 0.152794704056174 
826	 0.152583769003309 
827	 0.15234662166441 
828	 0.152081542373489 
829	 0.151903926621047 
830	 0.151680918836447 
831	 0.151432907066284 
832	 0.151249219446203 
833	 0.151142078696826 
834	 0.150953930578647 
835	 0.150698990958952 
836	 0.150551495841434 
837	 0.150413424361872 
838	 0.150274083034185 
839	 0.150125676617244 
840	 0.149943996650157 
841	 0.149753194699849 
842	 0.149611995445041 
843	 0.149541439222523 
844	 0.149423491547505 
845	 0.149310294813183 
846	 0.14921575712794 
847	 0.149130777877853 
848	 0.149018881750632 
849	 0.148938102742721 
850	 0.148872259957642 
851	 0.148750386499418 
852	 0.148675813895452 
853	 0.148632993354115 
854	 0.148601577000636 
855	 0.148580248903521 
856	 0.148548044032299 
857	 0.148503401683293 
858	 0.14846283132934 
859	 0.148479531524863 
860	 0.148449746384426 
861	 0.148405470894743 
862	 0.148404133713251 
863	 0.148371809852651 
864	 0.148413719327125 
865	 0.14848452669332 
866	 0.148468552440925 
867	 0.148478246723119 
868	 0.148524062248976 
869	 0.148581362072179 
870	 0.148605838552878 
871	 0.148653102374428 
872	 0.148743513094486 
873	 0.148856179588989 
874	 0.148918118891989 
875	 0.148969664204552 
876	 0.149035760669007 
877	 0.149125064051366 
878	 0.149206666750428 
879	 0.14937187666819 
880	 0.149541368481098 
881	 0.14962402876963 
882	 0.149746327659926 
883	 0.149878477473474 
884	 0.150009625961349 
885	 0.150142840861099 
886	 0.150288232393616 
887	 0.150475035292212 
888	 0.150670562531399 
889	 0.150806219619054 
890	 0.151005419546887 
891	 0.151189047616907 
892	 0.151348634056282 
893	 0.151586489240277 
894	 0.151771376409889 
895	 0.151975370706056 
896	 0.152221450401105 
897	 0.152374999003808 
898	 0.152640913122461 
899	 0.152955839268834 
900	 0.153224197377586 
901	 0.153460495805274 
902	 0.153755748269117 
903	 0.15403096233734 
904	 0.154209559314047 
905	 0.154451276796115 
906	 0.15477599786183 
907	 0.155118891049251 
908	 0.155401330351133 
909	 0.155707176881491 
910	 0.156015924067891 
911	 0.156313312638582 
912	 0.156598870216977 
913	 0.156905781213665 
914	 0.157280013216577 
915	 0.157695086081878 
916	 0.158066709980823 
917	 0.158394041539025 
918	 0.158740302470185 
919	 0.159104341714113 
920	 0.159413413826076 
921	 0.159828796966277 
922	 0.160301071268103 
923	 0.160730870587093 
924	 0.161020028050923 
925	 0.161375551442134 
926	 0.161833867074591 
927	 0.162316865482168 
928	 0.162623273053021 
929	 0.163019140802021 
930	 0.163528057534714 
931	 0.164067862395214 
932	 0.16447811352534 
933	 0.164946098363165 
934	 0.165446106662971 
935	 0.165913498119577 
936	 0.166368589585938 
937	 0.166761026951079 
938	 0.16714640868316 
939	 0.167607073929839 
940	 0.168190205924385 
941	 0.168695701174368 
942	 0.169218671998953 
943	 0.169866095680595 
944	 0.1702852975864 
945	 0.170780702528404 
946	 0.17132134014523 
947	 0.171765790291432 
948	 0.172244992367512 
949	 0.172782493892965 
950	 0.173348906180293 
951	 0.173898928797208 
952	 0.174466434518217 
953	 0.174931379277025 
954	 0.175421540455809 
955	 0.17611399380314 
956	 0.176663044680499 
957	 0.177167696286456 
958	 0.177701360144371 
959	 0.178290047021058 
960	 0.178879813031261 
961	 0.179494406485559 
962	 0.180115881749147 
963	 0.180696313306031 
964	 0.181192560791403 
965	 0.181819966581128 
966	 0.182493814028956 
967	 0.182993099692281 
968	 0.183641731867026 
969	 0.184240305140276 
970	 0.184723924297506 
971	 0.185182418749571 
972	 0.185862708398364 
973	 0.186517679451438 
974	 0.187086049873419 
975	 0.18768079272766 
976	 0.188472965610296 
977	 0.189125423155934 
978	 0.189588291862448 
979	 0.190059825975404 
980	 0.190796594208771 
981	 0.19144599084714 
982	 0.191940440283445 
983	 0.192430909366702 
984	 0.192996877427687 
985	 0.19366526826398 
986	 0.194287841772404 
987	 0.194734441181847 
988	 0.195451829312059 
989	 0.195975535947849 
990	 0.19644019332733 
991	 0.197176977712589 
992	 0.19781726812444 
993	 0.198274623210627 
994	 0.198784704008275 
995	 0.199520481952617 
996	 0.199802208137322 
997	 0.200336664562032 
998	 0.201037522787576 
999	 0.201572754403284 
1000	 0.202009528417916 
1001	 0.205995152594629 
1002	 0.206413527251047 
1003	 0.206842717967861 
1004	 0.207312720349373 
1005	 0.207778991228106 
1006	 0.20828209495627 
1007	 0.208851901609187 
1008	 0.209403266442273 
1009	 0.209873664255134 
1010	 0.210298797153219 
1011	 0.210683493152727 
1012	 0.211059597464086 
1013	 0.211515119961292 
1014	 0.211973618610904 
1015	 0.212412966061087 
1016	 0.212900378164009 
1017	 0.213349451164016 
1018	 0.213783058135453 
1019	 0.21417021260863 
1020	 0.214507656216651 
1021	 0.214777637056148 
1022	 0.215073315202669 
1023	 0.215429118856918 
1024	 0.215847186805962 
1025	 0.21626554682275 
1026	 0.216635166776888 
1027	 0.216965754850815 
1028	 0.217263302389945 
1029	 0.217593552270702 
1030	 0.217881507574993 
1031	 0.218178060677141 
1032	 0.218456456276248 
1033	 0.218781680498485 
1034	 0.219088326381935 
1035	 0.219382669214167 
1036	 0.219648909735703 
1037	 0.219909068233231 
1038	 0.220160394647725 
1039	 0.220416689116834 
1040	 0.220689762168794 
1041	 0.220933624404861 
1042	 0.221172063815695 
1043	 0.221430051017657 
1044	 0.221689237373834 
1045	 0.221981690017733 
1046	 0.222219679432125 
1047	 0.222410815041757 
1048	 0.222627377918508 
1049	 0.222831518206516 
1050	 0.223056800497815 
1051	 0.223312099072506 
1052	 0.22355690578811 
1053	 0.223757941470718 
1054	 0.223950702170079 
1055	 0.224199011908648 
1056	 0.224464565023879 
1057	 0.22473446626957 
1058	 0.225067248479389 
1059	 0.22534898646109 
1060	 0.225603432281372 
1061	 0.225856888411356 
1062	 0.226113476895753 
1063	 0.226323440361206 
1064	 0.226632048066932 
1065	 0.226900499971285 
1066	 0.227101502152353 
1067	 0.227376321181261 
1068	 0.22758970488593 
1069	 0.227792912568175 
1070	 0.228022236078971 
1071	 0.228280126018533 
1072	 0.228526439038173 
1073	 0.228759544575906 
1074	 0.229014271777292 
1075	 0.229294322715347 
1076	 0.22956225029075 
1077	 0.229793850784543 
1078	 0.230066115675735 
1079	 0.230349079784018 
1080	 0.230570974105151 
1081	 0.2307717897017 
1082	 0.230983634618536 
1083	 0.231185073308217 
1084	 0.231335102894458 
1085	 0.231526536238396 
1086	 0.231743991272237 
1087	 0.231954249274512 
1088	 0.232151253038349 
1089	 0.232389326607867 
1090	 0.232614805129349 
1091	 0.232793238792939 
1092	 0.232951676172358 
1093	 0.23307816794603 
1094	 0.233216436342035 
1095	 0.233406963402448 
1096	 0.233592000468489 
1097	 0.233778524058734 
1098	 0.233931518050326 
1099	 0.234042080858021 
1100	 0.234178384656124 
1101	 0.234305651140024 
1102	 0.234441856025089 
1103	 0.23459131313731 
1104	 0.234756850097049 
1105	 0.234892006352933 
1106	 0.235005274176668 
1107	 0.235119630628702 
1108	 0.23526978311915 
1109	 0.23542103807264 
1110	 0.235542680556544 
1111	 0.235660125968003 
1112	 0.235761165473544 
1113	 0.235865102610205 
1114	 0.23597100663229 
1115	 0.236069491064061 
1116	 0.23614610391872 
1117	 0.236250597029546 
1118	 0.23636946152272 
1119	 0.236473418321663 
1120	 0.236572181468282 
1121	 0.236688475131056 
1122	 0.236760401132139 
1123	 0.2368068645769 
1124	 0.236883928010679 
1125	 0.23697082198322 
1126	 0.237047850226456 
1127	 0.23714239302743 
1128	 0.237214555286614 
1129	 0.237274535505056 
1130	 0.237333014354808 
1131	 0.237374705575973 
1132	 0.237423505452014 
1133	 0.237486766884831 
1134	 0.237522097990941 
1135	 0.237559922498403 
1136	 0.237574362843256 
1137	 0.237533529215055 
1138	 0.23750897721292 
1139	 0.23749188879152 
1140	 0.23746728200749 
1141	 0.237446090086412 
1142	 0.237443508219808 
1143	 0.237422255222913 
1144	 0.237391373390497 
1145	 0.237352457321681 
1146	 0.237299544004079 
1147	 0.237260347321734 
1148	 0.23721555133134 
1149	 0.237175420576718 
1150	 0.237135936574487 
1151	 0.237110834681377 
1152	 0.237104152685508 
1153	 0.237120874384125 
1154	 0.237127575441028 
1155	 0.237150614545727 
1156	 0.237180656802892 
1157	 0.23720220877889 
1158	 0.237233881670371 
1159	 0.237301272188635 
1160	 0.237341664198788 
1161	 0.237359800625323 
1162	 0.237392717766997 
1163	 0.237413493147223 
1164	 0.237459375543025 
1165	 0.237519149818187 
1166	 0.237589238999417 
1167	 0.23767429802112 
1168	 0.237754217934276 
1169	 0.237820937146085 
1170	 0.237874783621177 
1171	 0.237938875044572 
1172	 0.238001190393937 
1173	 0.238061418119974 
1174	 0.238122620182054 
1175	 0.238188562130701 
1176	 0.238259334407519 
1177	 0.238316414317494 
1178	 0.238371595673203 
1179	 0.238427986006633 
1180	 0.238459305911423 
1181	 0.23851474409932 
1182	 0.238596766387993 
1183	 0.238670108404788 
1184	 0.238731043513533 
1185	 0.23879071195198 
1186	 0.23885171172815 
1187	 0.238901948185886 
1188	 0.238953643523872 
1189	 0.2390157848912 
1190	 0.239065921446193 
1191	 0.239104347811418 
1192	 0.23914211896068 
1193	 0.239159769917222 
1194	 0.239209457943549 
1195	 0.239278695478944 
1196	 0.239336545768483 
1197	 0.239413034229985 
1198	 0.239482687137693 
1199	 0.239546325915992 
1200	 0.239592277701688 
1201	 0.239648801525827 
1202	 0.239712754532405 
1203	 0.239770536086162 
1204	 0.239815296526373 
1205	 0.239878786389033 
1206	 0.239956183385833 
1207	 0.240023590036299 
1208	 0.24010215362981 
1209	 0.240164600095902 
1210	 0.240209357022531 
1211	 0.240262804884986 
1212	 0.240311256055059 
1213	 0.240364549965813 
1214	 0.240430230870676 
1215	 0.240485303538706 
1216	 0.240536441913483 
1217	 0.240588222386565 
1218	 0.24062739407758 
1219	 0.240657562169136 
1220	 0.240683452357502 
1221	 0.240694677471362 
1222	 0.240719880876684 
1223	 0.240736927014371 
1224	 0.240773275265745 
1225	 0.240832146308197 
1226	 0.24087707030155 
1227	 0.240933262978285 
1228	 0.240974711187414 
1229	 0.24099149517072 
1230	 0.241026660527859 
1231	 0.241067088256927 
1232	 0.241105767122165 
1233	 0.241148058841865 
1234	 0.241205354582946 
1235	 0.241244191601558 
1236	 0.241270599147643 
1237	 0.241308474419919 
1238	 0.241348721547265 
1239	 0.241383495576405 
1240	 0.241426054638786 
1241	 0.24145405093711 
1242	 0.241459161049197 
1243	 0.241485517166641 
1244	 0.241519752148267 
1245	 0.24154880352343 
1246	 0.24158636169529 
1247	 0.241622116561768 
1248	 0.241642483316021 
1249	 0.241676958710904 
1250	 0.241745468068036 
1251	 0.241795261900248 
1252	 0.241827555038447 
1253	 0.241858361995843 
1254	 0.241876940595032 
1255	 0.241866986296698 
1256	 0.241869533794917 
1257	 0.24187974590299 
1258	 0.241879120225265 
1259	 0.241852200703475 
1260	 0.241855621581662 
1261	 0.241880956146304 
1262	 0.241889604115629 
1263	 0.241922042852798 
1264	 0.241925504081826 
1265	 0.2418852996897 
1266	 0.241870154849703 
1267	 0.241865126205 
1268	 0.241841731850629 
1269	 0.241830772051711 
1270	 0.241834055905239 
1271	 0.241829249317466 
1272	 0.241814264019219 
1273	 0.241814728030471 
1274	 0.241824306461807 
1275	 0.241835624433139 
1276	 0.241862028797452 
1277	 0.241868282035422 
1278	 0.241853359834665 
1279	 0.241867522771473 
1280	 0.241883530908912 
1281	 0.241907328769956 
1282	 0.241978436036565 
1283	 0.242009869525989 
1284	 0.242019704376491 
1285	 0.242015223587151 
1286	 0.242031437894199 
1287	 0.242051012616586 
1288	 0.242072133809609 
1289	 0.242119013967924 
1290	 0.242139637031107 
1291	 0.24213558179371 
1292	 0.242152726030124 
1293	 0.242174095084237 
1294	 0.242195805235845 
1295	 0.242235569346674 
1296	 0.242249818158431 
1297	 0.242256432286061 
1298	 0.242255769820929 
1299	 0.242224768790221 
1300	 0.24221573399563 
1301	 0.24222383461826 
1302	 0.242213724433536 
1303	 0.242186992989154 
1304	 0.242193766055509 
1305	 0.242188276877496 
1306	 0.242154350333726 
1307	 0.24214327404164 
1308	 0.242103906705598 
1309	 0.242052143800487 
1310	 0.241980397122463 
1311	 0.241906800092512 
1312	 0.241823187125841 
1313	 0.241734541319865 
1314	 0.241640426244448 
1315	 0.241530740824851 
1316	 0.241402684536875 
1317	 0.241280357441369 
1318	 0.241155265837834 
1319	 0.241022521379157 
1320	 0.240898068267986 
1321	 0.240751408339188 
1322	 0.240585508278347 
1323	 0.240414853592441 
1324	 0.240234878312315 
1325	 0.240057256110588 
1326	 0.239891229890489 
1327	 0.239719643624492 
1328	 0.239540096663343 
1329	 0.23935204773517 
1330	 0.239155292962361 
1331	 0.2389537822519 
1332	 0.238725132187229 
1333	 0.238479059125175 
1334	 0.238236099019103 
1335	 0.237958107891432 
1336	 0.23771852281591 
1337	 0.237503498378227 
1338	 0.237276516236382 
1339	 0.237059146470801 
1340	 0.236832897619556 
1341	 0.236593063512032 
1342	 0.236364622897889 
1343	 0.236132879677919 
1344	 0.235923209116896 
1345	 0.235712865191246 
1346	 0.235502808643201 
1347	 0.235286422611968 
1348	 0.235059116695561 
1349	 0.234815976404074 
1350	 0.234572781530876 
1351	 0.234347922565046 
1352	 0.234128969065863 
1353	 0.233916454104878 
1354	 0.23372851826709 
1355	 0.233509750809185 
1356	 0.233280660975048 
1357	 0.233045586628357 
1358	 0.232792993291073 
1359	 0.232551917687884 
1360	 0.232313608477145 
1361	 0.232070144070825 
1362	 0.23183551293913 
1363	 0.231581926228261 
1364	 0.231313270685777 
1365	 0.231045913053946 
1366	 0.230781826170486 
1367	 0.230498049745177 
1368	 0.230198076702135 
1369	 0.229890748696007 
1370	 0.229530681672544 
1371	 0.229135451460866 
1372	 0.228709811124701 
1373	 0.228253713579347 
1374	 0.227749687458818 
1375	 0.227212009555266 
1376	 0.226613065115916 
1377	 0.225978634268511 
1378	 0.225259705289919 
1379	 0.224477753223891 
1380	 0.223635557675164 
1381	 0.222721120571114 
1382	 0.221750754511174 
1383	 0.220735424760767 
1384	 0.219647010877277 
1385	 0.218510032354612 
1386	 0.217293092317115 
1387	 0.216001893008628 
1388	 0.214650929916629 
1389	 0.213243706139015 
1390	 0.211738949420362 
1391	 0.210172703506749 
1392	 0.208565210876052 
1393	 0.206909529862675 
1394	 0.205214179732258 
1395	 0.203457376845071 
1396	 0.201681644576611 
1397	 0.199914081878186 
1398	 0.198093564031273 
1399	 0.196329152657731 
1400	 0.194588180703512 
1401	 0.192868084934037 
1402	 0.191147085809779 
1403	 0.189485429102726 
1404	 0.187843422632659 
1405	 0.18627714686512 
1406	 0.184761989399232 
1407	 0.183294803693861 
1408	 0.181873553879485 
1409	 0.180519613050049 
1410	 0.179219856834103 
1411	 0.177977017288104 
1412	 0.176778235868705 
1413	 0.175678374020601 
1414	 0.174654277321558 
1415	 0.173663855925759 
1416	 0.172758180007432 
1417	 0.171902654160236 
1418	 0.171082444676192 
1419	 0.170322136607982 
1420	 0.169606076806209 
1421	 0.168939874110914 
1422	 0.168301242783681 
1423	 0.167683595111066 
1424	 0.167107283669443 
1425	 0.166570387657169 
1426	 0.166063026793686 
1427	 0.165589737210101 
1428	 0.1651452693427 
1429	 0.164735208817275 
1430	 0.164345322050228 
1431	 0.1639832402351 
1432	 0.163644004173796 
1433	 0.163329811637048 
1434	 0.163039972823641 
1435	 0.16277520907139 
1436	 0.162528739005992 
1437	 0.162307652051887 
1438	 0.162103421896205 
1439	 0.161916957264178 
1440	 0.161750486625581 
1441	 0.161610516191777 
1442	 0.161478028931884 
1443	 0.161353112560918 
1444	 0.161240393499785 
1445	 0.161143903335701 
1446	 0.161063570811529 
1447	 0.160998349673769 
1448	 0.160968838752965 
1449	 0.160936497780627 
1450	 0.160887301930805 
1451	 0.160857093041232 
1452	 0.160832470936662 
1453	 0.160814287347627 
1454	 0.160797400907167 
1455	 0.160810552831377 
1456	 0.160833007507118 
1457	 0.160882795195526 
1458	 0.160965611935756 
1459	 0.161050634616701 
1460	 0.161135285709656 
1461	 0.161259457945933 
1462	 0.161401074159562 
1463	 0.161575377351995 
1464	 0.161793554015516 
1465	 0.162022211098506 
1466	 0.162273844744761 
1467	 0.162539607289649 
1468	 0.162812786707377 
1469	 0.163119253256381 
1470	 0.163455198315319 
1471	 0.163803588736218 
1472	 0.164164720933754 
1473	 0.164561966950433 
1474	 0.164978921798838 
1475	 0.165401902678001 
1476	 0.165829040582698 
1477	 0.166265145200129 
1478	 0.166711935280393 
1479	 0.167162395164791 
1480	 0.167629108889655 
1481	 0.168114928777092 
1482	 0.168592961640534 
1483	 0.169060635338285 
1484	 0.169543782322523 
1485	 0.170040103111917 
1486	 0.17053456904035 
1487	 0.171031121835523 
1488	 0.171535530717364 
1489	 0.172053317261363 
1490	 0.172555585899209 
1491	 0.173058071264243 
1492	 0.173555704699777 
1493	 0.17403838759288 
1494	 0.174533471802837 
1495	 0.175036949354709 
1496	 0.175530432830816 
1497	 0.176024237901295 
1498	 0.17651688619754 
1499	 0.177005916651611 
1500	 0.177494411875799 
1501	 0.177984469304268 
1502	 0.1784641951344 
1503	 0.178942958651821 
1504	 0.179405971368369 
1505	 0.179857435843782 
1506	 0.180316406364272 
1507	 0.180770866454072 
1508	 0.181227955559194 
1509	 0.181673854663445 
1510	 0.182126475051487 
1511	 0.182583117372817 
1512	 0.183015327847375 
1513	 0.183442239219893 
1514	 0.18387619877749 
1515	 0.184291529502385 
1516	 0.184711176607244 
1517	 0.185135781730432 
1518	 0.185570584662222 
1519	 0.185993330743487 
1520	 0.186414115424944 
1521	 0.186829000695075 
1522	 0.187244764738543 
1523	 0.187641926166201 
1524	 0.188031318483155 
1525	 0.188407148633786 
1526	 0.188753046162797 
1527	 0.189125324199632 
1528	 0.189510990730707 
1529	 0.189873253439363 
1530	 0.190240910184231 
1531	 0.190593292527307 
1532	 0.190911261069768 
1533	 0.191247439243002 
1534	 0.191591114581141 
1535	 0.191929900959893 
1536	 0.192275104189938 
1537	 0.19260743833542 
1538	 0.192938033447347 
1539	 0.19325586228513 
1540	 0.193553902952506 
1541	 0.193858496176334 
1542	 0.194158324016243 
1543	 0.194454118169864 
1544	 0.194757231042948 
1545	 0.195046705378409 
1546	 0.195322814845362 
1547	 0.195599743392639 
1548	 0.195871285039398 
1549	 0.19612688625565 
1550	 0.196390143595188 
1551	 0.196659404768867 
1552	 0.196925912796093 
1553	 0.197201358242105 
1554	 0.197475687893879 
1555	 0.197735113665117 
1556	 0.197972180883201 
1557	 0.198204436106535 
1558	 0.198426218303503 
1559	 0.198639339708454 
1560	 0.198860132716609 
1561	 0.199089725590011 
1562	 0.199300317038017 
1563	 0.19950177992152 
1564	 0.199708370240973 
1565	 0.199912027043911 
1566	 0.200110191321991 
1567	 0.200310148354902 
1568	 0.200500920206382 
1569	 0.200676190788751 
1570	 0.200861282329636 
1571	 0.201055526612646 
1572	 0.201231161966151 
1573	 0.201401412075002 
1574	 0.201566343916043 
1575	 0.201707977578812 
1576	 0.20187055914578 
1577	 0.202054617865683 
1578	 0.20220919925672 
1579	 0.202349500385589 
1580	 0.202504920942859 
1581	 0.202650513754784 
1582	 0.20279464259754 
1583	 0.202964361785037 
1584	 0.203103362919798 
1585	 0.203214187458204 
1586	 0.203332957169396 
1587	 0.203437672776338 
1588	 0.203554398221749 
1589	 0.203684958485813 
1590	 0.203797335058959 
1591	 0.203901072968575 
1592	 0.204012041866675 
1593	 0.204109853091227 
1594	 0.204216577861756 
1595	 0.204346742318211 
1596	 0.204457393207252 
1597	 0.204555445548367 
1598	 0.204656016380449 
1599	 0.20475294179461 
1600	 0.204843054470066 
1601	 0.204927074603681 
1602	 0.20501709222242 
1603	 0.20510417258699 
1604	 0.205187653685326 
1605	 0.205280076926478 
1606	 0.205362111893816 
1607	 0.205437548360148 
1608	 0.205501964887234 
1609	 0.205563478840723 
1610	 0.205618257995086 
1611	 0.205684603652111 
1612	 0.205748753927332 
1613	 0.205798288974825 
1614	 0.205858465134297 
1615	 0.205905575150138 
1616	 0.205953993704853 
1617	 0.206014967357142 
1618	 0.206065878878827 
1619	 0.206116079244479 
1620	 0.206158914110457 
1621	 0.206200732512712 
1622	 0.206239671844858 
1623	 0.20628626771899 
1624	 0.20633401064003 
1625	 0.206374989606546 
1626	 0.206418836809525 
1627	 0.206459308665958 
1628	 0.206486350374247 
1629	 0.206531470595812 
1630	 0.206594599754056 
1631	 0.206632723493853 
1632	 0.206664758710554 
1633	 0.206698437772129 
1634	 0.206717959714715 
1635	 0.206747934569811 
1636	 0.206793070128608 
1637	 0.206814040491057 
1638	 0.20682190336105 
1639	 0.206835464830568 
1640	 0.206835390571792 
1641	 0.206852854637798 
1642	 0.206883773115409 
1643	 0.206901897886841 
1644	 0.206921736815367 
1645	 0.206937922509125 
1646	 0.206942288369801 
1647	 0.206960768437507 
1648	 0.206994921112588 
1649	 0.207004132426916 
1650	 0.207007158973602 
1651	 0.207007871451319 
1652	 0.206992581818174 
1653	 0.206981772285371 
1654	 0.206970037291872 
1655	 0.206966191710522 
1656	 0.206967047825672 
1657	 0.206954187054616 
1658	 0.206951012161006 
1659	 0.20692576956168 
1660	 0.206865062495438 
1661	 0.206836268276242 
1662	 0.206818708273942 
1663	 0.206792184062055 
1664	 0.206775569042869 
1665	 0.206751194317498 
1666	 0.206712564240873 
1667	 0.206684508229681 
1668	 0.206668693265139 
1669	 0.206638440735396 
1670	 0.20660611559815 
1671	 0.20656421509869 
1672	 0.206508486111418 
1673	 0.206459502992548 
1674	 0.206401110111278 
1675	 0.20635813801141 
1676	 0.206322081432755 
1677	 0.206291301635886 
1678	 0.206279912568123 
1679	 0.206247100542038 
1680	 0.206220040436533 
1681	 0.206164647027998 
1682	 0.206071308080357 
1683	 0.206008464807429 
1684	 0.205940029044904 
1685	 0.20588358148318 
1686	 0.205857460554538 
1687	 0.20580575263477 
1688	 0.205739441701984 
1689	 0.205680318055157 
1690	 0.205622241897542 
1691	 0.205553242195264 
1692	 0.205478567001821 
1693	 0.205408409152103 
1694	 0.205327695664286 
1695	 0.205256440411503 
1696	 0.20520011062028 
1697	 0.205131316701292 
1698	 0.20506129362732 
1699	 0.204982216133929 
1700	 0.204902012759392 
1701	 0.204802687288409 
1702	 0.204679684569192 
1703	 0.204573539740272 
1704	 0.204463082205105 
1705	 0.20435202330337 
1706	 0.204250349410086 
1707	 0.204143140620974 
1708	 0.204031321714559 
1709	 0.203913445190903 
1710	 0.203784352645889 
1711	 0.203679818530784 
1712	 0.203584514681788 
1713	 0.203475597164589 
1714	 0.203387947533353 
1715	 0.203273669730786 
1716	 0.203131799374196 
1717	 0.202995699156613 
1718	 0.202853691026717 
1719	 0.202716274395396 
1720	 0.202566896150682 
1721	 0.202432962834043 
1722	 0.202318207282545 
1723	 0.202186772005159 
1724	 0.20206265418129 
1725	 0.201914630794439 
1726	 0.201742002524694 
1727	 0.201581106352217 
1728	 0.201418520912959 
1729	 0.20124769972357 
1730	 0.201079999940049 
1731	 0.200900100054835 
1732	 0.200703364131461 
1733	 0.200507147214422 
1734	 0.200308725328249 
1735	 0.200105320410489 
1736	 0.199897175859079 
1737	 0.199680861519862 
1738	 0.199453126423777 
1739	 0.199244060365973 
1740	 0.199033528861967 
1741	 0.198825150715942 
1742	 0.19863443798517 
1743	 0.198425053089987 
1744	 0.198204244688401 
1745	 0.197990756239747 
1746	 0.197776101244455 
1747	 0.197575262307792 
1748	 0.197362047716736 
1749	 0.197158487236443 
1750	 0.196940861921003 
1751	 0.196709970762717 
1752	 0.196487248089811 
1753	 0.196267551130922 
1754	 0.196025553028207 
1755	 0.195767571933467 
1756	 0.195518184443199 
1757	 0.195263001783743 
1758	 0.195007230362177 
1759	 0.194776880480346 
1760	 0.19457633827522 
1761	 0.194371509088443 
1762	 0.194162125273101 
1763	 0.193954688909585 
1764	 0.193719313341869 
1765	 0.193483017325893 
1766	 0.193261012444682 
1767	 0.193053245029889 
1768	 0.192852258674056 
1769	 0.192628494606019 
1770	 0.192401801892148 
1771	 0.192212274208418 
1772	 0.192022056319894 
1773	 0.191829520721503 
1774	 0.191695172584663 
1775	 0.191529148226134 
1776	 0.191313790451484 
1777	 0.191156251334404 
1778	 0.190992213403597 
1779	 0.190807178584241 
1780	 0.190681717438223 
1781	 0.190550909531807 
1782	 0.190414375448405 
1783	 0.190303817862406 
1784	 0.190188525010917 
1785	 0.190085479317559 
1786	 0.189982802236979 
1787	 0.18988038935271 
1788	 0.189791432408637 
1789	 0.189708806522302 
1790	 0.189619148883843 
1791	 0.189537711425792 
1792	 0.189451748161464 
1793	 0.189340308759961 
1794	 0.189271985086808 
1795	 0.189221969547874 
1796	 0.189172793451937 
1797	 0.189178423915528 
1798	 0.189133395756345 
1799	 0.189053201861526 
1800	 0.189002281479212 
1801	 0.187907446035384 
1802	 0.187938334109344 
1803	 0.187974482170324 
1804	 0.188055062837324 
1805	 0.188109805642865 
1806	 0.188161206019116 
1807	 0.18823737868147 
1808	 0.188271275942979 
1809	 0.18827847335999 
1810	 0.188276255075205 
1811	 0.188246340271493 
1812	 0.188226747494706 
1813	 0.188211399087077 
1814	 0.188174895722398 
1815	 0.188129675236103 
1816	 0.188103447527702 
1817	 0.188070070878321 
1818	 0.188023323746871 
1819	 0.187984873305222 
1820	 0.187970409515617 
1821	 0.187918231394853 
1822	 0.187833970188407 
1823	 0.187766480076173 
1824	 0.187701712767121 
1825	 0.187638500610413 
1826	 0.187605068132115 
1827	 0.187562065505001 
1828	 0.187484021791432 
1829	 0.187383131346215 
1830	 0.187273677117727 
1831	 0.187127191258852 
1832	 0.187007598037452 
1833	 0.18688221966905 
1834	 0.18672961516694 
1835	 0.186579396632672 
1836	 0.1863795317404 
1837	 0.18618610557692 
1838	 0.186004555896496 
1839	 0.185807724548977 
1840	 0.185602788090841 
1841	 0.185406068643767 
1842	 0.185177063599381 
1843	 0.184936295286801 
1844	 0.184678220624515 
1845	 0.184394753561934 
1846	 0.184110220530769 
1847	 0.183779676093681 
1848	 0.183405229970897 
1849	 0.183017153500925 
1850	 0.182610142818002 
1851	 0.18217918627418 
1852	 0.181722195410034 
1853	 0.181244272338105 
1854	 0.180722423941132 
1855	 0.180148523743985 
1856	 0.179527627558898 
1857	 0.178834911414039 
1858	 0.17810016942435 
1859	 0.177306662318214 
1860	 0.176449577884727 
1861	 0.175528858482159 
1862	 0.174580352562281 
1863	 0.173545335906239 
1864	 0.172435033055314 
1865	 0.171252710091844 
1866	 0.169939930223516 
1867	 0.168559991758389 
1868	 0.167095367185554 
1869	 0.165501624669794 
1870	 0.163850328234451 
1871	 0.162099717995658 
1872	 0.160259242832659 
1873	 0.15832144721072 
1874	 0.156317801003271 
1875	 0.154184293930883 
1876	 0.151982486214093 
1877	 0.149676658170444 
1878	 0.14723621001782 
1879	 0.144732858864011 
1880	 0.142129950944578 
1881	 0.139373294090945 
1882	 0.136612824764777 
1883	 0.133797686369752 
1884	 0.130860987170936 
1885	 0.127934343976015 
1886	 0.124960455560551 
1887	 0.121900867872406 
1888	 0.118865447865824 
1889	 0.115804376217933 
1890	 0.112746161703205 
1891	 0.109791156117229 
1892	 0.106854098954229 
1893	 0.104040487098008 
1894	 0.101304874094483 
1895	 0.098684146074817 
1896	 9.61242923074248E-02 
1897	 9.36818640031597E-02 
1898	 9.13486985836689E-02 
1899	 8.91394589283274E-02 
1900	 8.70773101099977E-02 
1901	 8.51347487265254E-02 
1902	 8.33360238908221E-02 
1903	 8.17112145415947E-02 
1904	 8.01632590238846E-02 
1905	 7.87242363855913E-02 
1906	 7.74301536889581E-02 
1907	 7.62327962190768E-02 
1908	 7.51153053606558E-02 
1909	 7.41106736502566E-02 
1910	 7.31960073146637E-02 
1911	 7.23372173415209E-02 
1912	 7.15415740453857E-02 
1913	 7.08102401198787E-02 
1914	 7.01412355422019E-02 
1915	 6.95230015868089E-02 
1916	 6.89753408904139E-02 
1917	 6.84787638236159E-02 
1918	 6.79950848977867E-02 
1919	 0.067590245001935 
1920	 6.72278364715557E-02 
1921	 6.68812147041278E-02 
1922	 6.65919375959996E-02 
1923	 6.63354479666773E-02 
1924	 6.60940387944682E-02 
1925	 6.58656735843783E-02 
1926	 0.065685061037599 
1927	 6.55308247611798E-02 
1928	 6.54100438092292E-02 
1929	 6.53487995135196E-02 
1930	 0.065332089149104 
1931	 6.53245718290274E-02 
1932	 0.065339323226046 
1933	 6.53820925986338E-02 
1934	 6.54181822019474E-02 
1935	 6.54957255588478E-02 
1936	 6.56212798328707E-02 
1937	 6.57449913555707E-02 
1938	 6.58832224721812E-02 
1939	 6.60417163390866E-02 
1940	 6.62228190481001E-02 
1941	 6.63898909204059E-02 
1942	 6.65997180179828E-02 
1943	 6.68306992086094E-02 
1944	 6.70612920833072E-02 
1945	 0.067320746808873 
1946	 6.75865775828508E-02 
1947	 0.067848402093944 
1948	 6.81535662216464E-02 
1949	 6.84968260068839E-02 
1950	 6.88345180603014E-02 
1951	 6.92032230532627E-02 
1952	 6.95635042121842E-02 
1953	 6.99039721309897E-02 
1954	 0.070268216649653 
1955	 7.06245917310625E-02 
1956	 7.09900110304033E-02 
1957	 7.13857670724464E-02 
1958	 7.17994149364693E-02 
1959	 7.22225646937954E-02 
1960	 7.26824392914538E-02 
1961	 7.31315403113307E-02 
1962	 7.35887364417727E-02 
1963	 7.40416503480496E-02 
1964	 7.44912647144133E-02 
1965	 7.49427852122157E-02 
1966	 7.54107078077126E-02 
1967	 7.58854766829819E-02 
1968	 7.63700066816695E-02 
1969	 7.68718051697258E-02 
1970	 7.73750872574865E-02 
1971	 7.78912045273146E-02 
1972	 7.83994737452623E-02 
1973	 0.078916908196632 
1974	 7.94261179744159E-02 
1975	 7.99226803824145E-02 
1976	 8.04178345160108E-02 
1977	 8.09459049494277E-02 
1978	 8.14764894293625E-02 
1979	 8.20334384881705E-02 
1980	 8.25857843517956E-02 
1981	 8.31325584424006E-02 
1982	 8.36791393572605E-02 
1983	 8.42238338549298E-02 
1984	 8.47555955905038E-02 
1985	 8.53073016071936E-02 
1986	 8.58693475434498E-02 
1987	 8.64203321590303E-02 
1988	 8.69729219498336E-02 
1989	 8.75393202121698E-02 
1990	 8.80862267624043E-02 
1991	 8.86302153438124E-02 
1992	 8.91790120583183E-02 
1993	 8.97244868264501E-02 
1994	 9.02843140481728E-02 
1995	 9.08569137717015E-02 
1996	 9.14192349531856E-02 
1997	 9.19925657117098E-02 
1998	 9.25570810948132E-02 
1999	 9.31010854135077E-02 
2000	 9.36595581289307E-02 
2001	 9.42266257163274E-02 
2002	 9.47954245657405E-02 
2003	 9.53637444168681E-02 
2004	 9.59285046956741E-02 
2005	 9.64833290407328E-02 
2006	 9.70303183228391E-02 
2007	 9.75731068075755E-02 
2008	 9.81024071038313E-02 
2009	 9.86405610612138E-02 
2010	 0.09916902143936 
2011	 9.97177663822162E-02 
2012	 0.100298914390685 
2013	 0.100849547395988 
2014	 0.101398597681252 
2015	 0.10193504196732 
2016	 0.102472214846963 
2017	 0.102977110641848 
2018	 0.103501419911204 
2019	 0.104036283252959 
2020	 0.104568208996813 
2021	 0.105105313741999 
2022	 0.105627942101769 
2023	 0.106148974728249 
2024	 0.106665877161499 
2025	 0.107160756343769 
2026	 0.107665974328479 
2027	 0.108185571387334 
2028	 0.108692336254896 
2029	 0.109192773881262 
2030	 0.109682159242368 
2031	 0.110189619686168 
2032	 0.11070208510434 
2033	 0.111203210698785 
2034	 0.111726833199934 
2035	 0.112213434053202 
2036	 0.112658961046593 
2037	 0.113128165677859 
2038	 0.113593349502838 
2039	 0.11405563279945 
2040	 0.114520217301218 
2041	 0.114995505460401 
2042	 0.115449824676217 
2043	 0.115896635020823 
2044	 0.116351370612585 
2045	 0.116809606769437 
2046	 0.117260807145472 
2047	 0.117713297603139 
2048	 0.118161428610772 
2049	 0.118600817612194 
2050	 0.119043994727398 
2051	 0.119494745306062 
2052	 0.119932976003236 
2053	 0.12035862316764 
2054	 0.120791464229986 
2055	 0.121226679890176 
2056	 0.121649354687986 
2057	 0.12207567170099 
2058	 0.122509001738488 
2059	 0.122934410051623 
2060	 0.123352142886893 
2061	 0.123768615324796 
2062	 0.124181559718378 
2063	 0.124599631880607 
2064	 0.12501839216902 
2065	 0.125432857371314 
2066	 0.125855564859899 
2067	 0.126265266240317 
2068	 0.126663295875765 
2069	 0.127058275602508 
2070	 0.127452293623947 
2071	 0.12783358166425 
2072	 0.128239764384873 
2073	 0.128657064663861 
2074	 0.129066786805495 
2075	 0.129499887044435 
2076	 0.12990270674281 
2077	 0.130282195589512 
2078	 0.130668995173949 
2079	 0.13104706853648 
2080	 0.131425021870953 
2081	 0.131803794138694 
2082	 0.132181188718447 
2083	 0.132557013905117 
2084	 0.132924043161917 
2085	 0.133302476569577 
2086	 0.133686815151063 
2087	 0.134064586776439 
2088	 0.134440227491381 
2089	 0.134825589889963 
2090	 0.135225271096461 
2091	 0.135594239193403 
2092	 0.135971297983682 
2093	 0.136316646870456 
2094	 0.136607538882252 
2095	 0.136929112445736 
2096	 0.137230733051904 
2097	 0.137566543513155 
2098	 0.137944218534908 
2099	 0.138304861928282 
2100	 0.138663154914952 
2101	 0.139038871715829 
2102	 0.139394375374049 
2103	 0.139733187421035 
2104	 0.140070105938482 
2105	 0.140403862338241 
2106	 0.140734755183753 
2107	 0.141046129329295 
2108	 0.141375307508364 
2109	 0.141722576540268 
2110	 0.142054534384162 
2111	 0.142385350004115 
2112	 0.142711917031704 
2113	 0.143040187757563 
2114	 0.143344232316935 
2115	 0.143655154981153 
2116	 0.143963490624405 
2117	 0.144276499747489 
2118	 0.144591411000437 
2119	 0.144892533481071 
2120	 0.145194579201613 
2121	 0.145487615566019 
2122	 0.145765493892157 
2123	 0.14604264639823 
2124	 0.146319931700318 
2125	 0.146590518324007 
2126	 0.146856910068388 
2127	 0.147110953904585 
2128	 0.147346673972253 
2129	 0.147592853951366 
2130	 0.147839575779003 
2131	 0.148083825464592 
2132	 0.148304604569919 
2133	 0.148534858105037 
2134	 0.148724861227316 
2135	 0.148867700039547 
2136	 0.149031815612648 
2137	 0.149192080132848 
2138	 0.149341498380755 
2139	 0.149480860319869 
2140	 0.149624428654668 
2141	 0.149756349230813 
2142	 0.149894769205598 
2143	 0.150054899988756 
2144	 0.150190702316964 
2145	 0.150329203609091 
2146	 0.150437383635122 
2147	 0.150514409815906 
2148	 0.150575634176868 
2149	 0.150655709234126 
2150	 0.150725258885696 
2151	 0.150797405260992 
2152	 0.150896132271737 
2153	 0.150954050133402 
2154	 0.150968109994346 
2155	 0.151019975263562 
2156	 0.151096388704468 
2157	 0.151130067752841 
2158	 0.151180441751882 
2159	 0.151184213593259 
2160	 0.151102174834619 
2161	 0.151067757056805 
2162	 0.151039214671642 
2163	 0.151009632318853 
2164	 0.150978836601926 
2165	 0.150984660605798 
2166	 0.150973828281738 
2167	 0.15096280435657 
2168	 0.150937113110098 
2169	 0.150919071117428 
2170	 0.150876647652166 
2171	 0.150795874734702 
2172	 0.15074798277805 
2173	 0.150702351341809 
2174	 0.150664854217103 
2175	 0.15065333353848 
2176	 0.150620028641607 
2177	 0.150590336588358 
2178	 0.150540448697918 
2179	 0.15046188269994 
2180	 0.150395889324405 
2181	 0.150332436279767 
2182	 0.15025437291701 
2183	 0.150155378203495 
2184	 0.150084896089494 
2185	 0.150015195654951 
2186	 0.149939922629585 
2187	 0.149867584171963 
2188	 0.149813906828258 
2189	 0.149750486712479 
2190	 0.149660034928244 
2191	 0.149608802676927 
2192	 0.149606299858543 
2193	 0.14955327107283 
2194	 0.149484157403663 
2195	 0.149424953835781 
2196	 0.149323670037257 
2197	 0.149262381002777 
2198	 0.149236797999504 
2199	 0.149210166868615 
2200	 0.149214832341268 
2201	 0.149192308599737 
2202	 0.149162000137739 
2203	 0.149125290667616 
2204	 0.149088122199596 
2205	 0.149019970232696 
2206	 0.149000323456143 
2207	 0.149009453551445 
2208	 0.149003766479979 
2209	 0.149019254658687 
2210	 0.149016036421612 
2211	 0.148986589716074 
2212	 0.148985216844297 
2213	 0.148989912933469 
2214	 0.149003348749564 
2215	 0.149057483685178 
2216	 0.149067661079773 
2217	 0.149057991356903 
2218	 0.149050459725731 
2219	 0.148999325683154 
2220	 0.148988208084061 
2221	 0.149012446428881 
2222	 0.149019496494122 
2223	 0.149062795433277 
2224	 0.149068556792973 
2225	 0.149045198332735 
2226	 0.148989389167893 
2227	 0.148949692675309 
2228	 0.148884496084251 
2229	 0.148834605832697 
2230	 0.148806312947334 
2231	 0.148751680496745 
2232	 0.148674890056725 
2233	 0.148609695051973 
2234	 0.148546757005391 
2235	 0.1484736304355 
2236	 0.148399536172252 
2237	 0.148319881452858 
2238	 0.148223472726347 
2239	 0.148136545421402 
2240	 0.14804562306849 
2241	 0.147966850103897 
2242	 0.147914085975235 
2243	 0.147833619791632 
2244	 0.147744888989352 
2245	 0.147654797461793 
2246	 0.147547554602553 
2247	 0.147440703450265 
2248	 0.147337678014391 
2249	 0.147235413667134 
2250	 0.147153793900632 
2251	 0.147087895517254 
2252	 0.146995011489537 
2253	 0.146923733634049 
2254	 0.146806584414848 
2255	 0.146632697286906 
2256	 0.146499152527388 
2257	 0.146347253175928 
2258	 0.146241172176782 
2259	 0.146186448967095 
2260	 0.146094626808027 
2261	 0.146014585259218 
2262	 0.145921930575768 
2263	 0.145810170950614 
2264	 0.14569187319068 
2265	 0.14555974707117 
2266	 0.145441904225243 
2267	 0.145298489205308 
2268	 0.145190861235388 
2269	 0.145113524102282 
2270	 0.145059291274458 
2271	 0.145004843120288 
2272	 0.144912880600828 
2273	 0.144753551760983 
2274	 0.144573762282464 
2275	 0.144401855464677 
2276	 0.144181312079322 
2277	 0.144020588388364 
2278	 0.143895019648485 
2279	 0.14375461796737 
2280	 0.143626511844148 
2281	 0.143491803081107 
2282	 0.143356814236746 
2283	 0.143220368581441 
2284	 0.14308992608684 
2285	 0.14294859880179 
2286	 0.142790091261943 
2287	 0.14264968975761 
2288	 0.142513556444342 
2289	 0.142374951265211 
2290	 0.142267810213695 
2291	 0.14211375599254 
2292	 0.141928199941436 
2293	 0.14174913838214 
2294	 0.141531267810147 
2295	 0.141343033152709 
2296	 0.141195555462251 
2297	 0.141000872198757 
2298	 0.140805656478005 
2299	 0.140617243609445 
2300	 0.140380928949186 
2301	 0.140162185562072 
2302	 0.139978137014664 
2303	 0.139786118332742 
2304	 0.139622015068889 
2305	 0.139441477540482 
2306	 0.139225647067136 
2307	 0.138984952835055 
2308	 0.138733982528743 
2309	 0.1384372875375 
2310	 0.138181279900496 
2311	 0.13790803229687 
2312	 0.137681997618617 
2313	 0.137513705106173 
2314	 0.137305126276756 
2315	 0.137131272590714 
2316	 0.136905007758978 
2317	 0.13662100899482 
2318	 0.13634684713139 
2319	 0.136028536846022 
2320	 0.135768693162242 
2321	 0.135552904319805 
2322	 0.135318810259411 
2323	 0.135104429134045 
2324	 0.134871253899954 
2325	 0.134614078766456 
2326	 0.134359176303145 
2327	 0.134092704134751 
2328	 0.133877069461858 
2329	 0.133611117777491 
2330	 0.133308145491708 
2331	 0.133034800990573 
2332	 0.132764276669807 
2333	 0.132527359627975 
2334	 0.132324701607162 
2335	 0.132117600220161 
2336	 0.131908387678162 
2337	 0.131672245416203 
2338	 0.131415575199962 
2339	 0.131178038377196 
2340	 0.130956013674914 
2341	 0.130682811992153 
2342	 0.130392673225161 
2343	 0.130126912054881 
2344	 0.12977942209974 
2345	 0.1294403011789 
2346	 0.129128881085719 
2347	 0.128776076212777 
2348	 0.128343917280312 
2349	 0.128002509966134 
2350	 0.127685272700518 
2351	 0.127374313558487 
2352	 0.127105361297707 
2353	 0.126810201750439 
2354	 0.126534048619013 
2355	 0.126225042305349 
2356	 0.125893102104081 
2357	 0.125572260542933 
2358	 0.125222700686961 
2359	 0.124878712452085 
2360	 0.12454426992293 
2361	 0.12422120519504 
2362	 0.123896475380339 
2363	 0.123588659497335 
2364	 0.123313763786603 
2365	 0.122998307582349 
2366	 0.122671896023412 
2367	 0.122339276450145 
2368	 0.122020457716107 
2369	 0.121645349009707 
2370	 0.121217026918532 
2371	 0.120801675944998 
2372	 0.120419353734305 
2373	 0.12000132389805 
2374	 0.119668159560033 
2375	 0.119312363739411 
2376	 0.118861176339955 
2377	 0.118413561692426 
2378	 0.118011178805908 
2379	 0.117629637433513 
2380	 0.117274021145439 
2381	 0.117028487406283 
2382	 0.116768570945982 
2383	 0.116413441596025 
2384	 0.116045193934943 
2385	 0.115599017316919 
2386	 0.115127717715 
2387	 0.114717257625886 
2388	 0.114293009905914 
2389	 0.113912780760874 
2390	 0.113562861614776 
2391	 0.113180142682604 
2392	 0.112841600611691 
2393	 0.112491570976402 
2394	 0.112051989069204 
2395	 0.111643827744584 
2396	 0.111321136052303 
2397	 0.110921457171899 
2398	 0.110554704439588 
2399	 0.110273745772025 
2400	 0.109909698117767 
2401	 0.109550991220101 
2402	 0.109100256857906 
2403	 0.10858769031622 
2404	 0.108172262071576 
2405	 0.107703995507656 
2406	 0.107361628321732 
2407	 0.107079159508871 
2408	 0.106612690841387 
2409	 0.106185325132735 
2410	 0.105797992934763 
2411	 0.10545711655255 
2412	 0.10515727755367 
2413	 0.104853847126986 
2414	 0.10451110444356 
2415	 0.104044419628383 
2416	 0.103607921658791 
2417	 0.103142624815057 
2418	 0.102703954959287 
2419	 0.102240272211793 
2420	 0.101841816622612 
2421	 0.101491888462584 
2422	 0.101147590444282 
2423	 0.100874625553132 
2424	 0.10055807997263 
2425	 0.100217564634768 
2426	 9.98350028590138E-02 
2427	 9.94264206507863E-02 
2428	 0.099022572466167 
2429	 9.85979178153931E-02 
2430	 9.82032733370289E-02 
2431	 9.78330452504597E-02 
2432	 9.74423761566263E-02 
2433	 9.70293367311604E-02 
2434	 9.65925899803471E-02 
2435	 9.61136219168192E-02 
2436	 9.56898409447848E-02 
2437	 9.53516557383044E-02 
2438	 9.49082594718594E-02 
2439	 9.44456450018371E-02 
2440	 0.093993970487284 
2441	 9.33898986296218E-02 
2442	 9.28904484012504E-02 
2443	 9.25075259813129E-02 
2444	 9.20488186593305E-02 
2445	 9.15586658091788E-02 
2446	 9.11852985586015E-02 
2447	 9.08599531808395E-02 
2448	 9.04984917548363E-02 
2449	 9.01732618944224E-02 
2450	 8.98343978215852E-02 
2451	 8.94879008839252E-02 
2452	 8.91495540871019E-02 
2453	 8.88960676659425E-02 
2454	 8.85180514916438E-02 
2455	 0.088011540245906 
2456	 8.75468223655556E-02 
2457	 8.69861275719467E-02 
2458	 8.65580254695136E-02 
2459	 8.62528695779389E-02 
2460	 0.085919192642027 
2461	 8.56776985607995E-02 
2462	 8.53250180584375E-02 
2463	 8.48482017630656E-02 
2464	 8.44736018385473E-02 
2465	 8.40688242654036E-02 
2466	 8.37779768289225E-02 
2467	 8.36719115096109E-02 
2468	 8.33795510012013E-02 
2469	 8.31145265095913E-02 
2470	 8.26901725577704E-02 
2471	 8.20816980813909E-02 
2472	 8.16415988976485E-02 
2473	 8.11500313450882E-02 
2474	 0.0806260266392 
2475	 0.080366425009859 
2476	 8.01103424847923E-02 
2477	 7.98333098575393E-02 
2478	 0.079533442300833 
2479	 7.92169368960353E-02 
2480	 7.89510919396592E-02 
2481	 7.85287789295117E-02 
2482	 7.82618431904131E-02 
2483	 0.078038269742558 
2484	 7.75350179846313E-02 
2485	 7.71642440372055E-02 
2486	 7.68485113732991E-02 
2487	 7.65261785039987E-02 
2488	 7.64603100363017E-02 
2489	 7.65246966164247E-02 
2490	 7.64753954259245E-02 
2491	 7.63428084279516E-02 
2492	 7.60220227193566E-02 
2493	 7.54707155201765E-02 
2494	 7.51144859718704E-02 
2495	 7.47601802286891E-02 
2496	 7.46195951718824E-02 
2497	 7.48065866216585E-02 
2498	 0.074575278155452 
2499	 7.44096294552039E-02 
2500	 7.42102978982694E-02 
