Wavelength	mm1200001.asd
350	 4.18868147752699E-02 
351	 4.19452903159969E-02 
352	 3.59499400709962E-02 
353	 3.02540921050749E-02 
354	 3.09944606888897E-02 
355	 3.07949736358685E-02 
356	 2.91747577752024E-02 
357	 0.028240215273175 
358	 3.28594322495933E-02 
359	 3.37540244658119E-02 
360	 3.16139276721306E-02 
361	 3.29535456679757E-02 
362	 3.13302780334559E-02 
363	 2.91934782365047E-02 
364	 2.85198379160603E-02 
365	 0.029027919089928 
366	 2.76985384044419E-02 
367	 2.47988274547671E-02 
368	 2.29014272776055E-02 
369	 3.02358083288772E-02 
370	 3.08877108709048E-02 
371	 2.65534438897248E-02 
372	 3.00944190053818E-02 
373	 3.04656088050095E-02 
374	 3.18346846487719E-02 
375	 3.55297284319468E-02 
376	 0.034793636946136 
377	 3.15911954974282E-02 
378	 3.16392829452357E-02 
379	 3.79931659046731E-02 
380	 3.81216617697532E-02 
381	 3.52912907744233E-02 
382	 3.45691066105682E-02 
383	 4.05723118113943E-02 
384	 4.13259015336003E-02 
385	 3.87351984293993E-02 
386	 3.70654612796997E-02 
387	 4.11309248399021E-02 
388	 4.40570205724876E-02 
389	 4.48908791303252E-02 
390	 4.48051362854055E-02 
391	 4.49072378318237E-02 
392	 4.53887268432717E-02 
393	 4.65268063000755E-02 
394	 4.85522498623281E-02 
395	 0.049140667005825 
396	 4.94393510550192E-02 
397	 5.06755811029928E-02 
398	 5.31496701268888E-02 
399	 5.51617315873855E-02 
400	 5.63991853894169E-02 
401	 5.71310990240739E-02 
402	 5.72782148339647E-02 
403	 0.057733116979826 
404	 5.86853999832097E-02 
405	 5.95931115550932E-02 
406	 6.02922714256935E-02 
407	 6.12211194958979E-02 
408	 6.23598023490154E-02 
409	 6.20779769644686E-02 
410	 6.23199030463722E-02 
411	 6.32204402116934E-02 
412	 6.41162176569156E-02 
413	 6.56012733996075E-02 
414	 6.60353074772003E-02 
415	 6.53838377605113E-02 
416	 6.58113751499125E-02 
417	 6.61503947346004E-02 
418	 6.68256951480252E-02 
419	 6.79299181248006E-02 
420	 6.71846446318012E-02 
421	 6.65203100743706E-02 
422	 6.65071932386648E-02 
423	 6.67322198049378E-02 
424	 6.68858041041034E-02 
425	 6.65932721425143E-02 
426	 6.59960626741861E-02 
427	 0.066158743152529 
428	 6.61222118416716E-02 
429	 6.57869159564755E-02 
430	 6.53582933123508E-02 
431	 6.50144466335007E-02 
432	 6.50331464425859E-02 
433	 6.53249399858359E-02 
434	 0.065469890183058 
435	 6.54771080015523E-02 
436	 6.54601792375196E-02 
437	 6.54866409016096E-02 
438	 6.53258395726828E-02 
439	 6.59995158162768E-02 
440	 6.69812592494641E-02 
441	 6.71406814244007E-02 
442	 6.73539987386368E-02 
443	 6.78742440439113E-02 
444	 6.84909935973435E-02 
445	 6.83790760801219E-02 
446	 0.068841704078026 
447	 6.94462545358912E-02 
448	 6.95678578300453E-02 
449	 7.00137717917181E-02 
450	 7.06265351784518E-02 
451	 7.12488570544341E-02 
452	 7.17457656505699E-02 
453	 7.18507381697118E-02 
454	 7.19473010627728E-02 
455	 7.23112894624969E-02 
456	 7.26909175535547E-02 
457	 0.07302587251365 
458	 7.32897920604351E-02 
459	 7.34775290843297E-02 
460	 7.34958443127955E-02 
461	 7.37914730687814E-02 
462	 7.43157584593876E-02 
463	 7.42786055002712E-02 
464	 7.41441324121887E-02 
465	 7.41163710461234E-02 
466	 7.42887116461778E-02 
467	 7.46331903463876E-02 
468	 7.47421854884072E-02 
469	 7.47241624688803E-02 
470	 7.50604156749641E-02 
471	 7.51281429608693E-02 
472	 7.50077142239948E-02 
473	 7.48935258090083E-02 
474	 7.49524304713153E-02 
475	 7.50926316211217E-02 
476	 7.51088289710386E-02 
477	 7.48566165989084E-02 
478	 7.49872746649416E-02 
479	 7.52944316049149E-02 
480	 7.55364607613058E-02 
481	 7.55391686105309E-02 
482	 7.54697672376104E-02 
483	 7.54713191721222E-02 
484	 7.56025493073971E-02 
485	 7.56258704724896E-02 
486	 7.56577889043701E-02 
487	 7.57136985015221E-02 
488	 7.57218450487621E-02 
489	 0.075712361343529 
490	 7.57548416403321E-02 
491	 7.58635393490428E-02 
492	 7.59346339312989E-02 
493	 7.57194994349192E-02 
494	 7.55417714430534E-02 
495	 7.58561815929973E-02 
496	 7.58262620751614E-02 
497	 7.57648246377392E-02 
498	 7.58610996247314E-02 
499	 7.59607295645213E-02 
500	 7.59737087077647E-02 
501	 7.59316667655866E-02 
502	 7.59077268175119E-02 
503	 7.59515680121302E-02 
504	 7.59989351957012E-02 
505	 7.59814718720378E-02 
506	 7.58487354804955E-02 
507	 7.59887041739506E-02 
508	 7.60663847252048E-02 
509	 7.58831007371329E-02 
510	 7.59987841147012E-02 
511	 7.60410850027547E-02 
512	 7.59485939967376E-02 
513	 7.58485908587209E-02 
514	 7.59878338884117E-02 
515	 7.60667356347271E-02 
516	 7.59748878978874E-02 
517	 7.60268482562567E-02 
518	 7.60700645871284E-02 
519	 7.60461694201078E-02 
520	 7.59697166795717E-02 
521	 7.60709975467064E-02 
522	 7.62446626156723E-02 
523	 7.63390670655457E-02 
524	 7.61857019766137E-02 
525	 7.61639595037966E-02 
526	 7.62162770181286E-02 
527	 7.62202940161564E-02 
528	 7.61857306203031E-02 
529	 7.61556272562605E-02 
530	 7.62101040360985E-02 
531	 7.64171825278589E-02 
532	 7.64144982811282E-02 
533	 7.63817714524747E-02 
534	 7.64648886745133E-02 
535	 7.65928206676853E-02 
536	 7.65980315327479E-02 
537	 7.65664535274847E-02 
538	 7.66557759209257E-02 
539	 7.67241464235061E-02 
540	 7.67662834538826E-02 
541	 7.68092036588496E-02 
542	 7.69053867242968E-02 
543	 7.70925550078974E-02 
544	 7.72251765432929E-02 
545	 7.72165932783403E-02 
546	 7.74298682324008E-02 
547	 7.75932379129315E-02 
548	 7.76743222038057E-02 
549	 7.78494595585641E-02 
550	 7.79916783734299E-02 
551	 7.81330474566948E-02 
552	 0.078315887929786 
553	 7.85430711622302E-02 
554	 7.87357995331614E-02 
555	 7.89254540974462E-02 
556	 7.91937604902795E-02 
557	 7.94921772499098E-02 
558	 7.98001064203448E-02 
559	 8.01299161329098E-02 
560	 8.05553821068745E-02 
561	 8.08911620684322E-02 
562	 8.12678531866175E-02 
563	 8.18460880972053E-02 
564	 8.23055268522545E-02 
565	 8.27746833597123E-02 
566	 8.33352162086608E-02 
567	 8.39850042426332E-02 
568	 8.46499677332547E-02 
569	 8.53107683665549E-02 
570	 8.59664204065191E-02 
571	 8.66167934808728E-02 
572	 8.73056987090075E-02 
573	 8.80713450497284E-02 
574	 8.89334784270809E-02 
575	 8.97502655448535E-02 
576	 0.090608884246988 
577	 9.15517213279475E-02 
578	 9.24330232727314E-02 
579	 9.33733107781708E-02 
580	 9.43841626370862E-02 
581	 9.54362533302413E-02 
582	 9.65597587455475E-02 
583	 0.097646896344764 
584	 9.86727692471585E-02 
585	 9.97478973585498E-02 
586	 0.100868176412116 
587	 0.102029536286344 
588	 0.103215576215953 
589	 0.104382811627109 
590	 0.105571681598419 
591	 0.106765971479761 
592	 0.10790181322223 
593	 0.108978125688117 
594	 0.110086724378435 
595	 0.111259044856505 
596	 0.112317845553315 
597	 0.113402936199286 
598	 0.114507500669739 
599	 0.11555863715926 
600	 0.116618619486759 
601	 0.117636486594792 
602	 0.118591202046329 
603	 0.119547137570499 
604	 0.120409688560528 
605	 0.121230172881711 
606	 0.122092870563597 
607	 0.122961164400661 
608	 0.123730391932599 
609	 0.124417581861764 
610	 0.125179633622211 
611	 0.125856303346384 
612	 0.126485079436862 
613	 0.127113448827137 
614	 0.1276649977913 
615	 0.128175088598343 
616	 0.128651450257679 
617	 0.129085398346513 
618	 0.129561615891808 
619	 0.129961656594708 
620	 0.130256700766996 
621	 0.130680753113 
622	 0.131054800217109 
623	 0.131376971660341 
624	 0.131704470264115 
625	 0.131990112048703 
626	 0.132276819448857 
627	 0.132579942148122 
628	 0.1328700312879 
629	 0.133116224759866 
630	 0.133364689398403 
631	 0.133650224888409 
632	 0.133866311895457 
633	 0.134106968419079 
634	 0.134377603764246 
635	 0.134611183780221 
636	 0.134840055313893 
637	 0.135089206059205 
638	 0.135357294997257 
639	 0.135578929922604 
640	 0.135822383274885 
641	 0.13608827591557 
642	 0.136345972651046 
643	 0.136588893605055 
644	 0.136839019777802 
645	 0.137102324568909 
646	 0.137357976860765 
647	 0.137576540692535 
648	 0.137806848499299 
649	 0.138105367612706 
650	 0.138467176454986 
651	 0.138754294848887 
652	 0.138985312012309 
653	 0.139310901202962 
654	 0.139657033874238 
655	 0.139942244801446 
656	 0.140170177570959 
657	 0.140569265261669 
658	 0.140910629526765 
659	 0.141195228080642 
660	 0.14152335200242 
661	 0.141848253128444 
662	 0.142191463657845 
663	 0.142559423320224 
664	 0.142927661359905 
665	 0.143343285934051 
666	 0.143746813776107 
667	 0.14409167298626 
668	 0.144514110584634 
669	 0.144936691312361 
670	 0.14535903673423 
671	 0.145837151687292 
672	 0.146190579099459 
673	 0.146582939856582 
674	 0.147109302439186 
675	 0.147562850674652 
676	 0.148017045331075 
677	 0.148491906238208 
678	 0.14898425945034 
679	 0.149467209348416 
680	 0.149947023054511 
681	 0.150434922539131 
682	 0.150944099086667 
683	 0.1514611943438 
684	 0.151991632470819 
685	 0.15253680762099 
686	 0.153067265461063 
687	 0.153615996535676 
688	 0.154174316697461 
689	 0.154705422069813 
690	 0.155222833454229 
691	 0.155775419917907 
692	 0.156365426216297 
693	 0.156891550351846 
694	 0.157432636710098 
695	 0.158017983651826 
696	 0.158643285038332 
697	 0.159227064633807 
698	 0.159792380415501 
699	 0.160362299669988 
700	 0.160949860720448 
701	 0.161497271057534 
702	 0.162077741334793 
703	 0.162723072513993 
704	 0.16327150694638 
705	 0.163808350080013 
706	 0.164365419648974 
707	 0.164942958598675 
708	 0.165528204295311 
709	 0.166097287802563 
710	 0.166654574952636 
711	 0.167249038177293 
712	 0.167781349456141 
713	 0.168282957686825 
714	 0.168811986135105 
715	 0.169377769568059 
716	 0.169906571286673 
717	 0.170383466140431 
718	 0.170842013026316 
719	 0.171316711143014 
720	 0.171770373024584 
721	 0.172190537859867 
722	 0.172636732853323 
723	 0.173073849560479 
724	 0.173499300130427 
725	 0.173913032136535 
726	 0.174275862068241 
727	 0.17460496491561 
728	 0.174931013269273 
729	 0.175287800343783 
730	 0.175583324569577 
731	 0.175847332076485 
732	 0.176109374545981 
733	 0.176339504763541 
734	 0.176578559814826 
735	 0.176792733264845 
736	 0.17693739963026 
737	 0.17711016672567 
738	 0.177231298079697 
739	 0.177303843762127 
740	 0.177430755095307 
741	 0.177550354977838 
742	 0.177602552015962 
743	 0.177585584897982 
744	 0.177664000492745 
745	 0.177628892747664 
746	 0.177541294863695 
747	 0.177553924558362 
748	 0.177471740217034 
749	 0.17735806719055 
750	 0.177269258103752 
751	 0.177222696045053 
752	 0.177080060526547 
753	 0.176878022116812 
754	 0.176681480357865 
755	 0.176501840593525 
756	 0.17634540303541 
757	 0.176145933500211 
758	 0.175835534568591 
759	 0.175616332325269 
760	 0.175407758306388 
761	 0.175149082853188 
762	 0.174840906592391 
763	 0.174534534410046 
764	 0.174235949122425 
765	 0.173934560449739 
766	 0.173605549192455 
767	 0.173284683501208 
768	 0.172970053017445 
769	 0.172637846121681 
770	 0.172261303736156 
771	 0.171893293190212 
772	 0.171538454827641 
773	 0.171137714389099 
774	 0.17076605085201 
775	 0.170416330249805 
776	 0.170051403006244 
777	 0.16959838783641 
778	 0.169178680513713 
779	 0.168815978749493 
780	 0.168470093483752 
781	 0.168028836548606 
782	 0.167610307191905 
783	 0.167240427980738 
784	 0.166833145360673 
785	 0.166454743931827 
786	 0.166057832883416 
787	 0.165625250166181 
788	 0.165265293438265 
789	 0.164893105460008 
790	 0.164483129022828 
791	 0.164049629475072 
792	 0.163683797549079 
793	 0.163300949252205 
794	 0.162898092218652 
795	 0.162540511180399 
796	 0.162102040998943 
797	 0.161682580985281 
798	 0.161337629147957 
799	 0.160978388165738 
800	 0.160626894600585 
801	 0.160276722804776 
802	 0.159917403717663 
803	 0.159546127972165 
804	 0.159206717981126 
805	 0.158882980857656 
806	 0.158526040737572 
807	 0.158162495237443 
808	 0.157805413060386 
809	 0.15746484774308 
810	 0.15714666487291 
811	 0.15684792281719 
812	 0.156530801250871 
813	 0.156185763254552 
814	 0.155900269288462 
815	 0.155605420771516 
816	 0.155296303529795 
817	 0.154999313743051 
818	 0.154751400357171 
819	 0.154510550062361 
820	 0.154246808827427 
821	 0.153952294571985 
822	 0.153684780303759 
823	 0.153425656904895 
824	 0.153159144831451 
825	 0.152892281022898 
826	 0.152690917496851 
827	 0.152497491488251 
828	 0.152257498031532 
829	 0.152043192039322 
830	 0.151813417145184 
831	 0.151577489805571 
832	 0.151370413672273 
833	 0.151227634271899 
834	 0.151050542971947 
835	 0.150840253321386 
836	 0.150692933994138 
837	 0.15054378565224 
838	 0.15038336486889 
839	 0.150220855251484 
840	 0.150082443211933 
841	 0.149904516358052 
842	 0.149751882736703 
843	 0.149675521518548 
844	 0.149572664390558 
845	 0.149462617200159 
846	 0.149360463396272 
847	 0.14927287470352 
848	 0.149156633423677 
849	 0.149085089870527 
850	 0.149036248567393 
851	 0.148915798083292 
852	 0.148825824480606 
853	 0.148787550211065 
854	 0.148769044092163 
855	 0.14868404866748 
856	 0.148664840607664 
857	 0.148679609172803 
858	 0.148671010408879 
859	 0.148619436790509 
860	 0.148577801710593 
861	 0.148550118132382 
862	 0.148526825818886 
863	 0.14852192907016 
864	 0.148565042276125 
865	 0.148614372086887 
866	 0.148606820703219 
867	 0.14866415195843 
868	 0.148698828878286 
869	 0.148702637676047 
870	 0.148759969962399 
871	 0.148812112697935 
872	 0.148910203757226 
873	 0.149035423071853 
874	 0.149035945876734 
875	 0.149095849154984 
876	 0.149192820052272 
877	 0.149283350535198 
878	 0.149411045949144 
879	 0.149562722855297 
880	 0.149687731639307 
881	 0.149759233698701 
882	 0.149896410157694 
883	 0.150055627037688 
884	 0.150195801346406 
885	 0.150299147988446 
886	 0.150460842718249 
887	 0.150629530359722 
888	 0.150792019499562 
889	 0.150973153231594 
890	 0.151141302186846 
891	 0.151320770592269 
892	 0.151529302647216 
893	 0.151762587515065 
894	 0.151922213674203 
895	 0.152103953653155 
896	 0.152349876976743 
897	 0.152536536436607 
898	 0.15279284929808 
899	 0.153088358803823 
900	 0.153359871550398 
901	 0.153567933371469 
902	 0.153845531560026 
903	 0.15417132803061 
904	 0.154463327735172 
905	 0.154636569968738 
906	 0.15490473921834 
907	 0.155243029969297 
908	 0.155535204363708 
909	 0.155880713818717 
910	 0.156163001818487 
911	 0.156420770100839 
912	 0.15677611410888 
913	 0.157130263676537 
914	 0.157482109441542 
915	 0.157827474664145 
916	 0.158162060433844 
917	 0.158560690899512 
918	 0.158933033447009 
919	 0.159253559275223 
920	 0.159594444777671 
921	 0.159982362217147 
922	 0.160400371896978 
923	 0.16080802933365 
924	 0.161154948716774 
925	 0.161573156056229 
926	 0.162027041726781 
927	 0.162449364707259 
928	 0.162788357039069 
929	 0.163249129835444 
930	 0.163776562088074 
931	 0.164263757763412 
932	 0.164659954987227 
933	 0.165066437580049 
934	 0.165532310094297 
935	 0.166061079935984 
936	 0.166598212150257 
937	 0.166999580067407 
938	 0.16737980940778 
939	 0.167881682411361 
940	 0.168408914098718 
941	 0.168925791397319 
942	 0.169451419648918 
943	 0.169997106070974 
944	 0.170434347026678 
945	 0.170935420837453 
946	 0.171513459954213 
947	 0.172084987857035 
948	 0.172533533534374 
949	 0.172998218258472 
950	 0.173502483112111 
951	 0.174018622543624 
952	 0.174632311821081 
953	 0.175121606911012 
954	 0.175568023519602 
955	 0.176179585700799 
956	 0.176800700775318 
957	 0.177417120885691 
958	 0.178043310176937 
959	 0.178678638699552 
960	 0.17914517266567 
961	 0.179680242905 
962	 0.180281501731124 
963	 0.180804447447817 
964	 0.181375144904282 
965	 0.182004859671116 
966	 0.182690192255472 
967	 0.183379923310739 
968	 0.183793249940458 
969	 0.184238636438759 
970	 0.184826518452973 
971	 0.185469968571433 
972	 0.186019177421678 
973	 0.186703085758319 
974	 0.187438739287653 
975	 0.187980678418185 
976	 0.188542797370804 
977	 0.189204571275374 
978	 0.189877326031006 
979	 0.190418102275109 
980	 0.190999358770656 
981	 0.191648768563399 
982	 0.19228556080183 
983	 0.192814390434767 
984	 0.193405464154312 
985	 0.193939946476442 
986	 0.194444391212829 
987	 0.195037343934375 
988	 0.195829445048207 
989	 0.19635750795425 
990	 0.196751800010133 
991	 0.197378412822898 
992	 0.19806271112398 
993	 0.198698216519093 
994	 0.199283081164716 
995	 0.199835263188216 
996	 0.200208960214244 
997	 0.200724571303551 
998	 0.201296840722947 
999	 0.201758221977024 
1000	 0.202283710203384 
1001	 0.206280389230257 
1002	 0.206726396037046 
1003	 0.207181339464179 
1004	 0.207642325507463 
1005	 0.208052800569158 
1006	 0.208499357918411 
1007	 0.208968825144113 
1008	 0.209479263578254 
1009	 0.209977762096827 
1010	 0.210457323145159 
1011	 0.210909281995536 
1012	 0.211346363974361 
1013	 0.211774915075577 
1014	 0.212158993739505 
1015	 0.212558569110667 
1016	 0.212999419728483 
1017	 0.213425546726736 
1018	 0.213831030749031 
1019	 0.214256285619011 
1020	 0.214731093702186 
1021	 0.215160077299013 
1022	 0.215487130114574 
1023	 0.215793235574513 
1024	 0.21607145271838 
1025	 0.216337123099513 
1026	 0.216672849714415 
1027	 0.21700705201219 
1028	 0.217368366218198 
1029	 0.21777814326013 
1030	 0.218074981156057 
1031	 0.218349434843127 
1032	 0.218620414537108 
1033	 0.218849401938529 
1034	 0.218965353318403 
1035	 0.219258756233393 
1036	 0.219613673445229 
1037	 0.2199222883962 
1038	 0.22028711457044 
1039	 0.220563768267885 
1040	 0.220807030683967 
1041	 0.221059153164655 
1042	 0.221318051737031 
1043	 0.221576907726069 
1044	 0.221823914242665 
1045	 0.222052064631051 
1046	 0.222321097902209 
1047	 0.222565886186104 
1048	 0.222808456693044 
1049	 0.223062168098169 
1050	 0.223266576699036 
1051	 0.223516020198219 
1052	 0.223781888635146 
1053	 0.224023991249383 
1054	 0.224282575307198 
1055	 0.224464596756098 
1056	 0.224643116091879 
1057	 0.224910577745775 
1058	 0.225260739638208 
1059	 0.225545430680305 
1060	 0.225866431613839 
1061	 0.22619103677779 
1062	 0.226385573233033 
1063	 0.226598460988449 
1064	 0.226844248798276 
1065	 0.227030949550078 
1066	 0.227288493086873 
1067	 0.227534067860025 
1068	 0.227764287590061 
1069	 0.228031375336105 
1070	 0.228289860006008 
1071	 0.228547869047119 
1072	 0.228793839723959 
1073	 0.229045831571148 
1074	 0.229295925568926 
1075	 0.229541113302663 
1076	 0.22974247753833 
1077	 0.229972892204901 
1078	 0.230184586646052 
1079	 0.230410502055414 
1080	 0.230642456798963 
1081	 0.230830660465137 
1082	 0.231005840922574 
1083	 0.23121054930364 
1084	 0.23138968776232 
1085	 0.231609393670149 
1086	 0.231895570330971 
1087	 0.232128613289519 
1088	 0.232346158189268 
1089	 0.232566743262525 
1090	 0.232733264815049 
1091	 0.232906143843386 
1092	 0.233126768198026 
1093	 0.233273754699371 
1094	 0.233422089028873 
1095	 0.23362651611021 
1096	 0.233801356517306 
1097	 0.233975717714233 
1098	 0.234139464976023 
1099	 0.234321971765982 
1100	 0.23446561729831 
1101	 0.234563449150064 
1102	 0.234688925389066 
1103	 0.234823665219578 
1104	 0.23493691470008 
1105	 0.235060400155402 
1106	 0.235219287700306 
1107	 0.235357096867549 
1108	 0.235505152253715 
1109	 0.235684775447555 
1110	 0.235816622701497 
1111	 0.23592362964596 
1112	 0.236002568064777 
1113	 0.236103445474736 
1114	 0.236167010272998 
1115	 0.236264785890671 
1116	 0.236403969520635 
1117	 0.236524609066195 
1118	 0.236651706910357 
1119	 0.23675390715055 
1120	 0.236846931338122 
1121	 0.236925568178559 
1122	 0.237013642165572 
1123	 0.23710884432449 
1124	 0.237200201897275 
1125	 0.237318981884268 
1126	 0.237401562989208 
1127	 0.237465806707041 
1128	 0.237521631255577 
1129	 0.237565742827068 
1130	 0.237599058920905 
1131	 0.237602845831274 
1132	 0.237630122057731 
1133	 0.237661697930847 
1134	 0.237693773549953 
1135	 0.237748433132358 
1136	 0.237788938488451 
1137	 0.2377776004729 
1138	 0.237779183925474 
1139	 0.237766496079793 
1140	 0.23771696741323 
1141	 0.237700412496323 
1142	 0.237714005844982 
1143	 0.237682534773 
1144	 0.23764067032689 
1145	 0.237597671632378 
1146	 0.237501522681865 
1147	 0.237460881229185 
1148	 0.237454499508436 
1149	 0.237436569064088 
1150	 0.237420586056911 
1151	 0.237438946261753 
1152	 0.237450659420426 
1153	 0.237467349521676 
1154	 0.23747449784414 
1155	 0.23748456554599 
1156	 0.237505580189095 
1157	 0.237511992865775 
1158	 0.237539523171681 
1159	 0.237602647590759 
1160	 0.237639792471652 
1161	 0.237657150103198 
1162	 0.237698802411699 
1163	 0.23774404648816 
1164	 0.237793840074124 
1165	 0.237850394032293 
1166	 0.237930219286933 
1167	 0.237999183211654 
1168	 0.238057955246247 
1169	 0.238115325227136 
1170	 0.238168113025562 
1171	 0.238229164453049 
1172	 0.238289585832062 
1173	 0.238348455738901 
1174	 0.238405775521469 
1175	 0.23847680134976 
1176	 0.238558804029089 
1177	 0.238625884601134 
1178	 0.238706082096653 
1179	 0.238770003085741 
1180	 0.23880035547159 
1181	 0.238851342003938 
1182	 0.23891198548771 
1183	 0.238970952179922 
1184	 0.239030394070525 
1185	 0.239092488468504 
1186	 0.239162692073778 
1187	 0.239237657685076 
1188	 0.239305597517234 
1189	 0.23938989006997 
1190	 0.239446992153586 
1191	 0.239482469133471 
1192	 0.239525162548134 
1193	 0.239543374212511 
1194	 0.239591532532274 
1195	 0.239663955309226 
1196	 0.239721913925976 
1197	 0.239791905382556 
1198	 0.23985550869203 
1199	 0.239913132520385 
1200	 0.239953145016115 
1201	 0.240009413299599 
1202	 0.240073571199598 
1203	 0.240131937218997 
1204	 0.240192400004234 
1205	 0.240248170145155 
1206	 0.240300442940838 
1207	 0.240352771500335 
1208	 0.240403674955464 
1209	 0.240452938845359 
1210	 0.240493204897853 
1211	 0.240546784043992 
1212	 0.240609730646698 
1213	 0.240666803433137 
1214	 0.240737002815034 
1215	 0.240794745036085 
1216	 0.240845066938868 
1217	 0.240884992153786 
1218	 0.240924137690413 
1219	 0.240953314653173 
1220	 0.240992623965053 
1221	 0.241032453351835 
1222	 0.241071735914707 
1223	 0.241116916226548 
1224	 0.241157557614095 
1225	 0.241184508883331 
1226	 0.24123064996233 
1227	 0.241296644481536 
1228	 0.24134538531077 
1229	 0.241400303636512 
1230	 0.241445818289867 
1231	 0.24146879061625 
1232	 0.241500315519151 
1233	 0.241533770702418 
1234	 0.241569689847317 
1235	 0.241607269348096 
1236	 0.241650422392244 
1237	 0.241686784995065 
1238	 0.241728455165333 
1239	 0.241753256764391 
1240	 0.241762633336702 
1241	 0.241780108087613 
1242	 0.241785248496701 
1243	 0.241803599696042 
1244	 0.241828403862417 
1245	 0.241862271094525 
1246	 0.241907156310065 
1247	 0.241949607959116 
1248	 0.242007422055782 
1249	 0.242047992552637 
1250	 0.242097150547759 
1251	 0.242151729850469 
1252	 0.242169802543112 
1253	 0.242166590634561 
1254	 0.242178434540725 
1255	 0.242167633038854 
1256	 0.242171470798059 
1257	 0.242196884801181 
1258	 0.2422096704311 
1259	 0.242203989503995 
1260	 0.242213322429123 
1261	 0.242241546829029 
1262	 0.242253854699621 
1263	 0.24225861343545 
1264	 0.242268582539919 
1265	 0.242275886158568 
1266	 0.242279705577582 
1267	 0.242283202586399 
1268	 0.242290548630121 
1269	 0.242294088789178 
1270	 0.242289696777304 
1271	 0.242290893533408 
1272	 0.242297095560916 
1273	 0.242299772680018 
1274	 0.242312824822204 
1275	 0.242301984257955 
1276	 0.242264220432919 
1277	 0.242255206323275 
1278	 0.242232381452773 
1279	 0.242233170687173 
1280	 0.24227242516681 
1281	 0.242298922324048 
1282	 0.242338923900616 
1283	 0.242360062974338 
1284	 0.242371488419507 
1285	 0.242380860906375 
1286	 0.242374968505953 
1287	 0.242374659138612 
1288	 0.242397560583096 
1289	 0.242442296812678 
1290	 0.242467125889689 
1291	 0.242500605543868 
1292	 0.242526892329438 
1293	 0.24254116120905 
1294	 0.242557948611301 
1295	 0.242584662170016 
1296	 0.242593219314587 
1297	 0.242585973059531 
1298	 0.24258345568007 
1299	 0.242576432571059 
1300	 0.2425703861441 
1301	 0.242561251661567 
1302	 0.242550200395996 
1303	 0.242531197835273 
1304	 0.242528577923548 
1305	 0.242516785228887 
1306	 0.242512910991172 
1307	 0.242478988375176 
1308	 0.242416992110945 
1309	 0.242368245361557 
1310	 0.242307573138692 
1311	 0.242237084647997 
1312	 0.24217033393371 
1313	 0.242096792104648 
1314	 0.242012476252409 
1315	 0.241908392836219 
1316	 0.241806876335745 
1317	 0.241684830104402 
1318	 0.241511404832723 
1319	 0.241372944063781 
1320	 0.241259299385882 
1321	 0.241123143522273 
1322	 0.240984885166572 
1323	 0.240851775760361 
1324	 0.240687984257226 
1325	 0.240500764866272 
1326	 0.240314363943135 
1327	 0.240125073118387 
1328	 0.239929332013701 
1329	 0.239746230743671 
1330	 0.239550867697064 
1331	 0.239361297511839 
1332	 0.239140539073424 
1333	 0.238897781062514 
1334	 0.238662110111825 
1335	 0.238402537767555 
1336	 0.238167752031661 
1337	 0.237947651289998 
1338	 0.237727754523104 
1339	 0.23752301560765 
1340	 0.237300851082572 
1341	 0.237071702338976 
1342	 0.236843438038673 
1343	 0.236604245111356 
1344	 0.236370458270409 
1345	 0.236141788779956 
1346	 0.235915167993392 
1347	 0.235699736443775 
1348	 0.23548669643638 
1349	 0.235256771402244 
1350	 0.235041072389496 
1351	 0.234820259251116 
1352	 0.234589133310812 
1353	 0.234363932773287 
1354	 0.234154837780434 
1355	 0.233919982618969 
1356	 0.233664252367287 
1357	 0.233423768186784 
1358	 0.23316643933621 
1359	 0.232933322809839 
1360	 0.232735426301133 
1361	 0.23250802185545 
1362	 0.232286947139229 
1363	 0.232047527842496 
1364	 0.231789178886605 
1365	 0.231518569002031 
1366	 0.23123827772216 
1367	 0.230948543005656 
1368	 0.230643134390854 
1369	 0.23032087844033 
1370	 0.229968081480798 
1371	 0.229578594267402 
1372	 0.229167102576014 
1373	 0.228721525835172 
1374	 0.22822632078 
1375	 0.227708884794866 
1376	 0.227115473116376 
1377	 0.226465817181085 
1378	 0.225755218970532 
1379	 0.224988937073155 
1380	 0.224162330867368 
1381	 0.223278763376401 
1382	 0.222324136338298 
1383	 0.221311974637707 
1384	 0.220234404615022 
1385	 0.219112363137808 
1386	 0.217904321214468 
1387	 0.216618857010897 
1388	 0.215276012451979 
1389	 0.213866552432784 
1390	 0.212373143971052 
1391	 0.210831393536919 
1392	 0.209250302845288 
1393	 0.20760007701463 
1394	 0.205898688811682 
1395	 0.204142556027666 
1396	 0.202384909317261 
1397	 0.200635035240357 
1398	 0.198858009505618 
1399	 0.197110580441659 
1400	 0.19536472381623 
1401	 0.193656029119692 
1402	 0.19195014984895 
1403	 0.190301659876781 
1404	 0.188688119122787 
1405	 0.187130341754671 
1406	 0.185604318728739 
1407	 0.184134547581016 
1408	 0.182697065400558 
1409	 0.181347060523667 
1410	 0.180067225009506 
1411	 0.178844459627149 
1412	 0.177688778670838 
1413	 0.176600626596097 
1414	 0.175577774781337 
1415	 0.174596234226954 
1416	 0.173698935175352 
1417	 0.172850937269871 
1418	 0.172035364956671 
1419	 0.171278661274004 
1420	 0.170552683658428 
1421	 0.169880849350437 
1422	 0.169256975881664 
1423	 0.168645826121112 
1424	 0.168059563509702 
1425	 0.167496093348634 
1426	 0.166983012741954 
1427	 0.16649514071936 
1428	 0.166046703923564 
1429	 0.165654470117761 
1430	 0.165272293055568 
1431	 0.164916853476016 
1432	 0.164578120441592 
1433	 0.164258630779768 
1434	 0.163970063264501 
1435	 0.163703554091737 
1436	 0.163454537220929 
1437	 0.163238620229924 
1438	 0.163038244641963 
1439	 0.162851636956482 
1440	 0.162681464955288 
1441	 0.16254352605358 
1442	 0.162420983604457 
1443	 0.162303672337363 
1444	 0.162200024053228 
1445	 0.162101461598349 
1446	 0.16201014630433 
1447	 0.161942042504128 
1448	 0.161881088735817 
1449	 0.161826749196299 
1450	 0.161786609673987 
1451	 0.161757253790812 
1452	 0.161737226709115 
1453	 0.161727156358857 
1454	 0.161726649764387 
1455	 0.161738280285348 
1456	 0.161750490068055 
1457	 0.161800291278318 
1458	 0.161877496332292 
1459	 0.161962925538194 
1460	 0.162063105134241 
1461	 0.162189609107495 
1462	 0.162325805838782 
1463	 0.162497889510012 
1464	 0.162714900432358 
1465	 0.162933265528373 
1466	 0.163160526054218 
1467	 0.163416703627126 
1468	 0.16368315038032 
1469	 0.163984645090688 
1470	 0.164320272715736 
1471	 0.164681894608839 
1472	 0.165054272224266 
1473	 0.165458093015482 
1474	 0.165869241643847 
1475	 0.166287132421668 
1476	 0.166723717179689 
1477	 0.167145898564584 
1478	 0.167586387341086 
1479	 0.16805920675756 
1480	 0.168529647302419 
1481	 0.169017782319848 
1482	 0.169491490229207 
1483	 0.169957730794768 
1484	 0.170427661841652 
1485	 0.170888890473035 
1486	 0.171373618724717 
1487	 0.171870173879382 
1488	 0.17236727580259 
1489	 0.17287962437461 
1490	 0.173388882440438 
1491	 0.173906792872324 
1492	 0.174410207525008 
1493	 0.174905819273381 
1494	 0.175407767848659 
1495	 0.175899196160793 
1496	 0.176395791117618 
1497	 0.176914030606357 
1498	 0.177411339175932 
1499	 0.17789729643348 
1500	 0.178381495967961 
1501	 0.178855295730889 
1502	 0.179324484236597 
1503	 0.179788716183379 
1504	 0.180248832881239 
1505	 0.180707972644396 
1506	 0.181165504654544 
1507	 0.181609248038569 
1508	 0.18205995733337 
1509	 0.182495664558071 
1510	 0.182919787726023 
1511	 0.183367924623494 
1512	 0.18379522798361 
1513	 0.184217375923851 
1514	 0.184666111051354 
1515	 0.185095439288194 
1516	 0.18552867183896 
1517	 0.185955231214527 
1518	 0.186379662264477 
1519	 0.186794898867488 
1520	 0.187205261989231 
1521	 0.187609177038302 
1522	 0.188008006911184 
1523	 0.188403649429718 
1524	 0.188798001372324 
1525	 0.18917136615893 
1526	 0.189524941419187 
1527	 0.189892222930875 
1528	 0.190254447703655 
1529	 0.190613625010035 
1530	 0.190984664729866 
1531	 0.19134162942432 
1532	 0.191680309214467 
1533	 0.192019778635038 
1534	 0.192363015396913 
1535	 0.192693623338719 
1536	 0.193009026962868 
1537	 0.193330138523093 
1538	 0.193648297775097 
1539	 0.193963551989157 
1540	 0.194284138218679 
1541	 0.194593960377292 
1542	 0.19489015663846 
1543	 0.195189205975237 
1544	 0.195492573285423 
1545	 0.195782053619137 
1546	 0.196065432833185 
1547	 0.196347117173337 
1548	 0.196605946106626 
1549	 0.196853662572168 
1550	 0.197100352453832 
1551	 0.197350916764033 
1552	 0.197620185838236 
1553	 0.197896720318687 
1554	 0.198153037204158 
1555	 0.198405481854903 
1556	 0.19864872322672 
1557	 0.198870563295088 
1558	 0.199118043342064 
1559	 0.199378387332591 
1560	 0.199608827012738 
1561	 0.19983720608138 
1562	 0.200034538614554 
1563	 0.200191088282949 
1564	 0.200380184215663 
1565	 0.200560734264393 
1566	 0.200759138774557 
1567	 0.20098553587496 
1568	 0.201186645795814 
1569	 0.201383465610166 
1570	 0.201571713775534 
1571	 0.201753285523351 
1572	 0.201923070393851 
1573	 0.20208068509059 
1574	 0.202241223276919 
1575	 0.202389581956607 
1576	 0.202547849840826 
1577	 0.202717567152791 
1578	 0.20286566943946 
1579	 0.2030009227556 
1580	 0.203145605417223 
1581	 0.203279058366786 
1582	 0.20342602799611 
1583	 0.203594903750771 
1584	 0.203744169445289 
1585	 0.203894521134822 
1586	 0.204025253229579 
1587	 0.204137871635241 
1588	 0.204249469540457 
1589	 0.204337013483698 
1590	 0.204445780192687 
1591	 0.204573514948032 
1592	 0.204682341931718 
1593	 0.204785741014754 
1594	 0.204891741875175 
1595	 0.204984051293292 
1596	 0.205083777173436 
1597	 0.205202438077068 
1598	 0.205306742542033 
1599	 0.205397176368225 
1600	 0.205493025026092 
1601	 0.205586845358525 
1602	 0.205680580581403 
1603	 0.20578850216413 
1604	 0.20587442059304 
1605	 0.205941889570536 
1606	 0.206011615697607 
1607	 0.206064055844099 
1608	 0.20612677074177 
1609	 0.206198645499286 
1610	 0.206263289167266 
1611	 0.206331409401816 
1612	 0.206407718189384 
1613	 0.206472572943725 
1614	 0.206536709159602 
1615	 0.206608209629863 
1616	 0.206653305948137 
1617	 0.206689966539001 
1618	 0.206737019491973 
1619	 0.206767599613494 
1620	 0.206805865874448 
1621	 0.206850449215053 
1622	 0.206908215287061 
1623	 0.206952359829669 
1624	 0.206995065927696 
1625	 0.207033639173307 
1626	 0.207060751211241 
1627	 0.207104722796889 
1628	 0.207157116693199 
1629	 0.207200583354046 
1630	 0.207256808969204 
1631	 0.207284782514351 
1632	 0.207284001372724 
1633	 0.207317052191981 
1634	 0.207356888339213 
1635	 0.207383978553976 
1636	 0.207426273735342 
1637	 0.207451089288124 
1638	 0.207456114841933 
1639	 0.207462202974096 
1640	 0.207467670320714 
1641	 0.207474998467358 
1642	 0.207467954023282 
1643	 0.207474584153549 
1644	 0.207495178386539 
1645	 0.207509854506652 
1646	 0.207515890486126 
1647	 0.207541814357145 
1648	 0.207586398515179 
1649	 0.207610842242921 
1650	 0.207650059788126 
1651	 0.207652971304018 
1652	 0.207623658559473 
1653	 0.207604779571424 
1654	 0.207564607523257 
1655	 0.207548686962322 
1656	 0.207542896059889 
1657	 0.207538680416997 
1658	 0.207559074645515 
1659	 0.20754161467883 
1660	 0.207510100219002 
1661	 0.207473778546661 
1662	 0.207405285452795 
1663	 0.207362914350466 
1664	 0.207326577221152 
1665	 0.207298913676014 
1666	 0.207284195988394 
1667	 0.207265015510116 
1668	 0.20726161346091 
1669	 0.207232625482828 
1670	 0.207187523487139 
1671	 0.207149215721954 
1672	 0.207099947856465 
1673	 0.207054675611891 
1674	 0.207009913870295 
1675	 0.206975294295187 
1676	 0.206943970106774 
1677	 0.206909880863176 
1678	 0.206890733887618 
1679	 0.206855220574926 
1680	 0.206807575681625 
1681	 0.206759168121537 
1682	 0.206705008962676 
1683	 0.206651815993958 
1684	 0.206594902480316 
1685	 0.206537129880786 
1686	 0.206483275069249 
1687	 0.206418825594783 
1688	 0.206337879651714 
1689	 0.206277001344589 
1690	 0.206227462019099 
1691	 0.206162804667472 
1692	 0.20610562959339 
1693	 0.206036261847048 
1694	 0.205947793739855 
1695	 0.205865046206952 
1696	 0.205776098833663 
1697	 0.205704815548154 
1698	 0.205643311918678 
1699	 0.205568568081739 
1700	 0.205516276586811 
1701	 0.205424580630375 
1702	 0.205288905655774 
1703	 0.20518610532386 
1704	 0.205087083699903 
1705	 0.20497904133671 
1706	 0.204889133647105 
1707	 0.204774189041471 
1708	 0.204626993345807 
1709	 0.204500065581249 
1710	 0.204366965134715 
1711	 0.204253475199266 
1712	 0.204159500132567 
1713	 0.204056328640004 
1714	 0.203965827354645 
1715	 0.203859262504212 
1716	 0.203744958233855 
1717	 0.203620302136725 
1718	 0.203491103060031 
1719	 0.203349037035826 
1720	 0.20318242938181 
1721	 0.203035072132121 
1722	 0.202883232540385 
1723	 0.202744980863165 
1724	 0.202634232398894 
1725	 0.202492689080568 
1726	 0.202343107847474 
1727	 0.202188093645258 
1728	 0.202007240483758 
1729	 0.201844749020542 
1730	 0.201697143124658 
1731	 0.201530782247107 
1732	 0.201375793193411 
1733	 0.201179547037052 
1734	 0.200949880075642 
1735	 0.200730744695781 
1736	 0.200478271552106 
1737	 0.200263880738482 
1738	 0.200074425450441 
1739	 0.199869625395261 
1740	 0.199672622972496 
1741	 0.19947183662889 
1742	 0.199255690301397 
1743	 0.199064688946251 
1744	 0.198900484129907 
1745	 0.198696583657031 
1746	 0.198488530856018 
1747	 0.1982596529158 
1748	 0.198023261857082 
1749	 0.197796549537964 
1750	 0.197587427597685 
1751	 0.197399846131976 
1752	 0.197183696102687 
1753	 0.196956877577388 
1754	 0.196732054311657 
1755	 0.196477799210395 
1756	 0.196230514880853 
1757	 0.195996038692119 
1758	 0.195764712445613 
1759	 0.195546389761317 
1760	 0.195334164426492 
1761	 0.195134274065366 
1762	 0.194912336372641 
1763	 0.194671112297057 
1764	 0.194432481558221 
1765	 0.194184062317929 
1766	 0.193950570255899 
1767	 0.19374684436806 
1768	 0.193548313652265 
1769	 0.193356561208535 
1770	 0.193188856872192 
1771	 0.193000063285978 
1772	 0.192811722978561 
1773	 0.192642110458893 
1774	 0.192443877779094 
1775	 0.192268994797191 
1776	 0.192089297409366 
1777	 0.19187261873422 
1778	 0.1916870897741 
1779	 0.191547295700002 
1780	 0.19142627751978 
1781	 0.191314338793878 
1782	 0.191228987341919 
1783	 0.191085194497924 
1784	 0.190955453563849 
1785	 0.190835854822001 
1786	 0.190724670853304 
1787	 0.190623376740359 
1788	 0.19052115301244 
1789	 0.190422141424303 
1790	 0.190330672059126 
1791	 0.190240013109969 
1792	 0.190153184658123 
1793	 0.190068415004137 
1794	 0.190009640263445 
1795	 0.189963674680146 
1796	 0.189922720714293 
1797	 0.189916404380413 
1798	 0.189880026444219 
1799	 0.189829010126817 
1800	 0.189787188962721 
1801	 0.188674496659479 
1802	 0.188682166799354 
1803	 0.188703240497537 
1804	 0.188753634860271 
1805	 0.188822954692933 
1806	 0.188900724465356 
1807	 0.188948065667985 
1808	 0.188974800699676 
1809	 0.188987661764826 
1810	 0.188985488636126 
1811	 0.188943429439696 
1812	 0.188923246937183 
1813	 0.18892747576175 
1814	 0.188905657542771 
1815	 0.188873044142956 
1816	 0.188852901691712 
1817	 0.188811554186012 
1818	 0.188729467545432 
1819	 0.188685663409226 
1820	 0.188657840897637 
1821	 0.188620388949666 
1822	 0.188580806370384 
1823	 0.188544480897486 
1824	 0.18850404491533 
1825	 0.18844075054497 
1826	 0.188358557899911 
1827	 0.188283883191373 
1828	 0.18819408190775 
1829	 0.188076116589552 
1830	 0.187963029605125 
1831	 0.187854299023372 
1832	 0.187737300948787 
1833	 0.18759132301277 
1834	 0.187446686950279 
1835	 0.187298630055743 
1836	 0.187119738332482 
1837	 0.186940424596475 
1838	 0.186757094783209 
1839	 0.186557853949815 
1840	 0.186341640425322 
1841	 0.186130220659753 
1842	 0.185902263116629 
1843	 0.185653685662152 
1844	 0.185397207619155 
1845	 0.185110653663997 
1846	 0.184812581132109 
1847	 0.184484897666437 
1848	 0.184104586328827 
1849	 0.18371324729397 
1850	 0.183296160111598 
1851	 0.182847205047343 
1852	 0.182369456461939 
1853	 0.181899676202813 
1854	 0.181374007162971 
1855	 0.180795285768324 
1856	 0.180198770294176 
1857	 0.179515821279082 
1858	 0.178790398794765 
1859	 0.17805319144351 
1860	 0.177216778137288 
1861	 0.176304876548109 
1862	 0.175335102914741 
1863	 0.174295627387273 
1864	 0.173150907649472 
1865	 0.171953284847238 
1866	 0.170680199237967 
1867	 0.169348138128624 
1868	 0.167933343710338 
1869	 0.166374813262414 
1870	 0.164739169635998 
1871	 0.162998605760408 
1872	 0.161144195277978 
1873	 0.159188082377837 
1874	 0.15720535552609 
1875	 0.155102772416856 
1876	 0.15290300216085 
1877	 0.150617115701931 
1878	 0.148189213386046 
1879	 0.145657851810128 
1880	 0.143054250949025 
1881	 0.140320834575031 
1882	 0.137564760518764 
1883	 0.134743946822599 
1884	 0.131827279813412 
1885	 0.128895236354502 
1886	 0.12591836641305 
1887	 0.122874586851835 
1888	 0.11985169405649 
1889	 0.116784629602304 
1890	 0.113717620943897 
1891	 0.110763127065134 
1892	 0.107812361014208 
1893	 0.104995583323075 
1894	 0.102269036445421 
1895	 9.96677291409422E-02 
1896	 9.71235340860852E-02 
1897	 9.47027424595163E-02 
1898	 9.23941343389525E-02 
1899	 9.01961271273699E-02 
1900	 0.088146769111812 
1901	 8.62231464403168E-02 
1902	 8.44183326226532E-02 
1903	 8.27628851026312E-02 
1904	 8.12081858464721E-02 
1905	 0.079768910685736 
1906	 7.84438735933822E-02 
1907	 7.72193451716096E-02 
1908	 7.60984833303973E-02 
1909	 7.50839267484958E-02 
1910	 0.074133053891089 
1911	 7.32691404366814E-02 
1912	 7.24966498912507E-02 
1913	 7.17571442249634E-02 
1914	 7.10551106095711E-02 
1915	 7.04345082199884E-02 
1916	 0.069892456160381 
1917	 6.93736673278135E-02 
1918	 6.89238090884506E-02 
1919	 6.85343411772774E-02 
1920	 6.81703846011189E-02 
1921	 6.78368807445509E-02 
1922	 6.75312722030951E-02 
1923	 6.72529216411304E-02 
1924	 6.70117075968596E-02 
1925	 6.67947716335267E-02 
1926	 6.66262454623167E-02 
1927	 6.65059813625235E-02 
1928	 0.066407433886274 
1929	 6.63371585357654E-02 
1930	 6.62932437791419E-02 
1931	 6.62699565591672E-02 
1932	 6.62806688867426E-02 
1933	 6.63097680960886E-02 
1934	 6.63510189971648E-02 
1935	 6.64203286649479E-02 
1936	 6.65000266609529E-02 
1937	 6.66150837586552E-02 
1938	 6.67735582013781E-02 
1939	 6.69380736833942E-02 
1940	 6.71250215010791E-02 
1941	 6.73280533618079E-02 
1942	 6.75270928489314E-02 
1943	 0.067744653569637 
1944	 6.79906581763839E-02 
1945	 6.82476945250809E-02 
1946	 6.85253837784517E-02 
1947	 6.88390910117765E-02 
1948	 6.91450012065259E-02 
1949	 6.94544020752361E-02 
1950	 6.97816234390733E-02 
1951	 7.01196069893151E-02 
1952	 7.04680480900203E-02 
1953	 7.08356804533076E-02 
1954	 7.12035648568109E-02 
1955	 7.15725811256729E-02 
1956	 7.19733314539358E-02 
1957	 7.23795982134497E-02 
1958	 7.28010129570871E-02 
1959	 7.32241445538219E-02 
1960	 7.36643527989139E-02 
1961	 0.074094332924963 
1962	 7.45162514919429E-02 
1963	 7.49575276464075E-02 
1964	 0.075397336062776 
1965	 7.58622234051411E-02 
1966	 7.63416466825364E-02 
1967	 7.68227972758272E-02 
1968	 7.73139604372889E-02 
1969	 0.077816353667927 
1970	 7.83164437154299E-02 
1971	 7.88320040518971E-02 
1972	 7.93355017085745E-02 
1973	 7.98269739214222E-02 
1974	 8.03386941815095E-02 
1975	 8.08617531721515E-02 
1976	 0.081367717662366 
1977	 8.19048429754333E-02 
1978	 8.24323775139998E-02 
1979	 0.08296583383167 
1980	 0.083513440417389 
1981	 8.40433873565489E-02 
1982	 8.45598680874695E-02 
1983	 8.51064811637153E-02 
1984	 8.56589558531963E-02 
1985	 8.62069053990353E-02 
1986	 8.67849467715029E-02 
1987	 8.73407160364994E-02 
1988	 8.78734155776873E-02 
1989	 8.84116572978355E-02 
1990	 8.89557433338223E-02 
1991	 8.95009495945857E-02 
1992	 9.00504721562691E-02 
1993	 9.05967477072865E-02 
1994	 9.11570811731064E-02 
1995	 9.17310153381803E-02 
1996	 9.23028543431197E-02 
1997	 9.28880916490528E-02 
1998	 9.34596784968353E-02 
1999	 9.40134975950847E-02 
2000	 9.45861671333316E-02 
2001	 9.51605927671539E-02 
2002	 9.57521753052718E-02 
2003	 9.63397294367705E-02 
2004	 9.69132236161557E-02 
2005	 9.74714197243182E-02 
2006	 9.80081962389659E-02 
2007	 9.85416369011039E-02 
2008	 9.90522255869576E-02 
2009	 9.95851576015714E-02 
2010	 0.100112842760463 
2011	 0.100651686835845 
2012	 0.101225409806609 
2013	 0.101770841104757 
2014	 0.102298881258053 
2015	 0.102830183735763 
2016	 0.103368407285613 
2017	 0.103890082940244 
2018	 0.104431239437475 
2019	 0.105002359231699 
2020	 0.105538248175914 
2021	 0.106067295576149 
2022	 0.106587518927231 
2023	 0.107076302850781 
2024	 0.107587264881546 
2025	 0.108107009103984 
2026	 0.108621019907534 
2027	 0.109139253210904 
2028	 0.109657132902735 
2029	 0.110178399863591 
2030	 0.110702427348177 
2031	 0.111209561290191 
2032	 0.111724289312404 
2033	 0.112215948092109 
2034	 0.112673771890885 
2035	 0.113152414197089 
2036	 0.113642269975753 
2037	 0.114109939579191 
2038	 0.114564197284933 
2039	 0.115024186874001 
2040	 0.115462882351041 
2041	 0.115920767688949 
2042	 0.116385503635393 
2043	 0.116852521838576 
2044	 0.117307730988139 
2045	 0.117748153770041 
2046	 0.11820646226917 
2047	 0.118674404383646 
2048	 0.119128747271421 
2049	 0.119594917253301 
2050	 0.120041877361264 
2051	 0.12045804093907 
2052	 0.120892165634405 
2053	 0.121328166766266 
2054	 0.121764418655151 
2055	 0.122206497953576 
2056	 0.12265844811534 
2057	 0.12308043985714 
2058	 0.123485291157812 
2059	 0.123899855809782 
2060	 0.124296185550937 
2061	 0.124708451930367 
2062	 0.125131603638261 
2063	 0.125556343953119 
2064	 0.125984575686344 
2065	 0.126411033180809 
2066	 0.126869187522562 
2067	 0.127283428619384 
2068	 0.127665229690651 
2069	 0.128051284598581 
2070	 0.128431915166128 
2071	 0.128780054950536 
2072	 0.129159329746488 
2073	 0.129553100045221 
2074	 0.129948421606394 
2075	 0.13035226426032 
2076	 0.130752398752353 
2077	 0.131154887542543 
2078	 0.131561824341369 
2079	 0.131982580047562 
2080	 0.132379023971374 
2081	 0.132772971250675 
2082	 0.133160449397316 
2083	 0.133526856165546 
2084	 0.133882953279086 
2085	 0.134260991686869 
2086	 0.134660181123776 
2087	 0.135024664173305 
2088	 0.135375212446399 
2089	 0.135741658395348 
2090	 0.136099324606087 
2091	 0.13645315961819 
2092	 0.136820074737178 
2093	 0.13717950892028 
2094	 0.137520474335291 
2095	 0.137867190610716 
2096	 0.138223209140158 
2097	 0.138575443745237 
2098	 0.138924615459179 
2099	 0.139265824948573 
2100	 0.139609874696047 
2101	 0.139961341212793 
2102	 0.140299702026581 
2103	 0.14062486327645 
2104	 0.140960199948501 
2105	 0.141303248397457 
2106	 0.141628670417174 
2107	 0.141946633113111 
2108	 0.142267935064273 
2109	 0.142557258114571 
2110	 0.142885594144326 
2111	 0.143262868232033 
2112	 0.143603242491342 
2113	 0.143941776183906 
2114	 0.144278811024126 
2115	 0.144606572196613 
2116	 0.144909044998281 
2117	 0.145216012134822 
2118	 0.145536518439029 
2119	 0.145828072879438 
2120	 0.146085933535731 
2121	 0.146366796531862 
2122	 0.14664313002561 
2123	 0.146928452218023 
2124	 0.147231277998702 
2125	 0.1475173790022 
2126	 0.147813876873003 
2127	 0.148083569442949 
2128	 0.148333380711341 
2129	 0.148576635422577 
2130	 0.148808505258716 
2131	 0.149020888527821 
2132	 0.149223436840786 
2133	 0.149412381589117 
2134	 0.149602022990438 
2135	 0.149776675232711 
2136	 0.149952664820429 
2137	 0.150148956343514 
2138	 0.150297152565605 
2139	 0.150399586062134 
2140	 0.150530676448046 
2141	 0.150643705074814 
2142	 0.150768091049737 
2143	 0.150928149402997 
2144	 0.151060836637315 
2145	 0.151169730453998 
2146	 0.151284433811442 
2147	 0.151409741819644 
2148	 0.151512443548794 
2149	 0.151589703377507 
2150	 0.151650492227981 
2151	 0.151709272147158 
2152	 0.151734344322978 
2153	 0.151777048507932 
2154	 0.151831003931486 
2155	 0.151876943305159 
2156	 0.151932746033378 
2157	 0.151952764085835 
2158	 0.151949875748436 
2159	 0.151952626500069 
2160	 0.151928518961348 
2161	 0.151909618061929 
2162	 0.151902372637964 
2163	 0.151889299142202 
2164	 0.151860676752982 
2165	 0.151841493805631 
2166	 0.151815246206204 
2167	 0.151792130612099 
2168	 0.151762634653682 
2169	 0.151719705381353 
2170	 0.151691574697556 
2171	 0.151670214348426 
2172	 0.15164666820607 
2173	 0.151637224509141 
2174	 0.151607465353947 
2175	 0.151571946730832 
2176	 0.151526067375502 
2177	 0.151457334852554 
2178	 0.151398360078447 
2179	 0.151345348630675 
2180	 0.15127822580722 
2181	 0.151203559775593 
2182	 0.15113208560128 
2183	 0.151045223157093 
2184	 0.15096717234033 
2185	 0.1508933798505 
2186	 0.150827053474576 
2187	 0.150759375620689 
2188	 0.150679273165934 
2189	 0.15063709690113 
2190	 0.150627010962691 
2191	 0.150590090265328 
2192	 0.150582167440297 
2193	 0.150533024102539 
2194	 0.150426433717203 
2195	 0.150360681652286 
2196	 0.150300214672177 
2197	 0.150243271902123 
2198	 0.150208391062963 
2199	 0.150165178862537 
2200	 0.150107818805381 
2201	 0.150066773946144 
2202	 0.150042346567009 
2203	 0.150008219290583 
2204	 0.149977262744478 
2205	 0.149950123540305 
2206	 0.149931796276774 
2207	 0.149915480957903 
2208	 0.14989942058025 
2209	 0.149894877900612 
2210	 0.14988503293982 
2211	 0.149861906222298 
2212	 0.149857176598545 
2213	 0.149873794306447 
2214	 0.149872240271927 
2215	 0.149862821175431 
2216	 0.149863616813056 
2217	 0.14986934111589 
2218	 0.149863204672303 
2219	 0.149849832543911 
2220	 0.14984992830662 
2221	 0.149865805939223 
2222	 0.149847885996282 
2223	 0.149820331065042 
2224	 0.14981661156337 
2225	 0.149794476406926 
2226	 0.149749723947195 
2227	 0.149704215529257 
2228	 0.149665191219854 
2229	 0.14961616255854 
2230	 0.149537390751066 
2231	 0.149482692668936 
2232	 0.149452702878733 
2233	 0.149394574641036 
2234	 0.149318691938762 
2235	 0.149261359402063 
2236	 0.149201672101546 
2237	 0.149141650682129 
2238	 0.149086319871141 
2239	 0.149037592250299 
2240	 0.14900343505579 
2241	 0.148945592344546 
2242	 0.1489000701343 
2243	 0.148827092796801 
2244	 0.148729337017375 
2245	 0.148604152504333 
2246	 0.14845064175553 
2247	 0.148322091530037 
2248	 0.148214626352557 
2249	 0.148115829418806 
2250	 0.148007688445558 
2251	 0.147931102458008 
2252	 0.147815385008093 
2253	 0.147651159823494 
2254	 0.147534768550452 
2255	 0.147438912740626 
2256	 0.147335056100322 
2257	 0.147245134437354 
2258	 0.147146818405847 
2259	 0.147036604365429 
2260	 0.146937254742102 
2261	 0.146852647369359 
2262	 0.146759940894469 
2263	 0.146671395229036 
2264	 0.146562234980759 
2265	 0.146427977762856 
2266	 0.146311827304047 
2267	 0.146200560887614 
2268	 0.146083250085871 
2269	 0.145986089965489 
2270	 0.14586162178456 
2271	 0.145699745796009 
2272	 0.145581693084382 
2273	 0.14548560861737 
2274	 0.14536851793872 
2275	 0.145222811554146 
2276	 0.145058828873948 
2277	 0.144920364214784 
2278	 0.144753386686148 
2279	 0.144609509607765 
2280	 0.144504991497373 
2281	 0.144384629794332 
2282	 0.144254993426402 
2283	 0.144124026733819 
2284	 0.144019569768711 
2285	 0.143874557395767 
2286	 0.143687398043604 
2287	 0.143513990620419 
2288	 0.143310668907329 
2289	 0.143144722891947 
2290	 0.143013491618473 
2291	 0.142862094306241 
2292	 0.142732456955667 
2293	 0.142589019901999 
2294	 0.142416158251084 
2295	 0.142246667146682 
2296	 0.142094280442339 
2297	 0.141912149251732 
2298	 0.141703232870621 
2299	 0.14148931735785 
2300	 0.141258584120568 
2301	 0.141013990398875 
2302	 0.14077490890495 
2303	 0.140585228743668 
2304	 0.140414947406999 
2305	 0.140203157536721 
2306	 0.139991165798627 
2307	 0.139770553125147 
2308	 0.139551592676582 
2309	 0.139328415132991 
2310	 0.1391013886878 
2311	 0.138863311387045 
2312	 0.138642952021982 
2313	 0.138420228101041 
2314	 0.138196842391949 
2315	 0.138013670946535 
2316	 0.137782104605743 
2317	 0.137487155078385 
2318	 0.137249804991812 
2319	 0.137041407541428 
2320	 0.136796776844461 
2321	 0.136579915645103 
2322	 0.136331369883088 
2323	 0.136010924287805 
2324	 0.135737390738551 
2325	 0.135465953210655 
2326	 0.135225149779298 
2327	 0.135044762511184 
2328	 0.134809392814266 
2329	 0.134539339167844 
2330	 0.13431049216391 
2331	 0.134059400672905 
2332	 0.133804611813826 
2333	 0.133619624368709 
2334	 0.133431207576065 
2335	 0.133183546763163 
2336	 0.132949194105779 
2337	 0.13271490336666 
2338	 0.132406371500131 
2339	 0.132121107366687 
2340	 0.131858727163141 
2341	 0.131536999846595 
2342	 0.131263324502693 
2343	 0.131000813938297 
2344	 0.130684020236576 
2345	 0.13037002469668 
2346	 0.130054033030641 
2347	 0.12971914874588 
2348	 0.12933336843567 
2349	 0.129019655266489 
2350	 0.128750945258309 
2351	 0.12844307408678 
2352	 0.128150401715432 
2353	 0.127853070690422 
2354	 0.127535901655944 
2355	 0.127198448573434 
2356	 0.126875724159219 
2357	 0.126533854432839 
2358	 0.126143527644558 
2359	 0.125782679122531 
2360	 0.125413917017646 
2361	 0.125057966853957 
2362	 0.124704287624184 
2363	 0.124374624876528 
2364	 0.124111837587065 
2365	 0.123802445436177 
2366	 0.123464517508139 
2367	 0.123146483340589 
2368	 0.122808858712041 
2369	 0.122457012057265 
2370	 0.122130266513611 
2371	 0.121792083324133 
2372	 0.121362456489123 
2373	 0.120975403613664 
2374	 0.120582295186281 
2375	 0.120150256315777 
2376	 0.119746475199077 
2377	 0.119376696181176 
2378	 0.119038782399373 
2379	 0.118719805620623 
2380	 0.118403570213912 
2381	 0.11803260118801 
2382	 0.117630934114455 
2383	 0.117231741024298 
2384	 0.116802590486411 
2385	 0.116409148949846 
2386	 0.116041670066883 
2387	 0.115639416840777 
2388	 0.115266782538298 
2389	 0.114917011021287 
2390	 0.114513155171531 
2391	 0.114039236593122 
2392	 0.113626520124986 
2393	 0.113294252256867 
2394	 0.112948951923873 
2395	 0.112695701436518 
2396	 0.112370508438185 
2397	 0.111893442304714 
2398	 0.111505546033929 
2399	 0.11111004671368 
2400	 0.110742934110749 
2401	 0.110442354447987 
2402	 0.110049697052012 
2403	 0.109675629927582 
2404	 0.109267368844543 
2405	 0.108846531307263 
2406	 0.108486056234006 
2407	 0.108104468457684 
2408	 0.107777398346637 
2409	 0.107415856656697 
2410	 0.106992630334528 
2411	 0.106564663108862 
2412	 0.106117552993639 
2413	 0.105661389666162 
2414	 0.105222095105741 
2415	 0.10485818260084 
2416	 0.104487597980913 
2417	 0.104127401046452 
2418	 0.10378656603785 
2419	 0.103508349180791 
2420	 0.103105127536402 
2421	 0.102656452761178 
2422	 0.102236392611777 
2423	 0.101727704050528 
2424	 0.101310296417287 
2425	 0.100966236805332 
2426	 0.10051927045044 
2427	 0.100080610637925 
2428	 9.96434707172995E-02 
2429	 9.91389605850388E-02 
2430	 9.87225141734502E-02 
2431	 0.098332010754801 
2432	 0.097902251056695 
2433	 9.74805039226128E-02 
2434	 9.70830276374676E-02 
2435	 9.67310807199378E-02 
2436	 9.63660781859961E-02 
2437	 9.60037450984013E-02 
2438	 9.56631142810964E-02 
2439	 9.53231294942911E-02 
2440	 0.094885269062005 
2441	 9.44071622556212E-02 
2442	 9.40160746908709E-02 
2443	 9.35808519802989E-02 
2444	 0.093163169920596 
2445	 9.28844931292852E-02 
2446	 9.24844497375736E-02 
2447	 9.19673848768214E-02 
2448	 9.16044987983277E-02 
2449	 0.091276965239371 
2450	 9.09391985749348E-02 
2451	 9.06198187753674E-02 
2452	 9.02312565425952E-02 
2453	 8.98890836557743E-02 
2454	 8.94594691336079E-02 
2455	 8.89768366454814E-02 
2456	 8.85449905045877E-02 
2457	 8.79956199483425E-02 
2458	 8.75535950452041E-02 
2459	 8.72108393305869E-02 
2460	 8.68266878215772E-02 
2461	 8.65315785168664E-02 
2462	 8.62129227957884E-02 
2463	 8.58240533043096E-02 
2464	 8.53994642334171E-02 
2465	 8.49144765530907E-02 
2466	 8.45569584304258E-02 
2467	 8.42257006958053E-02 
2468	 8.39261262441279E-02 
2469	 8.38228453815047E-02 
2470	 8.34793314917816E-02 
2471	 8.29970395793164E-02 
2472	 8.23752315662596E-02 
2473	 8.18712418123235E-02 
2474	 8.15247209397223E-02 
2475	 8.13639038497143E-02 
2476	 8.13500633608985E-02 
2477	 8.11632938770719E-02 
2478	 8.07040808163784E-02 
2479	 8.01880949104681E-02 
2480	 7.96462049868651E-02 
2481	 7.92191671363785E-02 
2482	 7.89308776535883E-02 
2483	 7.87241510291731E-02 
2484	 0.07855229864421 
2485	 7.82386361501004E-02 
2486	 7.79256276776879E-02 
2487	 7.76272178901572E-02 
2488	 7.74085042792265E-02 
2489	 7.73639513143258E-02 
2490	 7.73819724388221E-02 
2491	 7.72121620200498E-02 
2492	 7.69132294566651E-02 
2493	 0.076628499543123 
2494	 7.61190359719584E-02 
2495	 7.58153119903883E-02 
2496	 0.075743959993239 
2497	 7.54925833450381E-02 
2498	 7.52527993233106E-02 
2499	 7.49503612068309E-02 
2500	 7.45387812977736E-02 
