Wavelength	mm1200008.asd
350	 2.29055554043061E-02 
351	 1.93961812530004E-02 
352	 2.28985016351566E-02 
353	 2.66453694575689E-02 
354	 2.26218950147558E-02 
355	 2.42749558840796E-02 
356	 2.87331039415934E-02 
357	 3.02706973275591E-02 
358	 2.99910481604515E-02 
359	 2.58759899647404E-02 
360	 2.14468068049897E-02 
361	 2.28643036900813E-02 
362	 2.44728958773657E-02 
363	 2.46063867104277E-02 
364	 0.023202471341085 
365	 2.14703056234142E-02 
366	 2.27197668261233E-02 
367	 2.40734149247471E-02 
368	 2.30255227211425E-02 
369	 2.58669628538851E-02 
370	 2.77162310432742E-02 
371	 2.70681746999068E-02 
372	 0.02524163495521 
373	 2.47592079699877E-02 
374	 2.54830566854079E-02 
375	 2.69491093706732E-02 
376	 2.90395523363835E-02 
377	 2.90487358672551E-02 
378	 2.97997976474563E-02 
379	 3.33636077280638E-02 
380	 3.13216635072799E-02 
381	 2.90715690593017E-02 
382	 2.95540947733863E-02 
383	 3.29398748883411E-02 
384	 3.49898691118182E-02 
385	 3.47041136462386E-02 
386	 3.34257507743545E-02 
387	 3.60357983711617E-02 
388	 0.036331961424462 
389	 3.57604730385043E-02 
390	 3.71181871555772E-02 
391	 3.70414122415688E-02 
392	 3.84653162086418E-02 
393	 4.13696422659927E-02 
394	 4.31327917066809E-02 
395	 4.43851159034405E-02 
396	 0.046196671837143 
397	 4.85043890502876E-02 
398	 4.84850019464457E-02 
399	 4.96832579328766E-02 
400	 5.15497321056804E-02 
401	 0.052369958470238 
402	 5.30821723625843E-02 
403	 5.39137937463954E-02 
404	 5.48191004496959E-02 
405	 5.55686270176274E-02 
406	 5.76445115094415E-02 
407	 5.90867161932318E-02 
408	 5.87520561053804E-02 
409	 5.90798302622215E-02 
410	 6.00613561740604E-02 
411	 6.11325265516839E-02 
412	 6.15822449285994E-02 
413	 6.19818570856648E-02 
414	 6.22906799310091E-02 
415	 6.24780568604785E-02 
416	 0.062591435204994 
417	 6.27675073598411E-02 
418	 0.063086703481256 
419	 6.35320583956959E-02 
420	 6.38903413551234E-02 
421	 6.39569957021655E-02 
422	 6.40246260313551E-02 
423	 0.064560005850673 
424	 6.42546969359784E-02 
425	 6.35836706406537E-02 
426	 6.31902395481012E-02 
427	 6.37079014519286E-02 
428	 6.34283060764977E-02 
429	 6.28282774557558E-02 
430	 0.06284684291267 
431	 6.28619265198687E-02 
432	 6.26698366860421E-02 
433	 6.26683244912084E-02 
434	 6.37065351102301E-02 
435	 6.34551059032064E-02 
436	 6.29386027082733E-02 
437	 6.32113721374526E-02 
438	 6.36459544436582E-02 
439	 6.41308930971853E-02 
440	 6.45962843551776E-02 
441	 6.50273167855316E-02 
442	 6.55376562416739E-02 
443	 0.066222370220477 
444	 6.68969342252845E-02 
445	 0.066952940622585 
446	 6.71891786877647E-02 
447	 6.75750969275318E-02 
448	 6.79085969009557E-02 
449	 6.83499724678074E-02 
450	 0.068937739175726 
451	 6.96048163439523E-02 
452	 0.070200021458328 
453	 0.070657264360961 
454	 7.07516738416491E-02 
455	 7.05842089047825E-02 
456	 7.11164246994265E-02 
457	 7.14974891367691E-02 
458	 7.16367129393376E-02 
459	 7.17885276594345E-02 
460	 7.20189927921533E-02 
461	 7.22068845249474E-02 
462	 7.23835843517836E-02 
463	 0.072826281010487 
464	 7.30137598935212E-02 
465	 7.30978068767674E-02 
466	 7.32574557406526E-02 
467	 7.29029690203922E-02 
468	 7.29659841126021E-02 
469	 7.33677209211036E-02 
470	 0.073246114040042 
471	 7.32840396937608E-02 
472	 0.073430878928825 
473	 7.35250185570683E-02 
474	 7.34140293337818E-02 
475	 0.073382600548563 
476	 0.073429715081287 
477	 7.34599257499514E-02 
478	 7.37175426872332E-02 
479	 7.38915589532149E-02 
480	 7.38886519606196E-02 
481	 7.39753896589112E-02 
482	 7.40599222351767E-02 
483	 7.41859783516053E-02 
484	 7.43565555264422E-02 
485	 7.42851605856419E-02 
486	 7.42044498441073E-02 
487	 7.41915611088039E-02 
488	 0.074188357082201 
489	 7.43337532467346E-02 
490	 7.44733931677991E-02 
491	 7.44987321284884E-02 
492	 7.45488001821336E-02 
493	 7.44273207568895E-02 
494	 7.43415515641628E-02 
495	 7.45873629528451E-02 
496	 7.45693358589937E-02 
497	 7.45633485904725E-02 
498	 7.47010309263375E-02 
499	 7.47850289336829E-02 
500	 7.46662415830538E-02 
501	 7.46253024301258E-02 
502	 7.48716884976965E-02 
503	 7.46777317864935E-02 
504	 0.074655161714249 
505	 7.48583931647998E-02 
506	 7.48163214188977E-02 
507	 7.48024114952536E-02 
508	 0.074900610835911 
509	 7.50544443556383E-02 
510	 7.49253094046493E-02 
511	 7.47623304873786E-02 
512	 0.07467874376874 
513	 7.46969057776988E-02 
514	 7.47072013100017E-02 
515	 7.47761757351108E-02 
516	 7.49038247473075E-02 
517	 7.49473231301311E-02 
518	 0.074931248255813 
519	 7.48909372858531E-02 
520	 7.48637382710804E-02 
521	 7.48381790076499E-02 
522	 7.48928302738959E-02 
523	 7.49896864856468E-02 
524	 7.49704011151499E-02 
525	 7.49543930470549E-02 
526	 7.49827479652626E-02 
527	 7.50530173086856E-02 
528	 7.50884263175463E-02 
529	 0.075108579568081 
530	 0.075147848735152 
531	 7.52354914968997E-02 
532	 7.51917843970665E-02 
533	 7.52742119003528E-02 
534	 7.55397557161497E-02 
535	 0.07549961408825 
536	 0.07542318170065 
537	 7.54410776101771E-02 
538	 7.55933040285051E-02 
539	 7.56552184376707E-02 
540	 7.56735457602944E-02 
541	 7.57097849777811E-02 
542	 7.58123384284035E-02 
543	 7.59477062726109E-02 
544	 7.60810680864929E-02 
545	 7.61911091793481E-02 
546	 0.076310155838979 
547	 7.64492615253719E-02 
548	 7.66056974857596E-02 
549	 7.67648624993177E-02 
550	 7.69006535597926E-02 
551	 0.077058151117446 
552	 7.72726722212974E-02 
553	 7.75336810383779E-02 
554	 7.77261360728243E-02 
555	 7.78811772706782E-02 
556	 0.078106298626459 
557	 7.84081746208201E-02 
558	 7.87283722121044E-02 
559	 7.90468297199671E-02 
560	 7.94274276876382E-02 
561	 7.97888478839654E-02 
562	 8.02105509689128E-02 
563	 8.07713389120148E-02 
564	 8.12343656177097E-02 
565	 8.16974779110816E-02 
566	 8.22393748477949E-02 
567	 8.28920833366466E-02 
568	 8.35657298642003E-02 
569	 8.42343674831464E-02 
570	 8.48963412919516E-02 
571	 8.55642868086705E-02 
572	 8.62772821056709E-02 
573	 8.70629784289262E-02 
574	 8.79258113067357E-02 
575	 8.87021939597418E-02 
576	 8.95076793664802E-02 
577	 9.04167002004344E-02 
578	 0.091306036502134 
579	 9.22874074122988E-02 
580	 9.33521443424609E-02 
581	 9.44400493206399E-02 
582	 9.55246689703345E-02 
583	 9.65725585809507E-02 
584	 9.76041073715984E-02 
585	 9.87189760518987E-02 
586	 9.98745906879884E-02 
587	 0.101012269529975 
588	 0.10211299997172 
589	 0.103368627953583 
590	 0.104575311622985 
591	 0.105696705143838 
592	 0.106860655369146 
593	 0.107986697980785 
594	 0.10909000688006 
595	 0.110187297436135 
596	 0.111249362375821 
597	 0.112337393356113 
598	 0.113456939299006 
599	 0.114580036855725 
600	 0.115654366236844 
601	 0.116658922157055 
602	 0.117593441677755 
603	 0.118484237510442 
604	 0.119393798007804 
605	 0.120306486065378 
606	 0.121174431160816 
607	 0.121954260262771 
608	 0.12273707407353 
609	 0.123531184893743 
610	 0.124244847906983 
611	 0.124948100426057 
612	 0.125603080626246 
613	 0.12617160411264 
614	 0.126703274826583 
615	 0.12722386887137 
616	 0.127719115329895 
617	 0.128151916685674 
618	 0.128619751469097 
619	 0.129054646585622 
620	 0.129420718732253 
621	 0.1298022371454 
622	 0.130160935688482 
623	 0.130510781169324 
624	 0.130869856356257 
625	 0.131145201814427 
626	 0.13141062262888 
627	 0.131707567251525 
628	 0.132016968208155 
629	 0.132303681053868 
630	 0.132576555565972 
631	 0.132849088728892 
632	 0.133093003467749 
633	 0.133334803381968 
634	 0.133572044632899 
635	 0.133784523721063 
636	 0.134080367856932 
637	 0.134352153011986 
638	 0.134545443350726 
639	 0.13483690517358 
640	 0.135061181586645 
641	 0.135270676351322 
642	 0.135587097809611 
643	 0.135837707750439 
644	 0.136093074795857 
645	 0.136380834945126 
646	 0.136633885972771 
647	 0.136841548214802 
648	 0.137058048985893 
649	 0.137342555996908 
650	 0.137689652451198 
651	 0.138001204328835 
652	 0.138272257714906 
653	 0.138580450352633 
654	 0.138924741860306 
655	 0.139222509894192 
656	 0.139452228587064 
657	 0.139779839133568 
658	 0.140123241667592 
659	 0.140453962534187 
660	 0.140771963265967 
661	 0.141108169249167 
662	 0.14147167197369 
663	 0.141856653979741 
664	 0.142239758112049 
665	 0.142627197737563 
666	 0.143014989394854 
667	 0.143402960543486 
668	 0.143815300666263 
669	 0.144234916185149 
670	 0.144663216016652 
671	 0.145112385941598 
672	 0.145503435404344 
673	 0.14590701772791 
674	 0.146374571893875 
675	 0.146854645882737 
676	 0.147322926995065 
677	 0.147769542034869 
678	 0.148207759986003 
679	 0.148737537824994 
680	 0.149241232394425 
681	 0.149690509537336 
682	 0.15019614477802 
683	 0.150728334446459 
684	 0.151270766172207 
685	 0.151807688435673 
686	 0.152316944716359 
687	 0.152879933625706 
688	 0.153463383031558 
689	 0.153963771181919 
690	 0.154496200036587 
691	 0.155061965567626 
692	 0.155637717117618 
693	 0.156188738315346 
694	 0.156708536871886 
695	 0.157263123275103 
696	 0.157906417680052 
697	 0.158468970207374 
698	 0.159019960770573 
699	 0.159594366759927 
700	 0.160174175909042 
701	 0.160725482791963 
702	 0.161292854950191 
703	 0.161899638610032 
704	 0.162460964161943 
705	 0.163027626062772 
706	 0.163598648349611 
707	 0.164150079243427 
708	 0.164708288377025 
709	 0.165275560294219 
710	 0.165842827595572 
711	 0.166390326866886 
712	 0.166936619057917 
713	 0.167445773551763 
714	 0.167910339120104 
715	 0.168488745600854 
716	 0.169017776296306 
717	 0.169481682942322 
718	 0.169973373960799 
719	 0.170453989098759 
720	 0.170903508870327 
721	 0.171321624071941 
722	 0.171741166462874 
723	 0.172180290616291 
724	 0.172604221326952 
725	 0.172973785179767 
726	 0.173334687138939 
727	 0.173656616524481 
728	 0.173960655972209 
729	 0.17431091360623 
730	 0.174605594174497 
731	 0.174866127321663 
732	 0.175119702663883 
733	 0.175347753853173 
734	 0.175587529635009 
735	 0.175804010705916 
736	 0.175948303064605 
737	 0.176085658900414 
738	 0.17621528396321 
739	 0.176337063372414 
740	 0.17645550887641 
741	 0.17652663010225 
742	 0.176569006224106 
743	 0.176610241144243 
744	 0.176672085330234 
745	 0.176646510320819 
746	 0.176572333746064 
747	 0.176541258262795 
748	 0.17646030847483 
749	 0.17635306859881 
750	 0.176251231556108 
751	 0.176181765475559 
752	 0.176046086244827 
753	 0.175876574894176 
754	 0.175715562414355 
755	 0.17553638241712 
756	 0.175357551372447 
757	 0.175148158398406 
758	 0.174872823417761 
759	 0.174653465290386 
760	 0.174432885375483 
761	 0.174176460256361 
762	 0.173900331089128 
763	 0.173628952452331 
764	 0.173322240122407 
765	 0.172960695732088 
766	 0.172622187019688 
767	 0.172329102823632 
768	 0.172044914059028 
769	 0.171709151350686 
770	 0.171342610085574 
771	 0.170978555563523 
772	 0.170621378208178 
773	 0.170240672677457 
774	 0.169893641026892 
775	 0.169536766989063 
776	 0.169132222571394 
777	 0.168715717259611 
778	 0.168320231173357 
779	 0.167957233110436 
780	 0.167610557781836 
781	 0.167177878676368 
782	 0.166785544222392 
783	 0.166437453482329 
784	 0.165998368430957 
785	 0.165577166781014 
786	 0.165194002386374 
787	 0.164834681559904 
788	 0.164445778808133 
789	 0.164071632437107 
790	 0.163688345485168 
791	 0.163269905404851 
792	 0.162914117043795 
793	 0.162541470178614 
794	 0.162138644591254 
795	 0.161754271673343 
796	 0.161349020016204 
797	 0.16095367821903 
798	 0.160589541289538 
799	 0.160244167704594 
800	 0.159879008122681 
801	 0.159504208531449 
802	 0.159143505033604 
803	 0.158804920069665 
804	 0.158470461510891 
805	 0.15813374454201 
806	 0.157795990040072 
807	 0.15744543249697 
808	 0.157096474137145 
809	 0.156759406498363 
810	 0.156434068626392 
811	 0.156129610237077 
812	 0.155825060648155 
813	 0.155507970156014 
814	 0.155206443782819 
815	 0.154920147262703 
816	 0.154628713092985 
817	 0.154315660088113 
818	 0.154024573135908 
819	 0.15380577550505 
820	 0.153601690064049 
821	 0.1532839415578 
822	 0.15301898184716 
823	 0.15276456196824 
824	 0.152496207903149 
825	 0.152268871734843 
826	 0.152068571986326 
827	 0.151850254123306 
828	 0.151594627481655 
829	 0.151393356117392 
830	 0.151162586819667 
831	 0.150928651599332 
832	 0.150760337043407 
833	 0.150638700355193 
834	 0.150452507677406 
835	 0.150208093862404 
836	 0.15002458528497 
837	 0.149899870968419 
838	 0.149772162706601 
839	 0.149610736666955 
840	 0.149457696949285 
841	 0.149274315904526 
842	 0.149141910669377 
843	 0.149102898706867 
844	 0.1489842894422 
845	 0.148833449938813 
846	 0.14870927313699 
847	 0.14865200394679 
848	 0.148556999383165 
849	 0.148478975128109 
850	 0.148400237848962 
851	 0.148253148545772 
852	 0.148207346392996 
853	 0.148187066294613 
854	 0.1481401807784 
855	 0.148102109290267 
856	 0.148079747278615 
857	 0.148055086608017 
858	 0.148020628363325 
859	 0.148014924311217 
860	 0.147987416281642 
861	 0.14795168635389 
862	 0.147938854835442 
863	 0.147945032944837 
864	 0.147960027088231 
865	 0.147977309128425 
866	 0.147998822331457 
867	 0.148064782169462 
868	 0.14812622243047 
869	 0.148154416454571 
870	 0.148156010945806 
871	 0.148189312628288 
872	 0.148283711192498 
873	 0.148406146958308 
874	 0.14844015079237 
875	 0.148497494665351 
876	 0.148577522884026 
877	 0.148661327844958 
878	 0.148753014364551 
879	 0.148918789846713 
880	 0.1490762272532 
881	 0.14914483701837 
882	 0.149281679581164 
883	 0.149428720635517 
884	 0.149552832921539 
885	 0.149660301284488 
886	 0.149887978750321 
887	 0.150092763400976 
888	 0.150237585373628 
889	 0.150388602935081 
890	 0.150483191036564 
891	 0.150643008996537 
892	 0.150903085919275 
893	 0.151161026814644 
894	 0.151338672588039 
895	 0.15151279838162 
896	 0.151727079686161 
897	 0.151903579420508 
898	 0.152183406885722 
899	 0.152486456583627 
900	 0.152728282121783 
901	 0.152974240989361 
902	 0.153228519870026 
903	 0.153509688468029 
904	 0.153811831999209 
905	 0.154029746044676 
906	 0.154304791579506 
907	 0.154621832639375 
908	 0.154908467621891 
909	 0.15524328010971 
910	 0.155532999629596 
911	 0.155788692510179 
912	 0.156086302481283 
913	 0.156387789068972 
914	 0.156768905100402 
915	 0.157193137067742 
916	 0.157538453869501 
917	 0.157924713430823 
918	 0.158267699649734 
919	 0.158555321655216 
920	 0.158884035723584 
921	 0.159299386002279 
922	 0.159743446585431 
923	 0.160158515873475 
924	 0.160525046529718 
925	 0.160887469654994 
926	 0.161321635864636 
927	 0.161801166039606 
928	 0.162112923643978 
929	 0.162541982074671 
930	 0.163069020801262 
931	 0.163583975534553 
932	 0.163967585908246 
933	 0.164419077294546 
934	 0.164905033978648 
935	 0.165350221195906 
936	 0.165774440094024 
937	 0.16617838872791 
938	 0.166584392845542 
939	 0.167026820634787 
940	 0.1675503701051 
941	 0.168136910912566 
942	 0.168711638967539 
943	 0.169213716819702 
944	 0.169721631294231 
945	 0.17018820502958 
946	 0.170675411727205 
947	 0.171237551839474 
948	 0.17167165700587 
949	 0.172168814577721 
950	 0.172709640753417 
951	 0.173191055159329 
952	 0.173714442989644 
953	 0.174195505010442 
954	 0.174695234834963 
955	 0.175325545298064 
956	 0.176006489397231 
957	 0.17653731471305 
958	 0.177010716710177 
959	 0.177630071576581 
960	 0.178093277387225 
961	 0.178623536355096 
962	 0.179256102807539 
963	 0.179869502625284 
964	 0.180350065872345 
965	 0.180933325941125 
966	 0.181570143801959 
967	 0.182062550246786 
968	 0.182654076967242 
969	 0.183212524831848 
970	 0.183739480826612 
971	 0.184326256844065 
972	 0.184920590333486 
973	 0.185557795900999 
974	 0.186181173542319 
975	 0.186722552843141 
976	 0.18744318981394 
977	 0.188061337645582 
978	 0.188566240615152 
979	 0.189144065340162 
980	 0.189859009778123 
981	 0.190458345848926 
982	 0.190938065757191 
983	 0.191456798340298 
984	 0.19202961757457 
985	 0.192638041629083 
986	 0.193219127153251 
987	 0.193729575249055 
988	 0.194323409133379 
989	 0.194920215713329 
990	 0.195526972783668 
991	 0.196180359620769 
992	 0.196823670084091 
993	 0.197303766716502 
994	 0.197741784033534 
995	 0.198296484427839 
996	 0.198719006944921 
997	 0.199279555017007 
998	 0.199852993892758 
999	 0.20029591796368 
1000	 0.200998834866046 
1001	 0.204825464542332 
1002	 0.205209798664416 
1003	 0.205691998150583 
1004	 0.206148088676178 
1005	 0.206571229560769 
1006	 0.207065443083664 
1007	 0.207643184233312 
1008	 0.208085183023363 
1009	 0.20855636460124 
1010	 0.208999376387422 
1011	 0.209326680763801 
1012	 0.209730375649752 
1013	 0.210167901740541 
1014	 0.210568635589952 
1015	 0.211038640032857 
1016	 0.211512951632588 
1017	 0.211954528006007 
1018	 0.212377021410877 
1019	 0.212799217957503 
1020	 0.213163306988761 
1021	 0.213491111704045 
1022	 0.213793929765965 
1023	 0.214072630043085 
1024	 0.214376933276342 
1025	 0.214723920370873 
1026	 0.215079884830371 
1027	 0.21542109401339 
1028	 0.215793596422454 
1029	 0.216156902561569 
1030	 0.216471704833652 
1031	 0.216776301016408 
1032	 0.217086206903064 
1033	 0.217346589041313 
1034	 0.217560405923121 
1035	 0.217815063963026 
1036	 0.218105990958746 
1037	 0.218409243602973 
1038	 0.21871265269607 
1039	 0.219007128446713 
1040	 0.219259520693115 
1041	 0.219482186020835 
1042	 0.219711547415319 
1043	 0.219911019291613 
1044	 0.220136543475227 
1045	 0.220360559073476 
1046	 0.220614206953138 
1047	 0.220867284866854 
1048	 0.221152096375809 
1049	 0.221428375859689 
1050	 0.221631014463698 
1051	 0.221839637739161 
1052	 0.222078650850046 
1053	 0.222313903875855 
1054	 0.222582991935536 
1055	 0.222823193341131 
1056	 0.223020307000894 
1057	 0.223243311675469 
1058	 0.223433491266046 
1059	 0.223676647032783 
1060	 0.223951493088487 
1061	 0.224250003694538 
1062	 0.224591358048641 
1063	 0.224855633044544 
1064	 0.225056236521278 
1065	 0.225280793643049 
1066	 0.225485986044848 
1067	 0.225703590177261 
1068	 0.225985063776195 
1069	 0.226284331240774 
1070	 0.226547642527024 
1071	 0.226774680236927 
1072	 0.227022574430987 
1073	 0.227290058623266 
1074	 0.227510291603129 
1075	 0.227688218592299 
1076	 0.227919294967439 
1077	 0.228148617262818 
1078	 0.228333030708869 
1079	 0.228563686288624 
1080	 0.22878426011438 
1081	 0.228976498588405 
1082	 0.229197485643633 
1083	 0.229428729188877 
1084	 0.229689327112688 
1085	 0.229926639652082 
1086	 0.230196323720999 
1087	 0.230397491869344 
1088	 0.230557243814124 
1089	 0.230718550913071 
1090	 0.230861212261051 
1091	 0.230961426531553 
1092	 0.231126671486869 
1093	 0.231291969597359 
1094	 0.231486066758478 
1095	 0.231706105898768 
1096	 0.231903080692869 
1097	 0.232095937290997 
1098	 0.232248094838859 
1099	 0.2323445957071 
1100	 0.232478230575199 
1101	 0.232595719782875 
1102	 0.232729014909106 
1103	 0.232889880457489 
1104	 0.2330281223261 
1105	 0.233167516590406 
1106	 0.233302768420208 
1107	 0.233396203812799 
1108	 0.233470833741618 
1109	 0.233585840461718 
1110	 0.233699776945308 
1111	 0.233805784821962 
1112	 0.23394999565834 
1113	 0.234063515544648 
1114	 0.234129947472557 
1115	 0.23422031698164 
1116	 0.234311338616377 
1117	 0.234421674149888 
1118	 0.234540627914778 
1119	 0.234670986407338 
1120	 0.234810031158132 
1121	 0.234928402633225 
1122	 0.234993495494368 
1123	 0.235057204958261 
1124	 0.235123088056219 
1125	 0.23517348276935 
1126	 0.235231068257355 
1127	 0.235293969571878 
1128	 0.235354969091778 
1129	 0.235419727152822 
1130	 0.235465689356279 
1131	 0.235520542168733 
1132	 0.235545335099641 
1133	 0.2355281379998 
1134	 0.235535359556166 
1135	 0.235550523461448 
1136	 0.235547732670756 
1137	 0.235540032542111 
1138	 0.235518249773061 
1139	 0.235502244223502 
1140	 0.235474339209672 
1141	 0.235439314214044 
1142	 0.235410186047825 
1143	 0.235373797318246 
1144	 0.235316695462739 
1145	 0.235265541588916 
1146	 0.235230032640201 
1147	 0.23517400399726 
1148	 0.235076635377767 
1149	 0.235018831413387 
1150	 0.234961695683906 
1151	 0.234930883224316 
1152	 0.234932758644452 
1153	 0.234946968651414 
1154	 0.234942589522858 
1155	 0.234929649606631 
1156	 0.234940745761678 
1157	 0.234952321331164 
1158	 0.234970467568799 
1159	 0.235001578348729 
1160	 0.235043774282755 
1161	 0.235085391283995 
1162	 0.235139388699174 
1163	 0.235239794752886 
1164	 0.235300351347289 
1165	 0.235327632922233 
1166	 0.235380572393219 
1167	 0.235436124117526 
1168	 0.235460593357215 
1169	 0.235521898333639 
1170	 0.235612407681215 
1171	 0.235680712517402 
1172	 0.235756586880776 
1173	 0.235818090891161 
1174	 0.235864259823109 
1175	 0.23591946812345 
1176	 0.235967522748261 
1177	 0.236022898153842 
1178	 0.236093281378678 
1179	 0.236150038794819 
1180	 0.236198242612146 
1181	 0.23625191397759 
1182	 0.236299657175341 
1183	 0.236347198920842 
1184	 0.236408974644744 
1185	 0.236484881645846 
1186	 0.236549788307298 
1187	 0.236627434007064 
1188	 0.23667978252472 
1189	 0.23670593408854 
1190	 0.236757129544205 
1191	 0.236816885169603 
1192	 0.236859611077357 
1193	 0.236894550152648 
1194	 0.236949860357103 
1195	 0.236998589523889 
1196	 0.237053039099112 
1197	 0.237151071170595 
1198	 0.237216197621853 
1199	 0.23726619803551 
1200	 0.237286261395648 
1201	 0.237339199475698 
1202	 0.237383692331974 
1203	 0.237451509770973 
1204	 0.237560437591586 
1205	 0.237623943600555 
1206	 0.237666362632764 
1207	 0.237727492797487 
1208	 0.237786382210105 
1209	 0.237833619914627 
1210	 0.237889167230577 
1211	 0.237938305114046 
1212	 0.237955013775642 
1213	 0.237994521811594 
1214	 0.238058059091544 
1215	 0.238111500159476 
1216	 0.238164291632619 
1217	 0.238223239692928 
1218	 0.238266831299075 
1219	 0.238292384465047 
1220	 0.238342052418427 
1221	 0.238399346684008 
1222	 0.238448141861425 
1223	 0.238510375863188 
1224	 0.238559382807718 
1225	 0.238588540201259 
1226	 0.238629625414271 
1227	 0.238680506540155 
1228	 0.238722677240966 
1229	 0.238763904171365 
1230	 0.238800713195074 
1231	 0.238823679551579 
1232	 0.238857089779602 
1233	 0.238893887730488 
1234	 0.238934078519429 
1235	 0.23897220026697 
1236	 0.239018538487887 
1237	 0.239053683445592 
1238	 0.239081229551154 
1239	 0.239111054549981 
1240	 0.239132976802922 
1241	 0.239166799528496 
1242	 0.239211895962463 
1243	 0.239244507212715 
1244	 0.239276418044322 
1245	 0.239309270161113 
1246	 0.239330890684571 
1247	 0.239359837018266 
1248	 0.239396555232674 
1249	 0.239437361858756 
1250	 0.239457737444403 
1251	 0.239476953421843 
1252	 0.239503361765803 
1253	 0.239529957897678 
1254	 0.239547410890415 
1255	 0.239568332138455 
1256	 0.239583388567513 
1257	 0.239588285932568 
1258	 0.239588934196711 
1259	 0.239584519284156 
1260	 0.239588543483503 
1261	 0.239580221446193 
1262	 0.239586692728932 
1263	 0.239620321590757 
1264	 0.239634614948675 
1265	 0.239646827420869 
1266	 0.239651515600677 
1267	 0.239641901272024 
1268	 0.239631636324743 
1269	 0.239627498902292 
1270	 0.239621933023827 
1271	 0.239618406160211 
1272	 0.23962109713517 
1273	 0.239619557705624 
1274	 0.239617745354982 
1275	 0.239611483814237 
1276	 0.239599183027067 
1277	 0.23959537613042 
1278	 0.239579077110694 
1279	 0.23958982829465 
1280	 0.239631239769842 
1281	 0.239650949895123 
1282	 0.239674349332162 
1283	 0.239696917455217 
1284	 0.239706486909514 
1285	 0.239721133555598 
1286	 0.239734346065947 
1287	 0.239764558438678 
1288	 0.239784302547085 
1289	 0.239797268895341 
1290	 0.23981475647479 
1291	 0.239833557778232 
1292	 0.239855612155532 
1293	 0.239882671581806 
1294	 0.239898670294821 
1295	 0.239917170060347 
1296	 0.239926944043212 
1297	 0.239924437286783 
1298	 0.239923978069103 
1299	 0.239921219666329 
1300	 0.239919128432871 
1301	 0.239914922513578 
1302	 0.239909532569373 
1303	 0.239920284141575 
1304	 0.239896279140469 
1305	 0.23987926751112 
1306	 0.239855203590223 
1307	 0.239789616199915 
1308	 0.239721870850666 
1309	 0.239653019514439 
1310	 0.239570821080478 
1311	 0.23947443119454 
1312	 0.239371806030171 
1313	 0.23927765111354 
1314	 0.239175138584299 
1315	 0.239061758756572 
1316	 0.23896363252475 
1317	 0.238839075668263 
1318	 0.23868006141272 
1319	 0.238530235850861 
1320	 0.238375959241141 
1321	 0.23822478097652 
1322	 0.238074729639159 
1323	 0.237920731510683 
1324	 0.23776527044837 
1325	 0.237588430337148 
1326	 0.237409723650185 
1327	 0.237234050764835 
1328	 0.237005402674702 
1329	 0.236780475359097 
1330	 0.236536838358855 
1331	 0.236248725689114 
1332	 0.235984079699375 
1333	 0.235718005591298 
1334	 0.235469409029355 
1335	 0.235231873599661 
1336	 0.234993604344697 
1337	 0.234777697344625 
1338	 0.234538731920731 
1339	 0.234277743857905 
1340	 0.234030815845038 
1341	 0.233776425418264 
1342	 0.233539791748507 
1343	 0.23332406932727 
1344	 0.233096564213786 
1345	 0.232874837635903 
1346	 0.23265677546103 
1347	 0.232428021637671 
1348	 0.232192359716721 
1349	 0.23193510403734 
1350	 0.231676919435628 
1351	 0.231429325077521 
1352	 0.231175760408309 
1353	 0.230932549314621 
1354	 0.230704789072446 
1355	 0.230465183963724 
1356	 0.230223523330897 
1357	 0.22998153429316 
1358	 0.229736419752826 
1359	 0.229493125781719 
1360	 0.229256085767372 
1361	 0.229000978456432 
1362	 0.228746999775311 
1363	 0.22848073402359 
1364	 0.228203126934047 
1365	 0.227912354027009 
1366	 0.227626145620088 
1367	 0.227295921436118 
1368	 0.226965624649639 
1369	 0.226633399382867 
1370	 0.226233425286081 
1371	 0.225827747626475 
1372	 0.225400582916007 
1373	 0.224889903604902 
1374	 0.224346488356098 
1375	 0.223782831242558 
1376	 0.223142378259937 
1377	 0.222449720308503 
1378	 0.221674767301776 
1379	 0.220832038408931 
1380	 0.219932769868856 
1381	 0.218960831553115 
1382	 0.217924656989251 
1383	 0.216846047125439 
1384	 0.215686856485992 
1385	 0.214469959650849 
1386	 0.213164036515496 
1387	 0.211786183734373 
1388	 0.210337134930007 
1389	 0.208808231035225 
1390	 0.207189608291147 
1391	 0.205532680079411 
1392	 0.203820441899534 
1393	 0.202047052598769 
1394	 0.200256165069454 
1395	 0.198390583029503 
1396	 0.196505296487468 
1397	 0.194647218922215 
1398	 0.192762362695004 
1399	 0.190909893115345 
1400	 0.189081204920508 
1401	 0.187263956025706 
1402	 0.185430278062323 
1403	 0.183668165709361 
1404	 0.181922180789839 
1405	 0.180267909467699 
1406	 0.17867804074207 
1407	 0.177129217652097 
1408	 0.175626899993364 
1409	 0.174197257685667 
1410	 0.172806438669429 
1411	 0.171509818946872 
1412	 0.170287376514977 
1413	 0.169161004014097 
1414	 0.168107414530118 
1415	 0.167087289335782 
1416	 0.166145488909124 
1417	 0.165256187128769 
1418	 0.164406035456435 
1419	 0.163623963706271 
1420	 0.162882741868306 
1421	 0.162184234298546 
1422	 0.161532164343945 
1423	 0.160900983797002 
1424	 0.16030253743322 
1425	 0.159729307074396 
1426	 0.15920530290882 
1427	 0.158720153312758 
1428	 0.158265618708776 
1429	 0.157862176757588 
1430	 0.157468716980262 
1431	 0.1570941625334 
1432	 0.156745742174411 
1433	 0.156423968248016 
1434	 0.156123170562727 
1435	 0.155840801085547 
1436	 0.155593067053045 
1437	 0.155377124328841 
1438	 0.155174520683513 
1439	 0.155002870943605 
1440	 0.1548396421242 
1441	 0.154689648543649 
1442	 0.154560108759425 
1443	 0.154442013341005 
1444	 0.154344118839373 
1445	 0.154257703499307 
1446	 0.15417787736911 
1447	 0.154110826569413 
1448	 0.154049719305633 
1449	 0.153990051981802 
1450	 0.15394747915881 
1451	 0.15392520019324 
1452	 0.153924072581095 
1453	 0.153921974733731 
1454	 0.153928012038942 
1455	 0.153954951289082 
1456	 0.153986895806554 
1457	 0.154039658338244 
1458	 0.154118828023593 
1459	 0.154209865973553 
1460	 0.154293290276943 
1461	 0.154430421411882 
1462	 0.154605755827815 
1463	 0.154797043335519 
1464	 0.155032706749563 
1465	 0.15526685029339 
1466	 0.155498353173777 
1467	 0.155769097176846 
1468	 0.156054771735243 
1469	 0.156377984454127 
1470	 0.156743014923855 
1471	 0.157127629999114 
1472	 0.157530967952462 
1473	 0.157954683436784 
1474	 0.158373666191614 
1475	 0.158817196810335 
1476	 0.159277826056061 
1477	 0.159728223764893 
1478	 0.160206057729071 
1479	 0.160687705049099 
1480	 0.161156250649805 
1481	 0.161654543511605 
1482	 0.162162669430236 
1483	 0.162691032323609 
1484	 0.163197447247496 
1485	 0.163706391141678 
1486	 0.164222478250063 
1487	 0.164722237622646 
1488	 0.165241219904916 
1489	 0.165791349270409 
1490	 0.166319177497006 
1491	 0.166834000017984 
1492	 0.167364697326595 
1493	 0.167902297495183 
1494	 0.168431903662305 
1495	 0.168965579655943 
1496	 0.169493966372985 
1497	 0.170019313184588 
1498	 0.170538681350987 
1499	 0.171063024421576 
1500	 0.171571678617984 
1501	 0.172059360038714 
1502	 0.172550517294052 
1503	 0.17303644341305 
1504	 0.173518210434858 
1505	 0.174011731446769 
1506	 0.174511095165337 
1507	 0.174997124999894 
1508	 0.175479412873885 
1509	 0.175933938848429 
1510	 0.176381113619599 
1511	 0.176844931752522 
1512	 0.17729372847602 
1513	 0.177750974752159 
1514	 0.178220000083096 
1515	 0.178671235102051 
1516	 0.179126342996395 
1517	 0.179579810462836 
1518	 0.180036869435349 
1519	 0.180474929583637 
1520	 0.18090783012002 
1521	 0.181332977055899 
1522	 0.181735694326237 
1523	 0.18215628957564 
1524	 0.182587739287249 
1525	 0.18300027918695 
1526	 0.1834212206903 
1527	 0.183811357215841 
1528	 0.184163382814958 
1529	 0.184539921737301 
1530	 0.184910844116377 
1531	 0.185287659516192 
1532	 0.185691698975357 
1533	 0.186061242858473 
1534	 0.186404136451586 
1535	 0.186758404080822 
1536	 0.187109095209419 
1537	 0.187448667631967 
1538	 0.187785087794947 
1539	 0.18812240069522 
1540	 0.188445848146763 
1541	 0.188774433053221 
1542	 0.18912269017488 
1543	 0.189444197067305 
1544	 0.189744043152969 
1545	 0.190046615627828 
1546	 0.190335293028211 
1547	 0.190631362454072 
1548	 0.19092470103488 
1549	 0.191203591661163 
1550	 0.191476227341471 
1551	 0.191752599734594 
1552	 0.192031342707861 
1553	 0.192317741972773 
1554	 0.192587630426036 
1555	 0.192836532870344 
1556	 0.193093303414063 
1557	 0.193352503139463 
1558	 0.19360942996695 
1559	 0.193864181252057 
1560	 0.194094588483173 
1561	 0.194297030017696 
1562	 0.194514168905767 
1563	 0.19472269846931 
1564	 0.194941847256751 
1565	 0.195175377335741 
1566	 0.195391278487993 
1567	 0.195598436246384 
1568	 0.195804335429042 
1569	 0.196004828445259 
1570	 0.196201208780727 
1571	 0.196392067770916 
1572	 0.196587890195922 
1573	 0.196782126889442 
1574	 0.196977168462736 
1575	 0.197187089014501 
1576	 0.19736929963158 
1577	 0.197536928653906 
1578	 0.19769716096146 
1579	 0.197830786944928 
1580	 0.197982642684354 
1581	 0.198141482670419 
1582	 0.198292954828068 
1583	 0.198454829800768 
1584	 0.198597375395954 
1585	 0.198723494165526 
1586	 0.198851471956061 
1587	 0.198969877088893 
1588	 0.199089558552086 
1589	 0.199205546616083 
1590	 0.199324702610931 
1591	 0.19944218165729 
1592	 0.199564732405505 
1593	 0.199695554847649 
1594	 0.199817775365452 
1595	 0.199940545737468 
1596	 0.200056456958005 
1597	 0.200170247205862 
1598	 0.200275261650397 
1599	 0.200367164230962 
1600	 0.200464458828733 
1601	 0.200560707356071 
1602	 0.200650658591232 
1603	 0.200740499905921 
1604	 0.200827107969718 
1605	 0.200896042303425 
1606	 0.200976961480553 
1607	 0.20105533375801 
1608	 0.201165040552553 
1609	 0.201253458324428 
1610	 0.201329416950055 
1611	 0.201400047978192 
1612	 0.201442744556975 
1613	 0.201493367461062 
1614	 0.201565601291104 
1615	 0.201622971886026 
1616	 0.201680591980266 
1617	 0.201743543678326 
1618	 0.201794055095157 
1619	 0.201852494195275 
1620	 0.201905018999568 
1621	 0.201957571278123 
1622	 0.202007048347798 
1623	 0.202049771175707 
1624	 0.202087614632451 
1625	 0.202135365194152 
1626	 0.202177130230809 
1627	 0.202225099355284 
1628	 0.202291107468844 
1629	 0.202332459477856 
1630	 0.202357524024865 
1631	 0.202398016965686 
1632	 0.202435703130198 
1633	 0.202476010559915 
1634	 0.202527409683848 
1635	 0.202567058880332 
1636	 0.202609391079539 
1637	 0.202622486250429 
1638	 0.202616351733572 
1639	 0.202622902192216 
1640	 0.202610788697082 
1641	 0.202610671323196 
1642	 0.202623890618115 
1643	 0.202633554779613 
1644	 0.202627630910945 
1645	 0.202653759207137 
1646	 0.202713750546809 
1647	 0.202738695827699 
1648	 0.202762924901 
1649	 0.202781574388275 
1650	 0.202776756349269 
1651	 0.202785604870192 
1652	 0.202816168164694 
1653	 0.202811526091892 
1654	 0.202782493389553 
1655	 0.202767817838305 
1656	 0.20273639426463 
1657	 0.202723848288997 
1658	 0.202741686711684 
1659	 0.20271997722164 
1660	 0.20268314615785 
1661	 0.202646610448815 
1662	 0.202583239970135 
1663	 0.202541050689661 
1664	 0.20251185041509 
1665	 0.202476385457788 
1666	 0.202437976244768 
1667	 0.202408672527025 
1668	 0.202384115053319 
1669	 0.202358886307097 
1670	 0.202349386248121 
1671	 0.202315956532702 
1672	 0.202267510303651 
1673	 0.202224475474745 
1674	 0.202172463003111 
1675	 0.20212078171638 
1676	 0.202065934746586 
1677	 0.20202255699793 
1678	 0.201979164988733 
1679	 0.201940172838719 
1680	 0.2019262248609 
1681	 0.201880201633636 
1682	 0.201811729609862 
1683	 0.20175548756603 
1684	 0.2016858153583 
1685	 0.201631323072102 
1686	 0.201597203026442 
1687	 0.201544192651088 
1688	 0.201485390422962 
1689	 0.20142489529243 
1690	 0.201365374247051 
1691	 0.201287030099105 
1692	 0.201190809195412 
1693	 0.201109953248689 
1694	 0.201019198389696 
1695	 0.200935860720473 
1696	 0.200873736859102 
1697	 0.200793960373798 
1698	 0.200698130471587 
1699	 0.200613568315937 
1700	 0.20053556882977 
1701	 0.200447118290536 
1702	 0.200360364115243 
1703	 0.20026269132317 
1704	 0.200158561842849 
1705	 0.200042267946984 
1706	 0.199908977653788 
1707	 0.199788389188512 
1708	 0.199665934605939 
1709	 0.199538071264228 
1710	 0.19941330291705 
1711	 0.199287928096406 
1712	 0.19914993959202 
1713	 0.199023965285075 
1714	 0.1989103311606 
1715	 0.198791215408438 
1716	 0.19868080973408 
1717	 0.198544721158109 
1718	 0.198390344829651 
1719	 0.198255766465703 
1720	 0.198115575181894 
1721	 0.197972819623156 
1722	 0.197850239108944 
1723	 0.197699827409807 
1724	 0.197520652068055 
1725	 0.197362379000305 
1726	 0.197209043414611 
1727	 0.197045118401617 
1728	 0.196882356044887 
1729	 0.196709869488586 
1730	 0.196535927889944 
1731	 0.19634166944584 
1732	 0.196127850251321 
1733	 0.19593518891711 
1734	 0.195740519875066 
1735	 0.195527035817055 
1736	 0.195319942809638 
1737	 0.195102853164091 
1738	 0.194848405487886 
1739	 0.194638767638295 
1740	 0.194464990929797 
1741	 0.194259718050265 
1742	 0.19405682067146 
1743	 0.193838602430425 
1744	 0.193597778368759 
1745	 0.193367620486798 
1746	 0.193138224384352 
1747	 0.192877723769988 
1748	 0.192662121213476 
1749	 0.192465746442249 
1750	 0.192232086746036 
1751	 0.19200943275227 
1752	 0.191781144367344 
1753	 0.191513460229602 
1754	 0.191264163786834 
1755	 0.191057940655458 
1756	 0.190815710922956 
1757	 0.190533143011484 
1758	 0.190267871370399 
1759	 0.189998745779901 
1760	 0.189743831511187 
1761	 0.189549348927028 
1762	 0.189378239082235 
1763	 0.189166988116465 
1764	 0.188934893708277 
1765	 0.188685768609834 
1766	 0.188398303620814 
1767	 0.188133568206913 
1768	 0.187892894036333 
1769	 0.187663392979159 
1770	 0.187470791432191 
1771	 0.187280113087681 
1772	 0.187089225095362 
1773	 0.186908130757351 
1774	 0.186727327977513 
1775	 0.186544376229391 
1776	 0.186343866397779 
1777	 0.186160435055509 
1778	 0.185987531204678 
1779	 0.185816439994104 
1780	 0.185677562425077 
1781	 0.185522954734226 
1782	 0.18536849530466 
1783	 0.185277289464929 
1784	 0.185161025118228 
1785	 0.185050298982409 
1786	 0.184938501024544 
1787	 0.184797635519719 
1788	 0.184694554272917 
1789	 0.184634333318435 
1790	 0.184553428182602 
1791	 0.18446865696301 
1792	 0.184386030098402 
1793	 0.18428825693066 
1794	 0.184210149711451 
1795	 0.184142364056872 
1796	 0.184101355984479 
1797	 0.184093885278142 
1798	 0.184059426236053 
1799	 0.184036995357202 
1800	 0.18400625762538 
1801	 0.182581719874438 
1802	 0.182706524542907 
1803	 0.182794729320997 
1804	 0.182858117134355 
1805	 0.182923127193705 
1806	 0.182971222441445 
1807	 0.183007652461361 
1808	 0.183025135752853 
1809	 0.18304973016111 
1810	 0.183047529911044 
1811	 0.183010577792286 
1812	 0.182965254260235 
1813	 0.182938073756259 
1814	 0.18289382711928 
1815	 0.182846063874273 
1816	 0.182804899119824 
1817	 0.182766421147892 
1818	 0.182736648332446 
1819	 0.182692437018637 
1820	 0.182630819190897 
1821	 0.182603227943734 
1822	 0.182595461075835 
1823	 0.182554505904692 
1824	 0.182534708485767 
1825	 0.182493691041221 
1826	 0.182404817809391 
1827	 0.182325388936545 
1828	 0.182232110332633 
1829	 0.18213323823865 
1830	 0.182013386505428 
1831	 0.181879485306869 
1832	 0.181734715033088 
1833	 0.18156261009821 
1834	 0.181388701440488 
1835	 0.181217767198031 
1836	 0.181030091122039 
1837	 0.180840451729053 
1838	 0.18065968278768 
1839	 0.180452732953287 
1840	 0.18023278748841 
1841	 0.179981927335955 
1842	 0.179734218808286 
1843	 0.179469384242269 
1844	 0.179178492927686 
1845	 0.17890176609922 
1846	 0.178614385147474 
1847	 0.178279862624769 
1848	 0.177904104792902 
1849	 0.177487918418953 
1850	 0.177043355323647 
1851	 0.176554763844895 
1852	 0.176032498652242 
1853	 0.175511353574471 
1854	 0.174966383565025 
1855	 0.174372156700227 
1856	 0.173754523735492 
1857	 0.173047696504556 
1858	 0.172265279028821 
1859	 0.171435573553956 
1860	 0.170535324375094 
1861	 0.169559223002441 
1862	 0.168536069046964 
1863	 0.167449151080269 
1864	 0.166286195338607 
1865	 0.165050694877001 
1866	 0.163714507774924 
1867	 0.162286062329082 
1868	 0.160780763190481 
1869	 0.159154481190003 
1870	 0.157428540277335 
1871	 0.155610261988571 
1872	 0.153708814669747 
1873	 0.151691659083543 
1874	 0.149616134148708 
1875	 0.147425945556691 
1876	 0.145139932991501 
1877	 0.142784503394958 
1878	 0.140275664190034 
1879	 0.137691523816377 
1880	 0.135015572951839 
1881	 0.132189729639333 
1882	 0.129349027564617 
1883	 0.126444253646145 
1884	 0.123430272031575 
1885	 0.120424206447528 
1886	 0.117423371891702 
1887	 0.114328938709664 
1888	 0.111261505216961 
1889	 0.108190309225089 
1890	 0.105117011269271 
1891	 0.102150870104841 
1892	 9.92065759857521E-02 
1893	 9.63950143150653E-02 
1894	 9.36716988787885E-02 
1895	 9.10479240420707E-02 
1896	 8.84926331573193E-02 
1897	 8.61040739891881E-02 
1898	 8.37975353337658E-02 
1899	 8.16143753790733E-02 
1900	 0.07961792453964 
1901	 7.77349601590024E-02 
1902	 7.59749996800604E-02 
1903	 7.43767160572842E-02 
1904	 7.28705913611274E-02 
1905	 7.14718826843264E-02 
1906	 7.01970664548952E-02 
1907	 6.90281490889483E-02 
1908	 6.79559134411064E-02 
1909	 0.066983764317617 
1910	 6.60746238375498E-02 
1911	 6.52472977481535E-02 
1912	 6.44845794547379E-02 
1913	 6.37810642777483E-02 
1914	 0.063152142575009 
1915	 6.25600259771133E-02 
1916	 6.20242640352486E-02 
1917	 6.15327658684138E-02 
1918	 6.10927811141802E-02 
1919	 0.060695470097271 
1920	 6.03414692442951E-02 
1921	 6.00258968664251E-02 
1922	 5.97397028154718E-02 
1923	 5.94832691788717E-02 
1924	 5.92683273080361E-02 
1925	 5.91030287611902E-02 
1926	 5.89575576782504E-02 
1927	 5.88452122004082E-02 
1928	 5.87564917437173E-02 
1929	 0.05870093181111 
1930	 5.86769553371732E-02 
1931	 5.86685051461199E-02 
1932	 5.86787270747718E-02 
1933	 5.87216751032056E-02 
1934	 5.87744071453025E-02 
1935	 5.88465398408794E-02 
1936	 5.89515401250238E-02 
1937	 5.90653024260969E-02 
1938	 5.91761760172503E-02 
1939	 5.93254630365208E-02 
1940	 5.95037521531286E-02 
1941	 5.97019426864741E-02 
1942	 5.99229706283843E-02 
1943	 6.01455074776919E-02 
1944	 6.03885386176621E-02 
1945	 6.06502087362834E-02 
1946	 6.09182733793109E-02 
1947	 6.12046335935511E-02 
1948	 6.14982301629154E-02 
1949	 6.17895450259473E-02 
1950	 6.21058805931746E-02 
1951	 6.24481271303545E-02 
1952	 6.27852749113242E-02 
1953	 6.31287949873809E-02 
1954	 6.35099899856196E-02 
1955	 6.38805724495561E-02 
1956	 6.42716503790407E-02 
1957	 6.46717948724055E-02 
1958	 0.065089914847457 
1959	 6.55033190858617E-02 
1960	 6.59322140205256E-02 
1961	 0.066347199076641 
1962	 6.67495596831734E-02 
1963	 6.71793337440531E-02 
1964	 6.76077625453406E-02 
1965	 6.80501017339957E-02 
1966	 6.85329852880272E-02 
1967	 6.90074146121414E-02 
1968	 6.94862562473204E-02 
1969	 6.99730213746221E-02 
1970	 7.04592304075493E-02 
1971	 7.09463223158479E-02 
1972	 0.071436798156578 
1973	 7.19333423124698E-02 
1974	 7.24297999029202E-02 
1975	 7.29208040844146E-02 
1976	 7.34226221666499E-02 
1977	 7.39525307925857E-02 
1978	 7.44726482869973E-02 
1979	 7.49953244570952E-02 
1980	 7.55359712211391E-02 
1981	 0.076072680786872 
1982	 7.66036664718988E-02 
1983	 7.71392540085307E-02 
1984	 7.76869763206602E-02 
1985	 0.078229477914051 
1986	 0.078756675762055 
1987	 7.93011249881934E-02 
1988	 7.98627059806351E-02 
1989	 8.04204650982796E-02 
1990	 8.09596874111202E-02 
1991	 8.15158701490396E-02 
1992	 8.20611479479226E-02 
1993	 8.25850690744956E-02 
1994	 8.31340446610547E-02 
1995	 8.37009105827613E-02 
1996	 8.42550317956191E-02 
1997	 8.48089413255953E-02 
1998	 8.53700069583237E-02 
1999	 8.59291276706338E-02 
2000	 8.64910629254563E-02 
2001	 8.70656537440472E-02 
2002	 8.76385377859482E-02 
2003	 8.81935777004722E-02 
2004	 8.87350069583809E-02 
2005	 8.92765574228159E-02 
2006	 8.97999242584804E-02 
2007	 0.09033971955996 
2008	 9.08846332117598E-02 
2009	 9.14288360590204E-02 
2010	 9.19817945750115E-02 
2011	 9.25276784568195E-02 
2012	 9.30732383073068E-02 
2013	 9.36149885347169E-02 
2014	 9.41643476464801E-02 
2015	 9.46931967134372E-02 
2016	 9.52097702556589E-02 
2017	 9.57041351171871E-02 
2018	 9.62123898029057E-02 
2019	 0.096706752563926 
2020	 9.72174102235743E-02 
2021	 9.77432322218472E-02 
2022	 9.82632197073864E-02 
2023	 9.87899545866336E-02 
2024	 9.93028170933074E-02 
2025	 9.98046571181558E-02 
2026	 0.100314369772896 
2027	 0.100808250502675 
2028	 0.101321374189966 
2029	 0.10184589243562 
2030	 0.102398692823303 
2031	 0.102909240167212 
2032	 0.103421970138204 
2033	 0.103910018029469 
2034	 0.104341040804554 
2035	 0.104826953763928 
2036	 0.105345942936819 
2037	 0.105833784571147 
2038	 0.106335798471192 
2039	 0.106819224652697 
2040	 0.107285794178507 
2041	 0.107723085016296 
2042	 0.108156729461338 
2043	 0.108612137559326 
2044	 0.109062811654139 
2045	 0.109502916802273 
2046	 0.109952817227953 
2047	 0.110427291943163 
2048	 0.110874005917904 
2049	 0.111294459555863 
2050	 0.111745217831437 
2051	 0.112202770985463 
2052	 0.112652368417956 
2053	 0.113120213689326 
2054	 0.113576240650648 
2055	 0.114017485865354 
2056	 0.114460494647444 
2057	 0.114896224631074 
2058	 0.115332070401994 
2059	 0.115765267841692 
2060	 0.116188262133821 
2061	 0.116616721855935 
2062	 0.117049474147839 
2063	 0.117476103367136 
2064	 0.117907519501572 
2065	 0.118321547028969 
2066	 0.118721603059875 
2067	 0.119128510803285 
2068	 0.119534418506737 
2069	 0.119919993461166 
2070	 0.120321761869244 
2071	 0.120733128081047 
2072	 0.1211354501712 
2073	 0.121528606598173 
2074	 0.12194050350074 
2075	 0.122374395695588 
2076	 0.122776677974874 
2077	 0.123174708303683 
2078	 0.123567078968941 
2079	 0.123930150768228 
2080	 0.12430696873697 
2081	 0.12468608943339 
2082	 0.125074914436513 
2083	 0.125476709852699 
2084	 0.125873880960433 
2085	 0.126245417297469 
2086	 0.126608397686927 
2087	 0.126984237026075 
2088	 0.127334951141021 
2089	 0.127708319974784 
2090	 0.128126855801573 
2091	 0.128495569116666 
2092	 0.128823342537435 
2093	 0.129183389658261 
2094	 0.129550895239392 
2095	 0.129901966150697 
2096	 0.130257196856936 
2097	 0.130615690324058 
2098	 0.130951896433901 
2099	 0.131303407530101 
2100	 0.131650822316908 
2101	 0.132017500802967 
2102	 0.132364248314957 
2103	 0.132691230140443 
2104	 0.133032743794337 
2105	 0.133387292840426 
2106	 0.13372095051186 
2107	 0.134041255490927 
2108	 0.13437353889379 
2109	 0.134695741782991 
2110	 0.135026458505235 
2111	 0.135370332906154 
2112	 0.135712705632352 
2113	 0.136053007231086 
2114	 0.136404524195643 
2115	 0.136733036927118 
2116	 0.137065928300678 
2117	 0.137372311831612 
2118	 0.137650403888554 
2119	 0.137936784155884 
2120	 0.138209726000348 
2121	 0.138491892919309 
2122	 0.138778118879036 
2123	 0.139057150395811 
2124	 0.139337203869369 
2125	 0.139612517910659 
2126	 0.139886234087381 
2127	 0.140148570305305 
2128	 0.140407641169851 
2129	 0.140656624079352 
2130	 0.140888800390119 
2131	 0.141123679461417 
2132	 0.14134366610833 
2133	 0.141557154559112 
2134	 0.141757459518491 
2135	 0.141941909969069 
2136	 0.14212633202557 
2137	 0.142307800607151 
2138	 0.14247298567168 
2139	 0.142627802498733 
2140	 0.142777129624562 
2141	 0.142903909529765 
2142	 0.143041084364882 
2143	 0.143180272736862 
2144	 0.143316415972231 
2145	 0.143476260006505 
2146	 0.143597479567128 
2147	 0.14368550713273 
2148	 0.143788956194715 
2149	 0.143862415214537 
2150	 0.143899115149892 
2151	 0.143947473525991 
2152	 0.143986077973666 
2153	 0.144034535424646 
2154	 0.144077908622599 
2155	 0.144128567123773 
2156	 0.144210607855993 
2157	 0.144249222233842 
2158	 0.144268549111556 
2159	 0.14428105433823 
2160	 0.144262962132289 
2161	 0.14424925621291 
2162	 0.144217954892596 
2163	 0.144208206475191 
2164	 0.144204181903177 
2165	 0.14421249793146 
2166	 0.14420570582981 
2167	 0.144215550343381 
2168	 0.144200747995941 
2169	 0.144162010831469 
2170	 0.144130685387891 
2171	 0.144095612496766 
2172	 0.144063567723851 
2173	 0.144020416555922 
2174	 0.143992639861374 
2175	 0.143994298336416 
2176	 0.143958011454798 
2177	 0.14390866112771 
2178	 0.143857841454262 
2179	 0.14378244621359 
2180	 0.143709878968812 
2181	 0.143636017215287 
2182	 0.143568052107469 
2183	 0.143493773377913 
2184	 0.14341850747807 
2185	 0.143362176756876 
2186	 0.143323140468524 
2187	 0.143277636557579 
2188	 0.143244507791111 
2189	 0.143194521378806 
2190	 0.143135167236053 
2191	 0.143084258689562 
2192	 0.143036037548344 
2193	 0.142976422071996 
2194	 0.142910341466367 
2195	 0.142851707809016 
2196	 0.142777338514371 
2197	 0.142721591924947 
2198	 0.142682659812734 
2199	 0.142646404831975 
2200	 0.142617664162839 
2201	 0.142591082802135 
2202	 0.142571428993062 
2203	 0.142565447226503 
2204	 0.142529003061767 
2205	 0.142472920738917 
2206	 0.142445757063499 
2207	 0.142402444011826 
2208	 0.142393406893094 
2209	 0.14242560686435 
2210	 0.142438473825997 
2211	 0.142466188131323 
2212	 0.142467833087872 
2213	 0.142448641400413 
2214	 0.142447825050421 
2215	 0.142437983222648 
2216	 0.142435476791566 
2217	 0.142457723967659 
2218	 0.142461416068459 
2219	 0.142447133032645 
2220	 0.142445152704403 
2221	 0.142460634366153 
2222	 0.142448988095447 
2223	 0.142443110415684 
2224	 0.142405473882422 
2225	 0.142370191124181 
2226	 0.14231805158775 
2227	 0.142263713425973 
2228	 0.142201343054098 
2229	 0.142147884697781 
2230	 0.142070508696156 
2231	 0.142029726392701 
2232	 0.142033808830768 
2233	 0.141990642320994 
2234	 0.141958248943376 
2235	 0.141888702782378 
2236	 0.141755919645099 
2237	 0.141667030146019 
2238	 0.1415802381735 
2239	 0.141496652849758 
2240	 0.141428308113805 
2241	 0.141359141344229 
2242	 0.14130325892997 
2243	 0.14122586031236 
2244	 0.14114374448559 
2245	 0.141067474252578 
2246	 0.140942029588144 
2247	 0.140805520492655 
2248	 0.140669495314943 
2249	 0.140503738227401 
2250	 0.140395664590319 
2251	 0.140313214161112 
2252	 0.140211648262832 
2253	 0.140149776853546 
2254	 0.140033454687785 
2255	 0.139874139259988 
2256	 0.139731836870272 
2257	 0.139558445026215 
2258	 0.139435046406361 
2259	 0.13933252766786 
2260	 0.139238532181793 
2261	 0.139193519535248 
2262	 0.139111159269383 
2263	 0.139028753366389 
2264	 0.138919125536854 
2265	 0.138757131771213 
2266	 0.138633581952855 
2267	 0.138511128385018 
2268	 0.13840087754567 
2269	 0.138307262801228 
2270	 0.138248370391956 
2271	 0.138173322985765 
2272	 0.138070593892496 
2273	 0.137939505662165 
2274	 0.137777582091533 
2275	 0.137617163286987 
2276	 0.137402921873046 
2277	 0.137251875513076 
2278	 0.137146023419491 
2279	 0.136997435623866 
2280	 0.136846405854082 
2281	 0.136699446210943 
2282	 0.136532834936167 
2283	 0.136376364917877 
2284	 0.136255857629722 
2285	 0.136086093105483 
2286	 0.135854704825761 
2287	 0.135680183693522 
2288	 0.135512978749102 
2289	 0.135358131650521 
2290	 0.135254807397049 
2291	 0.135118593623047 
2292	 0.134982876947145 
2293	 0.134814580667693 
2294	 0.134605705406389 
2295	 0.134422426170326 
2296	 0.134255216078261 
2297	 0.134026242083523 
2298	 0.133833828306371 
2299	 0.13363273302823 
2300	 0.133334623014576 
2301	 0.133119393109413 
2302	 0.132919030060271 
2303	 0.132696482071909 
2304	 0.132531261508871 
2305	 0.132322173222306 
2306	 0.132095957767327 
2307	 0.131828323052082 
2308	 0.131605593013158 
2309	 0.13138735893275 
2310	 0.131159565534799 
2311	 0.130959302897304 
2312	 0.130728941523357 
2313	 0.130456670007972 
2314	 0.130218416496518 
2315	 0.130002622948614 
2316	 0.129756681100185 
2317	 0.129511050160571 
2318	 0.129259295884468 
2319	 0.128969245423004 
2320	 0.128709083537817 
2321	 0.128481239724279 
2322	 0.128216095147468 
2323	 0.127949658796068 
2324	 0.127670111367749 
2325	 0.127341307714943 
2326	 0.127060620438092 
2327	 0.126812290906311 
2328	 0.126523263134134 
2329	 0.126310735490393 
2330	 0.126075555331669 
2331	 0.125767208913107 
2332	 0.125552856385096 
2333	 0.125317237967741 
2334	 0.125030596772481 
2335	 0.124841134094955 
2336	 0.124604022104636 
2337	 0.124345976329863 
2338	 0.124119211688726 
2339	 0.123839298581009 
2340	 0.123548628698823 
2341	 0.123257348147113 
2342	 0.122969801135196 
2343	 0.122653006185798 
2344	 0.122300958434983 
2345	 0.121980475963755 
2346	 0.121638966401006 
2347	 0.121333759606606 
2348	 0.121108371080119 
2349	 0.120780887357213 
2350	 0.12039623804859 
2351	 0.120051863348921 
2352	 0.119645488739171 
2353	 0.119325711155942 
2354	 0.119128281259076 
2355	 0.118806719618316 
2356	 0.118425527733751 
2357	 0.118082619037268 
2358	 0.117709374182326 
2359	 0.117335249889629 
2360	 0.116983930728017 
2361	 0.116637764179241 
2362	 0.116281821675982 
2363	 0.115907567967695 
2364	 0.115547499201095 
2365	 0.115187822024139 
2366	 0.114764845378038 
2367	 0.114390691202298 
2368	 0.114087967674343 
2369	 0.113743673181465 
2370	 0.113378088662825 
2371	 0.11304493954322 
2372	 0.112697357677918 
2373	 0.112361719295758 
2374	 0.112053442894452 
2375	 0.111690702732751 
2376	 0.11136389082633 
2377	 0.111018957961995 
2378	 0.110634955144357 
2379	 0.1103287567038 
2380	 0.109982216449222 
2381	 0.109596975703592 
2382	 0.109229419915412 
2383	 0.108817162955294 
2384	 0.108360503357642 
2385	 0.107921629493383 
2386	 0.107541243449139 
2387	 0.1072088227897 
2388	 0.106917704261238 
2389	 0.106577135295647 
2390	 0.10612662305712 
2391	 0.105704376869796 
2392	 0.105307055457259 
2393	 0.104877306283308 
2394	 0.104529268137205 
2395	 0.10415085581382 
2396	 0.103702312613152 
2397	 0.103296131218052 
2398	 0.102833589831494 
2399	 0.102386824751162 
2400	 0.102015417736967 
2401	 0.101612469871935 
2402	 0.101281538974945 
2403	 0.100999566635744 
2404	 0.100611390039093 
2405	 0.100238428019366 
2406	 9.99333020975147E-02 
2407	 9.95678425336697E-02 
2408	 0.099200102683712 
2409	 9.88287478456928E-02 
2410	 9.83644559405351E-02 
2411	 9.78900990424499E-02 
2412	 9.74252905126585E-02 
2413	 9.70052265962536E-02 
2414	 9.67105769528575E-02 
2415	 9.64203939386138E-02 
2416	 9.60439284811826E-02 
2417	 9.56514815374856E-02 
2418	 9.52016472050242E-02 
2419	 9.46103369931856E-02 
2420	 9.41664803007677E-02 
2421	 9.37860475815799E-02 
2422	 9.34416047307385E-02 
2423	 9.31505301682285E-02 
2424	 0.092862045255866 
2425	 9.26454333870289E-02 
2426	 9.23153512805598E-02 
2427	 9.20046026148909E-02 
2428	 9.15507750979411E-02 
2429	 9.09043623681971E-02 
2430	 9.03988594912288E-02 
2431	 8.98181755710534E-02 
2432	 8.93508992470837E-02 
2433	 0.089065821820995 
2434	 8.86799352556471E-02 
2435	 8.82779992510151E-02 
2436	 8.79329185832662E-02 
2437	 8.75740850108853E-02 
2438	 0.087182994748036 
2439	 8.68319909484677E-02 
2440	 8.65099901172294E-02 
2441	 8.61693770761055E-02 
2442	 8.57751220854905E-02 
2443	 8.54333913054083E-02 
2444	 8.49802025330544E-02 
2445	 8.44191560295378E-02 
2446	 8.39438303571885E-02 
2447	 8.33983951223922E-02 
2448	 8.29625359339783E-02 
2449	 8.26004586372236E-02 
2450	 8.22211146662558E-02 
2451	 8.19247561965962E-02 
2452	 8.15884188627002E-02 
2453	 8.12218140794325E-02 
2454	 8.08368656457872E-02 
2455	 0.080433884037239 
2456	 8.00501631271337E-02 
2457	 7.96991395464393E-02 
2458	 7.93363481577029E-02 
2459	 0.078974513701886 
2460	 7.86494356700445E-02 
2461	 7.83023715004462E-02 
2462	 7.78199292185074E-02 
2463	 7.73426276093816E-02 
2464	 0.076880885618111 
2465	 7.63087114765992E-02 
2466	 7.58954331605865E-02 
2467	 7.55189284491389E-02 
2468	 7.52638897078795E-02 
2469	 0.075158882043844 
2470	 7.50287142039925E-02 
2471	 7.47642789743587E-02 
2472	 7.41923843240627E-02 
2473	 7.36484915717124E-02 
2474	 7.32055394041345E-02 
2475	 7.28459354976972E-02 
2476	 7.26037945469899E-02 
2477	 7.23992894231515E-02 
2478	 7.21390514400061E-02 
2479	 7.18143084107639E-02 
2480	 7.14476430317808E-02 
2481	 7.11407515370041E-02 
2482	 7.08825295512545E-02 
2483	 7.04277990752025E-02 
2484	 6.97846308462848E-02 
2485	 6.93180812901633E-02 
2486	 6.91238254652617E-02 
2487	 6.90763124311575E-02 
2488	 6.91385037178322E-02 
2489	 6.91058902856733E-02 
2490	 6.88086341942191E-02 
2491	 6.85534585561354E-02 
2492	 0.068512604326831 
2493	 6.83292217524173E-02 
2494	 0.067896515963675 
2495	 6.74141021746578E-02 
2496	 6.70844237608656E-02 
2497	 6.68512837699443E-02 
2498	 6.68002746296581E-02 
2499	 6.68414973157393E-02 
2500	 6.67501627008657E-02 
