Wavelength	mm1200000.asd
350	 3.84654252577178E-02 
351	 0.035265727526739 
352	 2.75074534522299E-02 
353	 2.35886400848786E-02 
354	 2.61260734402094E-02 
355	 3.04962307368583E-02 
356	 3.45478792712757E-02 
357	 3.76293981283725E-02 
358	 4.18335312762639E-02 
359	 3.72921039291886E-02 
360	 2.83575545018951E-02 
361	 2.72269233931562E-02 
362	 2.30537597174335E-02 
363	 2.42272352739167E-02 
364	 3.13173503841129E-02 
365	 2.96018628520655E-02 
366	 2.83817144652455E-02 
367	 2.79489917309981E-02 
368	 2.73586048732178E-02 
369	 3.10646681468143E-02 
370	 0.032171156993979 
371	 3.01590937758868E-02 
372	 2.90996143660058E-02 
373	 2.94787974360118E-02 
374	 3.12969986601393E-02 
375	 3.37871482946559E-02 
376	 3.54106142042858E-02 
377	 3.18837310520787E-02 
378	 0.030379274598921 
379	 3.70894622412508E-02 
380	 3.95292534735961E-02 
381	 3.63468927509924E-02 
382	 3.30595601363308E-02 
383	 0.038484234352594 
384	 3.98555688857309E-02 
385	 3.91803952092711E-02 
386	 3.94017255625847E-02 
387	 4.08440152504747E-02 
388	 4.46114920828362E-02 
389	 4.59391162890828E-02 
390	 4.14376811537262E-02 
391	 4.29246828157134E-02 
392	 4.51008798419491E-02 
393	 4.64253332786651E-02 
394	 4.90035677069187E-02 
395	 5.04406142239913E-02 
396	 5.06123950800953E-02 
397	 5.07212415963666E-02 
398	 5.45003575535241E-02 
399	 5.43503488996155E-02 
400	 5.37483926730587E-02 
401	 5.80396820377646E-02 
402	 0.058484382275642 
403	 5.83020280833185E-02 
404	 5.88953143377755E-02 
405	 0.059127869271459 
406	 6.11931233895462E-02 
407	 6.31774793584935E-02 
408	 6.34255398147048E-02 
409	 6.26750220357203E-02 
410	 6.31589356707462E-02 
411	 6.45065563719249E-02 
412	 6.52430022911216E-02 
413	 6.61194751807075E-02 
414	 6.63463771371146E-02 
415	 6.60376706141263E-02 
416	 6.65842797050897E-02 
417	 6.66698379205144E-02 
418	 6.64254296914906E-02 
419	 0.066275932240322 
420	 6.63303606058774E-02 
421	 6.67093553215835E-02 
422	 6.72979557213865E-02 
423	 6.77964662692423E-02 
424	 6.76490153026155E-02 
425	 6.73605339330782E-02 
426	 6.71884043559846E-02 
427	 6.67169722201278E-02 
428	 6.57587033819234E-02 
429	 6.51192373268383E-02 
430	 6.54995099622896E-02 
431	 0.065439186957753 
432	 6.53886880996045E-02 
433	 6.55385087243733E-02 
434	 6.57367608475483E-02 
435	 6.60301854233576E-02 
436	 6.59829792301615E-02 
437	 6.55430564258916E-02 
438	 6.58733822715799E-02 
439	 6.62013796343108E-02 
440	 6.65113869300408E-02 
441	 0.067105758088831 
442	 6.76497665641703E-02 
443	 6.81130627834315E-02 
444	 6.85257156824993E-02 
445	 6.89415574170246E-02 
446	 6.96540491633969E-02 
447	 7.01926401896759E-02 
448	 7.01354927811857E-02 
449	 7.01757284938407E-02 
450	 7.04957797611654E-02 
451	 7.11674767334322E-02 
452	 0.072130029145517 
453	 7.24979150054164E-02 
454	 7.24954732536291E-02 
455	 7.25058443091637E-02 
456	 7.27574626503231E-02 
457	 7.30261487561421E-02 
458	 7.32690742662069E-02 
459	 7.35160095808537E-02 
460	 7.37103663934736E-02 
461	 7.38541706962388E-02 
462	 7.39883434581143E-02 
463	 7.41999243853992E-02 
464	 7.43579687861415E-02 
465	 7.44379960324465E-02 
466	 0.074474834013192 
467	 7.46001899309324E-02 
468	 0.074703744672564 
469	 7.47933337054676E-02 
470	 7.49625786888623E-02 
471	 7.50244267439179E-02 
472	 7.50001172655618E-02 
473	 7.49646396765117E-02 
474	 7.50106177561153E-02 
475	 7.52635076649955E-02 
476	 7.54588516291165E-02 
477	 7.52685459587018E-02 
478	 7.52515141468042E-02 
479	 7.54106199565233E-02 
480	 7.56387682774709E-02 
481	 7.57610722201464E-02 
482	 7.57024546116496E-02 
483	 7.55887967488477E-02 
484	 7.55841297681542E-02 
485	 0.075770094515498 
486	 0.075689227223598 
487	 0.075487063673533 
488	 7.57626414475231E-02 
489	 7.57897321556018E-02 
490	 7.57851945244097E-02 
491	 7.59252857125318E-02 
492	 0.075865724031022 
493	 0.075836604075418 
494	 7.58736671214423E-02 
495	 0.075928366876351 
496	 7.60781800894133E-02 
497	 7.59665201793056E-02 
498	 7.56605048518016E-02 
499	 7.59117295202005E-02 
500	 0.075976098635622 
501	 7.59495765302336E-02 
502	 7.60695275987928E-02 
503	 0.076056659737235 
504	 7.60309665940011E-02 
505	 7.60109911506425E-02 
506	 7.59211760867123E-02 
507	 7.59712796234181E-02 
508	 7.61526018914308E-02 
509	 7.63242768180969E-02 
510	 7.60862870421502E-02 
511	 7.60065103061365E-02 
512	 7.60785018791491E-02 
513	 7.60224924143517E-02 
514	 7.61392920553254E-02 
515	 7.61497284973284E-02 
516	 7.60208864707083E-02 
517	 7.62650814071713E-02 
518	 7.62598261834099E-02 
519	 7.61537384248732E-02 
520	 7.62568784722385E-02 
521	 7.63094693952745E-02 
522	 7.63224088034161E-02 
523	 7.63346509708518E-02 
524	 7.63967065106324E-02 
525	 7.63878923821612E-02 
526	 7.63700029239602E-02 
527	 0.076400440720439 
528	 7.63905593155765E-02 
529	 7.63398660538267E-02 
530	 7.63292048063634E-02 
531	 7.64653772806981E-02 
532	 7.64819023407445E-02 
533	 0.076529799271379 
534	 7.66842356011078E-02 
535	 7.67404383412015E-02 
536	 7.67692300087953E-02 
537	 7.67705695725994E-02 
538	 7.67355055067216E-02 
539	 7.67420669710951E-02 
540	 7.67744473914967E-02 
541	 7.68572721421999E-02 
542	 7.70856872139351E-02 
543	 7.71401354270123E-02 
544	 0.077174731758069 
545	 7.73780176450275E-02 
546	 7.75180593442441E-02 
547	 7.76111382912291E-02 
548	 7.77224211761774E-02 
549	 7.79420745420364E-02 
550	 7.81149747567288E-02 
551	 7.82705785846708E-02 
552	 7.84592962636113E-02 
553	 7.87053861833848E-02 
554	 7.88592848248361E-02 
555	 7.90186179014991E-02 
556	 7.93707453251229E-02 
557	 7.96186185650908E-02 
558	 7.98643262891438E-02 
559	 8.01976777549687E-02 
560	 8.06142921921442E-02 
561	 8.09965922409036E-02 
562	 8.14215747785042E-02 
563	 8.19799618436005E-02 
564	 8.24369284360282E-02 
565	 8.28729210992603E-02 
566	 8.33827790857211E-02 
567	 0.084051431119828 
568	 8.47278345387927E-02 
569	 0.085386548219373 
570	 0.086038072132909 
571	 8.66891060827547E-02 
572	 0.087418517640027 
573	 8.82277680660404E-02 
574	 8.90575511589785E-02 
575	 8.98428390207224E-02 
576	 9.06986009083482E-02 
577	 0.091657501253045 
578	 9.24902608081328E-02 
579	 9.34474276513863E-02 
580	 9.45274298709755E-02 
581	 9.56249679675411E-02 
582	 9.67335965604109E-02 
583	 9.78326522561074E-02 
584	 0.098898394386684 
585	 9.99029727428089E-02 
586	 0.101016441207209 
587	 0.102170582137334 
588	 0.103276761863463 
589	 0.104507263047489 
590	 0.105730182640311 
591	 0.106907491058544 
592	 0.108096797144392 
593	 0.10921834202509 
594	 0.11032666956977 
595	 0.111447849122388 
596	 0.112448183259171 
597	 0.113544979696875 
598	 0.114685865089863 
599	 0.115703845257512 
600	 0.116822551478467 
601	 0.117854711271806 
602	 0.118727459758755 
603	 0.119656646988613 
604	 0.120589505222753 
605	 0.121482518395145 
606	 0.122306505163046 
607	 0.123129678352968 
608	 0.123905638412554 
609	 0.12462714065492 
610	 0.125339723708626 
611	 0.126044924187083 
612	 0.126717790667318 
613	 0.1273222159997 
614	 0.127809269644052 
615	 0.128309468733493 
616	 0.128839732316248 
617	 0.129329281621257 
618	 0.129732333320838 
619	 0.130123155254699 
620	 0.13054214849037 
621	 0.130913947430788 
622	 0.131274159695972 
623	 0.131611057311464 
624	 0.131904313732408 
625	 0.132191529138769 
626	 0.132479255079856 
627	 0.132777154269827 
628	 0.133103432222846 
629	 0.133340629616067 
630	 0.133564158627362 
631	 0.133850413992047 
632	 0.134047389963564 
633	 0.1342711215154 
634	 0.134539789826896 
635	 0.134789924009539 
636	 0.135062376259385 
637	 0.135320101622905 
638	 0.135541680833849 
639	 0.135773646971286 
640	 0.136004897450927 
641	 0.136239529217059 
642	 0.136485504650305 
643	 0.136732516705279 
644	 0.137004192544606 
645	 0.137293227664007 
646	 0.137543227872536 
647	 0.13778664104709 
648	 0.138036712849307 
649	 0.138304537109162 
650	 0.138615275632917 
651	 0.138921021659358 
652	 0.13920860831332 
653	 0.139499456007529 
654	 0.139830221738819 
655	 0.140142671298651 
656	 0.140412104269535 
657	 0.140742394585368 
658	 0.14105799144619 
659	 0.141359912962624 
660	 0.141684202111654 
661	 0.142043476024056 
662	 0.142399452143829 
663	 0.142737771925163 
664	 0.143083171828826 
665	 0.143506885436886 
666	 0.143928426456268 
667	 0.144273088758946 
668	 0.144681564953302 
669	 0.145132764844573 
670	 0.145594025487694 
671	 0.146026678364927 
672	 0.146414800442135 
673	 0.14682130862428 
674	 0.147281102450702 
675	 0.147731408079535 
676	 0.148185889391293 
677	 0.148661016555018 
678	 0.149167515752724 
679	 0.149655302706008 
680	 0.150142408696253 
681	 0.150642117754625 
682	 0.151153450429409 
683	 0.151657161622728 
684	 0.152180107768579 
685	 0.152737638143239 
686	 0.15326010848961 
687	 0.153803557150143 
688	 0.15435508307858 
689	 0.154861737853027 
690	 0.155431280212733 
691	 0.156029457156663 
692	 0.156618240948754 
693	 0.157199798739479 
694	 0.157738964548642 
695	 0.158277332693431 
696	 0.158868491525503 
697	 0.159461334109571 
698	 0.160019883715188 
699	 0.160577057127046 
700	 0.161228314102064 
701	 0.161785599555054 
702	 0.162352815029378 
703	 0.163004263032652 
704	 0.163551571170813 
705	 0.164080586539755 
706	 0.16463516400968 
707	 0.165229222534764 
708	 0.165819870115321 
709	 0.166408482043448 
710	 0.166986221051226 
711	 0.167523914436149 
712	 0.168050716906741 
713	 0.168557484862746 
714	 0.169049268103329 
715	 0.169630954943716 
716	 0.170152203267801 
717	 0.170602409262862 
718	 0.171078730047771 
719	 0.171620881868519 
720	 0.172102371760999 
721	 0.17247574630448 
722	 0.172889079864697 
723	 0.173340205443322 
724	 0.173798875002065 
725	 0.174219436348467 
726	 0.174566448646239 
727	 0.174870792657385 
728	 0.175181753105918 
729	 0.175552595838621 
730	 0.175863534216171 
731	 0.176135295965779 
732	 0.176398404700767 
733	 0.176641582818216 
734	 0.176858944749644 
735	 0.177044615018124 
736	 0.177201732471673 
737	 0.177385969538906 
738	 0.177525677698571 
739	 0.177615380549445 
740	 0.177730024446707 
741	 0.177860243662476 
742	 0.177936914757475 
743	 0.177928201591267 
744	 0.177938142045609 
745	 0.177914935286657 
746	 0.177863625521739 
747	 0.177811846528709 
748	 0.177750975942332 
749	 0.177649206485687 
750	 0.177532736283703 
751	 0.177495527863922 
752	 0.177355731003111 
753	 0.177165483759851 
754	 0.176997095919021 
755	 0.1768077085797 
756	 0.176638719719297 
757	 0.176441212358071 
758	 0.176147735084917 
759	 0.175914529370403 
760	 0.175672657188098 
761	 0.175394528911941 
762	 0.175130465691857 
763	 0.174840577233353 
764	 0.174517521627969 
765	 0.174173993953693 
766	 0.173851186344586 
767	 0.17355812390002 
768	 0.173250677263338 
769	 0.172877622973202 
770	 0.172551464327282 
771	 0.17220681328107 
772	 0.171812967143811 
773	 0.171401423158253 
774	 0.171051394108757 
775	 0.170695883556617 
776	 0.170279059361148 
777	 0.169868611032855 
778	 0.169475780229338 
779	 0.169105939617899 
780	 0.168744806923431 
781	 0.168294168704442 
782	 0.167867455284003 
783	 0.167494739119533 
784	 0.167102969884499 
785	 0.166709200185086 
786	 0.166314797907724 
787	 0.165920612493998 
788	 0.165528095737266 
789	 0.165168291352061 
790	 0.164773057268255 
791	 0.164287446943184 
792	 0.163922779974433 
793	 0.163571646489858 
794	 0.163184509900789 
795	 0.16277728843906 
796	 0.162326626725071 
797	 0.161928612458363 
798	 0.161609208502268 
799	 0.161237530849376 
800	 0.160868641198414 
801	 0.160501915042523 
802	 0.160130278013819 
803	 0.159779282993641 
804	 0.159444464699822 
805	 0.159108675873662 
806	 0.158752740308477 
807	 0.158406390076989 
808	 0.158044115408558 
809	 0.15768444688108 
810	 0.157405150546317 
811	 0.157103139141985 
812	 0.156761222275077 
813	 0.156403782636116 
814	 0.156106338957822 
815	 0.155827387241897 
816	 0.155542899578989 
817	 0.155246799282004 
818	 0.154988172041649 
819	 0.154742754060689 
820	 0.154481763945821 
821	 0.154184391505462 
822	 0.15391442747267 
823	 0.153647840064702 
824	 0.153377751310127 
825	 0.15314660705149 
826	 0.152920764417466 
827	 0.152689703057238 
828	 0.152456543996035 
829	 0.152246064088998 
830	 0.152024369335233 
831	 0.151805756982542 
832	 0.151624996990332 
833	 0.151496399351353 
834	 0.151293077292741 
835	 0.151036247642132 
836	 0.150884651338514 
837	 0.150779682650946 
838	 0.150640697756684 
839	 0.150449118948081 
840	 0.150298641758429 
841	 0.150118795330964 
842	 0.149958537576891 
843	 0.149864012918122 
844	 0.149777572097713 
845	 0.149664580175028 
846	 0.149542124576251 
847	 0.149447346761293 
848	 0.149365731937313 
849	 0.149274372882156 
850	 0.14917441728725 
851	 0.149088749577818 
852	 0.149029830737426 
853	 0.149012905108713 
854	 0.149007027335352 
855	 0.148920924363107 
856	 0.148865208687098 
857	 0.148848655089074 
858	 0.148847294874599 
859	 0.148820422405193 
860	 0.148801082568156 
861	 0.148786350046067 
862	 0.148764058330023 
863	 0.148733047239983 
864	 0.148761019314374 
865	 0.148821200232642 
866	 0.148838388840239 
867	 0.148853406147909 
868	 0.148902414970451 
869	 0.148969353589639 
870	 0.148991198236911 
871	 0.148998451146687 
872	 0.149056621177766 
873	 0.149172183664712 
874	 0.149251335798309 
875	 0.149312479758219 
876	 0.14936377794652 
877	 0.149430419746789 
878	 0.149585795089158 
879	 0.149736521768591 
880	 0.149851690375993 
881	 0.149942142035905 
882	 0.150078755380606 
883	 0.150226184976206 
884	 0.150360325097847 
885	 0.150480243437169 
886	 0.150671247141207 
887	 0.150858285629648 
888	 0.151020127326393 
889	 0.151191324550562 
890	 0.151369680929303 
891	 0.151549669015614 
892	 0.151727329952819 
893	 0.151903612610139 
894	 0.152115604507018 
895	 0.152358215631877 
896	 0.152597128970702 
897	 0.152765599953546 
898	 0.152981015348544 
899	 0.153272903777919 
900	 0.153596511410032 
901	 0.153776677832142 
902	 0.154059321142479 
903	 0.154375529453935 
904	 0.154605895532686 
905	 0.154883056858352 
906	 0.155157506331695 
907	 0.155439418868874 
908	 0.155758561658169 
909	 0.15609740220786 
910	 0.156382902572703 
911	 0.156634950096619 
912	 0.156934798217955 
913	 0.157311194765082 
914	 0.157676870877589 
915	 0.158001133546186 
916	 0.158327133441003 
917	 0.158787791542394 
918	 0.159166835931857 
919	 0.159423544466112 
920	 0.159762112419079 
921	 0.160174293381983 
922	 0.160658510844273 
923	 0.161120803937323 
924	 0.161365203275368 
925	 0.161715173045295 
926	 0.162171958431488 
927	 0.162643191066617 
928	 0.163009264825824 
929	 0.163434646585913 
930	 0.163926113147451 
931	 0.164433281215545 
932	 0.164881270414118 
933	 0.165353939772816 
934	 0.165830366854958 
935	 0.166293218376064 
936	 0.166836088794188 
937	 0.167268716299158 
938	 0.1676514604862 
939	 0.168117351616066 
940	 0.168732544031393 
941	 0.16922996159042 
942	 0.169695179625444 
943	 0.17027890547027 
944	 0.170771788818158 
945	 0.171244149699082 
946	 0.171748310839303 
947	 0.172290424037068 
948	 0.172727096518507 
949	 0.173220914852118 
950	 0.173800001083192 
951	 0.174401117445433 
952	 0.174945816906338 
953	 0.175407918042891 
954	 0.17587908422136 
955	 0.176470229420458 
956	 0.177034792321761 
957	 0.177626435486907 
958	 0.178206308030792 
959	 0.178715582725047 
960	 0.179339182820152 
961	 0.179944107093522 
962	 0.180500230197189 
963	 0.181057608402006 
964	 0.181623626090214 
965	 0.182247333940253 
966	 0.182904397648294 
967	 0.183527557676677 
968	 0.184125448498389 
969	 0.184674002029892 
970	 0.185207843960969 
971	 0.185785875359374 
972	 0.186362871952081 
973	 0.187015203687262 
974	 0.187674422322323 
975	 0.188226176623972 
976	 0.188920929043274 
977	 0.189527356437242 
978	 0.190047241789377 
979	 0.190650532613905 
980	 0.191401631400827 
981	 0.192051215235806 
982	 0.19258968236518 
983	 0.193147571232154 
984	 0.19362262874186 
985	 0.194189992752508 
986	 0.194877364380634 
987	 0.195590161239202 
988	 0.196199027062015 
989	 0.196590890240791 
990	 0.196981947276654 
991	 0.197644713929253 
992	 0.19830628368388 
993	 0.198982443819273 
994	 0.199620294027041 
995	 0.200162048174486 
996	 0.200649423708934 
997	 0.201147534812066 
998	 0.201680237704759 
999	 0.202223377867383 
1000	 0.202662838709815 
1001	 0.206598853021414 
1002	 0.207068527985831 
1003	 0.207581861599055 
1004	 0.208095174708779 
1005	 0.208634270031677 
1006	 0.209124438129718 
1007	 0.209630556011443 
1008	 0.210065032765101 
1009	 0.21043945677162 
1010	 0.210888556247686 
1011	 0.211288776198959 
1012	 0.211675869685854 
1013	 0.212141094850957 
1014	 0.212584258021367 
1015	 0.212995143936856 
1016	 0.213460040430575 
1017	 0.213930714687416 
1018	 0.214412282773891 
1019	 0.214843536573626 
1020	 0.215241627919149 
1021	 0.215583830177415 
1022	 0.215867784463921 
1023	 0.216206842098859 
1024	 0.216596682141991 
1025	 0.216955322410726 
1026	 0.217297458264542 
1027	 0.217568591619722 
1028	 0.217823773595372 
1029	 0.218162228506814 
1030	 0.21851582675504 
1031	 0.218833397629781 
1032	 0.21915241507207 
1033	 0.219457547143237 
1034	 0.219713628584074 
1035	 0.219925579083984 
1036	 0.220195684097986 
1037	 0.220503423450895 
1038	 0.220780514567141 
1039	 0.221059999581284 
1040	 0.221320052173078 
1041	 0.221540856919625 
1042	 0.221809291672599 
1043	 0.222112873634109 
1044	 0.222361861045934 
1045	 0.222591260341188 
1046	 0.222815801241664 
1047	 0.223022158204287 
1048	 0.223225644329759 
1049	 0.223420278246655 
1050	 0.223644681701774 
1051	 0.223950098105364 
1052	 0.224203813222345 
1053	 0.224465134731273 
1054	 0.224782408300732 
1055	 0.225047637574389 
1056	 0.22528444032164 
1057	 0.225544150858376 
1058	 0.225850210043642 
1059	 0.226123214264284 
1060	 0.226387162159215 
1061	 0.226611484420286 
1062	 0.226828687500785 
1063	 0.227069914395253 
1064	 0.227305306302887 
1065	 0.227570932092843 
1066	 0.227844855126065 
1067	 0.228099279553303 
1068	 0.228341783826723 
1069	 0.228583744937275 
1070	 0.228821702885301 
1071	 0.229072229363631 
1072	 0.229315804903728 
1073	 0.229539747642078 
1074	 0.229772229976168 
1075	 0.230029246188148 
1076	 0.230243494942619 
1077	 0.230467590365973 
1078	 0.230663685065293 
1079	 0.230845467618062 
1080	 0.231086755912948 
1081	 0.23129239798139 
1082	 0.231528693798864 
1083	 0.231751707141565 
1084	 0.231955843081237 
1085	 0.232182397504215 
1086	 0.232431359666169 
1087	 0.232659935014991 
1088	 0.232895202335551 
1089	 0.233127254390162 
1090	 0.233335784561062 
1091	 0.23350144998401 
1092	 0.233661185656386 
1093	 0.233834912913256 
1094	 0.233999539212743 
1095	 0.234154532968725 
1096	 0.234308487428079 
1097	 0.234472478463819 
1098	 0.23463509816507 
1099	 0.234808552287091 
1100	 0.234962282708516 
1101	 0.235111864273162 
1102	 0.235247878181153 
1103	 0.235369700066372 
1104	 0.235482983198509 
1105	 0.235591112821119 
1106	 0.235732461137808 
1107	 0.235865729761575 
1108	 0.235969043979012 
1109	 0.236127203398864 
1110	 0.23628006128974 
1111	 0.236418862335702 
1112	 0.236587757225753 
1113	 0.236710870624443 
1114	 0.236796532145238 
1115	 0.236885095291389 
1116	 0.236940786328132 
1117	 0.237027099134813 
1118	 0.237123635819577 
1119	 0.237206386575836 
1120	 0.23733628681895 
1121	 0.237458397831323 
1122	 0.237557230117387 
1123	 0.237666151166378 
1124	 0.237741460335758 
1125	 0.237779022733786 
1126	 0.237842290016292 
1127	 0.237901214032002 
1128	 0.237956438760568 
1129	 0.238021928506439 
1130	 0.238082779471666 
1131	 0.238134228605549 
1132	 0.238183114023896 
1133	 0.238251960316333 
1134	 0.238283829592109 
1135	 0.238290972355212 
1136	 0.238295539689678 
1137	 0.238281157733537 
1138	 0.238264645045486 
1139	 0.238255535957523 
1140	 0.238250542044063 
1141	 0.238241301828242 
1142	 0.238245116419661 
1143	 0.238216822591983 
1144	 0.2381716685702 
1145	 0.238130827274172 
1146	 0.238056918528257 
1147	 0.238012207652694 
1148	 0.237978427162589 
1149	 0.237955155200729 
1150	 0.237933612636426 
1151	 0.23794690441934 
1152	 0.237966884135153 
1153	 0.237965653203248 
1154	 0.237972419626089 
1155	 0.237973904753287 
1156	 0.237991456695992 
1157	 0.238012234329189 
1158	 0.238044013193933 
1159	 0.238096219124879 
1160	 0.238139197175685 
1161	 0.238177620120326 
1162	 0.238224312215313 
1163	 0.23827114469742 
1164	 0.238325240140875 
1165	 0.238376071135604 
1166	 0.238455841318699 
1167	 0.238538220051618 
1168	 0.238611872644141 
1169	 0.238670193103063 
1170	 0.238716113449784 
1171	 0.238777435686495 
1172	 0.238831772159409 
1173	 0.238886884066485 
1174	 0.23895697842743 
1175	 0.239018886092102 
1176	 0.239061197668062 
1177	 0.239120714773832 
1178	 0.239205067565834 
1179	 0.239266800404395 
1180	 0.239312326019826 
1181	 0.239371411217801 
1182	 0.239435337306849 
1183	 0.239485758783486 
1184	 0.239538409473184 
1185	 0.239594292105059 
1186	 0.239658462379703 
1187	 0.239718922317274 
1188	 0.239780730475537 
1189	 0.239866859145977 
1190	 0.239923781704874 
1191	 0.239951873399741 
1192	 0.240001118167499 
1193	 0.240047787630099 
1194	 0.240100062989145 
1195	 0.240169137338583 
1196	 0.240227050163341 
1197	 0.240273042006058 
1198	 0.240331030571608 
1199	 0.240392603132208 
1200	 0.24045709827279 
1201	 0.24051738744809 
1202	 0.240585411685423 
1203	 0.240644193954612 
1204	 0.240694200573055 
1205	 0.240746456265595 
1206	 0.240798939397466 
1207	 0.24085034127924 
1208	 0.240894865988262 
1209	 0.240947653144063 
1210	 0.241000431153948 
1211	 0.241061126069364 
1212	 0.241138918663369 
1213	 0.241202075912929 
1214	 0.241268844017818 
1215	 0.241325223001285 
1216	 0.24137293447953 
1217	 0.241407842051259 
1218	 0.24144163460079 
1219	 0.241461017960325 
1220	 0.241501273659372 
1221	 0.241546292678884 
1222	 0.241588652395303 
1223	 0.241650111018015 
1224	 0.24169020778929 
1225	 0.241703754006205 
1226	 0.241741614204048 
1227	 0.241784514059199 
1228	 0.241829178159015 
1229	 0.241904290487558 
1230	 0.241949154840843 
1231	 0.241965689525161 
1232	 0.24199679220974 
1233	 0.242026913808133 
1234	 0.242046028176439 
1235	 0.24207243646351 
1236	 0.24210970871686 
1237	 0.242144144162689 
1238	 0.242174249267739 
1239	 0.242203496091424 
1240	 0.242235458144969 
1241	 0.242270554288661 
1242	 0.242304769057919 
1243	 0.242335984992436 
1244	 0.242378306719465 
1245	 0.242407276305588 
1246	 0.242409457459971 
1247	 0.242435310268829 
1248	 0.242468910605916 
1249	 0.24250620148415 
1250	 0.242564520441445 
1251	 0.242609777542685 
1252	 0.242642533580226 
1253	 0.242664665559065 
1254	 0.242684996142048 
1255	 0.242695410041956 
1256	 0.242705218186853 
1257	 0.242708832952112 
1258	 0.242717033739162 
1259	 0.242721681693284 
1260	 0.242728297490642 
1261	 0.242739707282275 
1262	 0.242747354363433 
1263	 0.242760514816751 
1264	 0.242759649692626 
1265	 0.242741905074392 
1266	 0.242739384223322 
1267	 0.242752728921563 
1268	 0.242728624765139 
1269	 0.242723567283637 
1270	 0.242730544233824 
1271	 0.242730443380014 
1272	 0.242725090960269 
1273	 0.242720115420973 
1274	 0.242718042037169 
1275	 0.242712237415532 
1276	 0.242690689409408 
1277	 0.242689863983119 
1278	 0.242700748165748 
1279	 0.242712580088611 
1280	 0.242734560476069 
1281	 0.24275744569221 
1282	 0.242780491277366 
1283	 0.242807075410786 
1284	 0.242842827068064 
1285	 0.242875860256179 
1286	 0.242894680893478 
1287	 0.242922168242809 
1288	 0.24294394884853 
1289	 0.24295638846473 
1290	 0.242974234389515 
1291	 0.24298857858256 
1292	 0.243022969105959 
1293	 0.243082580669975 
1294	 0.243102019168155 
1295	 0.243115047865473 
1296	 0.243127162498364 
1297	 0.243103573912838 
1298	 0.243101766503251 
1299	 0.243128096171761 
1300	 0.243133545534266 
1301	 0.243132307916855 
1302	 0.243123588552639 
1303	 0.243106889751096 
1304	 0.243085532383214 
1305	 0.243061527513394 
1306	 0.24301830617119 
1307	 0.242977839019671 
1308	 0.242944413499719 
1309	 0.242895731188635 
1310	 0.242840250889484 
1311	 0.242775413662116 
1312	 0.242701467525158 
1313	 0.242622792837872 
1314	 0.242542376626565 
1315	 0.242449960729913 
1316	 0.242356129962776 
1317	 0.242236676354282 
1318	 0.242090693419201 
1319	 0.241952222178768 
1320	 0.241797905397261 
1321	 0.24164698982226 
1322	 0.241502123722873 
1323	 0.24135516404083 
1324	 0.241193134715984 
1325	 0.241028886685022 
1326	 0.240857282066804 
1327	 0.240681011378681 
1328	 0.240490057093801 
1329	 0.240297914153901 
1330	 0.240090699360964 
1331	 0.239869621902757 
1332	 0.239643639123598 
1333	 0.239405226594686 
1334	 0.239171982539583 
1335	 0.238934447298107 
1336	 0.238698197267832 
1337	 0.238453529404787 
1338	 0.23822797749572 
1339	 0.238019019386672 
1340	 0.237794685079641 
1341	 0.237576704360548 
1342	 0.237352961565934 
1343	 0.237112685083643 
1344	 0.236880190641843 
1345	 0.236648433680865 
1346	 0.236420993051054 
1347	 0.236209552921669 
1348	 0.235987482583844 
1349	 0.235766236090187 
1350	 0.23556332081962 
1351	 0.235346977832355 
1352	 0.23511536354595 
1353	 0.23489938044883 
1354	 0.234697097343806 
1355	 0.234475626313644 
1356	 0.234251636867332 
1357	 0.234023053956215 
1358	 0.233772791892821 
1359	 0.233539629694535 
1360	 0.233324493115912 
1361	 0.233088905313372 
1362	 0.232860737458028 
1363	 0.232613238787639 
1364	 0.232343413840377 
1365	 0.232069073861284 
1366	 0.231788656577705 
1367	 0.231497226201939 
1368	 0.231204507667279 
1369	 0.230901371695005 
1370	 0.230553989904083 
1371	 0.230180585761966 
1372	 0.229769308328663 
1373	 0.229301640191026 
1374	 0.228796972868755 
1375	 0.228259613588186 
1376	 0.227672240482134 
1377	 0.227047422768088 
1378	 0.226347528149282 
1379	 0.225605085509108 
1380	 0.224783859216786 
1381	 0.223887136757692 
1382	 0.22292915277647 
1383	 0.221910353101308 
1384	 0.220833365329209 
1385	 0.219711705520159 
1386	 0.218508560302758 
1387	 0.217241612681736 
1388	 0.215908956111349 
1389	 0.214506339564396 
1390	 0.213021916950454 
1391	 0.211487051985201 
1392	 0.209895695773878 
1393	 0.20825601753469 
1394	 0.206594264476571 
1395	 0.204870259041172 
1396	 0.203143712239544 
1397	 0.20141373207826 
1398	 0.199639413150338 
1399	 0.197899379531953 
1400	 0.196162758710499 
1401	 0.194458377407791 
1402	 0.192754167668876 
1403	 0.191107487805291 
1404	 0.189482689212391 
1405	 0.187929519915103 
1406	 0.186420228041778 
1407	 0.184957308026035 
1408	 0.183539207423653 
1409	 0.18219253482732 
1410	 0.180887389318563 
1411	 0.179663107210077 
1412	 0.178511662352384 
1413	 0.177431536442882 
1414	 0.176421490933821 
1415	 0.175456952599592 
1416	 0.174562367280749 
1417	 0.173721565757071 
1418	 0.172899775220435 
1419	 0.172133041675712 
1420	 0.171421366047475 
1421	 0.170743511217461 
1422	 0.170123436574185 
1423	 0.169537161759477 
1424	 0.168968213378733 
1425	 0.168424558239394 
1426	 0.167912348519275 
1427	 0.167415190780515 
1428	 0.166967578593015 
1429	 0.166560782780032 
1430	 0.166178557567584 
1431	 0.165847345589008 
1432	 0.165518745838215 
1433	 0.165201661486611 
1434	 0.164912304294992 
1435	 0.164638845703609 
1436	 0.164390453661487 
1437	 0.16417915893149 
1438	 0.163976418328148 
1439	 0.163787449495819 
1440	 0.16361846694919 
1441	 0.163471215516645 
1442	 0.163325768085999 
1443	 0.163200953717453 
1444	 0.163086096864055 
1445	 0.162980757742633 
1446	 0.162898363392135 
1447	 0.162824155133605 
1448	 0.162770023984503 
1449	 0.162721476219844 
1450	 0.162668045994498 
1451	 0.162638337448681 
1452	 0.162617878362732 
1453	 0.162616550075841 
1454	 0.16264142074993 
1455	 0.162660986243755 
1456	 0.162683597475989 
1457	 0.162730125890385 
1458	 0.162775852426813 
1459	 0.162853798519454 
1460	 0.162957641070531 
1461	 0.16308274601021 
1462	 0.163227420342886 
1463	 0.163396499655869 
1464	 0.163593557118764 
1465	 0.163807353627825 
1466	 0.164040039540942 
1467	 0.164297164303592 
1468	 0.164575478989152 
1469	 0.164874757953277 
1470	 0.165194911269578 
1471	 0.165539884855594 
1472	 0.165906193188534 
1473	 0.166296127850448 
1474	 0.166710803309225 
1475	 0.167146877522723 
1476	 0.167575577984732 
1477	 0.168006134952203 
1478	 0.168457581227595 
1479	 0.168895216309602 
1480	 0.169350608706628 
1481	 0.169838440830572 
1482	 0.170315527350358 
1483	 0.170793272459878 
1484	 0.171275689032498 
1485	 0.171763514894622 
1486	 0.172252523754816 
1487	 0.172747205239446 
1488	 0.173230158505701 
1489	 0.173712120409002 
1490	 0.174199321198086 
1491	 0.174676061726708 
1492	 0.175168856400473 
1493	 0.175675717592921 
1494	 0.176176010445437 
1495	 0.176686925511278 
1496	 0.177178703903186 
1497	 0.177655270128242 
1498	 0.178142903082269 
1499	 0.178630218996082 
1500	 0.179114996984446 
1501	 0.179612446794224 
1502	 0.180095005113827 
1503	 0.180575465430786 
1504	 0.181024470334361 
1505	 0.181466969129878 
1506	 0.181910131436402 
1507	 0.182344667431987 
1508	 0.182785212555576 
1509	 0.183232205041119 
1510	 0.183680342147255 
1511	 0.184124661433385 
1512	 0.184547751024712 
1513	 0.184969652403796 
1514	 0.185401202554074 
1515	 0.185827428175232 
1516	 0.186274026646958 
1517	 0.186705257488515 
1518	 0.187138236498782 
1519	 0.187552487187566 
1520	 0.18795248711014 
1521	 0.188352574372571 
1522	 0.188745254565704 
1523	 0.189134189524305 
1524	 0.189525381832529 
1525	 0.189900077257517 
1526	 0.19025239767013 
1527	 0.19062435600106 
1528	 0.191004784357394 
1529	 0.191363458873396 
1530	 0.191726513459538 
1531	 0.192073411786736 
1532	 0.192389926247101 
1533	 0.192720573930851 
1534	 0.193058625583042 
1535	 0.193383013733553 
1536	 0.193696472927689 
1537	 0.194013180108524 
1538	 0.19431881873425 
1539	 0.19463906612768 
1540	 0.194981623947498 
1541	 0.19529991220188 
1542	 0.195615511732929 
1543	 0.195918143097935 
1544	 0.196198377744817 
1545	 0.196481182565779 
1546	 0.196765471032217 
1547	 0.197035836245328 
1548	 0.197300420495559 
1549	 0.197559567904234 
1550	 0.197808957794595 
1551	 0.198067993769792 
1552	 0.198335188147251 
1553	 0.198590599728165 
1554	 0.198848656684415 
1555	 0.199105962887128 
1556	 0.19933730791476 
1557	 0.199571528657407 
1558	 0.199808801573875 
1559	 0.200018779643062 
1560	 0.200232057626115 
1561	 0.200443045065336 
1562	 0.200648584939829 
1563	 0.200839750605288 
1564	 0.201050269343354 
1565	 0.201273740839636 
1566	 0.201477521824379 
1567	 0.201684321709497 
1568	 0.201873498170128 
1569	 0.202036921251444 
1570	 0.202217844721866 
1571	 0.202411799740603 
1572	 0.202578851003089 
1573	 0.202734759370335 
1574	 0.202894298601598 
1575	 0.203034313699414 
1576	 0.203183785641321 
1577	 0.203341302122914 
1578	 0.203499292392818 
1579	 0.203661331448123 
1580	 0.203807942048907 
1581	 0.203952657963546 
1582	 0.20409579721098 
1583	 0.20422349361837 
1584	 0.204357509375979 
1585	 0.204506646561653 
1586	 0.204635345539365 
1587	 0.20474431880276 
1588	 0.204862171546798 
1589	 0.204979209474939 
1590	 0.205090004363578 
1591	 0.20520239231667 
1592	 0.205311126042207 
1593	 0.205403791447111 
1594	 0.205508520265577 
1595	 0.205629938369026 
1596	 0.205735462348744 
1597	 0.205839061894602 
1598	 0.205936970281341 
1599	 0.206013131430697 
1600	 0.206100517793588 
1601	 0.2061994943086 
1602	 0.206287371849041 
1603	 0.206377479704729 
1604	 0.206460344204506 
1605	 0.206523166603212 
1606	 0.206597415768398 
1607	 0.20668001381992 
1608	 0.206757891658155 
1609	 0.206817241446409 
1610	 0.206884679672633 
1611	 0.206945449467091 
1612	 0.206989015232094 
1613	 0.207055716793023 
1614	 0.207119490566181 
1615	 0.207166264173873 
1616	 0.207223036662306 
1617	 0.207278919544605 
1618	 0.20733541319158 
1619	 0.207374879024624 
1620	 0.20740454505919 
1621	 0.207447999214442 
1622	 0.207479515518776 
1623	 0.207529136226003 
1624	 0.207603908909939 
1625	 0.207656741867269 
1626	 0.207705840862452 
1627	 0.207746085662216 
1628	 0.207774147570485 
1629	 0.207814147080042 
1630	 0.207850196447772 
1631	 0.207894238201884 
1632	 0.207953576990218 
1633	 0.207992093093792 
1634	 0.208025258369574 
1635	 0.208051694674502 
1636	 0.208073488087457 
1637	 0.208077358393616 
1638	 0.208058634387068 
1639	 0.208067786152204 
1640	 0.208077691355244 
1641	 0.208080389792607 
1642	 0.208094512792328 
1643	 0.208110429734434 
1644	 0.208110311651895 
1645	 0.208126133989467 
1646	 0.208170128106014 
1647	 0.20818941198232 
1648	 0.208197342798706 
1649	 0.208203491251177 
1650	 0.208203024698568 
1651	 0.208204839583262 
1652	 0.208204289655539 
1653	 0.208199463101086 
1654	 0.208189410147419 
1655	 0.20818828283265 
1656	 0.208193440653773 
1657	 0.208181485599502 
1658	 0.208171065261399 
1659	 0.208151835765396 
1660	 0.208113108223245 
1661	 0.208079628147286 
1662	 0.208050100658385 
1663	 0.208013411651492 
1664	 0.20796445990808 
1665	 0.207924926977488 
1666	 0.207884657634362 
1667	 0.207853091580886 
1668	 0.207833186110791 
1669	 0.207801675390833 
1670	 0.207774756951195 
1671	 0.207736469984715 
1672	 0.207681301453687 
1673	 0.207638394756537 
1674	 0.207593601100538 
1675	 0.207557461995247 
1676	 0.207536701584362 
1677	 0.2074984699394 
1678	 0.207451205419929 
1679	 0.207414968125062 
1680	 0.207380696295847 
1681	 0.207335611280748 
1682	 0.207296350580908 
1683	 0.207248291376177 
1684	 0.207179521973191 
1685	 0.207122595658367 
1686	 0.20707451546938 
1687	 0.207019572547838 
1688	 0.206959458839894 
1689	 0.206903026869939 
1690	 0.206854428532423 
1691	 0.206789124269071 
1692	 0.206715456568847 
1693	 0.206644107940835 
1694	 0.206567956785912 
1695	 0.206480973539518 
1696	 0.206387145649075 
1697	 0.206300454169062 
1698	 0.206199205817054 
1699	 0.206113500400844 
1700	 0.206053984254662 
1701	 0.205967653623803 
1702	 0.205873159061334 
1703	 0.205775065725883 
1704	 0.205657180587138 
1705	 0.205554141514957 
1706	 0.205465257548316 
1707	 0.205352361260788 
1708	 0.205228580831001 
1709	 0.205116686658011 
1710	 0.204987101913317 
1711	 0.20487816700113 
1712	 0.204799441158845 
1713	 0.204692602768424 
1714	 0.204580646223292 
1715	 0.204459308045114 
1716	 0.204317406482978 
1717	 0.204192970266273 
1718	 0.204074494052716 
1719	 0.203947202676179 
1720	 0.203831963832708 
1721	 0.203687926950534 
1722	 0.203513165097312 
1723	 0.203362306134935 
1724	 0.203205435017415 
1725	 0.20306293845534 
1726	 0.202947278940526 
1727	 0.202803153175999 
1728	 0.202649198075012 
1729	 0.2024953481017 
1730	 0.202329937349718 
1731	 0.202166303449144 
1732	 0.20201361061614 
1733	 0.201831344114578 
1734	 0.201639972347827 
1735	 0.201430412150873 
1736	 0.20118941325678 
1737	 0.200961701221879 
1738	 0.200712180012581 
1739	 0.200498186886333 
1740	 0.200313737747493 
1741	 0.200107219856238 
1742	 0.199911049282884 
1743	 0.199703392871366 
1744	 0.199472987066165 
1745	 0.199257576441201 
1746	 0.199055146014648 
1747	 0.198826781201902 
1748	 0.198604962968099 
1749	 0.198390702563773 
1750	 0.198180592569944 
1751	 0.197974598495344 
1752	 0.197759969423924 
1753	 0.197518806274884 
1754	 0.197258920437468 
1755	 0.197020434317525 
1756	 0.196792978511521 
1757	 0.196552324233108 
1758	 0.196328167512642 
1759	 0.196098946222904 
1760	 0.19587117954904 
1761	 0.195678211654222 
1762	 0.195478165021181 
1763	 0.195281270942641 
1764	 0.195065164540042 
1765	 0.19482083796561 
1766	 0.194603625153883 
1767	 0.194383413280422 
1768	 0.194168729070129 
1769	 0.19397685397057 
1770	 0.193774026531308 
1771	 0.193586901306608 
1772	 0.193407879748555 
1773	 0.193219692750169 
1774	 0.193055631483235 
1775	 0.192875520042391 
1776	 0.192669411708606 
1777	 0.192502926871894 
1778	 0.19234507236713 
1779	 0.192191152934707 
1780	 0.192088999634893 
1781	 0.191974198749823 
1782	 0.191853262038086 
1783	 0.191741598957698 
1784	 0.191619718990392 
1785	 0.191486200475526 
1786	 0.191378657878251 
1787	 0.191288928251525 
1788	 0.191200515435154 
1789	 0.191132756724199 
1790	 0.191043265767274 
1791	 0.190921852093496 
1792	 0.190832499683557 
1793	 0.190759395750182 
1794	 0.190692665178703 
1795	 0.190649216471892 
1796	 0.19060054977626 
1797	 0.190546529076473 
1798	 0.190483273302219 
1799	 0.190428335452812 
1800	 0.190367826486263 
1801	 0.189351023410518 
1802	 0.189381166854593 
1803	 0.189437820577482 
1804	 0.189464459689061 
1805	 0.189499515726067 
1806	 0.189560604016116 
1807	 0.189588045068347 
1808	 0.189607429163997 
1809	 0.189610884869099 
1810	 0.189621469943924 
1811	 0.189627075202864 
1812	 0.189621033001131 
1813	 0.189624024340252 
1814	 0.189591497849025 
1815	 0.189542698901648 
1816	 0.189546080199407 
1817	 0.189513793059892 
1818	 0.18946717217561 
1819	 0.189428868267077 
1820	 0.189389055836371 
1821	 0.189324088324312 
1822	 0.18928566467104 
1823	 0.189273434048074 
1824	 0.189222387633918 
1825	 0.189134512782086 
1826	 0.189050123329456 
1827	 0.188962194599275 
1828	 0.188867519346304 
1829	 0.188778307145987 
1830	 0.188678239435673 
1831	 0.188578042716949 
1832	 0.188442768565162 
1833	 0.188299672831659 
1834	 0.188150538845955 
1835	 0.187974409529461 
1836	 0.187806162331924 
1837	 0.187638258616742 
1838	 0.187454801782764 
1839	 0.187254193977301 
1840	 0.187044429354202 
1841	 0.186814448513123 
1842	 0.186577929955229 
1843	 0.186321176080287 
1844	 0.186063027445316 
1845	 0.185792188712425 
1846	 0.185495879112504 
1847	 0.185186662263986 
1848	 0.18484014537289 
1849	 0.184465232300809 
1850	 0.184053935095209 
1851	 0.183601251753638 
1852	 0.183118359480715 
1853	 0.182634874029247 
1854	 0.182108339170351 
1855	 0.1815511936819 
1856	 0.180954464827749 
1857	 0.180283289696456 
1858	 0.179570550310976 
1859	 0.178819589522446 
1860	 0.177987826043256 
1861	 0.177099531324715 
1862	 0.17613087313198 
1863	 0.175088200178862 
1864	 0.17396677959421 
1865	 0.17276421516528 
1866	 0.171504332800635 
1867	 0.170172849222927 
1868	 0.168728880137449 
1869	 0.167186104670177 
1870	 0.165556719162281 
1871	 0.163816446147713 
1872	 0.161960914033321 
1873	 0.160040499937372 
1874	 0.158054647291759 
1875	 0.155952527324124 
1876	 0.1537847342366 
1877	 0.151485651966377 
1878	 0.149061159951075 
1879	 0.146566346089278 
1880	 0.143977300422252 
1881	 0.141258706364526 
1882	 0.138517119530218 
1883	 0.135709925354685 
1884	 0.132779001596097 
1885	 0.12985123272307 
1886	 0.126884800476704 
1887	 0.123826744902402 
1888	 0.120785663697288 
1889	 0.11772806458012 
1890	 0.114683405098103 
1891	 0.11173500421379 
1892	 0.108808585931943 
1893	 0.105996166980735 
1894	 0.103261018512165 
1895	 0.100618378671927 
1896	 0.09803440905934 
1897	 9.56200614323562E-02 
1898	 9.32846876365137E-02 
1899	 9.10708819325893E-02 
1900	 0.089019298744764 
1901	 0.087077450292147 
1902	 8.52729765600658E-02 
1903	 8.36371391602977E-02 
1904	 8.20779082882308E-02 
1905	 8.06259287877577E-02 
1906	 0.079305588140669 
1907	 7.80876882301759E-02 
1908	 7.69657019369151E-02 
1909	 7.59520566307362E-02 
1910	 7.50121776067072E-02 
1911	 7.41387385255922E-02 
1912	 0.0733482067446 
1913	 7.26074106800599E-02 
1914	 7.19373595371237E-02 
1915	 0.071310834324086 
1916	 7.07385607111381E-02 
1917	 7.02197808983855E-02 
1918	 0.069745079910396 
1919	 6.93163729116802E-02 
1920	 6.89581965626131E-02 
1921	 6.86088023910361E-02 
1922	 0.068304173752585 
1923	 6.80653925696418E-02 
1924	 6.78357362559834E-02 
1925	 6.76311581480361E-02 
1926	 6.74610549417945E-02 
1927	 6.73208357887273E-02 
1928	 6.72025080890681E-02 
1929	 6.71293850392358E-02 
1930	 6.70780591010346E-02 
1931	 6.70434500374857E-02 
1932	 6.70330613008733E-02 
1933	 6.70582807776832E-02 
1934	 6.71231826576268E-02 
1935	 6.71990528265558E-02 
1936	 6.73178778732729E-02 
1937	 6.74331685751535E-02 
1938	 6.75391752968367E-02 
1939	 0.067687686937615 
1940	 6.78646545779837E-02 
1941	 6.80576286622334E-02 
1942	 0.068283068853689 
1943	 6.85170274787152E-02 
1944	 6.87614922071135E-02 
1945	 6.90347745747026E-02 
1946	 6.93159864004257E-02 
1947	 6.96216450210323E-02 
1948	 6.99253456803893E-02 
1949	 7.02307928617034E-02 
1950	 7.05560920144845E-02 
1951	 7.08985339595516E-02 
1952	 7.12345071063575E-02 
1953	 7.15898550026329E-02 
1954	 7.19673165959507E-02 
1955	 7.23510637964674E-02 
1956	 7.27553773658675E-02 
1957	 7.31599890533489E-02 
1958	 7.35803225553144E-02 
1959	 7.39999214731853E-02 
1960	 7.44117555461643E-02 
1961	 7.48458048729262E-02 
1962	 7.52999797990421E-02 
1963	 7.57564116344224E-02 
1964	 0.07622668078209 
1965	 7.66980125289144E-02 
1966	 7.71658497802945E-02 
1967	 7.76506800949656E-02 
1968	 7.81428751237485E-02 
1969	 7.86470197935516E-02 
1970	 7.91467178511215E-02 
1971	 7.96550772192322E-02 
1972	 8.01616904323673E-02 
1973	 8.06631585334024E-02 
1974	 8.11744593878686E-02 
1975	 8.16912803687152E-02 
1976	 8.22129986577359E-02 
1977	 8.27593905388338E-02 
1978	 8.32912510068135E-02 
1979	 8.38059067058736E-02 
1980	 0.084350225113992 
1981	 8.48813360551477E-02 
1982	 8.53846451033536E-02 
1983	 8.59197570754016E-02 
1984	 0.086481295100041 
1985	 8.70284249171199E-02 
1986	 8.75785144797075E-02 
1987	 8.81360798645277E-02 
1988	 8.87009620649495E-02 
1989	 8.92563594973759E-02 
1990	 8.98064880405828E-02 
1991	 9.03598584638167E-02 
1992	 0.090922848035936 
1993	 9.14799471417531E-02 
1994	 9.20490759218251E-02 
1995	 9.26494953392012E-02 
1996	 9.32164476704585E-02 
1997	 9.37646578215682E-02 
1998	 9.43276589096205E-02 
1999	 9.48773137650079E-02 
2000	 9.54401812423697E-02 
2001	 9.60366273932281E-02 
2002	 9.65969292158848E-02 
2003	 9.71524859126379E-02 
2004	 9.77118402009811E-02 
2005	 9.82578079297253E-02 
2006	 9.87915151184323E-02 
2007	 9.93242954497495E-02 
2008	 9.98330298048792E-02 
2009	 0.100374482632865 
2010	 0.100929097565314 
2011	 0.101477894365422 
2012	 0.10206453790448 
2013	 0.102615749839175 
2014	 0.103135361763565 
2015	 0.103661759731587 
2016	 0.104181624507742 
2017	 0.104697303118506 
2018	 0.105233619161855 
2019	 0.105788131877801 
2020	 0.106330526115574 
2021	 0.106889069306803 
2022	 0.107425722242406 
2023	 0.107952173931359 
2024	 0.108474227249229 
2025	 0.108978531852798 
2026	 0.109489840855431 
2027	 0.110002600112517 
2028	 0.110509374172197 
2029	 0.11101465156325 
2030	 0.111521356335214 
2031	 0.112018076382169 
2032	 0.112508950841932 
2033	 0.112996067545838 
2034	 0.113473211967292 
2035	 0.113959123537692 
2036	 0.114448335026839 
2037	 0.114929205515041 
2038	 0.115422945769528 
2039	 0.115890431604215 
2040	 0.116331638338553 
2041	 0.116779105182788 
2042	 0.117216621704382 
2043	 0.117657817127019 
2044	 0.11810943928892 
2045	 0.118574279204048 
2046	 0.119034983418588 
2047	 0.1195005115901 
2048	 0.119960573275549 
2049	 0.120434414480018 
2050	 0.120884708355598 
2051	 0.12131709389553 
2052	 0.121752692948059 
2053	 0.12216717247989 
2054	 0.122591848346931 
2055	 0.123015299549343 
2056	 0.123461480996779 
2057	 0.12388698992556 
2058	 0.124308440338547 
2059	 0.124737348270828 
2060	 0.125158434297586 
2061	 0.12558760815479 
2062	 0.126040220033422 
2063	 0.126465234236721 
2064	 0.1268781601077 
2065	 0.127288809122111 
2066	 0.127684778981669 
2067	 0.128081553971876 
2068	 0.128471588544612 
2069	 0.128863457602576 
2070	 0.129267757469068 
2071	 0.12967761095162 
2072	 0.130080156003912 
2073	 0.130497528692872 
2074	 0.130893704554557 
2075	 0.131275836545031 
2076	 0.13165657919725 
2077	 0.132023745537073 
2078	 0.132400849148165 
2079	 0.132768304220877 
2080	 0.133150449801532 
2081	 0.13355838108927 
2082	 0.133947392215899 
2083	 0.134332214084596 
2084	 0.134714457388761 
2085	 0.135100293830789 
2086	 0.135480966409942 
2087	 0.135852461985628 
2088	 0.136230629290807 
2089	 0.136593967742522 
2090	 0.136934407518758 
2091	 0.137285007864511 
2092	 0.137641182345545 
2093	 0.137987863828116 
2094	 0.138312599483393 
2095	 0.138662042254749 
2096	 0.139031537858146 
2097	 0.139385680946519 
2098	 0.139734395127786 
2099	 0.140109807681701 
2100	 0.140456272830089 
2101	 0.140780580597146 
2102	 0.141113217178977 
2103	 0.141441859632116 
2104	 0.141775050043456 
2105	 0.142108411893725 
2106	 0.142437624995694 
2107	 0.14276341834383 
2108	 0.143099162348341 
2109	 0.143438350479485 
2110	 0.143774528530409 
2111	 0.144118635759476 
2112	 0.144460099589891 
2113	 0.144810887138264 
2114	 0.145131784629719 
2115	 0.145457580138386 
2116	 0.145783848589756 
2117	 0.146105448220581 
2118	 0.146422427699964 
2119	 0.146723152461921 
2120	 0.14702042814275 
2121	 0.147306951779159 
2122	 0.147559057220714 
2123	 0.147839639739911 
2124	 0.148149787046994 
2125	 0.14842265432265 
2126	 0.148690627381553 
2127	 0.148946141679939 
2128	 0.149166393547453 
2129	 0.149393293930472 
2130	 0.149621703098889 
2131	 0.149847509208141 
2132	 0.150061203878482 
2133	 0.150272483194249 
2134	 0.150460344012857 
2135	 0.150636199533031 
2136	 0.150796177355285 
2137	 0.150919048227263 
2138	 0.151071292860041 
2139	 0.151230115670646 
2140	 0.151378801798532 
2141	 0.151548455404515 
2142	 0.151686073314136 
2143	 0.151787253482893 
2144	 0.151903359974832 
2145	 0.152025334638001 
2146	 0.152128018030532 
2147	 0.152220865019668 
2148	 0.152315373177984 
2149	 0.152402341127811 
2150	 0.152473791586496 
2151	 0.15253991627684 
2152	 0.152609558226939 
2153	 0.15266351383435 
2154	 0.152700165433193 
2155	 0.152729590974051 
2156	 0.152751645183912 
2157	 0.152770422479787 
2158	 0.152775289756347 
2159	 0.15277927324269 
2160	 0.152788942662838 
2161	 0.15278122369187 
2162	 0.152750601901192 
2163	 0.152729110045351 
2164	 0.152688909683717 
2165	 0.15268241865963 
2166	 0.152651270750336 
2167	 0.152621049723813 
2168	 0.152586615609634 
2169	 0.152536035685661 
2170	 0.152498929963018 
2171	 0.152467781199705 
2172	 0.152441097767905 
2173	 0.15243691626097 
2174	 0.152395343566309 
2175	 0.152340326731135 
2176	 0.152281646993546 
2177	 0.152180184425525 
2178	 0.15211153671491 
2179	 0.152071922473241 
2180	 0.152014342287241 
2181	 0.151951274836148 
2182	 0.151896363817098 
2183	 0.151840249545839 
2184	 0.151783885566942 
2185	 0.151718977268946 
2186	 0.151660723753306 
2187	 0.151594230873494 
2188	 0.151503473350241 
2189	 0.151440100843738 
2190	 0.151392329156687 
2191	 0.151339991649795 
2192	 0.151297336868243 
2193	 0.151246813194573 
2194	 0.151199416381159 
2195	 0.151139560683389 
2196	 0.15105894340542 
2197	 0.151001896546017 
2198	 0.150952762134682 
2199	 0.150898240606379 
2200	 0.150851704944931 
2201	 0.150810039224407 
2202	 0.150741890553753 
2203	 0.150716601914995 
2204	 0.150693913979737 
2205	 0.15069014147227 
2206	 0.150685357372061 
2207	 0.150695592362265 
2208	 0.150689596572532 
2209	 0.150683002588527 
2210	 0.150681615223643 
2211	 0.150678996946002 
2212	 0.150669608517857 
2213	 0.150651224146909 
2214	 0.15065194118179 
2215	 0.150661154563745 
2216	 0.150662370779847 
2217	 0.150685690859285 
2218	 0.150687106090144 
2219	 0.15065249431659 
2220	 0.150639404090719 
2221	 0.150625004438376 
2222	 0.150634105134192 
2223	 0.150629226040125 
2224	 0.150620335149629 
2225	 0.150593075207418 
2226	 0.150549149160661 
2227	 0.150495002112609 
2228	 0.150421698655076 
2229	 0.150363436454519 
2230	 0.150300628796997 
2231	 0.150237961939941 
2232	 0.150167865717018 
2233	 0.150125968987959 
2234	 0.150103132601225 
2235	 0.150059803087557 
2236	 0.15005370581315 
2237	 0.149995030099492 
2238	 0.149865103830785 
2239	 0.14978311546847 
2240	 0.149712572541517 
2241	 0.149632086951134 
2242	 0.149575397236873 
2243	 0.149499986646379 
2244	 0.149406233944374 
2245	 0.149303021148039 
2246	 0.149193062968874 
2247	 0.149079524824071 
2248	 0.148982577539151 
2249	 0.148891654137699 
2250	 0.148782254706118 
2251	 0.148684724953887 
2252	 0.148568010580604 
2253	 0.148414747532549 
2254	 0.148290228340048 
2255	 0.148170951219995 
2256	 0.14806410368274 
2257	 0.147960038620242 
2258	 0.147877522339869 
2259	 0.147830098891656 
2260	 0.147754104825117 
2261	 0.147682986893227 
2262	 0.147603813439477 
2263	 0.147519468289831 
2264	 0.147413991176161 
2265	 0.147297569763472 
2266	 0.147170108434431 
2267	 0.146997545048763 
2268	 0.146853623918212 
2269	 0.146700432888094 
2270	 0.146596004127633 
2271	 0.14651642190814 
2272	 0.146414430798579 
2273	 0.146276701230524 
2274	 0.146143531321484 
2275	 0.145997427233541 
2276	 0.145813051175941 
2277	 0.145654355951292 
2278	 0.145497366701492 
2279	 0.145354027664207 
2280	 0.145214764374842 
2281	 0.145087138696417 
2282	 0.144988379235246 
2283	 0.144875811180283 
2284	 0.144765906285593 
2285	 0.144637448998179 
2286	 0.144510594903578 
2287	 0.144360282105652 
2288	 0.144164786503919 
2289	 0.144009639230829 
2290	 0.143861796456695 
2291	 0.143714094667893 
2292	 0.143608967807779 
2293	 0.143461741589043 
2294	 0.143284580429427 
2295	 0.143111936194491 
2296	 0.142922628601941 
2297	 0.142726575280352 
2298	 0.142570446390617 
2299	 0.142375924406576 
2300	 0.142197544113629 
2301	 0.142023365284347 
2302	 0.141808077753067 
2303	 0.141595763011662 
2304	 0.141379178311379 
2305	 0.141141128312334 
2306	 0.14090812734939 
2307	 0.140671731160449 
2308	 0.140452578584961 
2309	 0.140247936536783 
2310	 0.140016283620575 
2311	 0.139777017907078 
2312	 0.139546943276174 
2313	 0.139278593265506 
2314	 0.139056777791988 
2315	 0.13889744408012 
2316	 0.13868675040696 
2317	 0.138493268079556 
2318	 0.138252109780108 
2319	 0.137927890386621 
2320	 0.137664460805783 
2321	 0.137408905266427 
2322	 0.137139981739706 
2323	 0.136905942002284 
2324	 0.136665795506743 
2325	 0.136402442420388 
2326	 0.136146551467286 
2327	 0.135916537240392 
2328	 0.1356438231413 
2329	 0.135380742880564 
2330	 0.135110948334289 
2331	 0.134878787311008 
2332	 0.134668814319197 
2333	 0.134446384918074 
2334	 0.134258650618148 
2335	 0.13406508746691 
2336	 0.133874262524054 
2337	 0.133691991150992 
2338	 0.133443948971311 
2339	 0.133151263756893 
2340	 0.132835198857702 
2341	 0.13250476372462 
2342	 0.132198416202652 
2343	 0.131904921684819 
2344	 0.131612044304397 
2345	 0.131300909535291 
2346	 0.130987676073385 
2347	 0.130656939252189 
2348	 0.130286318599673 
2349	 0.129967886269064 
2350	 0.12968636422562 
2351	 0.129346189235134 
2352	 0.128990863364779 
2353	 0.128649946930736 
2354	 0.128255359582173 
2355	 0.127925712542659 
2356	 0.127687155610436 
2357	 0.12738601505148 
2358	 0.127048626870675 
2359	 0.126731992782813 
2360	 0.126433045107678 
2361	 0.126082827896796 
2362	 0.125714301452941 
2363	 0.12537075190243 
2364	 0.124973133015534 
2365	 0.124604688937467 
2366	 0.124292953577862 
2367	 0.123963737228724 
2368	 0.123628566265816 
2369	 0.123278035741345 
2370	 0.12292436721297 
2371	 0.122561281834305 
2372	 0.122198296616473 
2373	 0.121873881961494 
2374	 0.121558407853594 
2375	 0.121177042356903 
2376	 0.120767129489287 
2377	 0.12037441849246 
2378	 0.119988887223747 
2379	 0.119646269607589 
2380	 0.119333851466101 
2381	 0.118956326604105 
2382	 0.118556029011942 
2383	 0.118195079374071 
2384	 0.117800685275296 
2385	 0.117414068875196 
2386	 0.117063689733544 
2387	 0.116636095271283 
2388	 0.11617023015503 
2389	 0.115825917435247 
2390	 0.115539925868216 
2391	 0.115208544701353 
2392	 0.114836671925782 
2393	 0.114398381720987 
2394	 0.113956432204881 
2395	 0.113532196278832 
2396	 0.113155670632851 
2397	 0.112854331754581 
2398	 0.112453657153297 
2399	 0.112012140871288 
2400	 0.111637494057338 
2401	 0.111221443953936 
2402	 0.110848533290001 
2403	 0.110621304145894 
2404	 0.110370969042431 
2405	 0.110008102964483 
2406	 0.109608800192202 
2407	 0.109139904661191 
2408	 0.108687759479837 
2409	 0.108316715918351 
2410	 0.107959400302783 
2411	 0.107600575919899 
2412	 0.107165695720162 
2413	 0.10669744113461 
2414	 0.106262381332528 
2415	 0.105858600422966 
2416	 0.105488065548665 
2417	 0.10520084364989 
2418	 0.104815407399944 
2419	 0.104408918105793 
2420	 0.104039740640416 
2421	 0.103649435006397 
2422	 0.103226330233275 
2423	 0.102827747567661 
2424	 0.102370168672161 
2425	 0.101812965735213 
2426	 0.101366706106004 
2427	 0.100962376030051 
2428	 0.100549150765597 
2429	 0.100184414154498 
2430	 9.97522693800113E-02 
2431	 9.92473954599039E-02 
2432	 0.098865577600525 
2433	 9.85464273827851E-02 
2434	 9.82008911385761E-02 
2435	 9.79343750280594E-02 
2436	 9.76009016050132E-02 
2437	 9.71806715022491E-02 
2438	 9.67852992465948E-02 
2439	 9.64416199368346E-02 
2440	 9.60262955542641E-02 
2441	 9.55422219331309E-02 
2442	 0.095090245666608 
2443	 9.46055976909179E-02 
2444	 0.094131744270555 
2445	 9.36894377317364E-02 
2446	 9.32172090063503E-02 
2447	 9.27215819344486E-02 
2448	 9.23191733752976E-02 
2449	 9.19624593626342E-02 
2450	 9.15766615184798E-02 
2451	 9.11839878933613E-02 
2452	 9.07995232688626E-02 
2453	 9.04300948341227E-02 
2454	 9.00164982237119E-02 
2455	 8.95976645806389E-02 
2456	 8.92143955968425E-02 
2457	 8.87970624831125E-02 
2458	 8.84296407567145E-02 
2459	 8.81857198389782E-02 
2460	 8.78313515874967E-02 
2461	 8.73739062437396E-02 
2462	 8.69996470868136E-02 
2463	 8.66493676094105E-02 
2464	 0.086220708055525 
2465	 8.57781015504137E-02 
2466	 8.53897221877943E-02 
2467	 8.50184909816551E-02 
2468	 0.084661185517063 
2469	 8.43039400776447E-02 
2470	 8.40312817204545E-02 
2471	 8.35312153220355E-02 
2472	 8.30979086258111E-02 
2473	 8.29347314514055E-02 
2474	 8.25639977591049E-02 
2475	 8.22664634302045E-02 
2476	 8.20452464370212E-02 
2477	 8.18170748942693E-02 
2478	 8.15031702220521E-02 
2479	 8.11460878349109E-02 
2480	 8.08612170209463E-02 
2481	 8.03977979133378E-02 
2482	 8.00461906496246E-02 
2483	 7.97637720654632E-02 
2484	 7.94024135143832E-02 
2485	 0.079104710465033 
2486	 7.89356056237824E-02 
2487	 7.87929298580202E-02 
2488	 7.85962277723962E-02 
2489	 7.86515631507286E-02 
2490	 7.83699990088672E-02 
2491	 7.77466096291114E-02 
2492	 7.74030846530021E-02 
2493	 7.68904515462445E-02 
2494	 7.64148796768071E-02 
2495	 7.61915363894922E-02 
2496	 7.58396110542898E-02 
2497	 7.54667204433433E-02 
2498	 7.52702416863027E-02 
2499	 7.52070303981016E-02 
2500	 7.50419224959118E-02 
