Wavelength	mm1200006.asd
350	 2.89859131821875E-02 
351	 4.00639504172173E-02 
352	 3.77403260902594E-02 
353	 2.31036969230594E-02 
354	 3.52073769130174E-02 
355	 2.88794607699699E-02 
356	 0.021097433186996 
357	 0.031864563772327 
358	 3.09050112044805E-02 
359	 0.029012749437936 
360	 2.87659283423433E-02 
361	 2.68362999520425E-02 
362	 2.33499734463842E-02 
363	 2.26639744568068E-02 
364	 2.48655958101306E-02 
365	 2.25592168468748E-02 
366	 2.45706422476291E-02 
367	 2.75946299486444E-02 
368	 2.74895932916742E-02 
369	 3.08932574064838E-02 
370	 3.04686178181172E-02 
371	 2.87312582813194E-02 
372	 3.37675391222851E-02 
373	 0.033971169435888 
374	 3.16454282779627E-02 
375	 3.01086319677241E-02 
376	 3.13095296332041E-02 
377	 3.07839806705409E-02 
378	 3.08741206491345E-02 
379	 0.034226744827382 
380	 3.61468850434769E-02 
381	 0.035219340794186 
382	 3.36438712651218E-02 
383	 3.56706640062613E-02 
384	 0.037095456502038 
385	 3.75682065949869E-02 
386	 3.78112090895346E-02 
387	 3.95091753712455E-02 
388	 4.12146585138901E-02 
389	 4.13197376946237E-02 
390	 3.96557272162543E-02 
391	 4.27987771127052E-02 
392	 4.56176914370672E-02 
393	 4.67357610417573E-02 
394	 4.82923386727982E-02 
395	 4.92049170570725E-02 
396	 4.99535953682048E-02 
397	 5.08782032248668E-02 
398	 5.13918641491513E-02 
399	 5.31816038385875E-02 
400	 5.55633768527518E-02 
401	 5.70546808991517E-02 
402	 5.72389097894358E-02 
403	 5.70515503639614E-02 
404	 5.69845615956777E-02 
405	 5.69966451882027E-02 
406	 5.83127501533777E-02 
407	 6.02870264535022E-02 
408	 0.061863068559659 
409	 6.18786810382172E-02 
410	 6.16934697022058E-02 
411	 6.20514810564964E-02 
412	 0.063111777834174 
413	 6.33638790397788E-02 
414	 6.34474978946902E-02 
415	 6.37284941956709E-02 
416	 6.39461446269764E-02 
417	 6.49029749935991E-02 
418	 6.57046816658911E-02 
419	 6.55832405554728E-02 
420	 6.55754760211621E-02 
421	 6.54781142039841E-02 
422	 6.53324180994036E-02 
423	 6.53247375148504E-02 
424	 6.53958625490615E-02 
425	 6.51134850279155E-02 
426	 6.45722664696114E-02 
427	 6.49410098551114E-02 
428	 6.48762488858905E-02 
429	 6.43887927198572E-02 
430	 0.063972180888611 
431	 6.41428910677982E-02 
432	 6.42410991741853E-02 
433	 6.41486023368869E-02 
434	 6.43022720771779E-02 
435	 6.44441467006851E-02 
436	 6.45706254218214E-02 
437	 6.47000257476019E-02 
438	 6.47091765375053E-02 
439	 6.52926183132402E-02 
440	 6.60093170570698E-02 
441	 6.60148367776868E-02 
442	 0.066215806575727 
443	 6.67214325138644E-02 
444	 6.74453856727832E-02 
445	 6.81739832502906E-02 
446	 0.068431594932233 
447	 6.86996255180466E-02 
448	 6.94193087107929E-02 
449	 6.95520308395425E-02 
450	 6.98616755010367E-02 
451	 7.04969123603984E-02 
452	 0.071033892963097 
453	 7.12207883118299E-02 
454	 7.14040340121238E-02 
455	 7.18297980736772E-02 
456	 7.22687411173336E-02 
457	 7.23717351034786E-02 
458	 0.072378557965674 
459	 7.27111627352079E-02 
460	 7.28428083523879E-02 
461	 7.29777278004335E-02 
462	 7.31906775711575E-02 
463	 7.32764491954563E-02 
464	 7.37283771285474E-02 
465	 7.40954502776791E-02 
466	 7.39406741411797E-02 
467	 7.39428208828546E-02 
468	 7.41401114337421E-02 
469	 7.42831425030222E-02 
470	 7.39735352767368E-02 
471	 0.07414115038038 
472	 7.43159469940767E-02 
473	 7.41663524519867E-02 
474	 7.42581758464655E-02 
475	 7.43453919329971E-02 
476	 7.43411685412614E-02 
477	 7.42746030513301E-02 
478	 7.45294142471692E-02 
479	 7.47721200401428E-02 
480	 7.48496612124317E-02 
481	 7.49479440479133E-02 
482	 7.49061624455659E-02 
483	 7.47614550665644E-02 
484	 0.074655802812563 
485	 7.49510387490427E-02 
486	 7.49668027052481E-02 
487	 7.47769638657519E-02 
488	 7.50464949085155E-02 
489	 7.50382278202663E-02 
490	 7.50173613997751E-02 
491	 7.51805159307468E-02 
492	 7.51184263466896E-02 
493	 0.075074368804662 
494	 7.50953374143439E-02 
495	 7.51462363516245E-02 
496	 7.53058733698415E-02 
497	 0.075358268816089 
498	 7.52663915391514E-02 
499	 7.52888920081209E-02 
500	 7.53771700618364E-02 
501	 7.54083529648566E-02 
502	 7.53116968634642E-02 
503	 7.53570818045412E-02 
504	 7.54445097967985E-02 
505	 7.54667752286075E-02 
506	 7.53399997302046E-02 
507	 7.53729839780488E-02 
508	 7.55107828317367E-02 
509	 0.075615972763749 
510	 7.55317161826038E-02 
511	 7.54469081424245E-02 
512	 7.54199382510437E-02 
513	 7.54198617118178E-02 
514	 7.52832961389554E-02 
515	 7.52325470428277E-02 
516	 7.53593625290206E-02 
517	 7.54812579324026E-02 
518	 7.54601802197084E-02 
519	 7.53653777149855E-02 
520	 7.53463235450865E-02 
521	 7.55265139495968E-02 
522	 7.56707170472711E-02 
523	 7.56980444585931E-02 
524	 7.57097683012407E-02 
525	 7.56681591204233E-02 
526	 7.56695397497224E-02 
527	 7.57650640957098E-02 
528	 7.57841736038747E-02 
529	 7.57838464716807E-02 
530	 7.58348865318507E-02 
531	 7.59872715874993E-02 
532	 7.59186058945795E-02 
533	 7.58832932620486E-02 
534	 7.60040852318364E-02 
535	 7.59454773387888E-02 
536	 7.59797832117753E-02 
537	 7.60742415424661E-02 
538	 7.61045304497335E-02 
539	 7.61746509588085E-02 
540	 7.63029060750581E-02 
541	 7.64446053872329E-02 
542	 7.64813694539355E-02 
543	 7.65272821463879E-02 
544	 7.66169803512332E-02 
545	 7.67571278542239E-02 
546	 7.69539029767902E-02 
547	 7.70635367878331E-02 
548	 7.71352730980917E-02 
549	 7.73687231069036E-02 
550	 7.75332887438776E-02 
551	 7.76759005416746E-02 
552	 7.78735068875371E-02 
553	 7.81621532853077E-02 
554	 7.83539623960471E-02 
555	 7.84925084580574E-02 
556	 7.87354185786605E-02 
557	 7.90434080669334E-02 
558	 7.93312751823071E-02 
559	 7.95996315360965E-02 
560	 8.00131988617369E-02 
561	 8.04113096160899E-02 
562	 8.08142186139953E-02 
563	 0.081288679825413 
564	 8.17943648718936E-02 
565	 8.23161574586782E-02 
566	 8.28777301134041E-02 
567	 8.35421567941279E-02 
568	 8.42097333881685E-02 
569	 8.48633847628869E-02 
570	 8.55163812546807E-02 
571	 8.62106113427876E-02 
572	 8.68891226789673E-02 
573	 8.76209527082072E-02 
574	 8.85364815411664E-02 
575	 8.93289972118319E-02 
576	 9.01596422624188E-02 
577	 9.11170447839667E-02 
578	 9.19484128295302E-02 
579	 9.29052100121613E-02 
580	 9.39755143302337E-02 
581	 9.50425495888521E-02 
582	 9.61075766139605E-02 
583	 9.71845715982451E-02 
584	 9.82614105671126E-02 
585	 9.92872844054431E-02 
586	 0.100434362652301 
587	 0.101620141369515 
588	 0.102740000032845 
589	 0.103961407159848 
590	 0.105166965694438 
591	 0.106319862185535 
592	 0.107467774081112 
593	 0.108565038655907 
594	 0.109665649711855 
595	 0.110798397565138 
596	 0.111875307896936 
597	 0.112980845193668 
598	 0.114082221377894 
599	 0.115104312198676 
600	 0.116170417792946 
601	 0.117225988150634 
602	 0.118215752650521 
603	 0.119124693380464 
604	 0.119978249373515 
605	 0.120814599449273 
606	 0.121670141395266 
607	 0.122549939220721 
608	 0.123357308083278 
609	 0.12407853420432 
610	 0.124800869202739 
611	 0.125479047797918 
612	 0.126120437681255 
613	 0.126731062666457 
614	 0.127281640445502 
615	 0.127782257165668 
616	 0.128261494302132 
617	 0.128752410809955 
618	 0.129216064790143 
619	 0.129620491739351 
620	 0.129981566460827 
621	 0.130423329908212 
622	 0.130780652831364 
623	 0.131062554025824 
624	 0.131351709676534 
625	 0.131696244595608 
626	 0.132026176591138 
627	 0.132305640725151 
628	 0.132555652872025 
629	 0.132831966938159 
630	 0.133111791100599 
631	 0.133362382661903 
632	 0.133608377176074 
633	 0.133825970352929 
634	 0.134054522206354 
635	 0.134374069474448 
636	 0.134653593177977 
637	 0.134877329145518 
638	 0.135068904596258 
639	 0.135289042640829 
640	 0.135540660797995 
641	 0.135805256414701 
642	 0.136055980999516 
643	 0.136308747816267 
644	 0.136591028536919 
645	 0.136888443373166 
646	 0.137124584916638 
647	 0.137347176206615 
648	 0.137593912052678 
649	 0.137886410510148 
650	 0.138194783638741 
651	 0.138485095536207 
652	 0.138765895692435 
653	 0.139080563937688 
654	 0.139400972500646 
655	 0.139681868622482 
656	 0.139930460680633 
657	 0.140295913784921 
658	 0.140628921437955 
659	 0.140945809501122 
660	 0.141320533289925 
661	 0.141618630246165 
662	 0.141957692369385 
663	 0.142362337546553 
664	 0.142686768141539 
665	 0.143093145899933 
666	 0.143510414722044 
667	 0.143856288644342 
668	 0.144294302607424 
669	 0.144710705343873 
670	 0.145099252306422 
671	 0.145540966984703 
672	 0.145929448773558 
673	 0.146374686772021 
674	 0.146915351354099 
675	 0.147329058028138 
676	 0.147791503185493 
677	 0.148277526308962 
678	 0.148701611380843 
679	 0.149193022342395 
680	 0.149703585929388 
681	 0.150201453418105 
682	 0.150695850889479 
683	 0.151226609568884 
684	 0.151747249117413 
685	 0.152230511749772 
686	 0.152806850902597 
687	 0.153392493492837 
688	 0.153938033327122 
689	 0.154431257374078 
690	 0.154967082824284 
691	 0.155526542118679 
692	 0.156088679611088 
693	 0.156668851434717 
694	 0.157234819014091 
695	 0.157808753300217 
696	 0.158414537314149 
697	 0.158967305595922 
698	 0.159503376670452 
699	 0.160061179848913 
700	 0.160669054554035 
701	 0.161251127380459 
702	 0.161843287131999 
703	 0.162463785547976 
704	 0.163012717909355 
705	 0.163535406543288 
706	 0.164072601273669 
707	 0.164653461420184 
708	 0.165233304008114 
709	 0.16581464898472 
710	 0.166389178233778 
711	 0.166927508191496 
712	 0.167446751195104 
713	 0.167950227634001 
714	 0.168454033331301 
715	 0.169045424358059 
716	 0.169540552786301 
717	 0.169966883510344 
718	 0.170495999948768 
719	 0.171013798328753 
720	 0.171461808819169 
721	 0.171841816129561 
722	 0.172251381313502 
723	 0.172702939804646 
724	 0.173153571427601 
725	 0.173545844386858 
726	 0.173873491369877 
727	 0.174191738924421 
728	 0.174525885161806 
729	 0.174867287679352 
730	 0.175182198215171 
731	 0.175458282574496 
732	 0.175694607246945 
733	 0.175895197154005 
734	 0.176145760960881 
735	 0.176389841008196 
736	 0.176533871173525 
737	 0.176666483092534 
738	 0.176788860699158 
739	 0.176907619527159 
740	 0.177039264801595 
741	 0.177115189058836 
742	 0.17714027695778 
743	 0.177150525298603 
744	 0.177225437808429 
745	 0.177234508439468 
746	 0.177189629194173 
747	 0.177155638100989 
748	 0.17703050079016 
749	 0.176915949617417 
750	 0.17685386245944 
751	 0.176791795696134 
752	 0.176656256040958 
753	 0.17646629235675 
754	 0.17626572514168 
755	 0.176091487124208 
756	 0.175935774463537 
757	 0.175745883146401 
758	 0.17547098709511 
759	 0.175252519498253 
760	 0.175017790896393 
761	 0.174741217660452 
762	 0.174480735120737 
763	 0.17419188459971 
764	 0.173873895082222 
765	 0.173539590388802 
766	 0.173203309737289 
767	 0.172899224676436 
768	 0.172597777701893 
769	 0.17224696448456 
770	 0.171893534864755 
771	 0.171548711401794 
772	 0.171198925532168 
773	 0.170807155628003 
774	 0.170431312477269 
775	 0.170060132939753 
776	 0.169672741147093 
777	 0.169265814595376 
778	 0.168853185962874 
779	 0.168472536304857 
780	 0.168142964323688 
781	 0.167705306241403 
782	 0.167281494794231 
783	 0.16690868156809 
784	 0.166514193864036 
785	 0.166130203992854 
786	 0.165742657834127 
787	 0.165345166312275 
788	 0.164968303819074 
789	 0.164605487742899 
790	 0.164207839334724 
791	 0.163748783250329 
792	 0.163398189595732 
793	 0.163037095207198 
794	 0.162640124728748 
795	 0.162269602985915 
796	 0.161838290734332 
797	 0.161446767666286 
798	 0.161128448532957 
799	 0.160743219966892 
800	 0.160377113834417 
801	 0.16001922395349 
802	 0.159646358168382 
803	 0.159300673283623 
804	 0.158968938505349 
805	 0.158632716862806 
806	 0.158276051646036 
807	 0.157920495111432 
808	 0.157578103497884 
809	 0.157254616345957 
810	 0.156947756267156 
811	 0.156652302743441 
812	 0.156322025391969 
813	 0.155954128256797 
814	 0.15568352584499 
815	 0.155428614557133 
816	 0.155143969540646 
817	 0.154820946102048 
818	 0.154555767695095 
819	 0.154323765974506 
820	 0.154073846303783 
821	 0.153753920999706 
822	 0.15348981379011 
823	 0.153248814156291 
824	 0.15299941796003 
825	 0.152752665193231 
826	 0.152528338096968 
827	 0.152307491074537 
828	 0.152075886464548 
829	 0.151871243424981 
830	 0.15165922129967 
831	 0.151429786544774 
832	 0.151202139188039 
833	 0.151096050108009 
834	 0.150919245673549 
835	 0.150672775587611 
836	 0.15054608373928 
837	 0.150434129773149 
838	 0.150275387774622 
839	 0.150068531511195 
840	 0.149901564442558 
841	 0.149724755264196 
842	 0.149575744639393 
843	 0.149485632748105 
844	 0.149398876069638 
845	 0.149308059902506 
846	 0.149201070321644 
847	 0.14907918031855 
848	 0.149011417041681 
849	 0.148966993804244 
850	 0.148885758815192 
851	 0.148713409796312 
852	 0.14865146364143 
853	 0.148645304462338 
854	 0.148622866722849 
855	 0.148548086300987 
856	 0.148542696303567 
857	 0.148554234762495 
858	 0.148518202258038 
859	 0.148444585086568 
860	 0.148416193741509 
861	 0.148430760387562 
862	 0.148440243793646 
863	 0.148355252059958 
864	 0.148354429649103 
865	 0.148446192018475 
866	 0.148523671618172 
867	 0.148540912347849 
868	 0.148537871708007 
869	 0.148553008516127 
870	 0.148607446388776 
871	 0.148661838371126 
872	 0.148731885414216 
873	 0.148825903052609 
874	 0.148926159161226 
875	 0.148992900575164 
876	 0.149061517779539 
877	 0.14916700041739 
878	 0.149290446594106 
879	 0.149428461410183 
880	 0.14954457893598 
881	 0.149618585976892 
882	 0.14973095076618 
883	 0.149894821765793 
884	 0.150060944661916 
885	 0.150170835257824 
886	 0.150334718252249 
887	 0.15050248116889 
888	 0.150665430529499 
889	 0.15085512552543 
890	 0.151039969488972 
891	 0.151223640535489 
892	 0.151421488527339 
893	 0.151651737507342 
894	 0.151811567721105 
895	 0.151982007602226 
896	 0.152206828667355 
897	 0.152396622041549 
898	 0.152647939262846 
899	 0.152932553587192 
900	 0.153202000493363 
901	 0.153441848590538 
902	 0.153735706674261 
903	 0.154035397750584 
904	 0.154270329162008 
905	 0.154467826958256 
906	 0.154721806786303 
907	 0.15505470656462 
908	 0.155426504705665 
909	 0.155717053647807 
910	 0.155988535939421 
911	 0.156277913567425 
912	 0.156593001549596 
913	 0.156917142895658 
914	 0.157267092425394 
915	 0.157645169264724 
916	 0.158034937727288 
917	 0.158392164318196 
918	 0.158748391166225 
919	 0.159106395919741 
920	 0.159429937243636 
921	 0.159796653466226 
922	 0.160221145996719 
923	 0.160657002139128 
924	 0.161000097668021 
925	 0.161383262619945 
926	 0.161829627209983 
927	 0.162294494369329 
928	 0.162661431683291 
929	 0.163079580951694 
930	 0.163545226388729 
931	 0.164002433331037 
932	 0.164372508134632 
933	 0.164860280555965 
934	 0.165363934617815 
935	 0.165784136157493 
936	 0.166316118266029 
937	 0.166712094841057 
938	 0.167086186141851 
939	 0.167607760971371 
940	 0.168195458806023 
941	 0.168709611267282 
942	 0.16920617180603 
943	 0.169770465832623 
944	 0.170253329363817 
945	 0.170699685895869 
946	 0.171207300115765 
947	 0.17181391946905 
948	 0.1722065842741 
949	 0.172702417309853 
950	 0.173267104883271 
951	 0.173731992555111 
952	 0.17429740729997 
953	 0.174788161661861 
954	 0.175272340052578 
955	 0.175901799199472 
956	 0.176446829219775 
957	 0.177028086800037 
958	 0.177609999889891 
959	 0.178100042410451 
960	 0.178710275102869 
961	 0.179293694167411 
962	 0.17988147359125 
963	 0.180568365709494 
964	 0.181030792725907 
965	 0.181587281474731 
966	 0.182227118693585 
967	 0.182744977769591 
968	 0.183387399995174 
969	 0.183979011676296 
970	 0.18447841362673 
971	 0.184972185800962 
972	 0.185574909552642 
973	 0.186281550443303 
974	 0.186964331396203 
975	 0.187495127939285 
976	 0.188191607377916 
977	 0.18877168255782 
978	 0.18925233525628 
979	 0.189836709350799 
980	 0.190431242478587 
981	 0.191012298368907 
982	 0.191566094032287 
983	 0.192108687122145 
984	 0.192758630155071 
985	 0.193472686174856 
986	 0.194073948224324 
987	 0.194457582346265 
988	 0.195187459699138 
989	 0.195742393272163 
990	 0.196195371720279 
991	 0.196847884266739 
992	 0.197400411423712 
993	 0.197928790146416 
994	 0.198504478377806 
995	 0.199137390480892 
996	 0.199648948640814 
997	 0.200105983408936 
998	 0.200542829606939 
999	 0.20101398951154 
1000	 0.201693714405072 
1001	 0.205516944589091 
1002	 0.205957828604004 
1003	 0.206437527428115 
1004	 0.206904558620861 
1005	 0.207398492609282 
1006	 0.207890683544906 
1007	 0.208388910467207 
1008	 0.208838240944598 
1009	 0.209294507810376 
1010	 0.209748138784785 
1011	 0.210244105966949 
1012	 0.210689011403645 
1013	 0.211105038634482 
1014	 0.211547620010749 
1015	 0.211913092882112 
1016	 0.212273209941586 
1017	 0.212681207835846 
1018	 0.213129294553215 
1019	 0.213547035877184 
1020	 0.213968142848364 
1021	 0.214399977334647 
1022	 0.214746522649466 
1023	 0.215052673019581 
1024	 0.215362220854722 
1025	 0.215667252552292 
1026	 0.216011751673386 
1027	 0.216362624849624 
1028	 0.216686748977015 
1029	 0.217020521850491 
1030	 0.217356163208693 
1031	 0.217642872248097 
1032	 0.217899036583122 
1033	 0.218166885867596 
1034	 0.218410741734869 
1035	 0.218600394259538 
1036	 0.218860240501048 
1037	 0.219190280743685 
1038	 0.219513111526877 
1039	 0.219789681710844 
1040	 0.220054263301066 
1041	 0.220310851981102 
1042	 0.220550523943434 
1043	 0.220792827968653 
1044	 0.221058236866144 
1045	 0.221372946372798 
1046	 0.221630862003612 
1047	 0.22177760760286 
1048	 0.221980416769931 
1049	 0.222145757170238 
1050	 0.222293878339258 
1051	 0.222606713953393 
1052	 0.222925251252593 
1053	 0.22321403081498 
1054	 0.223491757000841 
1055	 0.223681618626414 
1056	 0.223891272074886 
1057	 0.224156970666535 
1058	 0.224495967571794 
1059	 0.224762518963046 
1060	 0.225044432139889 
1061	 0.225295959300928 
1062	 0.225483510946054 
1063	 0.225704416408337 
1064	 0.225971013688656 
1065	 0.226175401097675 
1066	 0.226400203678965 
1067	 0.226647045142838 
1068	 0.226892554782799 
1069	 0.227189977878751 
1070	 0.227436461496478 
1071	 0.227668505016121 
1072	 0.227890021477012 
1073	 0.228044083567341 
1074	 0.228261468645712 
1075	 0.228528392743991 
1076	 0.228757000133094 
1077	 0.22897098265783 
1078	 0.229218119537402 
1079	 0.229453870913192 
1080	 0.229693870495541 
1081	 0.229909107357872 
1082	 0.230143580421773 
1083	 0.230346983128408 
1084	 0.230472113866913 
1085	 0.230680955838647 
1086	 0.230934812965399 
1087	 0.231148428022363 
1088	 0.231364694145937 
1089	 0.231627700715033 
1090	 0.231802186032444 
1091	 0.231953348619687 
1092	 0.232131059194211 
1093	 0.23228729983327 
1094	 0.232444272231426 
1095	 0.23259694107121 
1096	 0.232748208597371 
1097	 0.23290451354757 
1098	 0.233059778473289 
1099	 0.233232292237546 
1100	 0.23338504768863 
1101	 0.233522628042254 
1102	 0.233660417718329 
1103	 0.233796948527834 
1104	 0.23391688089721 
1105	 0.23403363154048 
1106	 0.234155880449461 
1107	 0.23423978168969 
1108	 0.234369656834491 
1109	 0.234549368143706 
1110	 0.234701232876586 
1111	 0.234828940624328 
1112	 0.234961972047955 
1113	 0.235066027162975 
1114	 0.235114749202104 
1115	 0.235202371284736 
1116	 0.235305489457616 
1117	 0.235406801011809 
1118	 0.235517076989893 
1119	 0.235608077491256 
1120	 0.235719534572045 
1121	 0.235842122225554 
1122	 0.235918586621237 
1123	 0.235989794794508 
1124	 0.236054037930503 
1125	 0.236078339124732 
1126	 0.236134292450053 
1127	 0.236212035076381 
1128	 0.236278757785371 
1129	 0.236354746900688 
1130	 0.23641045545418 
1131	 0.236459308394647 
1132	 0.236495075883078 
1133	 0.236523291674235 
1134	 0.236533734607191 
1135	 0.236529456339387 
1136	 0.236516158315294 
1137	 0.236480447549332 
1138	 0.236466517615693 
1139	 0.23645652338163 
1140	 0.23646121092223 
1141	 0.236440912073573 
1142	 0.236423868681789 
1143	 0.23638942174839 
1144	 0.236340732589511 
1145	 0.236283354023587 
1146	 0.236191600652445 
1147	 0.236136086615171 
1148	 0.23608033588122 
1149	 0.236040074722466 
1150	 0.236021789180889 
1151	 0.236030241861915 
1152	 0.236002343667883 
1153	 0.235981183294384 
1154	 0.235980040111467 
1155	 0.235980415358583 
1156	 0.235998247008927 
1157	 0.236049968602223 
1158	 0.23607183667295 
1159	 0.236072006408517 
1160	 0.236108844473862 
1161	 0.236161128451511 
1162	 0.236204261092731 
1163	 0.236268910593099 
1164	 0.236325814889257 
1165	 0.236360826001996 
1166	 0.236409279155469 
1167	 0.236489118947556 
1168	 0.236543047238091 
1169	 0.236600773836609 
1170	 0.23665667429004 
1171	 0.236715060331231 
1172	 0.236768182204571 
1173	 0.236830572025899 
1174	 0.23689932120769 
1175	 0.236964226095858 
1176	 0.237036057122503 
1177	 0.23709542144076 
1178	 0.237142910168522 
1179	 0.237203303583628 
1180	 0.237270006493971 
1181	 0.237325698512315 
1182	 0.237388307136927 
1183	 0.237435099049293 
1184	 0.237492803602728 
1185	 0.237535809728391 
1186	 0.237604179968087 
1187	 0.237703068019763 
1188	 0.23776721849795 
1189	 0.237827747032118 
1190	 0.237878320283477 
1191	 0.237904025345351 
1192	 0.237943091114911 
1193	 0.237969776526391 
1194	 0.238023207447309 
1195	 0.238109137511851 
1196	 0.238165808141203 
1197	 0.238220984739985 
1198	 0.238279851135631 
1199	 0.238332739875478 
1200	 0.238356956714172 
1201	 0.238415091996463 
1202	 0.238498345069971 
1203	 0.238562675341379 
1204	 0.238628432967732 
1205	 0.238687959824503 
1206	 0.238737315550621 
1207	 0.238795830741092 
1208	 0.238855733137394 
1209	 0.238915050887408 
1210	 0.238993275060354 
1211	 0.239043611623575 
1212	 0.239071933222583 
1213	 0.239108931789585 
1214	 0.239120916003093 
1215	 0.239154201706429 
1216	 0.239198738476067 
1217	 0.239262397116432 
1218	 0.239314065098471 
1219	 0.239371822724632 
1220	 0.239426665261392 
1221	 0.239476749924111 
1222	 0.239531115722096 
1223	 0.239598711672306 
1224	 0.239645892338015 
1225	 0.239679644235769 
1226	 0.239719481789312 
1227	 0.239753765566449 
1228	 0.239785537320499 
1229	 0.239818061994996 
1230	 0.239851406240101 
1231	 0.239873664122872 
1232	 0.239905056667009 
1233	 0.239941690294415 
1234	 0.239985949911712 
1235	 0.240031460329247 
1236	 0.240083808120647 
1237	 0.240129365684672 
1238	 0.240186258833393 
1239	 0.240216603736556 
1240	 0.240226217711546 
1241	 0.240247081650879 
1242	 0.240250977067636 
1243	 0.240272178286192 
1244	 0.240307732522318 
1245	 0.240341779083241 
1246	 0.240384609928146 
1247	 0.240419880134622 
1248	 0.240452320608636 
1249	 0.240487154674254 
1250	 0.240524706527331 
1251	 0.240551988802884 
1252	 0.240581990982558 
1253	 0.240620211376312 
1254	 0.240640854388328 
1255	 0.240652206446309 
1256	 0.240660026711847 
1257	 0.240652115261946 
1258	 0.240655408587247 
1259	 0.240653996580836 
1260	 0.240664349263379 
1261	 0.240698158203544 
1262	 0.240706061695159 
1263	 0.240703099091477 
1264	 0.240705709149889 
1265	 0.240696961085722 
1266	 0.240686866291577 
1267	 0.240677049899463 
1268	 0.240675389349073 
1269	 0.240671020212242 
1270	 0.240656118572917 
1271	 0.240652910219489 
1272	 0.240663464892153 
1273	 0.240660980311335 
1274	 0.240649827531067 
1275	 0.240651110972735 
1276	 0.240657027029711 
1277	 0.240658835064401 
1278	 0.240656541924803 
1279	 0.240669811751766 
1280	 0.240688856332387 
1281	 0.24070942178686 
1282	 0.240757132548854 
1283	 0.240780217254195 
1284	 0.24079892496288 
1285	 0.240789463457734 
1286	 0.240775516046888 
1287	 0.240785866441458 
1288	 0.240811885976822 
1289	 0.240864457414324 
1290	 0.240891131196493 
1291	 0.240921290923873 
1292	 0.240944821623112 
1293	 0.24095367738941 
1294	 0.24096296104266 
1295	 0.240975015274885 
1296	 0.240989944179442 
1297	 0.241007682084915 
1298	 0.241005983751972 
1299	 0.241003346768167 
1300	 0.240993883882911 
1301	 0.240951338468327 
1302	 0.240926370911847 
1303	 0.240905775435148 
1304	 0.240902201905982 
1305	 0.240893391811431 
1306	 0.240867849182479 
1307	 0.24083084952902 
1308	 0.240778398041975 
1309	 0.240724473992812 
1310	 0.240665953058402 
1311	 0.240587716827645 
1312	 0.240499388319283 
1313	 0.240404399130851 
1314	 0.240288369964952 
1315	 0.240172803858844 
1316	 0.240059560961554 
1317	 0.239933523068595 
1318	 0.239799168426461 
1319	 0.239656912407811 
1320	 0.239498422480321 
1321	 0.239345004949981 
1322	 0.239192000025582 
1323	 0.239027923689714 
1324	 0.23886378700785 
1325	 0.238711943535271 
1326	 0.238535810124381 
1327	 0.238352473728108 
1328	 0.238150874361872 
1329	 0.237935723295267 
1330	 0.237718794884844 
1331	 0.237493853230654 
1332	 0.237253665673232 
1333	 0.237002352874192 
1334	 0.236759965393247 
1335	 0.236498825066876 
1336	 0.236258659561595 
1337	 0.236045202289509 
1338	 0.235804359863892 
1339	 0.235545602610621 
1340	 0.235308516650776 
1341	 0.235078031720359 
1342	 0.234837972711934 
1343	 0.234598265299655 
1344	 0.234370445883011 
1345	 0.234146852580006 
1346	 0.233914677689273 
1347	 0.233694850744467 
1348	 0.233476376325773 
1349	 0.233233706154271 
1350	 0.232984547602247 
1351	 0.232752295656271 
1352	 0.232534733768655 
1353	 0.2322983208172 
1354	 0.232056934237294 
1355	 0.231826764311855 
1356	 0.231585645515266 
1357	 0.231357528026848 
1358	 0.231159966965161 
1359	 0.230925742479207 
1360	 0.230673260856465 
1361	 0.230427773551133 
1362	 0.230177618134883 
1363	 0.229915995999877 
1364	 0.229661671766996 
1365	 0.229385688880995 
1366	 0.229096122517956 
1367	 0.228784933439324 
1368	 0.228476922556153 
1369	 0.228138821001993 
1370	 0.227740254316416 
1371	 0.227332475099902 
1372	 0.226889392469424 
1373	 0.226402195074106 
1374	 0.22587831537249 
1375	 0.225342458523496 
1376	 0.224721426366932 
1377	 0.224053004975045 
1378	 0.223301445263256 
1379	 0.222471525240564 
1380	 0.221598335060885 
1381	 0.220672059431796 
1382	 0.219664286168955 
1383	 0.218608145047448 
1384	 0.217475341343084 
1385	 0.216269671832668 
1386	 0.214990485850936 
1387	 0.213640763195072 
1388	 0.212240611257761 
1389	 0.210782736793744 
1390	 0.209239156541192 
1391	 0.207636345071157 
1392	 0.205960658131423 
1393	 0.20422420351656 
1394	 0.202466659567269 
1395	 0.200653199408327 
1396	 0.198830213954825 
1397	 0.197009518104516 
1398	 0.195138445871266 
1399	 0.193312248139939 
1400	 0.191496405028361 
1401	 0.189723737845969 
1402	 0.187961661932135 
1403	 0.186249726203643 
1404	 0.184565002304767 
1405	 0.182950904111976 
1406	 0.181370933260101 
1407	 0.179854535308897 
1408	 0.178400637187825 
1409	 0.177004754609154 
1410	 0.175650038935325 
1411	 0.174374414682064 
1412	 0.173157788506317 
1413	 0.172030363037352 
1414	 0.170980259217736 
1415	 0.169980528485351 
1416	 0.169053971968644 
1417	 0.168173194510684 
1418	 0.167340524597289 
1419	 0.166566448416737 
1420	 0.165829858766907 
1421	 0.165145832268368 
1422	 0.164498503439812 
1423	 0.163872460177519 
1424	 0.163285981646383 
1425	 0.16274105252889 
1426	 0.162221600603379 
1427	 0.161733566226442 
1428	 0.16127320959644 
1429	 0.160838999996196 
1430	 0.160444677270076 
1431	 0.160085458111577 
1432	 0.159748086261435 
1433	 0.159457041798631 
1434	 0.15916543236066 
1435	 0.158876101046318 
1436	 0.158626121754564 
1437	 0.158399940612689 
1438	 0.158193964071708 
1439	 0.15802176196329 
1440	 0.15786430087156 
1441	 0.157710296795475 
1442	 0.157577241684304 
1443	 0.157458589872922 
1444	 0.157347075445923 
1445	 0.157248309417282 
1446	 0.157170562122595 
1447	 0.157111203381427 
1448	 0.157056019563081 
1449	 0.15701258723295 
1450	 0.156981903699708 
1451	 0.156957906417497 
1452	 0.156934464727096 
1453	 0.156940241600016 
1454	 0.156966450535871 
1455	 0.156994658120928 
1456	 0.157036777204684 
1457	 0.157092784902678 
1458	 0.157148309797762 
1459	 0.157233937174934 
1460	 0.157342671447577 
1461	 0.157469426085595 
1462	 0.157611645249916 
1463	 0.157780493851174 
1464	 0.157963815117764 
1465	 0.158184958962762 
1466	 0.158441154642128 
1467	 0.158713554359122 
1468	 0.159015857975689 
1469	 0.159340171477485 
1470	 0.159681133758854 
1471	 0.160053294198555 
1472	 0.160447441236473 
1473	 0.160849001043493 
1474	 0.16126546223679 
1475	 0.161701446149894 
1476	 0.162145837299108 
1477	 0.162597611019381 
1478	 0.163068125038702 
1479	 0.16353721175854 
1480	 0.164004276387357 
1481	 0.164501797633724 
1482	 0.164992994774069 
1483	 0.165480428834784 
1484	 0.165980640773706 
1485	 0.166492097680502 
1486	 0.16700095780683 
1487	 0.1675152396296 
1488	 0.168033048546368 
1489	 0.168562239292592 
1490	 0.169079903399099 
1491	 0.169595538232444 
1492	 0.170106719618411 
1493	 0.170602226419444 
1494	 0.171114091788438 
1495	 0.171643073805752 
1496	 0.172152969834187 
1497	 0.172659031770692 
1498	 0.173166172088707 
1499	 0.17366638453031 
1500	 0.17416094428594 
1501	 0.17465506908756 
1502	 0.1751478258074 
1503	 0.175638723400638 
1504	 0.176108592305951 
1505	 0.176596119023654 
1506	 0.17708972520887 
1507	 0.177544368982788 
1508	 0.178007745462842 
1509	 0.178458131909479 
1510	 0.178886392411671 
1511	 0.179355148814223 
1512	 0.179812448771184 
1513	 0.180250550233041 
1514	 0.180711327739717 
1515	 0.181142731057189 
1516	 0.181574175606126 
1517	 0.182016940346298 
1518	 0.182473862137057 
1519	 0.182910587616632 
1520	 0.183351768164879 
1521	 0.183762925774638 
1522	 0.184143320804405 
1523	 0.18454617518789 
1524	 0.184950055851366 
1525	 0.18534153132728 
1526	 0.185737789268961 
1527	 0.186126411398229 
1528	 0.186494808110784 
1529	 0.186868288297135 
1530	 0.187247833615229 
1531	 0.187620369155219 
1532	 0.18799027797282 
1533	 0.188348311112283 
1534	 0.188701587565259 
1535	 0.189049961827301 
1536	 0.189384031243627 
1537	 0.189714781795872 
1538	 0.190042089272631 
1539	 0.190370698574026 
1540	 0.190694604623733 
1541	 0.191015381576433 
1542	 0.1913452444602 
1543	 0.191656279554006 
1544	 0.191948580641826 
1545	 0.192243159990885 
1546	 0.192533492471861 
1547	 0.192812710589108 
1548	 0.193090256353614 
1549	 0.1933668364428 
1550	 0.193637175372349 
1551	 0.193905292556372 
1552	 0.194169548122677 
1553	 0.194443416931987 
1554	 0.1947238970589 
1555	 0.194991400025179 
1556	 0.195252908089189 
1557	 0.195508761698007 
1558	 0.195746295340484 
1559	 0.195976114353269 
1560	 0.196205914222395 
1561	 0.196435990930883 
1562	 0.196655126829467 
1563	 0.196862884271355 
1564	 0.197081081861962 
1565	 0.197300729929929 
1566	 0.197510293532591 
1567	 0.19772330130705 
1568	 0.197922131631491 
1569	 0.198102361850408 
1570	 0.198294867388824 
1571	 0.198491605397204 
1572	 0.198678174889181 
1573	 0.198864440979432 
1574	 0.199045134884599 
1575	 0.19921669429303 
1576	 0.199388136795774 
1577	 0.199562142963582 
1578	 0.199721595631527 
1579	 0.199865771980365 
1580	 0.200019092833258 
1581	 0.200173487605319 
1582	 0.200318131018045 
1583	 0.200460858493793 
1584	 0.200603848495283 
1585	 0.200744084129571 
1586	 0.200872827567699 
1587	 0.20100120203148 
1588	 0.201122580871524 
1589	 0.201222109545694 
1590	 0.201331136774257 
1591	 0.201444670520751 
1592	 0.201556320156478 
1593	 0.201662095756201 
1594	 0.201777465326921 
1595	 0.201900740108318 
1596	 0.202021359113603 
1597	 0.20215342216371 
1598	 0.202271550203157 
1599	 0.202395827558575 
1600	 0.20249246083093 
1601	 0.202553345129358 
1602	 0.202630653844984 
1603	 0.202694850458932 
1604	 0.202765788244853 
1605	 0.202851855432401 
1606	 0.202936743393354 
1607	 0.203027731805051 
1608	 0.203100943304426 
1609	 0.203177655233822 
1610	 0.203261889181229 
1611	 0.203324397398281 
1612	 0.203378396222623 
1613	 0.203433962994678 
1614	 0.203487279934647 
1615	 0.203552142138934 
1616	 0.203627404824515 
1617	 0.203700260766147 
1618	 0.203758178520476 
1619	 0.203798356284628 
1620	 0.203823548116342 
1621	 0.203864190060447 
1622	 0.203900289934956 
1623	 0.203941518333262 
1624	 0.203992073638696 
1625	 0.20404501662802 
1626	 0.204099225389929 
1627	 0.204142273420542 
1628	 0.204193000681598 
1629	 0.20422563541177 
1630	 0.204231689212935 
1631	 0.204267246917165 
1632	 0.204313893870594 
1633	 0.204351099882303 
1634	 0.20439495751913 
1635	 0.204434246095051 
1636	 0.204469688197179 
1637	 0.204494475362997 
1638	 0.204518864529115 
1639	 0.204536884584085 
1640	 0.204537816659764 
1641	 0.204549866652177 
1642	 0.204568510070366 
1643	 0.204580887813555 
1644	 0.204585427265914 
1645	 0.204600991583234 
1646	 0.204621956934 
1647	 0.204638741836239 
1648	 0.204662035714943 
1649	 0.204678880330563 
1650	 0.20469066538296 
1651	 0.204699844720443 
1652	 0.204717312391914 
1653	 0.20470674537559 
1654	 0.204671364649039 
1655	 0.204654481205226 
1656	 0.20463093332057 
1657	 0.204606118796715 
1658	 0.204593905845173 
1659	 0.204568954327047 
1660	 0.204523680809634 
1661	 0.204494715333208 
1662	 0.204473398234765 
1663	 0.20445110464796 
1664	 0.204433168973589 
1665	 0.20441146127777 
1666	 0.204385278017021 
1667	 0.204369391131189 
1668	 0.204365889099441 
1669	 0.204341648747209 
1670	 0.204324144683718 
1671	 0.204280796688877 
1672	 0.204200973122798 
1673	 0.204145456227691 
1674	 0.204083585694359 
1675	 0.204036820932337 
1676	 0.20400689754953 
1677	 0.203971278844609 
1678	 0.203943064815002 
1679	 0.203906302519232 
1680	 0.203873420049681 
1681	 0.203823805334432 
1682	 0.20375412565951 
1683	 0.203701382878388 
1684	 0.203647163640325 
1685	 0.20359232915782 
1686	 0.203554540115935 
1687	 0.203495271733326 
1688	 0.203417336259675 
1689	 0.203347489864074 
1690	 0.203272703151279 
1691	 0.203201316709459 
1692	 0.20313861234946 
1693	 0.203062229934611 
1694	 0.202976367480714 
1695	 0.202895168787424 
1696	 0.20280791218902 
1697	 0.202722790801927 
1698	 0.202649319270117 
1699	 0.202558284183498 
1700	 0.202449176787111 
1701	 0.202355766846747 
1702	 0.20226267090265 
1703	 0.202168351463979 
1704	 0.202092360136526 
1705	 0.201990351993945 
1706	 0.201870074409364 
1707	 0.201751680219929 
1708	 0.201617700389791 
1709	 0.201494688437165 
1710	 0.20137487521131 
1711	 0.201260886994327 
1712	 0.20115705194443 
1713	 0.201039762851475 
1714	 0.200915045598417 
1715	 0.200793853267862 
1716	 0.200669177846944 
1717	 0.200546179378862 
1718	 0.200435577100149 
1719	 0.200307796381576 
1720	 0.200174490898443 
1721	 0.200021931751577 
1722	 0.199844876221035 
1723	 0.19968942428454 
1724	 0.19952973807577 
1725	 0.199367148547821 
1726	 0.199222595231163 
1727	 0.199059883678195 
1728	 0.198873498269623 
1729	 0.198706350899627 
1730	 0.198556819534516 
1731	 0.198372432611162 
1732	 0.198176014419744 
1733	 0.197983885533086 
1734	 0.197768326114479 
1735	 0.197562332257794 
1736	 0.197373794956967 
1737	 0.197160693420803 
1738	 0.196929052950494 
1739	 0.196716438321748 
1740	 0.196498564083026 
1741	 0.196287160701523 
1742	 0.196088470220398 
1743	 0.195884956591676 
1744	 0.195688738318688 
1745	 0.195470088913318 
1746	 0.195237259627485 
1747	 0.195006469456738 
1748	 0.194777826074567 
1749	 0.194552567431496 
1750	 0.194333577504489 
1751	 0.194110256469572 
1752	 0.193877511312031 
1753	 0.193648096287429 
1754	 0.19341916191873 
1755	 0.193158266916343 
1756	 0.192889034353557 
1757	 0.192624303224877 
1758	 0.19236605639759 
1759	 0.192138398275168 
1760	 0.191928482514607 
1761	 0.191731344663363 
1762	 0.191518133741279 
1763	 0.19128053235405 
1764	 0.191062262757938 
1765	 0.190837663769331 
1766	 0.190593413474672 
1767	 0.190354925462124 
1768	 0.190110123708473 
1769	 0.189878915117717 
1770	 0.189678722422531 
1771	 0.189503107324275 
1772	 0.189327261042364 
1773	 0.189116766261718 
1774	 0.188927080131061 
1775	 0.188771329404328 
1776	 0.188580314073166 
1777	 0.18839964717224 
1778	 0.188244117415577 
1779	 0.188052984513003 
1780	 0.187885661743141 
1781	 0.187759060838377 
1782	 0.187623433223985 
1783	 0.18751422710079 
1784	 0.187405044019787 
1785	 0.187315526125751 
1786	 0.187198716057931 
1787	 0.187057766177951 
1788	 0.186952690034319 
1789	 0.186844424549847 
1790	 0.186756869364537 
1791	 0.186706344068681 
1792	 0.186633426497456 
1793	 0.186550677035284 
1794	 0.186487402554374 
1795	 0.186427720230473 
1796	 0.186377832876146 
1797	 0.186351567593992 
1798	 0.186308863913118 
1799	 0.186264002801861 
1800	 0.186223688157567 
1801	 0.184996268921952 
1802	 0.185068132734027 
1803	 0.185137462355362 
1804	 0.185167771421452 
1805	 0.185217513631702 
1806	 0.185271924966977 
1807	 0.185313575980865 
1808	 0.185349499977834 
1809	 0.185389718373823 
1810	 0.185402302537813 
1811	 0.185400361380701 
1812	 0.185393695389624 
1813	 0.185347235592881 
1814	 0.185308397010536 
1815	 0.185243757880393 
1816	 0.18519081861306 
1817	 0.185149228798942 
1818	 0.185113693320793 
1819	 0.185070166312822 
1820	 0.185045394998548 
1821	 0.184988240354085 
1822	 0.18491762834819 
1823	 0.184869360591755 
1824	 0.18479284356894 
1825	 0.184735924434231 
1826	 0.184669624915629 
1827	 0.184576911534862 
1828	 0.184486342045685 
1829	 0.184388290174939 
1830	 0.184278430146952 
1831	 0.184162346429571 
1832	 0.184049053391536 
1833	 0.183890778588649 
1834	 0.183752778443005 
1835	 0.183610510347231 
1836	 0.183426228543865 
1837	 0.18326564670508 
1838	 0.183107288786974 
1839	 0.182906958204574 
1840	 0.182674647484176 
1841	 0.182440290110433 
1842	 0.182188164371323 
1843	 0.181920736654174 
1844	 0.181644941837392 
1845	 0.181326195716347 
1846	 0.180984000320272 
1847	 0.180598400011998 
1848	 0.180198556606048 
1849	 0.179813148840449 
1850	 0.179399131597281 
1851	 0.178980724152611 
1852	 0.178540769050633 
1853	 0.178040320369075 
1854	 0.177467141966872 
1855	 0.176871858694951 
1856	 0.176233132665369 
1857	 0.175543478308581 
1858	 0.174822618210065 
1859	 0.174031715264509 
1860	 0.173167119282262 
1861	 0.172228387852389 
1862	 0.171221556767173 
1863	 0.170146056935238 
1864	 0.168995864181828 
1865	 0.167758060483287 
1866	 0.166433633325905 
1867	 0.165023968743935 
1868	 0.163535420803768 
1869	 0.161939858919184 
1870	 0.160241878675459 
1871	 0.158448037927727 
1872	 0.156558591585722 
1873	 0.15458204367736 
1874	 0.152535206712297 
1875	 0.150358163669931 
1876	 0.148111253011729 
1877	 0.145770745493909 
1878	 0.143286111704579 
1879	 0.140725469094781 
1880	 0.13807898708985 
1881	 0.135288057395687 
1882	 0.13249078157735 
1883	 0.129636340380047 
1884	 0.12667891439784 
1885	 0.123720608089431 
1886	 0.120716795794523 
1887	 0.117623636112233 
1888	 0.114562008365419 
1889	 0.111477750832423 
1890	 0.108410636111869 
1891	 0.105440081073058 
1892	 0.10247280371982 
1893	 9.96466467241291E-02 
1894	 9.69110839448214E-02 
1895	 9.42744247104807E-02 
1896	 9.17263691376099E-02 
1897	 8.93567586217323E-02 
1898	 8.70629672661598E-02 
1899	 8.48822547590373E-02 
1900	 8.28510974696072E-02 
1901	 8.09143318901518E-02 
1902	 0.079125800730315 
1903	 7.75136344121309E-02 
1904	 7.59781304992219E-02 
1905	 7.45512781331502E-02 
1906	 7.32541971183488E-02 
1907	 0.072056868575487 
1908	 7.09653660835378E-02 
1909	 6.99893103697664E-02 
1910	 6.90692106861622E-02 
1911	 6.82221516147655E-02 
1912	 6.74309714921718E-02 
1913	 6.67081323914174E-02 
1914	 6.60581990491934E-02 
1915	 6.54636276111889E-02 
1916	 6.49403657508771E-02 
1917	 6.44611140863126E-02 
1918	 0.064024479922876 
1919	 6.36206381519174E-02 
1920	 6.32542113615759E-02 
1921	 6.29206756516739E-02 
1922	 6.26315630989061E-02 
1923	 6.23811419914766E-02 
1924	 6.21555219378321E-02 
1925	 6.19620490309106E-02 
1926	 6.18064284357495E-02 
1927	 0.061689435241146 
1928	 6.15791461713556E-02 
1929	 6.15204680890323E-02 
1930	 0.061503739986853 
1931	 6.14799155860645E-02 
1932	 6.15000363178512E-02 
1933	 6.15467074840354E-02 
1934	 6.15861381581629E-02 
1935	 6.16622372005171E-02 
1936	 6.17747704707879E-02 
1937	 6.18914831045354E-02 
1938	 0.062025651980168 
1939	 6.21810605687143E-02 
1940	 6.23563054792805E-02 
1941	 6.25325538054308E-02 
1942	 6.27428614925624E-02 
1943	 6.29701966580163E-02 
1944	 6.32039991345247E-02 
1945	 6.34658523695764E-02 
1946	 6.37395817303992E-02 
1947	 0.064027401691527 
1948	 6.43242669538423E-02 
1949	 6.46453520443973E-02 
1950	 6.49690400629674E-02 
1951	 0.065293093212937 
1952	 6.56406545692358E-02 
1953	 6.60030238839839E-02 
1954	 6.63603041429896E-02 
1955	 6.67275802336928E-02 
1956	 0.067110477608511 
1957	 6.75099495374054E-02 
1958	 6.79231499265911E-02 
1959	 6.83409434157016E-02 
1960	 6.87845483754337E-02 
1961	 6.92194700888633E-02 
1962	 6.96535207606356E-02 
1963	 0.070092400276977 
1964	 0.070526323335074 
1965	 7.09769931654734E-02 
1966	 0.071438060326814 
1967	 7.19130289053082E-02 
1968	 7.24000751947418E-02 
1969	 7.29134703121252E-02 
1970	 7.34104071625017E-02 
1971	 7.39111521750817E-02 
1972	 7.44127643019743E-02 
1973	 7.49085080494753E-02 
1974	 7.54167663770352E-02 
1975	 7.59349007963985E-02 
1976	 7.64513197607665E-02 
1977	 7.69748923889218E-02 
1978	 7.74842660184355E-02 
1979	 7.79922460731559E-02 
1980	 7.85099243298728E-02 
1981	 7.90269685276274E-02 
1982	 7.95310749122781E-02 
1983	 8.00715833151361E-02 
1984	 8.06357073827553E-02 
1985	 8.11909338601353E-02 
1986	 8.17777358617852E-02 
1987	 8.23452010080139E-02 
1988	 8.28960457167109E-02 
1989	 8.34504992821323E-02 
1990	 8.40074069786321E-02 
1991	 8.45522884653231E-02 
1992	 8.51065482763314E-02 
1993	 8.56577587432327E-02 
1994	 8.62137854023568E-02 
1995	 8.67836017735667E-02 
1996	 8.73384912362044E-02 
1997	 0.087881848065013 
1998	 8.84389770372986E-02 
1999	 8.89957865791688E-02 
2000	 8.95555514327002E-02 
2001	 9.01288486735373E-02 
2002	 9.06976243053779E-02 
2003	 9.12646444250984E-02 
2004	 9.18021781561201E-02 
2005	 9.23497067078574E-02 
2006	 9.28950735284288E-02 
2007	 9.34373099764101E-02 
2008	 9.39677212964101E-02 
2009	 9.45140895371468E-02 
2010	 9.50626745500674E-02 
2011	 9.56117635765563E-02 
2012	 0.096192278923416 
2013	 9.67393206191216E-02 
2014	 9.72621797296942E-02 
2015	 9.77847353719436E-02 
2016	 9.83160590355571E-02 
2017	 9.88386228541523E-02 
2018	 0.099367005700816 
2019	 9.99153212747268E-02 
2020	 0.100444301222011 
2021	 0.100960490573434 
2022	 0.101475547151036 
2023	 0.101985288668433 
2024	 0.102500779741393 
2025	 0.103009931393636 
2026	 0.103522264342723 
2027	 0.104048052370522 
2028	 0.104559761170501 
2029	 0.105070959942877 
2030	 0.105579952939388 
2031	 0.106085338964515 
2032	 0.106592565205149 
2033	 0.10708415596051 
2034	 0.107567102590328 
2035	 0.108043654551152 
2036	 0.108494742808735 
2037	 0.108967601108438 
2038	 0.109461361792475 
2039	 0.109929961586367 
2040	 0.110395591114194 
2041	 0.110858476818366 
2042	 0.111290331119266 
2043	 0.111715244660261 
2044	 0.112163155249308 
2045	 0.11261353816326 
2046	 0.113081869245266 
2047	 0.113582576545483 
2048	 0.114053383558291 
2049	 0.114538134137715 
2050	 0.114991204532689 
2051	 0.115399474745477 
2052	 0.115834535317874 
2053	 0.116260276943496 
2054	 0.11669729652634 
2055	 0.117157816671257 
2056	 0.117618148811476 
2057	 0.118049700919675 
2058	 0.118468443061778 
2059	 0.118888149239489 
2060	 0.119273309442406 
2061	 0.11969856868052 
2062	 0.120151994692481 
2063	 0.120586404830925 
2064	 0.121042671381891 
2065	 0.121468638264854 
2066	 0.121858949892916 
2067	 0.122268149505395 
2068	 0.122683307108951 
2069	 0.123081254389099 
2070	 0.123479701464505 
2071	 0.123885121447508 
2072	 0.12428217756645 
2073	 0.124660039565698 
2074	 0.125055169065442 
2075	 0.125467692274587 
2076	 0.125859980688333 
2077	 0.126237213235169 
2078	 0.126630571882587 
2079	 0.127017350375544 
2080	 0.127415369373814 
2081	 0.127848309413515 
2082	 0.128251298369981 
2083	 0.128643772597539 
2084	 0.129035529566709 
2085	 0.129398486397996 
2086	 0.129728993650181 
2087	 0.130079940145664 
2088	 0.130412177180274 
2089	 0.130768982074734 
2090	 0.131154412370542 
2091	 0.131510623525518 
2092	 0.13186017354192 
2093	 0.132211615977149 
2094	 0.132543404993505 
2095	 0.132888003653457 
2096	 0.133243229964592 
2097	 0.133599789520075 
2098	 0.13396788745853 
2099	 0.134319793967674 
2100	 0.134673422614354 
2101	 0.1350320305051 
2102	 0.135377945677739 
2103	 0.135715469142269 
2104	 0.136049320765798 
2105	 0.136365581579858 
2106	 0.136701618688278 
2107	 0.137056815858556 
2108	 0.13738351976256 
2109	 0.137691512941629 
2110	 0.13802565874473 
2111	 0.138353417919997 
2112	 0.138681621471237 
2113	 0.139017822449715 
2114	 0.139390516812261 
2115	 0.139728905611184 
2116	 0.140052806034381 
2117	 0.140366141464252 
2118	 0.140678080959939 
2119	 0.140974189017127 
2120	 0.141241060218652 
2121	 0.14152273484155 
2122	 0.141801792650033 
2123	 0.14208438391521 
2124	 0.142377210740042 
2125	 0.14265403434028 
2126	 0.142937217966828 
2127	 0.143196585639412 
2128	 0.143421530074076 
2129	 0.143661185698774 
2130	 0.143895798022916 
2131	 0.144133337141818 
2132	 0.144356674700419 
2133	 0.144590735547261 
2134	 0.144790741868798 
2135	 0.144963759021167 
2136	 0.145135853644497 
2137	 0.145296550754074 
2138	 0.14544663569677 
2139	 0.145576037122484 
2140	 0.145716406950289 
2141	 0.145854088068793 
2142	 0.145985812369696 
2143	 0.146127641563468 
2144	 0.146252409889939 
2145	 0.146368384797619 
2146	 0.146468709284231 
2147	 0.14654462897928 
2148	 0.146622984009625 
2149	 0.146712865973876 
2150	 0.146796001885933 
2151	 0.146883893919601 
2152	 0.147001565001002 
2153	 0.147077495448908 
2154	 0.147136915785131 
2155	 0.147181588108827 
2156	 0.147205610242108 
2157	 0.147222378420724 
2158	 0.147225472471387 
2159	 0.147216753642199 
2160	 0.14717462061301 
2161	 0.147158396629594 
2162	 0.147148010218539 
2163	 0.147135185468976 
2164	 0.147126725193674 
2165	 0.147133094573209 
2166	 0.147140247471657 
2167	 0.147149968716379 
2168	 0.147138765616966 
2169	 0.147139273142001 
2170	 0.147113227923156 
2171	 0.147047912384547 
2172	 0.147005871379552 
2173	 0.146973191233631 
2174	 0.146925068595528 
2175	 0.146870022539179 
2176	 0.146814675697642 
2177	 0.1467394005466 
2178	 0.146684413422805 
2179	 0.146662280703464 
2180	 0.146604138599569 
2181	 0.146532062992307 
2182	 0.146463106106887 
2183	 0.146369739635803 
2184	 0.146267647670276 
2185	 0.146201941659819 
2186	 0.146167172242659 
2187	 0.146103634206609 
2188	 0.146037516791607 
2189	 0.145989353580445 
2190	 0.145934297521278 
2191	 0.1458911022246 
2192	 0.145880468598145 
2193	 0.145847349619224 
2194	 0.145807515984434 
2195	 0.145758034178796 
2196	 0.145698273863669 
2197	 0.145640329531644 
2198	 0.145558366618036 
2199	 0.145504461156628 
2200	 0.14547959605193 
2201	 0.145437277357439 
2202	 0.145409555590587 
2203	 0.145356399523459 
2204	 0.145311999810104 
2205	 0.145235166522316 
2206	 0.145229836409466 
2207	 0.145274674245883 
2208	 0.145272149515631 
2209	 0.145287978926865 
2210	 0.1452903420318 
2211	 0.145241046880571 
2212	 0.145245103364291 
2213	 0.145299085527527 
2214	 0.145319040145114 
2215	 0.145337735827764 
2216	 0.145353923594835 
2217	 0.145372254899096 
2218	 0.145365424991155 
2219	 0.145337582758715 
2220	 0.145319014783432 
2221	 0.14528634989896 
2222	 0.145249820952258 
2223	 0.145211506463182 
2224	 0.145203802817871 
2225	 0.14518039820875 
2226	 0.145154435376339 
2227	 0.145106345332746 
2228	 0.145047534142829 
2229	 0.145001347552578 
2230	 0.144932637631983 
2231	 0.144889322507488 
2232	 0.14488998832331 
2233	 0.144841734389413 
2234	 0.144771139733691 
2235	 0.144705859387874 
2236	 0.14462380763713 
2237	 0.144542829761027 
2238	 0.144453429417124 
2239	 0.14437910419003 
2240	 0.144317392238616 
2241	 0.144235830227601 
2242	 0.144154219185225 
2243	 0.144073202380027 
2244	 0.143977393665933 
2245	 0.143878563527047 
2246	 0.14379157806907 
2247	 0.143697355668256 
2248	 0.143589316301134 
2249	 0.143460554549568 
2250	 0.143350127682376 
2251	 0.143243633402904 
2252	 0.143121473469536 
2253	 0.142985274686491 
2254	 0.14287321636176 
2255	 0.142758255450499 
2256	 0.142662223478211 
2257	 0.142606783308471 
2258	 0.14251559035456 
2259	 0.14241529534283 
2260	 0.142306292877656 
2261	 0.142173852264823 
2262	 0.142055041022608 
2263	 0.141932172777922 
2264	 0.141819688997621 
2265	 0.14172385885083 
2266	 0.141615815549626 
2267	 0.14150719441214 
2268	 0.141395524054177 
2269	 0.141270193496434 
2270	 0.141158461210608 
2271	 0.141050008469846 
2272	 0.140907657493126 
2273	 0.140777576107063 
2274	 0.140624927419085 
2275	 0.140488168364435 
2276	 0.140362114243595 
2277	 0.140232983109967 
2278	 0.140112529657566 
2279	 0.13996986067008 
2280	 0.139814993258662 
2281	 0.139649886384432 
2282	 0.139452052351633 
2283	 0.139288697019256 
2284	 0.139132570758797 
2285	 0.13898893161501 
2286	 0.138879342442548 
2287	 0.138742717658228 
2288	 0.138592737918348 
2289	 0.138456113989029 
2290	 0.138335084558397 
2291	 0.138179265603351 
2292	 0.138021483483549 
2293	 0.1378466750057 
2294	 0.137605401860837 
2295	 0.137406570253534 
2296	 0.137247984033041 
2297	 0.137059388828449 
2298	 0.136838664547132 
2299	 0.136643737004055 
2300	 0.136397564260074 
2301	 0.136164658688236 
2302	 0.135981620211753 
2303	 0.135772020011971 
2304	 0.135590411662732 
2305	 0.135389224060062 
2306	 0.135156094466996 
2307	 0.134901693639425 
2308	 0.134653258596136 
2309	 0.134359768304297 
2310	 0.134118651318854 
2311	 0.133904947741742 
2312	 0.133681797783762 
2313	 0.133476255499728 
2314	 0.133258042433588 
2315	 0.133048478511047 
2316	 0.132806137560966 
2317	 0.132540359783838 
2318	 0.132287480751237 
2319	 0.132022320675563 
2320	 0.131745208150232 
2321	 0.131460086063858 
2322	 0.131198868519369 
2323	 0.130937459005012 
2324	 0.130668072945643 
2325	 0.130413631768762 
2326	 0.130163926596909 
2327	 0.129901412209997 
2328	 0.129631833965316 
2329	 0.129422141963196 
2330	 0.129208874244444 
2331	 0.128970099670306 
2332	 0.128762161503665 
2333	 0.128525438387316 
2334	 0.12823777962771 
2335	 0.127975912068993 
2336	 0.127704496159165 
2337	 0.127436936846651 
2338	 0.127209385153483 
2339	 0.126967079292284 
2340	 0.126741002886245 
2341	 0.126467407798832 
2342	 0.126154006669628 
2343	 0.125844443354036 
2344	 0.125466092436146 
2345	 0.12512877969843 
2346	 0.124811805485184 
2347	 0.124493958212362 
2348	 0.124185019866585 
2349	 0.123854479078765 
2350	 0.123505736358731 
2351	 0.123200297550982 
2352	 0.122899617070702 
2353	 0.122609319936614 
2354	 0.122393975660171 
2355	 0.122077925569471 
2356	 0.121702189868994 
2357	 0.121318989155945 
2358	 0.120847014106546 
2359	 0.120490463994221 
2360	 0.120201338508688 
2361	 0.119863032379609 
2362	 0.119570301617298 
2363	 0.119230777872804 
2364	 0.118809050914409 
2365	 0.118457021663388 
2366	 0.11815105227951 
2367	 0.117813717186799 
2368	 0.11748792281572 
2369	 0.117146320596178 
2370	 0.116775001212214 
2371	 0.116439422576227 
2372	 0.116070066538182 
2373	 0.115637987228898 
2374	 0.11528129316125 
2375	 0.114901935207009 
2376	 0.114492569588067 
2377	 0.114117768785588 
2378	 0.1136726984772 
2379	 0.113266742384961 
2380	 0.112970020155402 
2381	 0.112661872905055 
2382	 0.11230845921386 
2383	 0.111903296697983 
2384	 0.111484611156083 
2385	 0.11106508189948 
2386	 0.110637727841577 
2387	 0.110236937182135 
2388	 0.109859822924854 
2389	 0.10950051116812 
2390	 0.109162535933885 
2391	 0.108830923489833 
2392	 0.108463737157514 
2393	 0.108036806761011 
2394	 0.107638151103938 
2395	 0.107286788792863 
2396	 0.106919970458464 
2397	 0.106555114208646 
2398	 0.106179524879918 
2399	 0.105772041719837 
2400	 0.105397912091718 
2401	 0.105045424041087 
2402	 0.104641157708581 
2403	 0.104217717272441 
2404	 0.103737972570097 
2405	 0.103235568531574 
2406	 0.102802974608809 
2407	 0.102459836651506 
2408	 0.102175654085373 
2409	 0.101803510487824 
2410	 0.101475344044419 
2411	 0.101165201555876 
2412	 0.100714201746667 
2413	 0.100318831836195 
2414	 9.98499550455615E-02 
2415	 9.93071385324896E-02 
2416	 0.098895790649735 
2417	 0.09859382469682 
2418	 9.82290922130366E-02 
2419	 9.79073794507607E-02 
2420	 9.75355506589611E-02 
2421	 9.71217889216102E-02 
2422	 9.67085564308626E-02 
2423	 9.63129938986059E-02 
2424	 9.59223843428851E-02 
2425	 9.54792512155739E-02 
2426	 9.51004116198211E-02 
2427	 9.47543212022338E-02 
2428	 9.43614713113541E-02 
2429	 9.40326795065397E-02 
2430	 9.36434590946244E-02 
2431	 9.31523330945339E-02 
2432	 9.27476341798475E-02 
2433	 0.092387125704469 
2434	 9.18956342811568E-02 
2435	 9.13673958916428E-02 
2436	 9.09383974839255E-02 
2437	 9.04857033035665E-02 
2438	 9.00760548927332E-02 
2439	 8.97435564536602E-02 
2440	 0.089341001835714 
2441	 8.88760765479127E-02 
2442	 8.84958203263077E-02 
2443	 8.81817177218267E-02 
2444	 8.77904889034368E-02 
2445	 8.74152703752192E-02 
2446	 8.70249698817372E-02 
2447	 8.65324108581721E-02 
2448	 8.61431994681174E-02 
2449	 8.58462906823741E-02 
2450	 8.54999738086649E-02 
2451	 8.51585726325842E-02 
2452	 8.47912931663191E-02 
2453	 8.44138798849295E-02 
2454	 8.40344453882735E-02 
2455	 8.36175205265864E-02 
2456	 8.32781180520157E-02 
2457	 8.30316415988987E-02 
2458	 8.26394251534513E-02 
2459	 8.21902555483611E-02 
2460	 8.17222210451624E-02 
2461	 8.11131283105522E-02 
2462	 8.06346053275239E-02 
2463	 8.02380836146909E-02 
2464	 7.98953911337888E-02 
2465	 7.96409445792766E-02 
2466	 7.93356406698109E-02 
2467	 7.90345561309678E-02 
2468	 7.86541981096977E-02 
2469	 7.82296953258584E-02 
2470	 7.79183685878197E-02 
2471	 7.75613930198336E-02 
2472	 7.74225000811069E-02 
2473	 0.077114418835424 
2474	 7.66414587112209E-02 
2475	 7.62656015124207E-02 
2476	 7.58828929895533E-02 
2477	 7.57058691051681E-02 
2478	 7.55920255911823E-02 
2479	 7.54069684342963E-02 
2480	 7.51353065518586E-02 
2481	 7.46678424676202E-02 
2482	 7.41681105477587E-02 
2483	 7.36349473059773E-02 
2484	 7.32690398132713E-02 
2485	 7.30834626315837E-02 
2486	 0.072822868293797 
2487	 7.26637838324559E-02 
2488	 7.24880519589219E-02 
2489	 7.22363427822166E-02 
2490	 7.19270009186805E-02 
2491	 7.14085580408991E-02 
2492	 7.10221439173983E-02 
2493	 7.08460781630545E-02 
2494	 7.07185447990623E-02 
2495	 7.07717586026103E-02 
2496	 0.070821018693795 
2497	 7.05604509181293E-02 
2498	 7.02468947115529E-02 
2499	 7.00942884868469E-02 
2500	 6.98551586046834E-02 
