Wavelength	mm1300000.asd
350	 6.24841369070787E-02 
351	 6.74199725562685E-02 
352	 6.17657960125705E-02 
353	 4.86433807325818E-02 
354	 5.71872020442798E-02 
355	 6.32826078861778E-02 
356	 6.31835532519614E-02 
357	 6.01959590068681E-02 
358	 6.08399006633537E-02 
359	 5.93257949961955E-02 
360	 5.62998109961009E-02 
361	 5.64564234362776E-02 
362	 5.84627779388897E-02 
363	 0.060257705576512 
364	 6.11521541605195E-02 
365	 6.29852121066934E-02 
366	 6.03701345368615E-02 
367	 5.79181466540076E-02 
368	 6.01752614273227E-02 
369	 6.04642687376803E-02 
370	 0.060642758444179 
371	 6.19790454840575E-02 
372	 6.46280520046401E-02 
373	 6.26197599888818E-02 
374	 6.15170794253681E-02 
375	 6.39079801375202E-02 
376	 6.50367954322029E-02 
377	 6.19662790162778E-02 
378	 6.16957806588933E-02 
379	 6.92590166067504E-02 
380	 0.068352400375891 
381	 6.53466949746545E-02 
382	 6.60715892270626E-02 
383	 7.36309441101915E-02 
384	 7.09193219683987E-02 
385	 6.65661270887983E-02 
386	 6.74332203818165E-02 
387	 6.99314862032845E-02 
388	 0.070337786631195 
389	 0.069557146481214 
390	 6.99290707557911E-02 
391	 7.22437467687114E-02 
392	 7.23853242937509E-02 
393	 7.19829969571242E-02 
394	 7.67624420083263E-02 
395	 0.074734109589129 
396	 7.22146993259687E-02 
397	 7.39229363834652E-02 
398	 7.47769873336929E-02 
399	 7.56213903502279E-02 
400	 0.076364998676172 
401	 0.07679236418028 
402	 7.74220275954835E-02 
403	 7.67983129157198E-02 
404	 7.56460443403134E-02 
405	 7.67934434266925E-02 
406	 7.82928361101745E-02 
407	 7.94182642574632E-02 
408	 7.97095889835171E-02 
409	 7.84585980415283E-02 
410	 7.78434030723162E-02 
411	 7.84045979560263E-02 
412	 7.96697068724366E-02 
413	 8.06698370865382E-02 
414	 8.02919542839449E-02 
415	 7.89746091427543E-02 
416	 7.90150153007766E-02 
417	 7.90365112457917E-02 
418	 7.93063388117158E-02 
419	 8.00877990011436E-02 
420	 8.04560624604675E-02 
421	 8.01062149468265E-02 
422	 7.97214650154197E-02 
423	 8.04440502728478E-02 
424	 8.13761478934748E-02 
425	 8.13830789788366E-02 
426	 8.03773257834664E-02 
427	 8.00286385296628E-02 
428	 8.03064539408779E-02 
429	 8.08749136886501E-02 
430	 8.12876603346625E-02 
431	 8.14482498967314E-02 
432	 8.12078801276392E-02 
433	 8.09269382115212E-02 
434	 8.13849267515341E-02 
435	 8.17921379055254E-02 
436	 0.081838950354516 
437	 8.14649807914053E-02 
438	 8.08151645605514E-02 
439	 8.10544191006782E-02 
440	 0.081755193329221 
441	 8.17918050276473E-02 
442	 8.15695924395803E-02 
443	 8.18683721317216E-02 
444	 8.25365434441372E-02 
445	 8.19604740110554E-02 
446	 8.21282622343233E-02 
447	 8.25452546869117E-02 
448	 8.23709631567013E-02 
449	 8.24879814789659E-02 
450	 8.28533756682879E-02 
451	 8.31501768081787E-02 
452	 8.29109008866178E-02 
453	 8.27697732319888E-02 
454	 8.28190205055081E-02 
455	 8.30052848093701E-02 
456	 8.32266738422237E-02 
457	 8.31769862247281E-02 
458	 8.29863636737747E-02 
459	 8.29652307857022E-02 
460	 8.30404079714873E-02 
461	 0.083002942523449 
462	 8.29582241270064E-02 
463	 8.34781745531544E-02 
464	 8.35162741791114E-02 
465	 0.083407719875488 
466	 8.36531042063318E-02 
467	 8.37680546065025E-02 
468	 8.37834836810607E-02 
469	 8.37093749002121E-02 
470	 8.35570316895635E-02 
471	 8.37553750382118E-02 
472	 8.39443942416853E-02 
473	 8.39010600442451E-02 
474	 0.084056235943425 
475	 8.41373645879019E-02 
476	 8.41386049728339E-02 
477	 8.41605929250423E-02 
478	 8.41825353026539E-02 
479	 8.42572663825927E-02 
480	 8.43658127040498E-02 
481	 8.43802023711568E-02 
482	 8.46132663145221E-02 
483	 8.48581686266167E-02 
484	 8.48744547141751E-02 
485	 8.49290537332985E-02 
486	 0.084766238037985 
487	 0.084532677378762 
488	 8.46842483780701E-02 
489	 8.49413568058054E-02 
490	 8.51237478266139E-02 
491	 8.51421790180297E-02 
492	 8.50770791597519E-02 
493	 8.48700859065821E-02 
494	 8.47649088327613E-02 
495	 8.50541168328686E-02 
496	 8.52928452595743E-02 
497	 8.53224218615025E-02 
498	 8.52616860307549E-02 
499	 8.56022208712682E-02 
500	 8.55882354143771E-02 
501	 8.54808540738931E-02 
502	 8.56580383101786E-02 
503	 8.55984926260947E-02 
504	 8.55475206740837E-02 
505	 8.55917388343298E-02 
506	 8.56481118171656E-02 
507	 8.56555809605157E-02 
508	 8.57080431293715E-02 
509	 8.58390109173531E-02 
510	 8.58260254534151E-02 
511	 8.58969757458054E-02 
512	 8.59696883131579E-02 
513	 8.58553612359449E-02 
514	 8.59924088042394E-02 
515	 8.62058656521634E-02 
516	 8.63393944339163E-02 
517	 8.63791877555097E-02 
518	 0.086527288924215 
519	 8.66231498923142E-02 
520	 0.086483152931466 
521	 8.64592111901146E-02 
522	 8.64727634628356E-02 
523	 0.086504867240817 
524	 8.66218167970708E-02 
525	 8.66894489688562E-02 
526	 8.67308436800571E-02 
527	 8.67814552976254E-02 
528	 8.67838359671557E-02 
529	 8.68456734411761E-02 
530	 8.69195152313402E-02 
531	 8.68795603403697E-02 
532	 8.69647151483708E-02 
533	 8.71342219082782E-02 
534	 8.72841867794385E-02 
535	 8.72528514878766E-02 
536	 8.72446918328496E-02 
537	 8.73156310509211E-02 
538	 8.74436126942899E-02 
539	 8.75167591335475E-02 
540	 8.76154481284005E-02 
541	 8.77333986748353E-02 
542	 8.77269981248625E-02 
543	 8.77738807134597E-02 
544	 8.79010000641561E-02 
545	 8.80638111296387E-02 
546	 8.81254836080932E-02 
547	 8.81479130458004E-02 
548	 8.82056609321449E-02 
549	 8.83661674494425E-02 
550	 8.84443821557212E-02 
551	 8.84783083505293E-02 
552	 8.85486139993647E-02 
553	 8.87504972844829E-02 
554	 0.088837987233546 
555	 8.88938128851243E-02 
556	 8.91409932970295E-02 
557	 8.93476315284245E-02 
558	 0.089573436377733 
559	 8.98269289565644E-02 
560	 8.99630693746998E-02 
561	 9.01388693351161E-02 
562	 9.03486785507835E-02 
563	 9.05425366443643E-02 
564	 0.09076310224472 
565	 9.09477698462797E-02 
566	 9.10982201258371E-02 
567	 9.12926065911646E-02 
568	 9.15329167184795E-02 
569	 9.18180622916207E-02 
570	 9.21476373545571E-02 
571	 9.25456361600086E-02 
572	 9.29257189704159E-02 
573	 9.32841608237022E-02 
574	 9.36707034810191E-02 
575	 9.39852275742723E-02 
576	 9.43680650880299E-02 
577	 9.48671423769231E-02 
578	 9.52511101415715E-02 
579	 9.56012861681828E-02 
580	 9.59147670211237E-02 
581	 9.61831660659843E-02 
582	 9.65629398258643E-02 
583	 9.69462484401284E-02 
584	 9.73311444186751E-02 
585	 9.79022298640899E-02 
586	 9.85287644776602E-02 
587	 9.91385608504222E-02 
588	 9.97011462897236E-02 
589	 0.100295980322338 
590	 0.100875950418492 
591	 0.101449726871274 
592	 0.102075960729003 
593	 0.102648989887383 
594	 0.103168053680658 
595	 0.103625174623601 
596	 0.103915794956744 
597	 0.104229096835424 
598	 0.104603920442424 
599	 0.104996549594138 
600	 0.105419851581393 
601	 0.105873345490251 
602	 0.106356141319795 
603	 0.106875818005236 
604	 0.107366602416191 
605	 0.107850344019855 
606	 0.108367181777641 
607	 0.108866381481638 
608	 0.109334476108758 
609	 0.109788610604094 
610	 0.110276520925191 
611	 0.110650732140029 
612	 0.110974667104902 
613	 0.111321358476971 
614	 0.111615910248934 
615	 0.111855533022826 
616	 0.112081122143627 
617	 0.112356976247592 
618	 0.112656375615828 
619	 0.112898338322854 
620	 0.113065789047306 
621	 0.113290538896665 
622	 0.113529953367114 
623	 0.113773169001308 
624	 0.114006813077432 
625	 0.114135876408685 
626	 0.114305986043944 
627	 0.114554130090008 
628	 0.114750955917015 
629	 0.114912487986444 
630	 0.115082397066762 
631	 0.115286155864514 
632	 0.115435622921025 
633	 0.115566921719135 
634	 0.115710566306406 
635	 0.11588532476156 
636	 0.116027323065456 
637	 0.116164523186158 
638	 0.116322699291619 
639	 0.116480652334677 
640	 0.1166573536192 
641	 0.116837596688191 
642	 0.116998551960634 
643	 0.117199051945976 
644	 0.117348760049687 
645	 0.117431892563494 
646	 0.117557255706639 
647	 0.117724137421665 
648	 0.117920903568286 
649	 0.118124749125277 
650	 0.118300290375834 
651	 0.1184841363932 
652	 0.118679995204022 
653	 0.118862038725676 
654	 0.119031082415654 
655	 0.119194360294482 
656	 0.119371490967908 
657	 0.119617101172961 
658	 0.119819232356124 
659	 0.119981056271223 
660	 0.120163209989531 
661	 0.120388947346851 
662	 0.1206330720303 
663	 0.120875052574104 
664	 0.121109801638801 
665	 0.121324339926436 
666	 0.121529921707171 
667	 0.121741783158179 
668	 0.121952620667787 
669	 0.122201829156306 
670	 0.122473543435182 
671	 0.122708716708932 
672	 0.12294463296355 
673	 0.123201092741166 
674	 0.12348056108299 
675	 0.123753736076388 
676	 0.12401748630914 
677	 0.12428964562282 
678	 0.12458652188167 
679	 0.124832995687008 
680	 0.125106280598351 
681	 0.125424297331167 
682	 0.125711751814061 
683	 0.126018404905287 
684	 0.126322813641749 
685	 0.126609843538817 
686	 0.126958711434999 
687	 0.127272881339189 
688	 0.127554864217944 
689	 0.127875941010013 
690	 0.128208542067999 
691	 0.128564443998231 
692	 0.128935000464454 
693	 0.129262340489872 
694	 0.129568930838619 
695	 0.129903647435602 
696	 0.130297915559775 
697	 0.130628320115921 
698	 0.130946003611993 
699	 0.131295276897537 
700	 0.131697581404839 
701	 0.132068080283893 
702	 0.132410118813248 
703	 0.132744860384315 
704	 0.133080663836135 
705	 0.133429124064036 
706	 0.133790864173934 
707	 0.134157254666946 
708	 0.134503734446747 
709	 0.134883807439847 
710	 0.135286571241433 
711	 0.135597516681968 
712	 0.135944327583111 
713	 0.136278867286592 
714	 0.136555181194917 
715	 0.136926632683755 
716	 0.137296153827773 
717	 0.137637394409249 
718	 0.137979895131232 
719	 0.138325267747819 
720	 0.138639135595923 
721	 0.138915789791532 
722	 0.139217895753619 
723	 0.139481661830476 
724	 0.139733521204047 
725	 0.140013404409632 
726	 0.140263763136464 
727	 0.140518336702243 
728	 0.140770401571812 
729	 0.140977791822312 
730	 0.141235101335033 
731	 0.141488881415285 
732	 0.141691858032542 
733	 0.141874706429189 
734	 0.142065161856789 
735	 0.14222761922267 
736	 0.142323689366554 
737	 0.142476435955447 
738	 0.142626336644223 
739	 0.142741006696654 
740	 0.142833517138536 
741	 0.142922482114502 
742	 0.142988998735199 
743	 0.143033188151108 
744	 0.143138563843576 
745	 0.143173185980634 
746	 0.143177125466194 
747	 0.143245297922787 
748	 0.143222517289412 
749	 0.143176971879667 
750	 0.143167870212102 
751	 0.143216195808465 
752	 0.143184698035302 
753	 0.143070423984034 
754	 0.142930312434298 
755	 0.142889139931611 
756	 0.142842339810699 
757	 0.142750836312993 
758	 0.142622340309391 
759	 0.142528731550256 
760	 0.142442598725444 
761	 0.142332738569486 
762	 0.142177701158638 
763	 0.142034448069199 
764	 0.141894136878565 
765	 0.141741220799518 
766	 0.141591062577142 
767	 0.141424640322533 
768	 0.141261512137222 
769	 0.141130510890878 
770	 0.140983620726454 
771	 0.140800653869562 
772	 0.140587019309156 
773	 0.140374868195134 
774	 0.140189355420429 
775	 0.140013008189428 
776	 0.139823229864419 
777	 0.13961234529232 
778	 0.139409113858231 
779	 0.139234899985706 
780	 0.139089213943087 
781	 0.138871889949036 
782	 0.138651814840317 
783	 0.138457206186353 
784	 0.138259216473952 
785	 0.138050554468317 
786	 0.137846772242997 
787	 0.137654785208529 
788	 0.137443325061535 
789	 0.137291971954257 
790	 0.137125963475225 
791	 0.136863475898103 
792	 0.136714308623386 
793	 0.136534630087183 
794	 0.136308152613556 
795	 0.136136167134566 
796	 0.135936285501205 
797	 0.135748742419756 
798	 0.135593917044612 
799	 0.135422020944355 
800	 0.135278657681969 
801	 0.135119884919227 
802	 0.134905495623267 
803	 0.134710656224005 
804	 0.134551361522747 
805	 0.134409407772561 
806	 0.134248335008909 
807	 0.134079395953505 
808	 0.133918952777637 
809	 0.133762279738895 
810	 0.133577400314194 
811	 0.133406507362997 
812	 0.133263111688762 
813	 0.133145449173384 
814	 0.133032983548568 
815	 0.132932571193326 
816	 0.132823123574036 
817	 0.132678370053086 
818	 0.132499087672209 
819	 0.13236436539148 
820	 0.13226986070281 
821	 0.132144813155953 
822	 0.132075633401951 
823	 0.131999892455661 
824	 0.131879465454262 
825	 0.131751076660364 
826	 0.131644101678168 
827	 0.131552075482381 
828	 0.131463163032794 
829	 0.131393645285115 
830	 0.131277307478697 
831	 0.131157930815969 
832	 0.131113357428426 
833	 0.131071532071483 
834	 0.131001723371927 
835	 0.130913850773654 
836	 0.130852765867051 
837	 0.130834594151641 
838	 0.130792696182414 
839	 0.130701432423003 
840	 0.130627974104827 
841	 0.130534237689012 
842	 0.130450733643638 
843	 0.130417694009783 
844	 0.130459022866026 
845	 0.13044507648413 
846	 0.130374402270105 
847	 0.130317167952122 
848	 0.130346502196628 
849	 0.130344717665915 
850	 0.130284765006158 
851	 0.130227776077336 
852	 0.130164058595845 
853	 0.13016733414706 
854	 0.130238518323894 
855	 0.130263151984899 
856	 0.130274017340406 
857	 0.130287692007019 
858	 0.130307941918249 
859	 0.130308798772842 
860	 0.130326829978119 
861	 0.130341324974309 
862	 0.130328306421112 
863	 0.130337993397418 
864	 0.130394473038471 
865	 0.130452701975257 
866	 0.130446720450222 
867	 0.130478520135166 
868	 0.130542564631097 
869	 0.130591903540417 
870	 0.130564242547894 
871	 0.130620867994157 
872	 0.13071550904979 
873	 0.130803185015874 
874	 0.130900549846257 
875	 0.130969487193693 
876	 0.131028082069412 
877	 0.131086991291781 
878	 0.13108681694037 
879	 0.131184550672405 
880	 0.131309962837852 
881	 0.131366053313451 
882	 0.131514994239531 
883	 0.131627856768354 
884	 0.131702548434501 
885	 0.131808084307057 
886	 0.131951724933328 
887	 0.132067837650936 
888	 0.13214967100416 
889	 0.132243635085657 
890	 0.132336244966891 
891	 0.132446763949868 
892	 0.132600082463468 
893	 0.132815102755362 
894	 0.132954506183255 
895	 0.133053029104346 
896	 0.133170447453413 
897	 0.133342137437457 
898	 0.133491735091924 
899	 0.133650620601934 
900	 0.133841241261698 
901	 0.133982170036188 
902	 0.134151634268624 
903	 0.134307535895542 
904	 0.134414134966851 
905	 0.134616919074952 
906	 0.134817853159012 
907	 0.135016118388786 
908	 0.135248653761166 
909	 0.135492218198272 
910	 0.135631964960421 
911	 0.135732365388071 
912	 0.135953178124696 
913	 0.136212239101127 
914	 0.136495203857386 
915	 0.136738174651546 
916	 0.136861701632762 
917	 0.137050862372282 
918	 0.137319518558091 
919	 0.137591077171014 
920	 0.137740464463893 
921	 0.138046351791911 
922	 0.138382356219376 
923	 0.138631659127455 
924	 0.138805638513229 
925	 0.13898547643773 
926	 0.13928016363324 
927	 0.139672922308681 
928	 0.139925806328933 
929	 0.140180975021771 
930	 0.140475691241707 
931	 0.140793044502484 
932	 0.141056482113821 
933	 0.141306309772124 
934	 0.141619316082351 
935	 0.142010886616752 
936	 0.142298265425205 
937	 0.14258534530207 
938	 0.142879403622637 
939	 0.14317210861569 
940	 0.143508929536165 
941	 0.143862149024826 
942	 0.144244827678556 
943	 0.144657014353884 
944	 0.144988087208507 
945	 0.145317323328344 
946	 0.145667583835897 
947	 0.146015181486744 
948	 0.146266714372182 
949	 0.146584980267628 
950	 0.146989020227469 
951	 0.147411841898675 
952	 0.147820319971977 
953	 0.148152694125415 
954	 0.148485614509704 
955	 0.14893616824225 
956	 0.149401263185204 
957	 0.149795351410978 
958	 0.150160057749527 
959	 0.150591684793793 
960	 0.151008010825596 
961	 0.151477505620113 
962	 0.151901075170509 
963	 0.152149634544396 
964	 0.152586207431459 
965	 0.15308206332094 
966	 0.153554864748141 
967	 0.153995180023412 
968	 0.15447649950384 
969	 0.154895344322594 
970	 0.155275706167477 
971	 0.155718049938383 
972	 0.15618174189676 
973	 0.156633410370747 
974	 0.157077180636188 
975	 0.157542269690435 
976	 0.158041981994824 
977	 0.15853034156618 
978	 0.158994586295145 
979	 0.159453675622378 
980	 0.159945702927186 
981	 0.160450026592399 
982	 0.160871418009152 
983	 0.161152967986321 
984	 0.161633078444875 
985	 0.162110785536239 
986	 0.16254396115957 
987	 0.163005287794725 
988	 0.163556115412217 
989	 0.164015971892443 
990	 0.164384611982787 
991	 0.164784361331016 
992	 0.165364681629915 
993	 0.165876773470166 
994	 0.16634502920609 
995	 0.166871120020788 
996	 0.167272495794937 
997	 0.167838613059222 
998	 0.168385579743285 
999	 0.168715974671187 
1000	 0.169286453082351 
1001	 0.169332814556871 
1002	 0.169724479380347 
1003	 0.170090160464423 
1004	 0.170495686293949 
1005	 0.170884514508637 
1006	 0.171302478816051 
1007	 0.17177591233958 
1008	 0.172240208835038 
1009	 0.172651290826783 
1010	 0.17313140941091 
1011	 0.173528268953533 
1012	 0.173846423927298 
1013	 0.174225902747405 
1014	 0.174609276871299 
1015	 0.175002729450924 
1016	 0.175466277987499 
1017	 0.175874669702718 
1018	 0.176260509879654 
1019	 0.176566390152897 
1020	 0.176924043726055 
1021	 0.177260713852014 
1022	 0.177602929744626 
1023	 0.177946659325923 
1024	 0.178223511483789 
1025	 0.178523161040877 
1026	 0.178833866924012 
1027	 0.179187827367112 
1028	 0.179543887893538 
1029	 0.179847868940823 
1030	 0.180160950642977 
1031	 0.180467991864388 
1032	 0.180737988206517 
1033	 0.181030608772739 
1034	 0.181369320224368 
1035	 0.18168815564214 
1036	 0.181986076900007 
1037	 0.182338071628191 
1038	 0.182679205133395 
1039	 0.18293224990367 
1040	 0.183241541760726 
1041	 0.183549683513868 
1042	 0.183803602127086 
1043	 0.184123418907998 
1044	 0.184409619351628 
1045	 0.184675335172295 
1046	 0.184888609007721 
1047	 0.185183211671955 
1048	 0.185515547746635 
1049	 0.185825284507997 
1050	 0.186149584425894 
1051	 0.186470019462814 
1052	 0.186722177197765 
1053	 0.187004514892127 
1054	 0.187358685946357 
1055	 0.187680228340284 
1056	 0.188018798064411 
1057	 0.188331807062592 
1058	 0.188612944859535 
1059	 0.188908749664159 
1060	 0.189207805257271 
1061	 0.18947074275857 
1062	 0.189787413668517 
1063	 0.190105625127429 
1064	 0.190383617788706 
1065	 0.190688326472073 
1066	 0.190944126926365 
1067	 0.191196373583957 
1068	 0.191499459398031 
1069	 0.191814790278536 
1070	 0.192096510678337 
1071	 0.192392712619777 
1072	 0.1926547251143 
1073	 0.192851856157721 
1074	 0.193082192088449 
1075	 0.193309551379831 
1076	 0.193570443618824 
1077	 0.193833346374113 
1078	 0.19407274890224 
1079	 0.194314561203059 
1080	 0.19455841491438 
1081	 0.194779601624067 
1082	 0.195006482174157 
1083	 0.195250438409108 
1084	 0.195513754235581 
1085	 0.195744993064215 
1086	 0.195986650486033 
1087	 0.196205334962179 
1088	 0.196387880762384 
1089	 0.196588043682815 
1090	 0.196808240892149 
1091	 0.197014296279209 
1092	 0.197244836961998 
1093	 0.19747555507876 
1094	 0.197654145017758 
1095	 0.197843117286396 
1096	 0.198065745010878 
1097	 0.198231508722364 
1098	 0.198415396179833 
1099	 0.198620988903398 
1100	 0.19882424996349 
1101	 0.199013812083804 
1102	 0.199210682102783 
1103	 0.19945390187017 
1104	 0.199601697538015 
1105	 0.199751256779553 
1106	 0.199954707315959 
1107	 0.200130259742786 
1108	 0.200329800417787 
1109	 0.200522768123919 
1110	 0.200698493079701 
1111	 0.20088587906161 
1112	 0.201068746977123 
1113	 0.201261794646477 
1114	 0.20147259023651 
1115	 0.201662445327361 
1116	 0.201847070400387 
1117	 0.202034159804298 
1118	 0.202213600461327 
1119	 0.20239211471885 
1120	 0.202588041570747 
1121	 0.202769025304688 
1122	 0.202934490499281 
1123	 0.203110543028534 
1124	 0.203294723505236 
1125	 0.203477860990666 
1126	 0.203665671244023 
1127	 0.203870046699803 
1128	 0.204057950492628 
1129	 0.204232129978419 
1130	 0.204416772173794 
1131	 0.204611840519429 
1132	 0.204793596065412 
1133	 0.204979091972654 
1134	 0.205148259154465 
1135	 0.205296471235333 
1136	 0.205449365087827 
1137	 0.205613501037986 
1138	 0.205764271367896 
1139	 0.205911149969196 
1140	 0.206063190403369 
1141	 0.20620532145934 
1142	 0.20631920948404 
1143	 0.206468121686057 
1144	 0.206634350561329 
1145	 0.206789587764295 
1146	 0.206975003062839 
1147	 0.207120869430923 
1148	 0.207226819897539 
1149	 0.207359655130714 
1150	 0.207484172550375 
1151	 0.207613558353838 
1152	 0.207784688048617 
1153	 0.207932742227066 
1154	 0.20806747379901 
1155	 0.208186714421989 
1156	 0.208320077542932 
1157	 0.208442818279264 
1158	 0.208577595299511 
1159	 0.208730300948337 
1160	 0.208869711742384 
1161	 0.2090052500117 
1162	 0.209137894040385 
1163	 0.209262772583063 
1164	 0.209393598998646 
1165	 0.209520617259875 
1166	 0.209663294593267 
1167	 0.209780202945505 
1168	 0.209900155931082 
1169	 0.210018407984322 
1170	 0.210118274001958 
1171	 0.210236762013306 
1172	 0.210378463748744 
1173	 0.210495661724642 
1174	 0.210600113309321 
1175	 0.210715774335637 
1176	 0.210821981441553 
1177	 0.210936756392375 
1178	 0.211071690814176 
1179	 0.211192343023456 
1180	 0.21130176415199 
1181	 0.211418176043186 
1182	 0.211541657699791 
1183	 0.211655780395091 
1184	 0.211756430354845 
1185	 0.211845730785603 
1186	 0.211955457855124 
1187	 0.212060918612279 
1188	 0.212164111705962 
1189	 0.212281798092179 
1190	 0.212396360485591 
1191	 0.212500094722147 
1192	 0.212606004356391 
1193	 0.212732685513682 
1194	 0.212836582339683 
1195	 0.212905143179174 
1196	 0.21300100621088 
1197	 0.213120413280407 
1198	 0.213216272786099 
1199	 0.21330725843111 
1200	 0.213405509750018 
1201	 0.213491018357053 
1202	 0.213542007331353 
1203	 0.213636643318285 
1204	 0.213753686764354 
1205	 0.213861944001668 
1206	 0.213992295029526 
1207	 0.21409746303066 
1208	 0.214194153293626 
1209	 0.2142823412045 
1210	 0.21435240042387 
1211	 0.214429599063412 
1212	 0.214494177613137 
1213	 0.214572944648762 
1214	 0.214663812226634 
1215	 0.214751794591299 
1216	 0.214842271761967 
1217	 0.21494295545984 
1218	 0.215029804616463 
1219	 0.215110381708631 
1220	 0.215192407878739 
1221	 0.215273650255206 
1222	 0.215347825235033 
1223	 0.215422784175778 
1224	 0.215487403667531 
1225	 0.215531213257612 
1226	 0.215593904959416 
1227	 0.215662457830957 
1228	 0.215728328098336 
1229	 0.215789219402077 
1230	 0.215870368776795 
1231	 0.215973561603828 
1232	 0.216056965342088 
1233	 0.216139174683632 
1234	 0.216243208233515 
1235	 0.216310254008601 
1236	 0.216339397011871 
1237	 0.21639798865761 
1238	 0.216459316714869 
1239	 0.216516999021404 
1240	 0.216578951679742 
1241	 0.216641674484659 
1242	 0.216703845153446 
1243	 0.216763022020177 
1244	 0.216826635299661 
1245	 0.216885483220605 
1246	 0.216937200495607 
1247	 0.216987524283535 
1248	 0.217026715984125 
1249	 0.21708342057717 
1250	 0.217140248239864 
1251	 0.217207044894024 
1252	 0.217269748152785 
1253	 0.217347111424575 
1254	 0.21740604071942 
1255	 0.217458571360229 
1256	 0.217501465590672 
1257	 0.217535096106609 
1258	 0.217568032800198 
1259	 0.217578762916511 
1260	 0.217613610931815 
1261	 0.217667947554302 
1262	 0.217706473337061 
1263	 0.217745116450214 
1264	 0.217788496354499 
1265	 0.217820992765154 
1266	 0.217860369376905 
1267	 0.217914310795709 
1268	 0.217963205030205 
1269	 0.218011696561674 
1270	 0.218054835901379 
1271	 0.21810739941862 
1272	 0.218164984288334 
1273	 0.218221132524824 
1274	 0.218273659161471 
1275	 0.218343586761863 
1276	 0.218427098989799 
1277	 0.218499798385876 
1278	 0.218567139670542 
1279	 0.21865507796944 
1280	 0.218747361436864 
1281	 0.218842651455848 
1282	 0.218969801080528 
1283	 0.219079658970627 
1284	 0.219178364219748 
1285	 0.219262165265047 
1286	 0.219387237354401 
1287	 0.219507248564841 
1288	 0.219613169779461 
1289	 0.219732461577833 
1290	 0.219823254872488 
1291	 0.219872835763969 
1292	 0.219959120963398 
1293	 0.220058576963836 
1294	 0.220146609746479 
1295	 0.220253041256087 
1296	 0.220331531442495 
1297	 0.220395035834386 
1298	 0.220444638934965 
1299	 0.220468793925819 
1300	 0.220502326574052 
1301	 0.220516612355193 
1302	 0.22054836449494 
1303	 0.2205928569821 
1304	 0.220642289902408 
1305	 0.220689683687351 
1306	 0.220726076192805 
1307	 0.220733954255099 
1308	 0.220730261760004 
1309	 0.220716423903747 
1310	 0.220679057301238 
1311	 0.220651055563001 
1312	 0.220614519005368 
1313	 0.220587211989723 
1314	 0.220560459061191 
1315	 0.220539305412615 
1316	 0.22053854290632 
1317	 0.22050901203271 
1318	 0.220463703114644 
1319	 0.220422800958616 
1320	 0.220360424372731 
1321	 0.220316562387684 
1322	 0.220279169639129 
1323	 0.220259435146793 
1324	 0.220240378819023 
1325	 0.220203682551338 
1326	 0.22017534450397 
1327	 0.220128344184775 
1328	 0.220070570779462 
1329	 0.220029039186266 
1330	 0.219975873961403 
1331	 0.219918204663791 
1332	 0.219859847877243 
1333	 0.219792799031331 
1334	 0.219736990342491 
1335	 0.219678930748225 
1336	 0.219629902962337 
1337	 0.219599021351123 
1338	 0.219554021179249 
1339	 0.219499807725295 
1340	 0.219460559613827 
1341	 0.219419737021106 
1342	 0.219385623145557 
1343	 0.219367545255003 
1344	 0.219347785009839 
1345	 0.219310221727661 
1346	 0.219264664417981 
1347	 0.219215581430917 
1348	 0.2191609540531 
1349	 0.219110803867413 
1350	 0.21906083803657 
1351	 0.219008076565344 
1352	 0.218951051706722 
1353	 0.218900995006098 
1354	 0.21885711782633 
1355	 0.218797698987525 
1356	 0.218728921625468 
1357	 0.218669924854304 
1358	 0.21860380245014 
1359	 0.218549399376679 
1360	 0.218506959682613 
1361	 0.218462825432622 
1362	 0.218419891560593 
1363	 0.21837822435474 
1364	 0.218337055645209 
1365	 0.218303815553895 
1366	 0.218276962781702 
1367	 0.218244857973542 
1368	 0.218224117073566 
1369	 0.218207390918397 
1370	 0.218185521445431 
1371	 0.218152705512602 
1372	 0.218085710774832 
1373	 0.218008257760276 
1374	 0.217918048120104 
1375	 0.217806392963145 
1376	 0.217681544978024 
1377	 0.217555244600572 
1378	 0.217392628026249 
1379	 0.217188345318439 
1380	 0.217001519512478 
1381	 0.21680210814666 
1382	 0.216601911037083 
1383	 0.216423567277264 
1384	 0.216202776880749 
1385	 0.215961950424571 
1386	 0.215702423183307 
1387	 0.215415508558975 
1388	 0.215119045823811 
1389	 0.214810990549228 
1390	 0.214483020132024 
1391	 0.214142769445058 
1392	 0.213781566965469 
1393	 0.213387770259308 
1394	 0.212977306866746 
1395	 0.212529042007726 
1396	 0.212066730853697 
1397	 0.211622182074876 
1398	 0.211176229701193 
1399	 0.210717079148655 
1400	 0.2102604789433 
1401	 0.209807070326667 
1402	 0.209325097211672 
1403	 0.208881999788332 
1404	 0.20845325325582 
1405	 0.208052363270241 
1406	 0.207678878933966 
1407	 0.207307286188976 
1408	 0.206951612625749 
1409	 0.20661569131332 
1410	 0.206271798764352 
1411	 0.205972036805228 
1412	 0.205704254218531 
1413	 0.205462973750726 
1414	 0.205260340797658 
1415	 0.20508958766789 
1416	 0.204943053541478 
1417	 0.204822101378673 
1418	 0.204705723942707 
1419	 0.204600215156822 
1420	 0.204512871381552 
1421	 0.204420895352018 
1422	 0.204340436000509 
1423	 0.204261407712723 
1424	 0.204174288991825 
1425	 0.204081626017207 
1426	 0.204004295475321 
1427	 0.203916531666918 
1428	 0.203855758751332 
1429	 0.203813618780876 
1430	 0.203775825770752 
1431	 0.203760293921827 
1432	 0.203733132440328 
1433	 0.203703954358186 
1434	 0.203685069252305 
1435	 0.203663155769467 
1436	 0.203653541375655 
1437	 0.203652803522296 
1438	 0.203662515727552 
1439	 0.203691648381271 
1440	 0.203706122485637 
1441	 0.203712657653079 
1442	 0.203733020372605 
1443	 0.203735698118953 
1444	 0.203740407609912 
1445	 0.203776909337797 
1446	 0.203813007280218 
1447	 0.203854327567002 
1448	 0.203905015403686 
1449	 0.20392130300723 
1450	 0.203936052223149 
1451	 0.203967058257442 
1452	 0.203990739436755 
1453	 0.204031364241931 
1454	 0.204095335002732 
1455	 0.204149597970785 
1456	 0.204201846121457 
1457	 0.204259489441037 
1458	 0.204326653541808 
1459	 0.204384876680389 
1460	 0.204429555470126 
1461	 0.204499297328006 
1462	 0.204575868888244 
1463	 0.204660826627613 
1464	 0.204771899442459 
1465	 0.204870852168365 
1466	 0.204952611316313 
1467	 0.205059432594351 
1468	 0.205176717410067 
1469	 0.205300605177517 
1470	 0.205441915428422 
1471	 0.20559208794853 
1472	 0.205722164671864 
1473	 0.205862994372965 
1474	 0.205997043545469 
1475	 0.206134101520336 
1476	 0.206293382405075 
1477	 0.206444881651978 
1478	 0.206599693436322 
1479	 0.206750732491371 
1480	 0.206893297502059 
1481	 0.207042252865198 
1482	 0.207194856431832 
1483	 0.207357198680943 
1484	 0.207508114706803 
1485	 0.207651531376306 
1486	 0.207807380342381 
1487	 0.20795871773261 
1488	 0.208119380895245 
1489	 0.208304285745154 
1490	 0.208465556938664 
1491	 0.208624293027822 
1492	 0.208769618982138 
1493	 0.208887820992535 
1494	 0.209029173672233 
1495	 0.209175608850432 
1496	 0.209316194670358 
1497	 0.209473168305932 
1498	 0.209612501993364 
1499	 0.209737247345483 
1500	 0.209860815029898 
1501	 0.20996801293202 
1502	 0.210090212470971 
1503	 0.210216713183914 
1504	 0.210343488510656 
1505	 0.210472944761289 
1506	 0.210608944807833 
1507	 0.210737704020843 
1508	 0.210867361475599 
1509	 0.210984547101865 
1510	 0.211095406958864 
1511	 0.211198543808408 
1512	 0.211275626322096 
1513	 0.21137902601066 
1514	 0.211510646863741 
1515	 0.211633595010057 
1516	 0.211766964581642 
1517	 0.211888253995916 
1518	 0.212000053323075 
1519	 0.21211249966526 
1520	 0.212225434104558 
1521	 0.212330405904966 
1522	 0.212427159849608 
1523	 0.212530854904132 
1524	 0.212633168204785 
1525	 0.212737629195676 
1526	 0.212843493450659 
1527	 0.21295130110353 
1528	 0.21306123117889 
1529	 0.213167212028163 
1530	 0.21328000032148 
1531	 0.213381105175459 
1532	 0.213471366130448 
1533	 0.213564153223633 
1534	 0.213659999192844 
1535	 0.213744226265132 
1536	 0.21382704051527 
1537	 0.213896007128378 
1538	 0.21393757196106 
1539	 0.213995044355746 
1540	 0.214052267138541 
1541	 0.214113872246354 
1542	 0.214190106836684 
1543	 0.214259128684971 
1544	 0.214322750700825 
1545	 0.214387298334069 
1546	 0.214459694798451 
1547	 0.21451168631887 
1548	 0.214556525687513 
1549	 0.2146115631306 
1550	 0.214663348376418 
1551	 0.214721270550573 
1552	 0.214788895709377 
1553	 0.214867900074079 
1554	 0.214948914711977 
1555	 0.215028521850495 
1556	 0.215105800926697 
1557	 0.215162010694055 
1558	 0.215207300691785 
1559	 0.21525810646897 
1560	 0.215304448705578 
1561	 0.215350543460988 
1562	 0.215392272357256 
1563	 0.21542293278282 
1564	 0.215467194681245 
1565	 0.215514265398531 
1566	 0.215567591654579 
1567	 0.215637474805655 
1568	 0.215690254021735 
1569	 0.215735625262407 
1570	 0.215781918666904 
1571	 0.215819107205393 
1572	 0.215866172654585 
1573	 0.215917882480961 
1574	 0.215971728695143 
1575	 0.216038644555656 
1576	 0.216084358029951 
1577	 0.216130295733323 
1578	 0.216158038536087 
1579	 0.216146580829114 
1580	 0.216171274689846 
1581	 0.216204449262603 
1582	 0.216240075726621 
1583	 0.216296435895237 
1584	 0.216346428684389 
1585	 0.216393818295261 
1586	 0.216437450774734 
1587	 0.216494653330341 
1588	 0.21652922101595 
1589	 0.2165397415777 
1590	 0.2165608550661 
1591	 0.216565502722344 
1592	 0.216589900760167 
1593	 0.216636194600285 
1594	 0.216669795886054 
1595	 0.216706299726918 
1596	 0.216742300726929 
1597	 0.216774508984316 
1598	 0.216802992191066 
1599	 0.216825489994623 
1600	 0.216857289670517 
1601	 0.216889904726351 
1602	 0.216921862457605 
1603	 0.216971576132734 
1604	 0.217002664925148 
1605	 0.217012146557821 
1606	 0.217034129195413 
1607	 0.217044703219909 
1608	 0.217074236946394 
1609	 0.217129720661577 
1610	 0.217171786518882 
1611	 0.217201022440539 
1612	 0.217217722741096 
1613	 0.217213517861481 
1614	 0.217221256758272 
1615	 0.217244691935938 
1616	 0.217268225647087 
1617	 0.217291301176357 
1618	 0.217303069254293 
1619	 0.217323795902643 
1620	 0.217346016532611 
1621	 0.217358317629464 
1622	 0.217369225016373 
1623	 0.217387324476221 
1624	 0.217400258885336 
1625	 0.217410490636782 
1626	 0.217433577779543 
1627	 0.217435165037105 
1628	 0.217408609036786 
1629	 0.217417921588482 
1630	 0.217436625461928 
1631	 0.217458331102715 
1632	 0.217508060355494 
1633	 0.217519202598586 
1634	 0.217510697206057 
1635	 0.21751342081449 
1636	 0.217503729101713 
1637	 0.217501104162679 
1638	 0.217504055591038 
1639	 0.217512726368722 
1640	 0.217515911778109 
1641	 0.217533830839882 
1642	 0.217564108343102 
1643	 0.217603171979986 
1644	 0.217650599718725 
1645	 0.217699983012919 
1646	 0.217770155108126 
1647	 0.217816518993506 
1648	 0.21786666273396 
1649	 0.217881293567709 
1650	 0.217864967803995 
1651	 0.217862181442068 
1652	 0.217832827234935 
1653	 0.217830678967486 
1654	 0.217848132791885 
1655	 0.217859401121215 
1656	 0.217883015560016 
1657	 0.21788371355358 
1658	 0.217880639660611 
1659	 0.21786493365982 
1660	 0.217821584272739 
1661	 0.217799345473284 
1662	 0.217774391433803 
1663	 0.21776423089298 
1664	 0.217769278257565 
1665	 0.217770223227439 
1666	 0.217768087770274 
1667	 0.217788756791043 
1668	 0.217832851138304 
1669	 0.217850887392107 
1670	 0.217886935888355 
1671	 0.217887397801129 
1672	 0.217840102787991 
1673	 0.21782495996335 
1674	 0.217804451978691 
1675	 0.217802373600048 
1676	 0.217827052186096 
1677	 0.217831258611365 
1678	 0.217834690564901 
1679	 0.217836855866584 
1680	 0.217818749069997 
1681	 0.21782868669886 
1682	 0.217855047576264 
1683	 0.217880333058124 
1684	 0.217919408114581 
1685	 0.217955744152494 
1686	 0.218008950267244 
1687	 0.21802435178925 
1688	 0.218021285834183 
1689	 0.218021804259305 
1690	 0.217997687899046 
1691	 0.217980122147585 
1692	 0.217964991592722 
1693	 0.217959604726939 
1694	 0.217939623022485 
1695	 0.217947032575378 
1696	 0.217992513552438 
1697	 0.218011757557852 
1698	 0.218031557064318 
1699	 0.218045234594342 
1700	 0.218049549166453 
1701	 0.218049693632113 
1702	 0.218050483947012 
1703	 0.218036682976634 
1704	 0.218002853293396 
1705	 0.217982604789539 
1706	 0.217962946182398 
1707	 0.217939218380827 
1708	 0.217919726529617 
1709	 0.217896639989001 
1710	 0.217869629370181 
1711	 0.21783760128918 
1712	 0.217798419627155 
1713	 0.217774137417954 
1714	 0.217749494537041 
1715	 0.217725335961382 
1716	 0.217712757138462 
1717	 0.217695123621269 
1718	 0.217673264047383 
1719	 0.217651515697412 
1720	 0.217631970893149 
1721	 0.21761763217371 
1722	 0.217599656687672 
1723	 0.217582526546471 
1724	 0.217581309637738 
1725	 0.2175592618565 
1726	 0.217527821967338 
1727	 0.217486539964748 
1728	 0.217419824939908 
1729	 0.21738336177089 
1730	 0.217356742084907 
1731	 0.21732529242308 
1732	 0.217313421436062 
1733	 0.217277941812858 
1734	 0.217219737337397 
1735	 0.217172528732624 
1736	 0.217129935460618 
1737	 0.217086420688988 
1738	 0.217037269393634 
1739	 0.217001029440442 
1740	 0.216963922372358 
1741	 0.216937306581653 
1742	 0.216938400272616 
1743	 0.216897135821205 
1744	 0.216843202292389 
1745	 0.216782580647354 
1746	 0.216695172621822 
1747	 0.216620893241167 
1748	 0.21655487845824 
1749	 0.216515938291719 
1750	 0.216465836597463 
1751	 0.216419616877025 
1752	 0.216402650623527 
1753	 0.216379984567294 
1754	 0.216315299941109 
1755	 0.216245060727138 
1756	 0.216179211902426 
1757	 0.216093358276448 
1758	 0.216015834899882 
1759	 0.215956268675679 
1760	 0.215918567253891 
1761	 0.215881766834236 
1762	 0.215850552125448 
1763	 0.21581396752747 
1764	 0.215741816858308 
1765	 0.215693512874108 
1766	 0.215639823478621 
1767	 0.215575345579002 
1768	 0.21552940382684 
1769	 0.215461994564622 
1770	 0.215415760156094 
1771	 0.215395978603128 
1772	 0.215366380896976 
1773	 0.215327380582665 
1774	 0.215269281149527 
1775	 0.215215298213295 
1776	 0.215166155664725 
1777	 0.215110633533258 
1778	 0.215059895688789 
1779	 0.21500425243093 
1780	 0.214954434793543 
1781	 0.214925312732979 
1782	 0.214926812054183 
1783	 0.21494358999992 
1784	 0.214946093163221 
1785	 0.214957322962721 
1786	 0.214952503103926 
1787	 0.214941898873292 
1788	 0.214920979572127 
1789	 0.214877242503839 
1790	 0.214844478171 
1791	 0.214785387334036 
1792	 0.214765118297397 
1793	 0.214795338980091 
1794	 0.214797906386436 
1795	 0.214807802604976 
1796	 0.214810812566815 
1797	 0.214791493672342 
1798	 0.214774535325502 
1799	 0.214759268405382 
1800	 0.214748894339142 
1801	 0.215379449727174 
1802	 0.21551027314899 
1803	 0.215602777305118 
1804	 0.215699084278329 
1805	 0.215807058965672 
1806	 0.215898715102067 
1807	 0.215992752238213 
1808	 0.216080639084997 
1809	 0.216212648843893 
1810	 0.216276022610866 
1811	 0.216293475649536 
1812	 0.21631470407042 
1813	 0.216321431372926 
1814	 0.216285988373439 
1815	 0.216272931322567 
1816	 0.216251024413364 
1817	 0.216235431344415 
1818	 0.216216055645699 
1819	 0.216217679782586 
1820	 0.21622386007333 
1821	 0.216248003480751 
1822	 0.216273905729811 
1823	 0.216286193422512 
1824	 0.216304550222404 
1825	 0.216286651684311 
1826	 0.216268551363497 
1827	 0.216279639574041 
1828	 0.216271124462102 
1829	 0.216257018558246 
1830	 0.2162306227564 
1831	 0.21619518539397 
1832	 0.216151136004679 
1833	 0.216107480926197 
1834	 0.216082995622979 
1835	 0.216072127687429 
1836	 0.216064209185602 
1837	 0.216068778489232 
1838	 0.216080722766791 
1839	 0.216081658949014 
1840	 0.216104897569105 
1841	 0.216083318234399 
1842	 0.21600623971921 
1843	 0.215936162749175 
1844	 0.215876419177433 
1845	 0.215817426282615 
1846	 0.215772528634313 
1847	 0.215723076480565 
1848	 0.21564672240685 
1849	 0.215574881548388 
1850	 0.21549830447852 
1851	 0.215425208812158 
1852	 0.215340394691093 
1853	 0.215276240728577 
1854	 0.215184355284324 
1855	 0.215068311102314 
1856	 0.214965384796349 
1857	 0.214827077759264 
1858	 0.214655335457543 
1859	 0.214491113491898 
1860	 0.214290159313032 
1861	 0.214065244801657 
1862	 0.213783870132729 
1863	 0.213504777855405 
1864	 0.213210193460787 
1865	 0.212868243133931 
1866	 0.212501338417664 
1867	 0.212109816152421 
1868	 0.211670810651487 
1869	 0.211193395788014 
1870	 0.210707723432883 
1871	 0.210188039412954 
1872	 0.209637598039033 
1873	 0.209049536207357 
1874	 0.208456907455285 
1875	 0.207836641318586 
1876	 0.207164264551064 
1877	 0.206431597058508 
1878	 0.205632688737747 
1879	 0.204768619450683 
1880	 0.203844456617131 
1881	 0.202864139395667 
1882	 0.20182066839115 
1883	 0.200723095576163 
1884	 0.199526413796019 
1885	 0.198284709062823 
1886	 0.196959101511656 
1887	 0.195558311619197 
1888	 0.194119116626267 
1889	 0.192632221485822 
1890	 0.191125527368225 
1891	 0.189604799266172 
1892	 0.188041632979025 
1893	 0.186498092609763 
1894	 0.184935110033961 
1895	 0.183378148077386 
1896	 0.181860949009981 
1897	 0.180392106551674 
1898	 0.178937447961294 
1899	 0.17753252079812 
1900	 0.176179063096032 
1901	 0.174878885886439 
1902	 0.173659794511554 
1903	 0.172541117430407 
1904	 0.171452649378777 
1905	 0.170414428489127 
1906	 0.169442461918551 
1907	 0.168536587353785 
1908	 0.167699656559976 
1909	 0.16695192509984 
1910	 0.166266610762948 
1911	 0.165621425554488 
1912	 0.165028196297817 
1913	 0.164455152294415 
1914	 0.163900771837113 
1915	 0.163401551132325 
1916	 0.162946778150936 
1917	 0.162515063911872 
1918	 0.162142222834754 
1919	 0.161808329517452 
1920	 0.161491796235624 
1921	 0.161204557129372 
1922	 0.160952589710936 
1923	 0.160755608402549 
1924	 0.160587687874587 
1925	 0.160471753726735 
1926	 0.160367472549656 
1927	 0.160290328325025 
1928	 0.16023419926727 
1929	 0.16020306334351 
1930	 0.160232223476137 
1931	 0.160287149944526 
1932	 0.160340980960669 
1933	 0.160425944105324 
1934	 0.160513009579445 
1935	 0.160617033171218 
1936	 0.160738219197769 
1937	 0.160874220676249 
1938	 0.161020921032675 
1939	 0.161186409570058 
1940	 0.161365144753944 
1941	 0.161564003920051 
1942	 0.161783885926101 
1943	 0.1620226736413 
1944	 0.162282956129293 
1945	 0.1625538906015 
1946	 0.162830779115597 
1947	 0.163119926473843 
1948	 0.163413006189723 
1949	 0.163715223115441 
1950	 0.164021128912917 
1951	 0.164327906842101 
1952	 0.1646484978337 
1953	 0.164977227435199 
1954	 0.165332072192135 
1955	 0.165723617072178 
1956	 0.166109100663935 
1957	 0.166477044689346 
1958	 0.166844306388533 
1959	 0.167201349286504 
1960	 0.16751953735885 
1961	 0.167878753161156 
1962	 0.168261566700479 
1963	 0.168642315848371 
1964	 0.169032179461261 
1965	 0.169438199742636 
1966	 0.169831021265229 
1967	 0.170217985895478 
1968	 0.170627441460388 
1969	 0.171057244430796 
1970	 0.171471848924131 
1971	 0.171894200497187 
1972	 0.172312204906203 
1973	 0.172713899713663 
1974	 0.173127034311557 
1975	 0.173543717093716 
1976	 0.173973801659511 
1977	 0.174411177469755 
1978	 0.174846498496818 
1979	 0.175267382525434 
1980	 0.175680554471197 
1981	 0.176084488188784 
1982	 0.176458700958157 
1983	 0.176856533796211 
1984	 0.177250617032755 
1985	 0.177664034141398 
1986	 0.178104407187652 
1987	 0.178523749237614 
1988	 0.178945802180671 
1989	 0.179375662833875 
1990	 0.179763934323095 
1991	 0.180136347595734 
1992	 0.180535089865258 
1993	 0.180941174323304 
1994	 0.181334934925376 
1995	 0.181737882165174 
1996	 0.182137844265169 
1997	 0.182522847827271 
1998	 0.182913454368976 
1999	 0.183312008827317 
2000	 0.183710996579706 
2001	 0.184117167081927 
2002	 0.184503530021308 
2003	 0.184895588056553 
2004	 0.185284230832707 
2005	 0.185653551303604 
2006	 0.18599360556278 
2007	 0.186357661451195 
2008	 0.186718344641377 
2009	 0.187083484910655 
2010	 0.187473609592998 
2011	 0.187835725388189 
2012	 0.18817932658991 
2013	 0.188528695930877 
2014	 0.188865504594574 
2015	 0.189205309680386 
2016	 0.18954991685329 
2017	 0.189898818849579 
2018	 0.190246955099831 
2019	 0.190596581485144 
2020	 0.190940527233042 
2021	 0.19129558912478 
2022	 0.191627865216944 
2023	 0.191936211019841 
2024	 0.192259347773749 
2025	 0.192585675411157 
2026	 0.192898116343319 
2027	 0.193200282902642 
2028	 0.193516628263169 
2029	 0.193834404111334 
2030	 0.194139962785704 
2031	 0.194457844458263 
2032	 0.19479762267426 
2033	 0.195120743033991 
2034	 0.195451038827855 
2035	 0.195746940686802 
2036	 0.196038302580506 
2037	 0.19630380275891 
2038	 0.196509867419732 
2039	 0.196748302936168 
2040	 0.196988304739374 
2041	 0.197228810989139 
2042	 0.197472347608463 
2043	 0.197732974920123 
2044	 0.197992703909185 
2045	 0.198254412991053 
2046	 0.198513994387154 
2047	 0.19879033977224 
2048	 0.199044635328913 
2049	 0.199286324186835 
2050	 0.199525821475101 
2051	 0.19977086790289 
2052	 0.199986961450791 
2053	 0.200167190324399 
2054	 0.200367389527561 
2055	 0.200554343392849 
2056	 0.200752592135473 
2057	 0.200945486757078 
2058	 0.201149414606321 
2059	 0.201358520330326 
2060	 0.20156029018958 
2061	 0.201766698327414 
2062	 0.201994332837594 
2063	 0.202208777900297 
2064	 0.20241929942829 
2065	 0.202618167590884 
2066	 0.202810212504677 
2067	 0.203003379048026 
2068	 0.203178878386199 
2069	 0.203361999570133 
2070	 0.203550889156279 
2071	 0.203751038433509 
2072	 0.203937210229637 
2073	 0.204124714591988 
2074	 0.204300690291858 
2075	 0.204463246500658 
2076	 0.204636299497531 
2077	 0.204796173906496 
2078	 0.204977794943044 
2079	 0.205183534341144 
2080	 0.205373030289545 
2081	 0.205563601844615 
2082	 0.205755893949537 
2083	 0.20593669166214 
2084	 0.206131477907277 
2085	 0.206311508384717 
2086	 0.206489793778723 
2087	 0.2066755495054 
2088	 0.206869201745769 
2089	 0.207031022848202 
2090	 0.20717997819581 
2091	 0.207339987542081 
2092	 0.207474755858417 
2093	 0.207620808114743 
2094	 0.207786295898625 
2095	 0.207950249942331 
2096	 0.208097669994411 
2097	 0.208261968556691 
2098	 0.208449228260316 
2099	 0.208635096893413 
2100	 0.208806324130697 
2101	 0.208972288564852 
2102	 0.209138482432663 
2103	 0.209290190667664 
2104	 0.209461381868013 
2105	 0.209643260398447 
2106	 0.209820651323576 
2107	 0.210006159934126 
2108	 0.21018334958241 
2109	 0.210358193572602 
2110	 0.210531354589371 
2111	 0.210683380867045 
2112	 0.210863606198363 
2113	 0.211059201264099 
2114	 0.21126326379213 
2115	 0.211444558678202 
2116	 0.211637146837435 
2117	 0.211814633016462 
2118	 0.211964969407229 
2119	 0.212124604473764 
2120	 0.212288984830416 
2121	 0.21245568430941 
2122	 0.212624545234363 
2123	 0.212776440829107 
2124	 0.212942295199142 
2125	 0.213075594191665 
2126	 0.213163366889127 
2127	 0.213270509155906 
2128	 0.213368052909382 
2129	 0.213472462878726 
2130	 0.213594652197571 
2131	 0.213703804745799 
2132	 0.213802932687206 
2133	 0.213896454914043 
2134	 0.213986680903267 
2135	 0.214067295923212 
2136	 0.214141585319283 
2137	 0.214226209901273 
2138	 0.214275617179824 
2139	 0.214304370373196 
2140	 0.21432185832036 
2141	 0.214322684668222 
2142	 0.214302431416372 
2143	 0.214260371160484 
2144	 0.214210185194853 
2145	 0.214111904509841 
2146	 0.21404834136589 
2147	 0.21399033133435 
2148	 0.213955960686979 
2149	 0.213904163874396 
2150	 0.213868918353533 
2151	 0.213815191374972 
2152	 0.213745152782692 
2153	 0.213675137830698 
2154	 0.213609520881553 
2155	 0.213529242034694 
2156	 0.213445198372622 
2157	 0.213338270193013 
2158	 0.213217392818113 
2159	 0.213085975439294 
2160	 0.212918561089489 
2161	 0.212768730691206 
2162	 0.212632498336547 
2163	 0.21247663753267 
2164	 0.212308338100316 
2165	 0.212148985918217 
2166	 0.211979044903868 
2167	 0.211786844559888 
2168	 0.211618285105622 
2169	 0.211453429806768 
2170	 0.211304525353884 
2171	 0.211163724134051 
2172	 0.211031285824354 
2173	 0.210934711409368 
2174	 0.210800312647137 
2175	 0.210659821318444 
2176	 0.210508037924674 
2177	 0.210335020950767 
2178	 0.210154142296006 
2179	 0.209947207925852 
2180	 0.209763937560658 
2181	 0.209597150539192 
2182	 0.209407960542409 
2183	 0.209212836841584 
2184	 0.209032871067463 
2185	 0.208835686863431 
2186	 0.208600141969284 
2187	 0.208409459574425 
2188	 0.208237362864954 
2189	 0.20806967408819 
2190	 0.207923398888056 
2191	 0.207764135266412 
2192	 0.207593515193145 
2193	 0.207451507634971 
2194	 0.207324023040133 
2195	 0.207191027025513 
2196	 0.207071851561577 
2197	 0.206960739172289 
2198	 0.206861997332246 
2199	 0.20674200255839 
2200	 0.206593566382822 
2201	 0.206491692876375 
2202	 0.206394908908538 
2203	 0.206306646972579 
2204	 0.206245640753699 
2205	 0.206236463753921 
2206	 0.206218280687264 
2207	 0.206203360879763 
2208	 0.206192681362382 
2209	 0.206198503633487 
2210	 0.206214974297004 
2211	 0.206239609558714 
2212	 0.206253275479055 
2213	 0.206279223928632 
2214	 0.206306241360584 
2215	 0.206306267955557 
2216	 0.206335815497936 
2217	 0.206407226936962 
2218	 0.206453000454668 
2219	 0.206492426650533 
2220	 0.206537139853163 
2221	 0.206583089333134 
2222	 0.206614662502165 
2223	 0.206654266070688 
2224	 0.206686894346181 
2225	 0.206708986965624 
2226	 0.206713447156175 
2227	 0.206729390084295 
2228	 0.206739251700952 
2229	 0.206762042352313 
2230	 0.206805756000053 
2231	 0.206815456995506 
2232	 0.206813550895031 
2233	 0.206814178637254 
2234	 0.206787620034669 
2235	 0.206782022046968 
2236	 0.206800450402432 
2237	 0.206801621973816 
2238	 0.206778292292084 
2239	 0.206787107068479 
2240	 0.206810182889455 
2241	 0.206830429965843 
2242	 0.206893505348213 
2243	 0.206916420763202 
2244	 0.206911482889825 
2245	 0.206912029271787 
2246	 0.206853638408477 
2247	 0.2068014073695 
2248	 0.206782903571142 
2249	 0.206769323268065 
2250	 0.206746295526345 
2251	 0.206749314593343 
2252	 0.206745390262594 
2253	 0.206713908991065 
2254	 0.206712994228227 
2255	 0.206754119816538 
2256	 0.206754793792229 
2257	 0.206729603597526 
2258	 0.206730744202935 
2259	 0.206741325148947 
2260	 0.206741011988638 
2261	 0.206750400472271 
2262	 0.20675106587562 
2263	 0.206748991068883 
2264	 0.206715179053641 
2265	 0.206643059052575 
2266	 0.206611312504402 
2267	 0.20655795949463 
2268	 0.206542876585403 
2269	 0.20659634503186 
2270	 0.206635348081453 
2271	 0.206614585601393 
2272	 0.206593441500124 
2273	 0.206551060072778 
2274	 0.206510268821637 
2275	 0.206490900263334 
2276	 0.206503326993987 
2277	 0.206480592431563 
2278	 0.206445610371179 
2279	 0.206418394122909 
2280	 0.20638359475727 
2281	 0.206365042361592 
2282	 0.206359635990365 
2283	 0.206346473706718 
2284	 0.206340247392812 
2285	 0.206318517944662 
2286	 0.206284457062097 
2287	 0.20625648337663 
2288	 0.206222347293101 
2289	 0.206193880485364 
2290	 0.206179730294364 
2291	 0.20614950276727 
2292	 0.206102154688532 
2293	 0.206064599455424 
2294	 0.206030459254876 
2295	 0.205985746395478 
2296	 0.205939636475465 
2297	 0.205899478836837 
2298	 0.205833525293568 
2299	 0.205771053338818 
2300	 0.205748116063157 
2301	 0.205754422521094 
2302	 0.20578996330081 
2303	 0.205810412279627 
2304	 0.205759299774854 
2305	 0.205664501924011 
2306	 0.205586422021961 
2307	 0.205455453145916 
2308	 0.205373620634757 
2309	 0.205331246828367 
2310	 0.205271446352658 
2311	 0.205214855840876 
2312	 0.205140486575778 
2313	 0.205074146634519 
2314	 0.204964060372926 
2315	 0.204790962478955 
2316	 0.204692821512682 
2317	 0.204613136219392 
2318	 0.204528997331114 
2319	 0.204488106968796 
2320	 0.204415044590294 
2321	 0.204319971547301 
2322	 0.204224609270525 
2323	 0.204122526706627 
2324	 0.20403535026897 
2325	 0.203914608323714 
2326	 0.203837763625182 
2327	 0.203786391541266 
2328	 0.203785825300157 
2329	 0.203750386489468 
2330	 0.203697493262702 
2331	 0.203679745534049 
2332	 0.203595940419209 
2333	 0.20348586373128 
2334	 0.203426639423834 
2335	 0.203319911244659 
2336	 0.203227374049908 
2337	 0.20320255582098 
2338	 0.203157064277658 
2339	 0.203083018584741 
2340	 0.203008691474518 
2341	 0.202951717889516 
2342	 0.202907780722772 
2343	 0.202853078341212 
2344	 0.202749077887814 
2345	 0.202638329554392 
2346	 0.202467892540459 
2347	 0.202342778722653 
2348	 0.202234595255303 
2349	 0.202133595816138 
2350	 0.202067373996301 
2351	 0.201933728189059 
2352	 0.201768298131993 
2353	 0.201611769510984 
2354	 0.201397714162893 
2355	 0.201242245472209 
2356	 0.201129733365017 
2357	 0.200991156538934 
2358	 0.200856488824838 
2359	 0.200725947682347 
2360	 0.200607854421996 
2361	 0.200476000917398 
2362	 0.200338695230679 
2363	 0.200202198071094 
2364	 0.200036039425115 
2365	 0.199898076005548 
2366	 0.199807178455924 
2367	 0.199674077710844 
2368	 0.199499887084028 
2369	 0.19934913787417 
2370	 0.199178140573427 
2371	 0.199062981553604 
2372	 0.198917745434334 
2373	 0.19882090405877 
2374	 0.19872622633431 
2375	 0.198531987353674 
2376	 0.198304346998168 
2377	 0.198095046821051 
2378	 0.197885491522525 
2379	 0.197678992721703 
2380	 0.197487708309944 
2381	 0.197360333782484 
2382	 0.197236930975727 
2383	 0.197010393929648 
2384	 0.196807991851838 
2385	 0.196646825167521 
2386	 0.19637668337586 
2387	 0.196125222141152 
2388	 0.195975022070748 
2389	 0.195717829299928 
2390	 0.195467026869798 
2391	 0.195327559029036 
2392	 0.195095918825337 
2393	 0.194824089761605 
2394	 0.194592798291884 
2395	 0.194346298301041 
2396	 0.194124586808806 
2397	 0.193981098118961 
2398	 0.19388033326527 
2399	 0.19370929057041 
2400	 0.193438762886887 
2401	 0.193159458864634 
2402	 0.192843695778126 
2403	 0.192556452260267 
2404	 0.192354533868109 
2405	 0.192176231123868 
2406	 0.192028941030357 
2407	 0.191757230073384 
2408	 0.19149229136002 
2409	 0.191265228999178 
2410	 0.190896493675072 
2411	 0.190608535265021 
2412	 0.19035220347347 
2413	 0.190054913833031 
2414	 0.189796878805808 
2415	 0.189568540356807 
2416	 0.189320494501533 
2417	 0.189012005727055 
2418	 0.188744391273565 
2419	 0.188539719302028 
2420	 0.188264668294612 
2421	 0.187951709541761 
2422	 0.187716575989329 
2423	 0.187487236156971 
2424	 0.187216359379581 
2425	 0.186993596251681 
2426	 0.186710924210579 
2427	 0.186345253870875 
2428	 0.186070502338272 
2429	 0.185878133952005 
2430	 0.185537216001488 
2431	 0.185081263492716 
2432	 0.184739096211632 
2433	 0.18434752924905 
2434	 0.184041252056403 
2435	 0.183885687450371 
2436	 0.183652848400226 
2437	 0.183407676438082 
2438	 0.183180209444063 
2439	 0.183016756455141 
2440	 0.182721089461963 
2441	 0.182333287764978 
2442	 0.181971270342325 
2443	 0.181493105301995 
2444	 0.181129457899574 
2445	 0.180869095905735 
2446	 0.180513554810089 
2447	 0.180140670250405 
2448	 0.17984991046747 
2449	 0.179510680353039 
2450	 0.179263406396992 
2451	 0.179185717766459 
2452	 0.178960213590607 
2453	 0.178723574705317 
2454	 0.178476078688899 
2455	 0.178149741754422 
2456	 0.177810891547944 
2457	 0.177403590115139 
2458	 0.177077967604583 
2459	 0.176782990224247 
2460	 0.176469304187897 
2461	 0.176234758327959 
2462	 0.175954392396533 
2463	 0.175658023816283 
2464	 0.175314196300498 
2465	 0.174904168922301 
2466	 0.174550157797018 
2467	 0.174117045754428 
2468	 0.173779138272116 
2469	 0.173569302929938 
2470	 0.173411346459084 
2471	 0.173199215271946 
2472	 0.172883412168274 
2473	 0.17259358145475 
2474	 0.172225515447595 
2475	 0.171829385268729 
2476	 0.171640221421623 
2477	 0.17145180409662 
2478	 0.171353134326018 
2479	 0.171190235777802 
2480	 0.170808596769715 
2481	 0.170504679598198 
2482	 0.170110588283098 
2483	 0.169819363985768 
2484	 0.16973536072317 
2485	 0.169509043779206 
2486	 0.169157583078136 
2487	 0.168899413742077 
2488	 0.168715768063433 
2489	 0.168534646319937 
2490	 0.168361249423862 
2491	 0.168081619493378 
2492	 0.167729390173742 
2493	 0.167323738278034 
2494	 0.167109134619452 
2495	 0.167029778009418 
2496	 0.166783052921971 
2497	 0.166653414117365 
2498	 0.166385805352545 
2499	 0.166054405385331 
2500	 0.16607940207478 
