Wavelength	mm1300009.asd
350	 7.36687557945303E-02 
351	 7.66079262250071E-02 
352	 6.74232443228501E-02 
353	 5.64882164963203E-02 
354	 6.84030983724134E-02 
355	 6.97028082567357E-02 
356	 6.54979920875708E-02 
357	 6.69574980292525E-02 
358	 6.69359397432099E-02 
359	 0.064311747164644 
360	 6.16508671663779E-02 
361	 0.062884117883559 
362	 6.01383981301722E-02 
363	 0.060091486952641 
364	 6.36959689478369E-02 
365	 0.060050117343744 
366	 6.27036285934684E-02 
367	 6.66233545197558E-02 
368	 6.50055148624142E-02 
369	 6.50897589541859E-02 
370	 6.38529954525317E-02 
371	 6.28814756619906E-02 
372	 6.62662078302116E-02 
373	 6.77849575819462E-02 
374	 6.71509324811766E-02 
375	 6.56781210085442E-02 
376	 6.59022510609176E-02 
377	 6.59953906430431E-02 
378	 6.72028581215212E-02 
379	 7.04900440302427E-02 
380	 0.072604935538051 
381	 7.07509810134225E-02 
382	 6.78503279515101E-02 
383	 7.01920879048684E-02 
384	 7.07838271402274E-02 
385	 7.04225483641483E-02 
386	 0.070391906503841 
387	 7.04740644282051E-02 
388	 7.32449822586927E-02 
389	 7.52215869576099E-02 
390	 7.30269893673643E-02 
391	 7.32333828714934E-02 
392	 7.47952586928185E-02 
393	 7.66834321098712E-02 
394	 7.80815442186658E-02 
395	 7.58950302665244E-02 
396	 7.44195817499714E-02 
397	 7.62991933093492E-02 
398	 7.84355766986087E-02 
399	 7.94395013749569E-02 
400	 7.89098200108627E-02 
401	 7.75421562365933E-02 
402	 7.87660580203981E-02 
403	 7.92731826415048E-02 
404	 7.87686384532507E-02 
405	 8.02319933555721E-02 
406	 7.97359654136612E-02 
407	 7.97435176728906E-02 
408	 8.15768553897742E-02 
409	 8.03556259372685E-02 
410	 7.96289797143455E-02 
411	 8.02143092392322E-02 
412	 8.14113372579391E-02 
413	 8.19718781763992E-02 
414	 8.13841245421402E-02 
415	 8.03928876590309E-02 
416	 0.081158416367293 
417	 8.15930291754128E-02 
418	 8.18866366457068E-02 
419	 8.24432791758189E-02 
420	 8.25019524640856E-02 
421	 8.18446430152327E-02 
422	 8.12725841098359E-02 
423	 8.19870134603958E-02 
424	 8.21269985138399E-02 
425	 8.20124758031412E-02 
426	 8.20356521635717E-02 
427	 8.21864347733507E-02 
428	 8.23370030011237E-02 
429	 8.23637137439203E-02 
430	 0.082272527041937 
431	 8.27206484868116E-02 
432	 0.082703103627362 
433	 8.23879772895274E-02 
434	 0.083043013258864 
435	 8.30091582769119E-02 
436	 8.28738589265894E-02 
437	 8.31674281353495E-02 
438	 0.083090314426371 
439	 0.083038341621312 
440	 8.31552496875311E-02 
441	 8.34212446834525E-02 
442	 8.36163139666036E-02 
443	 8.35285369768932E-02 
444	 8.32683797812581E-02 
445	 8.34086658474334E-02 
446	 8.34906317703671E-02 
447	 8.36502768137741E-02 
448	 8.40175394847998E-02 
449	 8.39693442056981E-02 
450	 8.40226400046269E-02 
451	 8.42326056356107E-02 
452	 8.42471967574192E-02 
453	 8.41537983515016E-02 
454	 8.42160092633387E-02 
455	 8.45041490272469E-02 
456	 8.45601042470987E-02 
457	 8.45231081040105E-02 
458	 8.45067538596708E-02 
459	 8.45969680758484E-02 
460	 8.46663217163145E-02 
461	 8.48435925604788E-02 
462	 8.50310297474497E-02 
463	 8.47821001679749E-02 
464	 8.46347505008039E-02 
465	 8.47534096318948E-02 
466	 8.51313136176913E-02 
467	 8.56566657482542E-02 
468	 8.56156751463181E-02 
469	 8.52098339319994E-02 
470	 8.53331397617668E-02 
471	 8.54251040960027E-02 
472	 8.54528606563018E-02 
473	 8.54448631279802E-02 
474	 8.53342734237392E-02 
475	 8.55147929355964E-02 
476	 8.57001545330328E-02 
477	 8.54500099738636E-02 
478	 0.085588658808307 
479	 8.58305708290875E-02 
480	 8.59467135317411E-02 
481	 8.59224512504787E-02 
482	 8.59792535467667E-02 
483	 0.086092471868244 
484	 8.61956105383963E-02 
485	 8.64183219121647E-02 
486	 8.63061413614321E-02 
487	 8.59840541329172E-02 
488	 8.60396897549394E-02 
489	 8.62893585072132E-02 
490	 8.63612783466188E-02 
491	 8.61749414048679E-02 
492	 8.64655633632174E-02 
493	 8.65855283821017E-02 
494	 0.086571274910254 
495	 8.67244869318497E-02 
496	 0.086753882454281 
497	 8.67021033436877E-02 
498	 8.66762082009514E-02 
499	 8.68356952425096E-02 
500	 8.69042362639478E-02 
501	 8.69562134661136E-02 
502	 0.087088384339698 
503	 8.70085518336575E-02 
504	 8.68991065846564E-02 
505	 0.086903192504264 
506	 8.70940392944253E-02 
507	 8.71571356542612E-02 
508	 8.71823603660149E-02 
509	 8.72687438598764E-02 
510	 8.73098663706533E-02 
511	 8.73693527799781E-02 
512	 8.73994216187361E-02 
513	 8.73296918179906E-02 
514	 8.74528530933892E-02 
515	 8.75373906304527E-02 
516	 8.74971810687682E-02 
517	 8.75946206570263E-02 
518	 8.76657571969092E-02 
519	 8.77183438872205E-02 
520	 8.77928376755363E-02 
521	 8.78012526330179E-02 
522	 8.78674986670658E-02 
523	 8.79531855603598E-02 
524	 8.78474888022169E-02 
525	 8.78853617447081E-02 
526	 8.79863979612242E-02 
527	 8.80332585735265E-02 
528	 8.81219063852301E-02 
529	 8.80904374960466E-02 
530	 8.80371773740432E-02 
531	 0.088201355088614 
532	 8.83251154256005E-02 
533	 8.84039023291317E-02 
534	 8.84659480979016E-02 
535	 0.088521827616904 
536	 8.86109192843402E-02 
537	 8.86969234736529E-02 
538	 8.87297793050736E-02 
539	 8.87926002756921E-02 
540	 8.88711294766674E-02 
541	 8.89426305990605E-02 
542	 8.89827858142095E-02 
543	 8.90631373703668E-02 
544	 8.91533882245451E-02 
545	 8.92141379127891E-02 
546	 8.92921276106704E-02 
547	 8.93677164639471E-02 
548	 8.94376925249602E-02 
549	 8.95138010055019E-02 
550	 8.95858208885329E-02 
551	 8.96935319172948E-02 
552	 8.98433641734095E-02 
553	 8.99338343215429E-02 
554	 9.00162903740149E-02 
555	 9.01393385670283E-02 
556	 9.03332143949006E-02 
557	 9.04538072138375E-02 
558	 9.06498724614787E-02 
559	 9.09635946017423E-02 
560	 9.12025417608335E-02 
561	 0.091361860893192 
562	 9.14845850043925E-02 
563	 9.16404921984809E-02 
564	 9.19020318767017E-02 
565	 9.21086647049419E-02 
566	 9.22101589046517E-02 
567	 9.22957368457625E-02 
568	 9.25377931942574E-02 
569	 9.28820267933584E-02 
570	 9.32418798233017E-02 
571	 9.36514588593993E-02 
572	 9.40345901580234E-02 
573	 0.094370053198422 
574	 0.094682185133052 
575	 0.095012358701031 
576	 9.54179265681668E-02 
577	 0.095883782639791 
578	 9.62344802701823E-02 
579	 9.65731067060962E-02 
580	 9.68994633493466E-02 
581	 9.71905531821013E-02 
582	 0.097557660626099 
583	 9.79125250838554E-02 
584	 0.098267872758701 
585	 9.88061188802272E-02 
586	 9.94188979496275E-02 
587	 0.100007593475411 
588	 0.100529360405123 
589	 0.101183275126674 
590	 0.101794500175621 
591	 0.102341068089285 
592	 0.102946313147082 
593	 0.103480568174974 
594	 0.10398684750817 
595	 0.104473259331936 
596	 0.104745650896276 
597	 0.105064222660349 
598	 0.105439588600346 
599	 0.105765080193092 
600	 0.10619017137554 
601	 0.106679385243385 
602	 0.107182011988725 
603	 0.107665427320143 
604	 0.108103344049343 
605	 0.108551628094736 
606	 0.109074354420407 
607	 0.109605604650306 
608	 0.110063371638763 
609	 0.110480600612982 
610	 0.111016893251113 
611	 0.111444449857495 
612	 0.111739042781551 
613	 0.11195606198999 
614	 0.112228092719504 
615	 0.112498713380337 
616	 0.112768944919566 
617	 0.113071676400811 
618	 0.113340302497617 
619	 0.113551295151389 
620	 0.113735723488033 
621	 0.114034175279949 
622	 0.114285371315483 
623	 0.114481216852488 
624	 0.114669128922485 
625	 0.114812522198256 
626	 0.11497758865057 
627	 0.115182168263251 
628	 0.115371385082046 
629	 0.115547643060881 
630	 0.115737676676532 
631	 0.115950078294218 
632	 0.116089398776628 
633	 0.116223315165042 
634	 0.116384124448917 
635	 0.116568434335603 
636	 0.116732489152913 
637	 0.116886745957907 
638	 0.117037627860343 
639	 0.117145715142463 
640	 0.117332055229546 
641	 0.117535472854537 
642	 0.117638278248241 
643	 0.117815527237352 
644	 0.117982582032198 
645	 0.118106730032679 
646	 0.118265347817361 
647	 0.118419084031928 
648	 0.118576793167271 
649	 0.118754656236658 
650	 0.11894564870234 
651	 0.119127865730922 
652	 0.119300437866377 
653	 0.119480429375188 
654	 0.119649674171233 
655	 0.11980932465569 
656	 0.11998023098239 
657	 0.120231969222573 
658	 0.120438341641333 
659	 0.120610819885738 
660	 0.120819932542777 
661	 0.121026290361196 
662	 0.121252338888202 
663	 0.121491762292774 
664	 0.121688501009541 
665	 0.121907031584897 
666	 0.122128147592229 
667	 0.122324307446992 
668	 0.122534658473656 
669	 0.122763198556583 
670	 0.123020170273951 
671	 0.123313076254595 
672	 0.123517109656147 
673	 0.123720961535164 
674	 0.12400037621568 
675	 0.124321944138737 
676	 0.124570911022666 
677	 0.124804065434656 
678	 0.125128042288665 
679	 0.125393757337261 
680	 0.125661310620607 
681	 0.125954313585522 
682	 0.126225931234753 
683	 0.126517805562989 
684	 0.126816869593456 
685	 0.127111041481315 
686	 0.127448315521425 
687	 0.127779182527464 
688	 0.128090102697581 
689	 0.12839548891797 
690	 0.128702279226237 
691	 0.129036250922003 
692	 0.129396317895956 
693	 0.12972622296333 
694	 0.130043187970964 
695	 0.130362855309341 
696	 0.130700433215204 
697	 0.131059960518687 
698	 0.131423327434805 
699	 0.131773254731897 
700	 0.132096660997412 
701	 0.13244914798448 
702	 0.132814932620385 
703	 0.133163098327882 
704	 0.133460058810834 
705	 0.133799145526471 
706	 0.134172586611354 
707	 0.134521371516764 
708	 0.134858595053349 
709	 0.135208565638995 
710	 0.135579319614422 
711	 0.135955991216122 
712	 0.136284106030934 
713	 0.136573972072925 
714	 0.136868606510549 
715	 0.137252915497635 
716	 0.137611339679482 
717	 0.137925765659141 
718	 0.138252027042943 
719	 0.138581713150771 
720	 0.138883957785401 
721	 0.139156231048951 
722	 0.139461362871793 
723	 0.139729267464364 
724	 0.139976832215125 
725	 0.140240214596014 
726	 0.140489971481224 
727	 0.1407364176341 
728	 0.140978263911408 
729	 0.141204126594652 
730	 0.141456464396357 
731	 0.141689367906515 
732	 0.141870267763748 
733	 0.142031875143015 
734	 0.14221082349406 
735	 0.142377437809364 
736	 0.142491922132622 
737	 0.142646318847753 
738	 0.142799330900284 
739	 0.142922992063878 
740	 0.143016239232918 
741	 0.143115802265313 
742	 0.143189161159808 
743	 0.143225364089189 
744	 0.143321269253228 
745	 0.143348347979264 
746	 0.143342781662284 
747	 0.143396742815232 
748	 0.143390943267247 
749	 0.143349193917552 
750	 0.143316715931627 
751	 0.143345702998758 
752	 0.143320238962135 
753	 0.143229345709582 
754	 0.143107829351459 
755	 0.14303754098293 
756	 0.142996742684102 
757	 0.142928662699586 
758	 0.142783423007012 
759	 0.142703951684059 
760	 0.142635307424113 
761	 0.14253232080088 
762	 0.142387720429674 
763	 0.142212025815297 
764	 0.142054789345405 
765	 0.141936082611044 
766	 0.141763723529626 
767	 0.141596298275323 
768	 0.141454204820077 
769	 0.141328648787469 
770	 0.141159293308141 
771	 0.140976796508462 
772	 0.140795384533442 
773	 0.140599444912134 
774	 0.140400064736054 
775	 0.140225247642175 
776	 0.140074840580101 
777	 0.139863646606822 
778	 0.139637971956338 
779	 0.139446691846646 
780	 0.139314057594347 
781	 0.13910623116985 
782	 0.138894257140258 
783	 0.138715047797005 
784	 0.138549784704693 
785	 0.138333994540258 
786	 0.138110515272085 
787	 0.137917711625612 
788	 0.137727495030925 
789	 0.137570863225506 
790	 0.137395610046988 
791	 0.137153076295067 
792	 0.136979320856113 
793	 0.136813027725528 
794	 0.136634556307295 
795	 0.136463572408616 
796	 0.136207744008908 
797	 0.136031703859214 
798	 0.135974723798828 
799	 0.135778372119575 
800	 0.135582553629423 
801	 0.135397344819373 
802	 0.135204533108274 
803	 0.135020675629097 
804	 0.134858568288213 
805	 0.134726725973167 
806	 0.134620094081056 
807	 0.134459989206881 
808	 0.134275989853934 
809	 0.134109262943047 
810	 0.133994578913095 
811	 0.133818678958723 
812	 0.133639029100462 
813	 0.133516305399546 
814	 0.133412662035918 
815	 0.133300263510122 
816	 0.133182427364074 
817	 0.133066510571276 
818	 0.13288834529574 
819	 0.132761183541143 
820	 0.132681204079483 
821	 0.132546186532958 
822	 0.132439527106686 
823	 0.132332854161581 
824	 0.132215694545322 
825	 0.132132179172832 
826	 0.132063592365805 
827	 0.131974809974559 
828	 0.131850986078095 
829	 0.131757803822311 
830	 0.131620153482995 
831	 0.131508866282149 
832	 0.131526677930159 
833	 0.131523059862313 
834	 0.131429198648964 
835	 0.131299397437949 
836	 0.131281327508418 
837	 0.131246385705064 
838	 0.131182600083328 
839	 0.131101414351919 
840	 0.131021171624514 
841	 0.130930362567237 
842	 0.130858151468511 
843	 0.130836846341192 
844	 0.13088574303943 
845	 0.130885592108842 
846	 0.130807077221757 
847	 0.130699673167448 
848	 0.130755918599175 
849	 0.130783062973331 
850	 0.13071056669358 
851	 0.130606878648531 
852	 0.130585267383999 
853	 0.130613101809566 
854	 0.130648779035716 
855	 0.130674867499792 
856	 0.130698011099276 
857	 0.13071354642166 
858	 0.130720194012033 
859	 0.130729286895332 
860	 0.130746226714772 
861	 0.130758917621223 
862	 0.130752695529013 
863	 0.130722324679195 
864	 0.130777580226854 
865	 0.130882158627528 
866	 0.130918048068521 
867	 0.13090358739454 
868	 0.130933604476848 
869	 0.131002666189032 
870	 0.131006926089325 
871	 0.131048519319692 
872	 0.13111793322379 
873	 0.131203319965076 
874	 0.131318903944358 
875	 0.131403471861629 
876	 0.131424566451738 
877	 0.131407559177218 
878	 0.131498104566371 
879	 0.131612676161242 
880	 0.131699218099336 
881	 0.131746927980753 
882	 0.131862367644496 
883	 0.13200648473357 
884	 0.13211676675696 
885	 0.132159623376948 
886	 0.132340638959166 
887	 0.132482758388266 
888	 0.132550114237984 
889	 0.132645891945863 
890	 0.132735534777249 
891	 0.132837625323346 
892	 0.132967821724993 
893	 0.133127626625302 
894	 0.133263878364805 
895	 0.133359057495689 
896	 0.133447722204048 
897	 0.133637390060026 
898	 0.133793564879783 
899	 0.133960972060515 
900	 0.134163800357997 
901	 0.134235084171495 
902	 0.134387670754458 
903	 0.134606013573522 
904	 0.134801695827659 
905	 0.134942088852547 
906	 0.135113264016044 
907	 0.135327397362243 
908	 0.135560838261457 
909	 0.135839785920597 
910	 0.136013295999489 
911	 0.136107690107449 
912	 0.136265238224351 
913	 0.136494306704051 
914	 0.136762160443013 
915	 0.137008190085001 
916	 0.137172641734131 
917	 0.137355762776534 
918	 0.137586258708618 
919	 0.137843076256742 
920	 0.138067040837659 
921	 0.138329059340489 
922	 0.13861671939462 
923	 0.138879711317515 
924	 0.139044518533601 
925	 0.139205399746785 
926	 0.139445718016504 
927	 0.139772744550771 
928	 0.140067549218209 
929	 0.140378080827161 
930	 0.140664628383729 
931	 0.14091302444448 
932	 0.141210303277057 
933	 0.141547599149036 
934	 0.141848150346027 
935	 0.142088128303373 
936	 0.142459491211598 
937	 0.142732363728846 
938	 0.142995631466718 
939	 0.143360946554334 
940	 0.143626232705643 
941	 0.143916731681719 
942	 0.144312762442319 
943	 0.144801672441179 
944	 0.145119118162743 
945	 0.14538861861608 
946	 0.145708051757928 
947	 0.146110832492827 
948	 0.14643844220055 
949	 0.146767851508652 
950	 0.147104029094361 
951	 0.147429617441359 
952	 0.147828692228638 
953	 0.148184765775071 
954	 0.148537410351816 
955	 0.148980700159325 
956	 0.149366824470052 
957	 0.149774684043242 
958	 0.150179117620809 
959	 0.150529182483236 
960	 0.151045754493258 
961	 0.151502972346502 
962	 0.151867196255846 
963	 0.152234174727377 
964	 0.152522469016609 
965	 0.152951086899968 
966	 0.153466076872256 
967	 0.153867688188155 
968	 0.154357380172645 
969	 0.154779031674552 
970	 0.155115359177228 
971	 0.155470035612207 
972	 0.155949769476094 
973	 0.156411747282405 
974	 0.156835985810849 
975	 0.157309267234693 
976	 0.157946031960296 
977	 0.158397757815627 
978	 0.158764798549713 
979	 0.159342384733858 
980	 0.159620318288349 
981	 0.16004941764338 
982	 0.160617268405236 
983	 0.161027171118289 
984	 0.16132249109045 
985	 0.16186178962066 
986	 0.162404029835717 
987	 0.162578634498043 
988	 0.163214668081602 
989	 0.163778960787573 
990	 0.16418555071642 
991	 0.164623228159404 
992	 0.165197335380978 
993	 0.165623867219304 
994	 0.1659833044816 
995	 0.16647436865039 
996	 0.16700363824218 
997	 0.167518753453288 
998	 0.167953752320596 
999	 0.168325320186453 
1000	 0.168929163738665 
1001	 0.168804436171341 
1002	 0.169286543754988 
1003	 0.169776982623566 
1004	 0.170191176113081 
1005	 0.170508462182325 
1006	 0.170927095781286 
1007	 0.171359391266755 
1008	 0.171761258557839 
1009	 0.172228370242548 
1010	 0.172636066778549 
1011	 0.172966866227572 
1012	 0.173336383312096 
1013	 0.173705653574656 
1014	 0.174118613289849 
1015	 0.174549699680614 
1016	 0.17491512866809 
1017	 0.175283227764778 
1018	 0.175649642910455 
1019	 0.175966911369951 
1020	 0.176244073815637 
1021	 0.176655771625636 
1022	 0.177058987257077 
1023	 0.177365313490752 
1024	 0.177702316250344 
1025	 0.17799488805737 
1026	 0.178255261941627 
1027	 0.178600443147218 
1028	 0.17898478940025 
1029	 0.17930099695596 
1030	 0.179578623673747 
1031	 0.179876248316434 
1032	 0.180162403563 
1033	 0.180453539054235 
1034	 0.180770328103161 
1035	 0.181103305934203 
1036	 0.181398147635064 
1037	 0.181667713516339 
1038	 0.181978202577213 
1039	 0.182267314824601 
1040	 0.182583637725955 
1041	 0.182936622750694 
1042	 0.183195657309622 
1043	 0.183445101458972 
1044	 0.183739673539151 
1045	 0.184043274351658 
1046	 0.184341756557466 
1047	 0.184658926266781 
1048	 0.184955942675347 
1049	 0.185192389147019 
1050	 0.185421837458983 
1051	 0.18571312605519 
1052	 0.186034399509132 
1053	 0.186365026754893 
1054	 0.186701688362945 
1055	 0.187003587905587 
1056	 0.187297799616995 
1057	 0.18761022040769 
1058	 0.187941287431185 
1059	 0.188246459072363 
1060	 0.188544464137134 
1061	 0.188856967379818 
1062	 0.189154734535637 
1063	 0.189399567645678 
1064	 0.189656380519608 
1065	 0.189928533067121 
1066	 0.190184657530088 
1067	 0.190455033726511 
1068	 0.190726847345594 
1069	 0.191014041093502 
1070	 0.191283130447145 
1071	 0.191539046048408 
1072	 0.191806402583167 
1073	 0.192052168256056 
1074	 0.192307321260748 
1075	 0.192573486794861 
1076	 0.19285589142143 
1077	 0.193079019258136 
1078	 0.19332918369096 
1079	 0.193596105065955 
1080	 0.19380024131867 
1081	 0.194019416421026 
1082	 0.194291442530908 
1083	 0.194514038940131 
1084	 0.194682384574471 
1085	 0.194900610436036 
1086	 0.195137304408533 
1087	 0.195347012318597 
1088	 0.195553546493529 
1089	 0.19577222429143 
1090	 0.195994676194079 
1091	 0.196230034235123 
1092	 0.196426182800796 
1093	 0.196628861005896 
1094	 0.196818775943282 
1095	 0.196966413004715 
1096	 0.197158697200894 
1097	 0.197375379844983 
1098	 0.197594506453696 
1099	 0.197840856132504 
1100	 0.19805198044452 
1101	 0.198259798246531 
1102	 0.198452895410967 
1103	 0.198619042428811 
1104	 0.198784219757313 
1105	 0.198964581259173 
1106	 0.199159934651743 
1107	 0.199357243436294 
1108	 0.199532767408668 
1109	 0.199709195341254 
1110	 0.199897080235516 
1111	 0.200088578438528 
1112	 0.200304699872785 
1113	 0.20048059166236 
1114	 0.200632473562106 
1115	 0.200808310084486 
1116	 0.200971375581739 
1117	 0.201143457995562 
1118	 0.2013505944661 
1119	 0.201507980553676 
1120	 0.201691858885996 
1121	 0.201898213392996 
1122	 0.202052642926665 
1123	 0.202254618154299 
1124	 0.202441383434497 
1125	 0.202602666329558 
1126	 0.202779367632232 
1127	 0.202984125078092 
1128	 0.203160364166081 
1129	 0.203317099991163 
1130	 0.203483131516376 
1131	 0.203651694244438 
1132	 0.203812916795318 
1133	 0.203963119157051 
1134	 0.204125533990906 
1135	 0.204294974344703 
1136	 0.204454984194043 
1137	 0.204615412232765 
1138	 0.204765618727188 
1139	 0.204914465011077 
1140	 0.205049623625018 
1141	 0.205190036980459 
1142	 0.205334553736811 
1143	 0.205475344068384 
1144	 0.205608574299483 
1145	 0.205743358954069 
1146	 0.205885197985855 
1147	 0.206013988734121 
1148	 0.206133605560848 
1149	 0.206255809052109 
1150	 0.20635845798424 
1151	 0.20648846301798 
1152	 0.206632601191885 
1153	 0.20675987377002 
1154	 0.206905382413428 
1155	 0.20707332468165 
1156	 0.207216320770373 
1157	 0.207353301544144 
1158	 0.207491633369473 
1159	 0.207622545097519 
1160	 0.207751063995521 
1161	 0.207881207669146 
1162	 0.208009223938642 
1163	 0.208120096650472 
1164	 0.208247847851063 
1165	 0.208385995990209 
1166	 0.208527213139718 
1167	 0.208670184745113 
1168	 0.208815062634002 
1169	 0.208942417933365 
1170	 0.20905520780934 
1171	 0.209175799498637 
1172	 0.209293211161858 
1173	 0.209408200976084 
1174	 0.209528918093541 
1175	 0.20963722903701 
1176	 0.209720800768235 
1177	 0.209830590704431 
1178	 0.209951614658323 
1179	 0.210070153971798 
1180	 0.210216102358385 
1181	 0.210335820279538 
1182	 0.210437915692456 
1183	 0.210530191867768 
1184	 0.210638540400583 
1185	 0.210741884118424 
1186	 0.210853886605683 
1187	 0.210985851158839 
1188	 0.211095905174531 
1189	 0.211188262798897 
1190	 0.211299587695361 
1191	 0.211418338623404 
1192	 0.211527972466608 
1193	 0.211646808358983 
1194	 0.211755800510268 
1195	 0.211848999392112 
1196	 0.211947475304422 
1197	 0.212054035786128 
1198	 0.212149996363694 
1199	 0.212240546882441 
1200	 0.212323596216476 
1201	 0.212410787896002 
1202	 0.212487846002475 
1203	 0.212581567075814 
1204	 0.212689901350637 
1205	 0.212784094828256 
1206	 0.212880519686255 
1207	 0.212972138509719 
1208	 0.213055242645794 
1209	 0.213138464040451 
1210	 0.213218060833247 
1211	 0.213303244140433 
1212	 0.213379422726573 
1213	 0.213469772259349 
1214	 0.213585645620163 
1215	 0.213682919384087 
1216	 0.213775602792862 
1217	 0.213872844154443 
1218	 0.213952564871263 
1219	 0.214005993458347 
1220	 0.214086403444709 
1221	 0.214175566380528 
1222	 0.214256223397663 
1223	 0.214348566659284 
1224	 0.214426598277244 
1225	 0.214481834706829 
1226	 0.214556354106515 
1227	 0.21465146365318 
1228	 0.214721969413329 
1229	 0.214783062390354 
1230	 0.214848455951545 
1231	 0.214900204792147 
1232	 0.214951538028124 
1233	 0.215004199125126 
1234	 0.215059851933997 
1235	 0.215129044195553 
1236	 0.215200734413459 
1237	 0.215271067203084 
1238	 0.215362045778687 
1239	 0.215434608269654 
1240	 0.215487381956021 
1241	 0.215553243568071 
1242	 0.21563105594999 
1243	 0.215693342144326 
1244	 0.215746806476254 
1245	 0.215805433946263 
1246	 0.215851717730074 
1247	 0.215909512932124 
1248	 0.215979604225068 
1249	 0.216047477354953 
1250	 0.21611693688003 
1251	 0.216189461967669 
1252	 0.216248862366581 
1253	 0.216305859350311 
1254	 0.216352389967673 
1255	 0.216382307596427 
1256	 0.216422285850871 
1257	 0.216466849531027 
1258	 0.216497098025383 
1259	 0.216515378055894 
1260	 0.216546951332659 
1261	 0.216570351012293 
1262	 0.216601734692938 
1263	 0.216648187914235 
1264	 0.216695378569067 
1265	 0.216751895991781 
1266	 0.216794979605895 
1267	 0.216841731723296 
1268	 0.216871556573059 
1269	 0.216908835140802 
1270	 0.216926347348881 
1271	 0.216974418394124 
1272	 0.217045178089574 
1273	 0.217099197243325 
1274	 0.217148434594121 
1275	 0.217217947114679 
1276	 0.217284051815895 
1277	 0.217368858909399 
1278	 0.21748673916307 
1279	 0.217589075827497 
1280	 0.217696017158866 
1281	 0.217795009299688 
1282	 0.217880937901189 
1283	 0.217979254400176 
1284	 0.218083747465288 
1285	 0.21817765719273 
1286	 0.218289796153619 
1287	 0.218417304289797 
1288	 0.2185199119647 
1289	 0.218615771243404 
1290	 0.218709002569347 
1291	 0.218783359491743 
1292	 0.218877184266138 
1293	 0.218989665007862 
1294	 0.219073261921657 
1295	 0.219157677470291 
1296	 0.21922146788678 
1297	 0.219258098044826 
1298	 0.219299017214664 
1299	 0.219323551756449 
1300	 0.219360061982898 
1301	 0.21939809174138 
1302	 0.21943337474357 
1303	 0.219474049652528 
1304	 0.219521425576678 
1305	 0.219543492902453 
1306	 0.219549674028681 
1307	 0.219545844663156 
1308	 0.219532329595838 
1309	 0.219525905473003 
1310	 0.219521697934182 
1311	 0.219505954958626 
1312	 0.219489699015649 
1313	 0.219466389017937 
1314	 0.219429746730309 
1315	 0.219397489312414 
1316	 0.219357701278847 
1317	 0.219330452664814 
1318	 0.219311154087344 
1319	 0.219284743021401 
1320	 0.219268833511734 
1321	 0.21924037731655 
1322	 0.219195612353114 
1323	 0.219165791232299 
1324	 0.219108843692275 
1325	 0.21905286229465 
1326	 0.219022889366864 
1327	 0.218967650260038 
1328	 0.218913877581742 
1329	 0.218891433182558 
1330	 0.218844250433511 
1331	 0.218780028643945 
1332	 0.21871864146377 
1333	 0.218655037863024 
1334	 0.21859159139815 
1335	 0.21851498193464 
1336	 0.218457843081611 
1337	 0.21841710292243 
1338	 0.218366990994717 
1339	 0.218321964548073 
1340	 0.21827235233486 
1341	 0.218219278230394 
1342	 0.218161435264672 
1343	 0.21808978931131 
1344	 0.218039733492807 
1345	 0.217995982898625 
1346	 0.217939697152982 
1347	 0.217914050945855 
1348	 0.217892105337247 
1349	 0.217814191506415 
1350	 0.217731733297771 
1351	 0.217659026729693 
1352	 0.217552716086484 
1353	 0.21748879235755 
1354	 0.217471504315458 
1355	 0.217413011440877 
1356	 0.21734065450952 
1357	 0.217283097220591 
1358	 0.21721301335311 
1359	 0.217156077185168 
1360	 0.217118151063091 
1361	 0.21707444625963 
1362	 0.217030114411565 
1363	 0.216984407877622 
1364	 0.216943291400362 
1365	 0.216899293303674 
1366	 0.216848176137067 
1367	 0.216798167485945 
1368	 0.216767705627422 
1369	 0.216736129480953 
1370	 0.216694444935462 
1371	 0.216641631406531 
1372	 0.216556222367567 
1373	 0.216466287017187 
1374	 0.216366980902019 
1375	 0.216263069243255 
1376	 0.216128581547902 
1377	 0.215985055293459 
1378	 0.215808250916123 
1379	 0.215593409057128 
1380	 0.215383033018999 
1381	 0.215152550662804 
1382	 0.214918258605556 
1383	 0.214692321979275 
1384	 0.214426893221583 
1385	 0.21414504338119 
1386	 0.213844748516537 
1387	 0.213508841843547 
1388	 0.213173163105341 
1389	 0.21284033561666 
1390	 0.212474609100528 
1391	 0.212083749932157 
1392	 0.211675971531579 
1393	 0.211225592151672 
1394	 0.210752384377159 
1395	 0.210240834715066 
1396	 0.209721278483182 
1397	 0.209223172461475 
1398	 0.208716385846497 
1399	 0.208214744646891 
1400	 0.207735921485339 
1401	 0.207240420893548 
1402	 0.206712631050305 
1403	 0.206238108217125 
1404	 0.205783843091465 
1405	 0.205344194075961 
1406	 0.204940185051057 
1407	 0.204521323425775 
1408	 0.204083356885515 
1409	 0.203693270254757 
1410	 0.203303996407141 
1411	 0.20297159370092 
1412	 0.20268558273558 
1413	 0.202431348738168 
1414	 0.202212799617189 
1415	 0.202017823039229 
1416	 0.201851184162857 
1417	 0.201710190985592 
1418	 0.201585914206736 
1419	 0.201467332072694 
1420	 0.201371599478538 
1421	 0.201297145260525 
1422	 0.201215943332286 
1423	 0.201137611187352 
1424	 0.20103889758241 
1425	 0.200905553826103 
1426	 0.200817279035235 
1427	 0.200729472239067 
1428	 0.200664505259131 
1429	 0.200636640107505 
1430	 0.20060049899243 
1431	 0.200573569885634 
1432	 0.200542804631294 
1433	 0.200517753211905 
1434	 0.200491123915122 
1435	 0.200450377829595 
1436	 0.200431243160206 
1437	 0.20042399129766 
1438	 0.200419378205378 
1439	 0.200428909162604 
1440	 0.200435463929417 
1441	 0.200435114524504 
1442	 0.200453835671877 
1443	 0.200481006237833 
1444	 0.200504837719382 
1445	 0.200529249949997 
1446	 0.200561233715391 
1447	 0.200596012711567 
1448	 0.200628975069962 
1449	 0.200664391860736 
1450	 0.200700159209354 
1451	 0.200736885662648 
1452	 0.200759574899334 
1453	 0.200809676708953 
1454	 0.200882653389383 
1455	 0.20093658172899 
1456	 0.200994504508594 
1457	 0.201052749387911 
1458	 0.201094023381172 
1459	 0.201155760995285 
1460	 0.201230817463285 
1461	 0.201310519678375 
1462	 0.201395605012874 
1463	 0.20148968305221 
1464	 0.201591881995892 
1465	 0.201701724082521 
1466	 0.201820271747621 
1467	 0.201946039423493 
1468	 0.202081739454893 
1469	 0.202218855633224 
1470	 0.202360384250289 
1471	 0.202506912399283 
1472	 0.202661100484276 
1473	 0.202832300501516 
1474	 0.202998148518936 
1475	 0.203170059090288 
1476	 0.20333764779538 
1477	 0.203496416074368 
1478	 0.203654112260694 
1479	 0.203822103022704 
1480	 0.203998987289048 
1481	 0.204164322169503 
1482	 0.204337779610371 
1483	 0.204522348583061 
1484	 0.204690672281142 
1485	 0.204847900533514 
1486	 0.205023098115288 
1487	 0.205192676989042 
1488	 0.205383087924406 
1489	 0.205605852172015 
1490	 0.205795430420327 
1491	 0.205986112111142 
1492	 0.206161993803147 
1493	 0.206311673567381 
1494	 0.206469515766412 
1495	 0.206628631418801 
1496	 0.20677874856495 
1497	 0.206916268393004 
1498	 0.207065121612742 
1499	 0.207218688269419 
1500	 0.207361890892938 
1501	 0.207508702023581 
1502	 0.207650838719295 
1503	 0.207777509647617 
1504	 0.207911776627772 
1505	 0.208067177114311 
1506	 0.208205957482148 
1507	 0.208346264335325 
1508	 0.208503659884759 
1509	 0.208652939267735 
1510	 0.208796338567526 
1511	 0.208927999202904 
1512	 0.209053316085475 
1513	 0.209184634968891 
1514	 0.209314733202616 
1515	 0.209453195295984 
1516	 0.209585152533303 
1517	 0.209708628246735 
1518	 0.20981217582337 
1519	 0.209941042604768 
1520	 0.210083581925792 
1521	 0.210207831951093 
1522	 0.210333613218173 
1523	 0.210451908186206 
1524	 0.210549700170856 
1525	 0.210668179252131 
1526	 0.210800049042247 
1527	 0.210921409828204 
1528	 0.211045662349267 
1529	 0.21116161604488 
1530	 0.211276356797176 
1531	 0.211380079792058 
1532	 0.211469297035378 
1533	 0.211569403781935 
1534	 0.211673461736241 
1535	 0.211763369124477 
1536	 0.211846931187284 
1537	 0.21193446087228 
1538	 0.212010838391201 
1539	 0.212089542294574 
1540	 0.212183119843224 
1541	 0.212266654543214 
1542	 0.212329849484644 
1543	 0.212406460667089 
1544	 0.212497412814049 
1545	 0.21257409231734 
1546	 0.212648471680913 
1547	 0.212726987417133 
1548	 0.212770831480916 
1549	 0.212812087219603 
1550	 0.212891416952166 
1551	 0.212965718674561 
1552	 0.213047386915963 
1553	 0.21314027785383 
1554	 0.213221659607526 
1555	 0.213295589622586 
1556	 0.213367033083756 
1557	 0.213429083100124 
1558	 0.213462633639036 
1559	 0.213507346390987 
1560	 0.2135679637989 
1561	 0.213644529112929 
1562	 0.213706150681021 
1563	 0.213771742166447 
1564	 0.213836506006956 
1565	 0.213895935908774 
1566	 0.213954188064864 
1567	 0.214014515325144 
1568	 0.21407951682086 
1569	 0.214137722926739 
1570	 0.214200762811198 
1571	 0.214283364263844 
1572	 0.214344301225054 
1573	 0.214392319553743 
1574	 0.214441665673045 
1575	 0.214492423377354 
1576	 0.214523282954485 
1577	 0.214532225676235 
1578	 0.214558279277337 
1579	 0.214571194868437 
1580	 0.214605833053461 
1581	 0.214667882186107 
1582	 0.214713694722372 
1583	 0.214751710511933 
1584	 0.214803919270747 
1585	 0.214872188796554 
1586	 0.214917982621275 
1587	 0.214963612852886 
1588	 0.215003221595731 
1589	 0.21502457361583 
1590	 0.215044050535999 
1591	 0.215059056305375 
1592	 0.215080762163071 
1593	 0.215086438338618 
1594	 0.21511133515931 
1595	 0.215156536161573 
1596	 0.21519926891422 
1597	 0.215251512020113 
1598	 0.215298454314177 
1599	 0.215354503504851 
1600	 0.215398430197213 
1601	 0.215427976125291 
1602	 0.215461671993594 
1603	 0.2154875507755 
1604	 0.215515904748751 
1605	 0.215545680800975 
1606	 0.215581363619794 
1607	 0.215618340006932 
1608	 0.215659526003177 
1609	 0.215717482108567 
1610	 0.215758116396893 
1611	 0.215778734696066 
1612	 0.215793267580436 
1613	 0.215777763672726 
1614	 0.215779306409381 
1615	 0.215803115815165 
1616	 0.215811695031059 
1617	 0.215838639671581 
1618	 0.215868502705893 
1619	 0.215873003497993 
1620	 0.215892239629965 
1621	 0.21591576906062 
1622	 0.215941377353898 
1623	 0.215960371721911 
1624	 0.215989454637123 
1625	 0.216002873664276 
1626	 0.215996057908781 
1627	 0.216013270203309 
1628	 0.216036257149703 
1629	 0.216065062644193 
1630	 0.216107660219574 
1631	 0.216138567863249 
1632	 0.216167368022201 
1633	 0.216199589047112 
1634	 0.216238075591302 
1635	 0.216252479399789 
1636	 0.216262052910261 
1637	 0.216261170058231 
1638	 0.216230171551443 
1639	 0.216229285050103 
1640	 0.216236427321989 
1641	 0.216247287449091 
1642	 0.216263181146135 
1643	 0.216292841182969 
1644	 0.216332665760023 
1645	 0.216374281936364 
1646	 0.216440802179937 
1647	 0.216473701178258 
1648	 0.216496689582983 
1649	 0.2165077430188 
1650	 0.216491159658318 
1651	 0.216495234704913 
1652	 0.216499903059289 
1653	 0.216506115906027 
1654	 0.216510869333224 
1655	 0.216536098431546 
1656	 0.216586832241668 
1657	 0.216596417191714 
1658	 0.216616389937949 
1659	 0.216598417856785 
1660	 0.216515089387756 
1661	 0.21648283201594 
1662	 0.216457978449249 
1663	 0.216440126473504 
1664	 0.216432202032354 
1665	 0.216443978978178 
1666	 0.216471453278861 
1667	 0.216494889729567 
1668	 0.216549842403452 
1669	 0.21657012088243 
1670	 0.216573353714986 
1671	 0.216567866561936 
1672	 0.216537346894077 
1673	 0.216528016507696 
1674	 0.216516404310565 
1675	 0.216509814722686 
1676	 0.216520665827996 
1677	 0.216518816133476 
1678	 0.216506099332286 
1679	 0.216502757943464 
1680	 0.216497663511064 
1681	 0.216503442112674 
1682	 0.216516647247908 
1683	 0.216532154516948 
1684	 0.216554817494208 
1685	 0.216579730010143 
1686	 0.216616118890173 
1687	 0.21663693585853 
1688	 0.216656525958832 
1689	 0.216668492485248 
1690	 0.216665284653102 
1691	 0.216666690043993 
1692	 0.216668159866352 
1693	 0.216667449684815 
1694	 0.216659670115829 
1695	 0.216662404440475 
1696	 0.216666862307111 
1697	 0.216677262400568 
1698	 0.216700857833529 
1699	 0.216710932901418 
1700	 0.21672120394277 
1701	 0.216726061921262 
1702	 0.21672766819047 
1703	 0.216716309738607 
1704	 0.21669314648523 
1705	 0.216672634688133 
1706	 0.21664371923041 
1707	 0.216615948883 
1708	 0.216589145983633 
1709	 0.21656449543152 
1710	 0.21653674097643 
1711	 0.216505981968761 
1712	 0.216478355845814 
1713	 0.216450704955954 
1714	 0.216417712401259 
1715	 0.216385326627832 
1716	 0.216348675210076 
1717	 0.216328829048002 
1718	 0.216318811285711 
1719	 0.216301425915063 
1720	 0.216293217295252 
1721	 0.216286790703196 
1722	 0.216265124530173 
1723	 0.216262964464773 
1724	 0.216299768820165 
1725	 0.216278319262302 
1726	 0.216237411454035 
1727	 0.216192596699269 
1728	 0.216095193031642 
1729	 0.216057172425332 
1730	 0.216059108211931 
1731	 0.21602287425074 
1732	 0.215994567566595 
1733	 0.215956032001077 
1734	 0.215882952128741 
1735	 0.215834444083565 
1736	 0.215802987168385 
1737	 0.215767135762662 
1738	 0.215735449548775 
1739	 0.215692715264439 
1740	 0.215642867552456 
1741	 0.215610028745163 
1742	 0.215579124978651 
1743	 0.215550887038802 
1744	 0.21554938173588 
1745	 0.215496449655747 
1746	 0.215416103641765 
1747	 0.21530022535251 
1748	 0.215207391046159 
1749	 0.215129227668574 
1750	 0.215060847167898 
1751	 0.21502466258194 
1752	 0.214984176504375 
1753	 0.214921305534012 
1754	 0.214856320025478 
1755	 0.214772423514169 
1756	 0.214686243218566 
1757	 0.21459861143036 
1758	 0.214525819837128 
1759	 0.214477598918231 
1760	 0.214400382039887 
1761	 0.214353564520783 
1762	 0.214320416307194 
1763	 0.214254284362248 
1764	 0.21420776313735 
1765	 0.214140762283956 
1766	 0.214049263385206 
1767	 0.213963801495207 
1768	 0.213896939576999 
1769	 0.213882398318054 
1770	 0.213887916270914 
1771	 0.213875287348437 
1772	 0.213856489149369 
1773	 0.213800237905135 
1774	 0.213707587272948 
1775	 0.213652856607592 
1776	 0.213615664556515 
1777	 0.213559618382787 
1778	 0.213511595505747 
1779	 0.213462941606821 
1780	 0.213419962837476 
1781	 0.213403074563717 
1782	 0.213389021901491 
1783	 0.213392170201584 
1784	 0.213380301463617 
1785	 0.213364936001586 
1786	 0.213353107767766 
1787	 0.21333646160706 
1788	 0.213309494642959 
1789	 0.213278240589198 
1790	 0.21324952185096 
1791	 0.213206808800626 
1792	 0.2131807938469 
1793	 0.213162275771796 
1794	 0.213164133167154 
1795	 0.213189785614629 
1796	 0.213192976565014 
1797	 0.213203397394822 
1798	 0.213202664954803 
1799	 0.213182139508876 
1800	 0.213163984969068 
1801	 0.213415295450859 
1802	 0.213531862479705 
1803	 0.213640192519706 
1804	 0.21375826751144 
1805	 0.213904601121487 
1806	 0.213989523544947 
1807	 0.214044723616708 
1808	 0.214124982893365 
1809	 0.214207018682746 
1810	 0.21426504459078 
1811	 0.214318620447458 
1812	 0.214392032996877 
1813	 0.214436549834302 
1814	 0.214452302103032 
1815	 0.214435160423142 
1816	 0.214403824127939 
1817	 0.214379851658774 
1818	 0.214303587882957 
1819	 0.214278307600431 
1820	 0.214275510870093 
1821	 0.214296149573062 
1822	 0.2143313964625 
1823	 0.214373572530628 
1824	 0.214402145958005 
1825	 0.214434324824953 
1826	 0.214444522465895 
1827	 0.214396461532398 
1828	 0.2143586874824 
1829	 0.214302051626885 
1830	 0.214274364455582 
1831	 0.214244218045227 
1832	 0.214225134602521 
1833	 0.214230563671397 
1834	 0.214208140713675 
1835	 0.214168105251656 
1836	 0.214149424885638 
1837	 0.214134488017209 
1838	 0.214093360358227 
1839	 0.214065178937226 
1840	 0.214038359886421 
1841	 0.214017980140895 
1842	 0.213978566875193 
1843	 0.213952749818456 
1844	 0.213930428367278 
1845	 0.213861030174476 
1846	 0.21378488205728 
1847	 0.213742683927141 
1848	 0.213650100867303 
1849	 0.213549946722225 
1850	 0.213467866301757 
1851	 0.213409184561622 
1852	 0.213297098337132 
1853	 0.213195315596848 
1854	 0.21310065916826 
1855	 0.21296082100574 
1856	 0.21279340990319 
1857	 0.212607015666009 
1858	 0.212408486080623 
1859	 0.212194948361005 
1860	 0.211953146992223 
1861	 0.211699251151809 
1862	 0.211415622781638 
1863	 0.211088620625822 
1864	 0.21072395898471 
1865	 0.21032595559883 
1866	 0.209899168859872 
1867	 0.209452130775894 
1868	 0.208952431960384 
1869	 0.208417179837066 
1870	 0.207857785610171 
1871	 0.207256819240817 
1872	 0.206602992031359 
1873	 0.205962372565908 
1874	 0.205297719411548 
1875	 0.204554883072717 
1876	 0.20377487647001 
1877	 0.20291409343045 
1878	 0.201976113774233 
1879	 0.201013166361964 
1880	 0.199981157973914 
1881	 0.198899901597817 
1882	 0.197741190307462 
1883	 0.196529868307434 
1884	 0.195210432876422 
1885	 0.193802025251504 
1886	 0.192327448669558 
1887	 0.190788617078943 
1888	 0.189204753695285 
1889	 0.18756788163988 
1890	 0.185919872544995 
1891	 0.184270254349816 
1892	 0.182547454165623 
1893	 0.180880982306835 
1894	 0.179229589443578 
1895	 0.177614680919151 
1896	 0.175991038178262 
1897	 0.174416821749924 
1898	 0.172860555117886 
1899	 0.171359823868006 
1900	 0.169934279589635 
1901	 0.168588711266988 
1902	 0.167320192889497 
1903	 0.166142154267639 
1904	 0.165020061750923 
1905	 0.163962678171476 
1906	 0.162994988140122 
1907	 0.162083378576308 
1908	 0.161241588083403 
1909	 0.160453205786901 
1910	 0.159715864234857 
1911	 0.159042507537716 
1912	 0.158415363564892 
1913	 0.157831756314103 
1914	 0.157302298587963 
1915	 0.156804986897036 
1916	 0.156348613222305 
1917	 0.155934080144701 
1918	 0.15554151521011 
1919	 0.155179550625438 
1920	 0.154859794402318 
1921	 0.154569984958196 
1922	 0.154320377477314 
1923	 0.154128289817098 
1924	 0.153975257330501 
1925	 0.153861244405446 
1926	 0.153789835711805 
1927	 0.153778450494905 
1928	 0.153783303287894 
1929	 0.15380141282406 
1930	 0.15384605481257 
1931	 0.153897925935519 
1932	 0.153950238645434 
1933	 0.15403531953961 
1934	 0.154138927135581 
1935	 0.154257605664417 
1936	 0.154398549668145 
1937	 0.154551550831822 
1938	 0.154715995906376 
1939	 0.154903258549524 
1940	 0.155111714397609 
1941	 0.155324621250455 
1942	 0.155564291456738 
1943	 0.155811559202241 
1944	 0.156075613149721 
1945	 0.15635628049249 
1946	 0.156641914959693 
1947	 0.156935510996576 
1948	 0.15724682636685 
1949	 0.157568473777802 
1950	 0.157905035766729 
1951	 0.158268047332918 
1952	 0.15863622700457 
1953	 0.158972878016964 
1954	 0.159317474333922 
1955	 0.159682433439376 
1956	 0.160055696678337 
1957	 0.160446582202462 
1958	 0.160881107583989 
1959	 0.161290740591866 
1960	 0.161702047682234 
1961	 0.162100404493926 
1962	 0.162477845777579 
1963	 0.162883609218583 
1964	 0.163292365368295 
1965	 0.163708246152151 
1966	 0.164141333179524 
1967	 0.164588384781086 
1968	 0.165029090700364 
1969	 0.165463586316678 
1970	 0.165909770020653 
1971	 0.166364375088113 
1972	 0.166820435035003 
1973	 0.16728898945083 
1974	 0.16774212054345 
1975	 0.168190443827922 
1976	 0.168646845260758 
1977	 0.169085379237299 
1978	 0.169513970478854 
1979	 0.169945983590508 
1980	 0.17037180479592 
1981	 0.170798952753526 
1982	 0.171218384392367 
1983	 0.171650794784317 
1984	 0.172082188096459 
1985	 0.172525948314198 
1986	 0.172995401012 
1987	 0.173434838513333 
1988	 0.173857448889307 
1989	 0.174308478878626 
1990	 0.174712163835606 
1991	 0.175139638888969 
1992	 0.175563640826185 
1993	 0.175993354581353 
1994	 0.176415275099275 
1995	 0.176833367636008 
1996	 0.177251342539746 
1997	 0.177680030705585 
1998	 0.178090626425162 
1999	 0.178483523200363 
2000	 0.178888776737501 
2001	 0.179300799419363 
2002	 0.179682106320076 
2003	 0.180088450541519 
2004	 0.180514973030853 
2005	 0.18091832006581 
2006	 0.181320737068852 
2007	 0.181710180417845 
2008	 0.182081357465534 
2009	 0.182456854033517 
2010	 0.182832147764652 
2011	 0.18319563415127 
2012	 0.183547021858135 
2013	 0.183907394512951 
2014	 0.184261384718076 
2015	 0.184614169347117 
2016	 0.184992319608034 
2017	 0.185357185292732 
2018	 0.185720853095041 
2019	 0.186080424380868 
2020	 0.186445507814465 
2021	 0.18681468746395 
2022	 0.187175125617685 
2023	 0.187536752352639 
2024	 0.187892053459386 
2025	 0.188233299828544 
2026	 0.188578281555951 
2027	 0.188916086624007 
2028	 0.189271759229429 
2029	 0.189618673578109 
2030	 0.189965099933856 
2031	 0.190309471277261 
2032	 0.190660226173392 
2033	 0.19099151558764 
2034	 0.191324702420793 
2035	 0.191631604109306 
2036	 0.19190774825829 
2037	 0.192195038116961 
2038	 0.192476150603047 
2039	 0.192745918182961 
2040	 0.193003467410517 
2041	 0.193276410096221 
2042	 0.193533145189494 
2043	 0.193766237638523 
2044	 0.194037085588058 
2045	 0.194326990833377 
2046	 0.1946147032368 
2047	 0.194937950472212 
2048	 0.195216864476062 
2049	 0.195485909283967 
2050	 0.19573283994434 
2051	 0.195933553692199 
2052	 0.196158430722585 
2053	 0.196378416799083 
2054	 0.196603618356816 
2055	 0.196837359420565 
2056	 0.197074317329962 
2057	 0.197309988106865 
2058	 0.197551613706526 
2059	 0.197776946670488 
2060	 0.197990914507148 
2061	 0.198218664042412 
2062	 0.198442626568727 
2063	 0.198667337370759 
2064	 0.198908298719582 
2065	 0.199134860485071 
2066	 0.199360554659941 
2067	 0.199566707326201 
2068	 0.199750621532268 
2069	 0.199952549688781 
2070	 0.200129933816605 
2071	 0.200268391363125 
2072	 0.200458747199612 
2073	 0.200664745439311 
2074	 0.200868306210158 
2075	 0.201107263753766 
2076	 0.201314575860413 
2077	 0.201495585067696 
2078	 0.201695073409137 
2079	 0.201885944501666 
2080	 0.202092884025738 
2081	 0.20233362832251 
2082	 0.20254735026919 
2083	 0.202753428647777 
2084	 0.202962095240366 
2085	 0.203155195842127 
2086	 0.203324236293974 
2087	 0.203505169682886 
2088	 0.203686044360547 
2089	 0.203867730766109 
2090	 0.204048792070153 
2091	 0.204226344111195 
2092	 0.204401700330083 
2093	 0.204578538623717 
2094	 0.204752391827688 
2095	 0.204927988109968 
2096	 0.205103190598381 
2097	 0.205285357077231 
2098	 0.205481427966498 
2099	 0.205654733659428 
2100	 0.205840977062631 
2101	 0.206028073487602 
2102	 0.206230152127948 
2103	 0.206445654076024 
2104	 0.206644893146481 
2105	 0.206854490603499 
2106	 0.207050451432687 
2107	 0.207224050268117 
2108	 0.207406527882944 
2109	 0.207592451539513 
2110	 0.207777583548555 
2111	 0.207946669757059 
2112	 0.208138427642123 
2113	 0.208353180753785 
2114	 0.208561278942687 
2115	 0.208752508247214 
2116	 0.208949153427439 
2117	 0.209131205431606 
2118	 0.209284471887092 
2119	 0.209455847458156 
2120	 0.209642838834712 
2121	 0.209808655600709 
2122	 0.209969755527648 
2123	 0.210118678457941 
2124	 0.210246104057749 
2125	 0.210382051282665 
2126	 0.210513882040002 
2127	 0.210645246528749 
2128	 0.21079790022579 
2129	 0.210916739072481 
2130	 0.211020624741512 
2131	 0.211099835172039 
2132	 0.211191110336563 
2133	 0.211261270747379 
2134	 0.211348667309061 
2135	 0.211466843999777 
2136	 0.211535371412375 
2137	 0.211586722387473 
2138	 0.211620364299688 
2139	 0.211604297400654 
2140	 0.211624528783702 
2141	 0.211660429207741 
2142	 0.211675561507798 
2143	 0.211708733439844 
2144	 0.211710930233762 
2145	 0.211682285187672 
2146	 0.211646633042067 
2147	 0.211592011048187 
2148	 0.211528776332844 
2149	 0.211478001287496 
2150	 0.211417611687951 
2151	 0.211374110939854 
2152	 0.211356788236009 
2153	 0.211306750308251 
2154	 0.211253104056873 
2155	 0.211182842886209 
2156	 0.21109602713665 
2157	 0.210999689113904 
2158	 0.210895319140969 
2159	 0.210775330768119 
2160	 0.210639316418877 
2161	 0.210492205615352 
2162	 0.210317892482864 
2163	 0.210156415235519 
2164	 0.209999848892325 
2165	 0.20982930786889 
2166	 0.209650990809613 
2167	 0.209459221761136 
2168	 0.209303957030412 
2169	 0.20915100770791 
2170	 0.209000368483705 
2171	 0.208887343982396 
2172	 0.208746457247837 
2173	 0.208583888081917 
2174	 0.208426130577723 
2175	 0.208277324811014 
2176	 0.208113255233886 
2177	 0.207933335374871 
2178	 0.207754383497348 
2179	 0.207559144528339 
2180	 0.207380849250994 
2181	 0.207217296597943 
2182	 0.207040077377165 
2183	 0.206854077511068 
2184	 0.206697132700668 
2185	 0.206505357036244 
2186	 0.206274560490079 
2187	 0.206100590198994 
2188	 0.20594477175118 
2189	 0.205780128987528 
2190	 0.205646114502791 
2191	 0.205491551002389 
2192	 0.205299008658078 
2193	 0.205151688903414 
2194	 0.205027211997507 
2195	 0.204905445735003 
2196	 0.204815762122753 
2197	 0.20470775097417 
2198	 0.204578800330146 
2199	 0.204480083657374 
2200	 0.204404202469894 
2201	 0.204312374162642 
2202	 0.204205740541179 
2203	 0.204144492476701 
2204	 0.204082842536327 
2205	 0.203999208519247 
2206	 0.203978563553877 
2207	 0.204012720595329 
2208	 0.204023940659814 
2209	 0.204064235203611 
2210	 0.204077348632397 
2211	 0.204075385023846 
2212	 0.204085506115167 
2213	 0.204081055516673 
2214	 0.204104096954354 
2215	 0.204156162809342 
2216	 0.204191766923561 
2217	 0.204240112242362 
2218	 0.204270956380261 
2219	 0.204274121238404 
2220	 0.204295401398254 
2221	 0.204306254464449 
2222	 0.204345321569727 
2223	 0.204400634007868 
2224	 0.204460815827988 
2225	 0.2045215895882 
2226	 0.204606723080934 
2227	 0.204646471208252 
2228	 0.204669775117981 
2229	 0.204685634602043 
2230	 0.204677245070358 
2231	 0.204669808389595 
2232	 0.204667941916385 
2233	 0.204639200268235 
2234	 0.204552545669263 
2235	 0.204536423037727 
2236	 0.204553268681434 
2237	 0.204547836692308 
2238	 0.204578977664675 
2239	 0.204592700168608 
2240	 0.204571773889307 
2241	 0.204560806992623 
2242	 0.204564287526776 
2243	 0.204562052013364 
2244	 0.204547960035633 
2245	 0.204544713065718 
2246	 0.204518791973969 
2247	 0.204491660804302 
2248	 0.204458033120814 
2249	 0.204401173059234 
2250	 0.204360195953942 
2251	 0.204320708979854 
2252	 0.204294774854905 
2253	 0.204278963742502 
2254	 0.204252105166606 
2255	 0.204233188103738 
2256	 0.20421128729128 
2257	 0.20417413478245 
2258	 0.204153129524785 
2259	 0.204145413534296 
2260	 0.204135904517857 
2261	 0.204119896982903 
2262	 0.204122444378613 
2263	 0.204164086638122 
2264	 0.204156679804812 
2265	 0.204141005241881 
2266	 0.204110664770506 
2267	 0.20400024191862 
2268	 0.203959370402559 
2269	 0.203961995832465 
2270	 0.203958231273427 
2271	 0.203975158526264 
2272	 0.203987308154131 
2273	 0.204010038557018 
2274	 0.204000563264235 
2275	 0.203962352979635 
2276	 0.203907958160451 
2277	 0.203869472076882 
2278	 0.203784457361941 
2279	 0.203752019564812 
2280	 0.203774818175906 
2281	 0.203747651493739 
2282	 0.203697712032791 
2283	 0.203667645817259 
2284	 0.203628102680083 
2285	 0.203609995148548 
2286	 0.203622281072898 
2287	 0.203611699622469 
2288	 0.203599413604969 
2289	 0.203587394856925 
2290	 0.203568786688904 
2291	 0.203546883035395 
2292	 0.203525261313158 
2293	 0.20349076708644 
2294	 0.203434045227768 
2295	 0.203398866970428 
2296	 0.203358350433356 
2297	 0.203352459374131 
2298	 0.203351270828409 
2299	 0.203324839406467 
2300	 0.203287166579642 
2301	 0.203219302179794 
2302	 0.203138173905472 
2303	 0.203068051395291 
2304	 0.202977358736288 
2305	 0.202872750250625 
2306	 0.20277931068826 
2307	 0.202673619872335 
2308	 0.202580701339688 
2309	 0.202507038952807 
2310	 0.20242192091511 
2311	 0.202326451420878 
2312	 0.202246384122851 
2313	 0.202170897516394 
2314	 0.202096401286735 
2315	 0.202038051246669 
2316	 0.201957553622779 
2317	 0.201865003036579 
2318	 0.201781304949873 
2319	 0.201683783669909 
2320	 0.201605302499774 
2321	 0.201578467213287 
2322	 0.201476696607219 
2323	 0.201331242465829 
2324	 0.201205153988678 
2325	 0.201001516680612 
2326	 0.200872869252873 
2327	 0.200781694223503 
2328	 0.200736585769488 
2329	 0.20073388258806 
2330	 0.200694493270181 
2331	 0.200679944518478 
2332	 0.200641182586086 
2333	 0.200558361217138 
2334	 0.20054474059361 
2335	 0.20052820906238 
2336	 0.20049275390006 
2337	 0.200452237151994 
2338	 0.200386221130171 
2339	 0.200289483067564 
2340	 0.200165031233047 
2341	 0.200026828287142 
2342	 0.199890236331937 
2343	 0.199786282994465 
2344	 0.199683925553047 
2345	 0.199558861579453 
2346	 0.199444112485941 
2347	 0.199314265271768 
2348	 0.199131441855081 
2349	 0.199007416154077 
2350	 0.198935737380458 
2351	 0.198808564772691 
2352	 0.198685170447286 
2353	 0.19852515235912 
2354	 0.198316416074641 
2355	 0.198125747105185 
2356	 0.197874894179669 
2357	 0.197738887352223 
2358	 0.197699146334796 
2359	 0.197573357269198 
2360	 0.197521331864255 
2361	 0.197371480404822 
2362	 0.197042868659092 
2363	 0.196858396143858 
2364	 0.196722406160757 
2365	 0.196572273621059 
2366	 0.196509974444351 
2367	 0.196385514153765 
2368	 0.196191839675462 
2369	 0.196043170162881 
2370	 0.195920626959588 
2371	 0.195770444352542 
2372	 0.195587428392768 
2373	 0.195380830435772 
2374	 0.19515663148722 
2375	 0.1949254510922 
2376	 0.194695801638343 
2377	 0.194473783910508 
2378	 0.194287750221737 
2379	 0.194070065323049 
2380	 0.193816542722636 
2381	 0.193640729595328 
2382	 0.193449235363103 
2383	 0.193225386642224 
2384	 0.19308131210467 
2385	 0.192904963489824 
2386	 0.192702193374981 
2387	 0.19253394471958 
2388	 0.19229246476392 
2389	 0.192064857571043 
2390	 0.191862008076948 
2391	 0.191586797008011 
2392	 0.191378102494312 
2393	 0.191186349354614 
2394	 0.190907982884241 
2395	 0.190680794061498 
2396	 0.190474620766921 
2397	 0.190284639202776 
2398	 0.19008281562607 
2399	 0.189772795499871 
2400	 0.189466631476909 
2401	 0.189150922723793 
2402	 0.188893251159172 
2403	 0.1887465932777 
2404	 0.18855859071351 
2405	 0.188367135685142 
2406	 0.188189136620047 
2407	 0.187932445047675 
2408	 0.187659570705094 
2409	 0.187429728278165 
2410	 0.187156844775063 
2411	 0.186852110865806 
2412	 0.186550818051694 
2413	 0.18624463374904 
2414	 0.18596373373311 
2415	 0.185684140890638 
2416	 0.185419847665168 
2417	 0.18522145188772 
2418	 0.184961974891975 
2419	 0.18464556785631 
2420	 0.184378699107247 
2421	 0.184154074970541 
2422	 0.183813189491898 
2423	 0.183429960886112 
2424	 0.18308143728423 
2425	 0.182635020308427 
2426	 0.182285852618278 
2427	 0.182018118159886 
2428	 0.181761290023443 
2429	 0.181591228009295 
2430	 0.181281094926239 
2431	 0.180909391298713 
2432	 0.18055114166057 
2433	 0.180090761351574 
2434	 0.17973692077837 
2435	 0.179452738007074 
2436	 0.179205172195907 
2437	 0.179029885331741 
2438	 0.178779254498989 
2439	 0.178518616580839 
2440	 0.178221141823632 
2441	 0.177871359567676 
2442	 0.177502678935245 
2443	 0.177161924375115 
2444	 0.176845680670267 
2445	 0.176442351066858 
2446	 0.176155718401654 
2447	 0.175931173593359 
2448	 0.17567941517606 
2449	 0.175560657267187 
2450	 0.175191919736555 
2451	 0.174658129455443 
2452	 0.174330889113203 
2453	 0.173935254994692 
2454	 0.173550982866018 
2455	 0.173385980712431 
2456	 0.173005219196803 
2457	 0.172345221935436 
2458	 0.172037272173604 
2459	 0.171925577869549 
2460	 0.171629601033786 
2461	 0.171360793582785 
2462	 0.171113271642947 
2463	 0.170755403124457 
2464	 0.170420294270063 
2465	 0.170237810414627 
2466	 0.169931544975767 
2467	 0.16944770544733 
2468	 0.169140857588658 
2469	 0.168948269427581 
2470	 0.168574332322925 
2471	 0.168265764455949 
2472	 0.16784859530813 
2473	 0.167468181304609 
2474	 0.167271411870333 
2475	 0.167016935222401 
2476	 0.166738279221075 
2477	 0.166611557942957 
2478	 0.166489610040448 
2479	 0.166125835498766 
2480	 0.16595688380393 
2481	 0.165846543381177 
2482	 0.16540952245265 
2483	 0.165155312279712 
2484	 0.164728773619857 
2485	 0.163978372839313 
2486	 0.163661847403865 
2487	 0.163580816081035 
2488	 0.163421246841457 
2489	 0.163323935023076 
2490	 0.163182647814011 
2491	 0.162800094993134 
2492	 0.162528235154136 
2493	 0.162473600081933 
2494	 0.162214464072702 
2495	 0.162093292705779 
2496	 0.162003249425894 
2497	 0.161774465680933 
2498	 0.16167653209858 
2499	 0.16143541789712 
2500	 0.161213350991961 
