Wavelength	mm1300005.asd
350	 6.86611154133239E-02 
351	 6.81341783460548E-02 
352	 0.061770862550437 
353	 5.22683591934906E-02 
354	 5.28227963980317E-02 
355	 6.01213154877497E-02 
356	 6.64218110591089E-02 
357	 6.58424185767676E-02 
358	 6.24759683228912E-02 
359	 5.47880334289025E-02 
360	 4.93481911775311E-02 
361	 5.58806791962088E-02 
362	 5.94885151719354E-02 
363	 6.27377584093518E-02 
364	 6.56826632884647E-02 
365	 6.05116282258335E-02 
366	 5.99090981137921E-02 
367	 6.32234398076491E-02 
368	 6.61073513269547E-02 
369	 6.65872687223981E-02 
370	 0.064992375385174 
371	 6.35824344097265E-02 
372	 6.53105889437664E-02 
373	 0.066369499173375 
374	 6.63039197570591E-02 
375	 6.60396460279985E-02 
376	 6.82004567542407E-02 
377	 6.79153876566124E-02 
378	 0.067277574983354 
379	 6.88411284994214E-02 
380	 6.76416150972629E-02 
381	 6.65175752323876E-02 
382	 6.71141154243891E-02 
383	 6.95644753144014E-02 
384	 6.99846638602784E-02 
385	 6.96764583666996E-02 
386	 6.97783836263828E-02 
387	 6.93564914216272E-02 
388	 7.13220331786156E-02 
389	 7.36747164919067E-02 
390	 7.34884727656337E-02 
391	 7.11989110958275E-02 
392	 7.15695680965039E-02 
393	 7.43987210156531E-02 
394	 7.53680194845759E-02 
395	 7.60412130521776E-02 
396	 7.67517074013622E-02 
397	 0.077460028397609 
398	 7.76518809490898E-02 
399	 7.80535545843018E-02 
400	 7.85814881988176E-02 
401	 7.88994145844023E-02 
402	 7.91015114186406E-02 
403	 0.079404731553738 
404	 7.91347188630159E-02 
405	 7.69019042387659E-02 
406	 7.80331225601634E-02 
407	 8.03078245524663E-02 
408	 8.10211271451562E-02 
409	 8.01227228941263E-02 
410	 7.92697563317561E-02 
411	 0.079415215564614 
412	 8.07142720116509E-02 
413	 8.07696955520882E-02 
414	 8.07030286860395E-02 
415	 8.10829009293475E-02 
416	 0.081365626390445 
417	 8.12242221306912E-02 
418	 8.13275250071889E-02 
419	 8.20336527910063E-02 
420	 8.18214123387982E-02 
421	 8.15108220209818E-02 
422	 8.15585363920081E-02 
423	 8.20647743492314E-02 
424	 8.23523690277788E-02 
425	 8.21920853686725E-02 
426	 8.18257393874258E-02 
427	 8.22658567122679E-02 
428	 8.20533853922464E-02 
429	 8.17689760067852E-02 
430	 8.22665282611282E-02 
431	 0.082282921752333 
432	 8.23533372073418E-02 
433	 0.082581965794822 
434	 8.25953913330071E-02 
435	 8.27069598291043E-02 
436	 0.082762578608232 
437	 8.26119511798461E-02 
438	 8.22443883293841E-02 
439	 8.25477187107365E-02 
440	 8.31749343437849E-02 
441	 8.32636025492277E-02 
442	 8.33812195747166E-02 
443	 0.083440353770402 
444	 0.08345220947051 
445	 8.36802319876533E-02 
446	 0.083665709122541 
447	 8.35573435684403E-02 
448	 8.36019549198879E-02 
449	 8.36258419273731E-02 
450	 8.38979739637859E-02 
451	 8.42451634019665E-02 
452	 8.41687797227798E-02 
453	 8.44617376287449E-02 
454	 8.46019828863526E-02 
455	 8.42823330438136E-02 
456	 8.42573508381896E-02 
457	 8.43550185387646E-02 
458	 8.43693341173573E-02 
459	 8.41716093165941E-02 
460	 8.44519290432973E-02 
461	 8.47871438956862E-02 
462	 8.48947249857012E-02 
463	 8.48298151759848E-02 
464	 8.47372268984031E-02 
465	 8.47739766232509E-02 
466	 8.49679050250854E-02 
467	 8.48379350711708E-02 
468	 8.49716894396141E-02 
469	 8.53017586693487E-02 
470	 8.52497210998271E-02 
471	 8.51895229777535E-02 
472	 8.51768211583523E-02 
473	 0.085200545255609 
474	 8.52203685424306E-02 
475	 8.52352130028712E-02 
476	 8.53165805884532E-02 
477	 8.55091519725848E-02 
478	 8.53949521721833E-02 
479	 8.55048608276704E-02 
480	 8.58749416025257E-02 
481	 8.57491353495245E-02 
482	 0.085919516362983 
483	 8.60789077467942E-02 
484	 8.58697906837055E-02 
485	 8.59808149095723E-02 
486	 8.62127870457306E-02 
487	 8.63302868932022E-02 
488	 8.61265485548139E-02 
489	 8.60722178524102E-02 
490	 8.61547884229845E-02 
491	 8.62809155923835E-02 
492	 8.64067936932614E-02 
493	 8.64603523311949E-02 
494	 8.64393106475623E-02 
495	 8.64046814420047E-02 
496	 0.086598701839448 
497	 8.66174414878198E-02 
498	 8.64840653244029E-02 
499	 8.69675438045414E-02 
500	 8.68605284310125E-02 
501	 8.65973653387309E-02 
502	 8.68240774555579E-02 
503	 8.68367197477245E-02 
504	 8.68272839852803E-02 
505	 8.68607242890105E-02 
506	 8.68663338644048E-02 
507	 8.69944922229333E-02 
508	 8.71797327223104E-02 
509	 8.73190087787044E-02 
510	 8.73302577408489E-02 
511	 8.72442422916011E-02 
512	 8.71878848806713E-02 
513	 8.72979675498308E-02 
514	 8.72797748532525E-02 
515	 8.73747553168762E-02 
516	 8.76233193419582E-02 
517	 8.76213873012457E-02 
518	 8.76491104033035E-02 
519	 8.77027627365633E-02 
520	 8.77130783571725E-02 
521	 8.77525580717692E-02 
522	 8.78224613489824E-02 
523	 8.78919769978499E-02 
524	 8.79039599114822E-02 
525	 8.79738854200874E-02 
526	 8.80319022776417E-02 
527	 8.80197881783234E-02 
528	 8.80455480213876E-02 
529	 8.81059100302866E-02 
530	 0.088162798291758 
531	 8.81664339891372E-02 
532	 8.82210503632998E-02 
533	 8.83029534607771E-02 
534	 8.83929356259022E-02 
535	 0.088540208660289 
536	 8.85456585636497E-02 
537	 8.85332869135124E-02 
538	 8.86981951048977E-02 
539	 0.08876087884788 
540	 0.08878827846925 
541	 8.88447627083715E-02 
542	 8.89540044197524E-02 
543	 8.90551202524881E-02 
544	 8.91203443830529E-02 
545	 0.089152138252917 
546	 8.92169188059414E-02 
547	 8.93471190489005E-02 
548	 8.95063264360171E-02 
549	 0.089603970366395 
550	 8.96248005648857E-02 
551	 8.97056219272617E-02 
552	 8.99094967026324E-02 
553	 9.00501670618125E-02 
554	 9.01034829780403E-02 
555	 9.01709056946649E-02 
556	 9.03874871105565E-02 
557	 9.04849675341798E-02 
558	 9.06150393249403E-02 
559	 9.08758371913162E-02 
560	 9.12065358543422E-02 
561	 9.13992903841568E-02 
562	 9.15286857201647E-02 
563	 9.17441976177886E-02 
564	 9.19803921678061E-02 
565	 9.21498441495749E-02 
566	 9.22517654109401E-02 
567	 9.23826977552616E-02 
568	 9.25999125968764E-02 
569	 9.28981839355329E-02 
570	 9.32556308911198E-02 
571	 9.36798271542584E-02 
572	 9.40797797605139E-02 
573	 9.44101677195547E-02 
574	 9.46739383440615E-02 
575	 9.50005884995582E-02 
576	 9.54449850021767E-02 
577	 0.095959748395552 
578	 9.63052384834682E-02 
579	 9.66250151158361E-02 
580	 9.69659790432255E-02 
581	 9.73279070460642E-02 
582	 0.097645852704896 
583	 9.79510246054024E-02 
584	 9.83172698747152E-02 
585	 9.88692043653776E-02 
586	 9.94903004715718E-02 
587	 0.100086575188678 
588	 0.100616822596436 
589	 0.101235607167484 
590	 0.101861751134602 
591	 0.102456414342232 
592	 0.103029955239644 
593	 0.103601983441892 
594	 0.104119079587026 
595	 0.104528859185762 
596	 0.104799125716165 
597	 0.10511493928382 
598	 0.105493290060184 
599	 0.105864192036619 
600	 0.10628558628326 
601	 0.10674020104634 
602	 0.107215141122418 
603	 0.107726518390541 
604	 0.108225647289566 
605	 0.108696497326875 
606	 0.109150989862559 
607	 0.109675425149253 
608	 0.110177018397883 
609	 0.110632790562972 
610	 0.111110303314376 
611	 0.111475768455298 
612	 0.111768195318426 
613	 0.112057766509579 
614	 0.112368393119592 
615	 0.112654780532528 
616	 0.112919587258691 
617	 0.113194294103707 
618	 0.113441164651454 
619	 0.11365832534825 
620	 0.113862559916874 
621	 0.114097754988992 
622	 0.114342749298696 
623	 0.114564445396309 
624	 0.114738942488888 
625	 0.114940378820014 
626	 0.11515224012253 
627	 0.115352755708946 
628	 0.115523308989917 
629	 0.11567903184009 
630	 0.115842768319309 
631	 0.116027313197077 
632	 0.116197712999127 
633	 0.116370973861787 
634	 0.11653738421283 
635	 0.116669854472965 
636	 0.116834361059118 
637	 0.117003593114498 
638	 0.117149207523239 
639	 0.117275896382521 
640	 0.117446440113193 
641	 0.117638248730339 
642	 0.117793797129952 
643	 0.117941122391445 
644	 0.118086584508283 
645	 0.118235333003335 
646	 0.118393476137403 
647	 0.118533096022459 
648	 0.11867938069307 
649	 0.118860349179995 
650	 0.119046167248221 
651	 0.119240581875943 
652	 0.119427084203998 
653	 0.119577078929493 
654	 0.119772866455901 
655	 0.119960967927729 
656	 0.120113395046684 
657	 0.120332528083069 
658	 0.12053189708512 
659	 0.120713444543514 
660	 0.120917744834876 
661	 0.121134151561711 
662	 0.121377447772761 
663	 0.121623842818697 
664	 0.121789201927186 
665	 0.122014756616205 
666	 0.12224793643152 
667	 0.122420952718499 
668	 0.122647392775764 
669	 0.122888165021696 
670	 0.123139200566499 
671	 0.12342088281987 
672	 0.123609458091793 
673	 0.123840472964375 
674	 0.124183425755195 
675	 0.124449787626175 
676	 0.124680892061935 
677	 0.124926627341465 
678	 0.125230195626897 
679	 0.125518181035685 
680	 0.125810886571541 
681	 0.126102485005969 
682	 0.126342469130435 
683	 0.12665016701793 
684	 0.126976326007486 
685	 0.127262593887456 
686	 0.127598459253226 
687	 0.127881143749907 
688	 0.128138098016187 
689	 0.128481075166484 
690	 0.12883516939119 
691	 0.129184727305141 
692	 0.129527142592335 
693	 0.129870443596358 
694	 0.130197558089569 
695	 0.130515723789596 
696	 0.130838313982315 
697	 0.131147351436202 
698	 0.131515002221069 
699	 0.131918728507731 
700	 0.132237649942534 
701	 0.132587622719398 
702	 0.13296543756897 
703	 0.133331012604682 
704	 0.133603162371266 
705	 0.133946059180407 
706	 0.134340574658293 
707	 0.134680396789771 
708	 0.13502442404272 
709	 0.135392833807758 
710	 0.13578017140144 
711	 0.136152207282637 
712	 0.136477915959275 
713	 0.136775492039294 
714	 0.137082473161677 
715	 0.137444954249625 
716	 0.137792613979076 
717	 0.138115482731915 
718	 0.138447705130857 
719	 0.138762442633268 
720	 0.13906512308388 
721	 0.139357763335898 
722	 0.139628333907393 
723	 0.139880384652554 
724	 0.140142165363463 
725	 0.140436194221137 
726	 0.140716810182896 
727	 0.140968598488072 
728	 0.141204702946974 
729	 0.141460173141998 
730	 0.141697973947094 
731	 0.14190671275432 
732	 0.142091388021895 
733	 0.142286050706059 
734	 0.142447405010016 
735	 0.142578865876506 
736	 0.142708822557437 
737	 0.142885677204463 
738	 0.143053263692579 
739	 0.14317638530234 
740	 0.143253956391699 
741	 0.143333462204376 
742	 0.143398522489176 
743	 0.143441197907394 
744	 0.143522493199749 
745	 0.143555014216425 
746	 0.143575680363244 
747	 0.143652712323268 
748	 0.143619718722164 
749	 0.143583044043888 
750	 0.143592299318808 
751	 0.143598524973102 
752	 0.143561837094744 
753	 0.143465142491287 
754	 0.14332965796943 
755	 0.143257134792022 
756	 0.143219370484201 
757	 0.143161336542258 
758	 0.143034002360976 
759	 0.142946239711928 
760	 0.142868210480354 
761	 0.142759058850417 
762	 0.142583699187492 
763	 0.142441618638056 
764	 0.142309452932329 
765	 0.142151295837902 
766	 0.141984950394367 
767	 0.141825002628806 
768	 0.14168269824044 
769	 0.141558277610603 
770	 0.141403136351854 
771	 0.141226250564633 
772	 0.141033859602566 
773	 0.140822927476397 
774	 0.140644377014389 
775	 0.140471486958559 
776	 0.140277637998678 
777	 0.140089357732508 
778	 0.139886879861961 
779	 0.139692896091851 
780	 0.139534280645747 
781	 0.139337623963424 
782	 0.139136019641648 
783	 0.138943923818286 
784	 0.138748041217247 
785	 0.138553858805669 
786	 0.138346219881898 
787	 0.138127504322861 
788	 0.137949051303003 
789	 0.137801025490197 
790	 0.137616317518231 
791	 0.13735151806731 
792	 0.137202883962294 
793	 0.137048505129542 
794	 0.13684651468388 
795	 0.136639911143502 
796	 0.136427675507774 
797	 0.136261746551718 
798	 0.136142249065274 
799	 0.13596389406044 
800	 0.135810702953556 
801	 0.135636502779374 
802	 0.135397736123837 
803	 0.135207734731853 
804	 0.135055779690629 
805	 0.134923118504373 
806	 0.134784696054763 
807	 0.134609238120885 
808	 0.134444666298332 
809	 0.134299546999715 
810	 0.13412095279007 
811	 0.133971418183499 
812	 0.133831823090978 
813	 0.133690954820468 
814	 0.133616980185895 
815	 0.133513200595888 
816	 0.133369489237448 
817	 0.133212796071491 
818	 0.133034699102956 
819	 0.132938648492334 
820	 0.1328903661151 
821	 0.132749863129202 
822	 0.132652344089159 
823	 0.132538516415062 
824	 0.132392287224506 
825	 0.132313108638362 
826	 0.132220926578249 
827	 0.132109007747166 
828	 0.13200194003408 
829	 0.131964391751482 
830	 0.131858486681642 
831	 0.131720846972624 
832	 0.131659743416397 
833	 0.131637119265964 
834	 0.131596266635997 
835	 0.131524027861 
836	 0.1314529973021 
837	 0.131417504118092 
838	 0.131381871830398 
839	 0.131320583558197 
840	 0.131246752307201 
841	 0.1311728196254 
842	 0.131097632984551 
843	 0.131033308070285 
844	 0.131054078891622 
845	 0.131046195684158 
846	 0.130983991005882 
847	 0.130909357152468 
848	 0.130966288252813 
849	 0.130992490193399 
850	 0.130928669135742 
851	 0.130831834022077 
852	 0.130793328390147 
853	 0.130814456848893 
854	 0.130862557756738 
855	 0.130882165624429 
856	 0.130880484119036 
857	 0.130887477347071 
858	 0.130916222447639 
859	 0.130919951435991 
860	 0.130928450641241 
861	 0.130952337482455 
862	 0.130982380991818 
863	 0.130950820689544 
864	 0.130980610825234 
865	 0.131055699563302 
866	 0.131081937697049 
867	 0.13110293532996 
868	 0.131149879334357 
869	 0.131210359253411 
870	 0.131234464705146 
871	 0.131272954296219 
872	 0.131336202629524 
873	 0.131418180954375 
874	 0.131498723935681 
875	 0.131565638974673 
876	 0.131600898484245 
877	 0.131617976491472 
878	 0.131707635216885 
879	 0.131844150099877 
880	 0.131954631026968 
881	 0.131989976994998 
882	 0.132065050074662 
883	 0.132191990272265 
884	 0.132308200600612 
885	 0.132352873252385 
886	 0.13254488627327 
887	 0.132699169181833 
888	 0.132773852015415 
889	 0.132870948927377 
890	 0.132972646347277 
891	 0.133066043431964 
892	 0.133172538451846 
893	 0.133348611718575 
894	 0.133494821681965 
895	 0.133606479216636 
896	 0.133717172375444 
897	 0.133889682872674 
898	 0.134059095818005 
899	 0.134234322370941 
900	 0.134420066121523 
901	 0.134554425217611 
902	 0.134724037369207 
903	 0.134885333142016 
904	 0.134996140533352 
905	 0.135199326025033 
906	 0.135355713570983 
907	 0.13553373213906 
908	 0.135843421726129 
909	 0.136077113363481 
910	 0.136200660226183 
911	 0.13630746088078 
912	 0.136535351985738 
913	 0.136750794421222 
914	 0.136970728496419 
915	 0.137198385117148 
916	 0.137413286368952 
917	 0.137574821247717 
918	 0.137800135641932 
919	 0.138089735631628 
920	 0.138303352734289 
921	 0.138603077540991 
922	 0.138884701467464 
923	 0.139088916438373 
924	 0.139288160198891 
925	 0.139470095787318 
926	 0.139741852987234 
927	 0.140106928843038 
928	 0.140347616441226 
929	 0.14064262243064 
930	 0.140928719533716 
931	 0.141164705674805 
932	 0.141499741160189 
933	 0.141820201302713 
934	 0.142122076827092 
935	 0.142432516050987 
936	 0.142778279109801 
937	 0.143030977719489 
938	 0.143263880837304 
939	 0.143577496758 
940	 0.143905935067156 
941	 0.144255258160763 
942	 0.14464863214918 
943	 0.145080720659444 
944	 0.145416742405883 
945	 0.145715401106564 
946	 0.146035210544906 
947	 0.146397476698032 
948	 0.146675801205847 
949	 0.147002678695826 
950	 0.147375757861714 
951	 0.147734219447799 
952	 0.148130808482399 
953	 0.148522374528592 
954	 0.148885686223561 
955	 0.14923929638522 
956	 0.149730881001655 
957	 0.150181842014489 
958	 0.150525445275573 
959	 0.15082630581757 
960	 0.151353494337866 
961	 0.151845134366949 
962	 0.152225428811192 
963	 0.152564349623384 
964	 0.152832654655746 
965	 0.153244577247848 
966	 0.153775755460305 
967	 0.154242566796639 
968	 0.154628495079117 
969	 0.155095312827972 
970	 0.155590448681206 
971	 0.155949253154611 
972	 0.156321195276853 
973	 0.156826802215471 
974	 0.157361162247955 
975	 0.157736163495861 
976	 0.158211175951218 
977	 0.158705111306456 
978	 0.159158758163647 
979	 0.15955501378129 
980	 0.159910441715715 
981	 0.160430855983577 
982	 0.160993497985141 
983	 0.161354889539354 
984	 0.161821501795007 
985	 0.162247829508435 
986	 0.162633640369023 
987	 0.163074744408855 
988	 0.163636352126749 
989	 0.164105507716715 
990	 0.164544773748062 
991	 0.165094653790662 
992	 0.165510820182968 
993	 0.165939552822262 
994	 0.16642808257007 
995	 0.166941035251116 
996	 0.167360130942594 
997	 0.167813659332635 
998	 0.168205230065387 
999	 0.168507557008067 
1000	 0.169253821522189 
1001	 0.169305813448894 
1002	 0.169752574686122 
1003	 0.170135689723261 
1004	 0.170542513959212 
1005	 0.171016950777553 
1006	 0.171430517915325 
1007	 0.171794153014209 
1008	 0.172166185608316 
1009	 0.172600312115329 
1010	 0.173055277392747 
1011	 0.173460821091838 
1012	 0.173867379003636 
1013	 0.174265163987106 
1014	 0.174636095263291 
1015	 0.174998676102476 
1016	 0.175384803393343 
1017	 0.175774514977669 
1018	 0.176153587609789 
1019	 0.176513380112569 
1020	 0.176904731606597 
1021	 0.177295273063455 
1022	 0.177606762924269 
1023	 0.177886699575651 
1024	 0.178215117495363 
1025	 0.178493844720161 
1026	 0.178775642643961 
1027	 0.179139157487656 
1028	 0.179442669012373 
1029	 0.179734297633821 
1030	 0.180086511811877 
1031	 0.180406536939881 
1032	 0.18069882623021 
1033	 0.180990269233939 
1034	 0.181313835326812 
1035	 0.18162629709338 
1036	 0.181936873727946 
1037	 0.182258487136016 
1038	 0.182577336254449 
1039	 0.182870914887535 
1040	 0.183155226074782 
1041	 0.183395442665114 
1042	 0.183691751265042 
1043	 0.184052372626438 
1044	 0.18434003149031 
1045	 0.184592821802191 
1046	 0.184914223582947 
1047	 0.185200859153007 
1048	 0.185407585644603 
1049	 0.185722017104686 
1050	 0.18602143365727 
1051	 0.186324431508041 
1052	 0.186664842915353 
1053	 0.186962903611824 
1054	 0.187275334922301 
1055	 0.187577820751007 
1056	 0.187903767376175 
1057	 0.18821048393861 
1058	 0.188519403815091 
1059	 0.188810524596804 
1060	 0.189093835270428 
1061	 0.189343487320215 
1062	 0.189604590874105 
1063	 0.18993768627827 
1064	 0.190251597622021 
1065	 0.190505779725377 
1066	 0.190772649343531 
1067	 0.191019201406526 
1068	 0.191277924691952 
1069	 0.191595307738619 
1070	 0.191868681260185 
1071	 0.192116517395066 
1072	 0.192386227535741 
1073	 0.19264899656756 
1074	 0.192907397586511 
1075	 0.193185515281571 
1076	 0.193454758029808 
1077	 0.193652776063652 
1078	 0.193852148551476 
1079	 0.194071823300489 
1080	 0.19428669437969 
1081	 0.194549706396132 
1082	 0.194814722711842 
1083	 0.195058368394107 
1084	 0.195290687365897 
1085	 0.195514756164578 
1086	 0.195736872698487 
1087	 0.195940613354058 
1088	 0.196106686130926 
1089	 0.196309779236848 
1090	 0.196547401648804 
1091	 0.196759241054556 
1092	 0.196999977338823 
1093	 0.197225337416757 
1094	 0.197426827149376 
1095	 0.197611033687303 
1096	 0.197776172952588 
1097	 0.197971475619641 
1098	 0.198168809373238 
1099	 0.198371052226148 
1100	 0.198565578053561 
1101	 0.198779094737479 
1102	 0.19896008554522 
1103	 0.199100263652301 
1104	 0.199274532425955 
1105	 0.199481504976421 
1106	 0.199685726315337 
1107	 0.199886994973182 
1108	 0.200091155648441 
1109	 0.200278012157746 
1110	 0.200463134843379 
1111	 0.200657516805767 
1112	 0.200888734913126 
1113	 0.201065561072453 
1114	 0.201200903088568 
1115	 0.201368026095783 
1116	 0.201523526379467 
1117	 0.201699520184334 
1118	 0.201896716587583 
1119	 0.202097486795668 
1120	 0.202302326936215 
1121	 0.20247060079178 
1122	 0.202633663190659 
1123	 0.202824790974826 
1124	 0.203016323764635 
1125	 0.203223409335225 
1126	 0.203406404883792 
1127	 0.203572198920693 
1128	 0.203760756157113 
1129	 0.203955344867903 
1130	 0.204135269368367 
1131	 0.204340087757144 
1132	 0.204512711670347 
1133	 0.20463422445312 
1134	 0.204785288506684 
1135	 0.204933570486252 
1136	 0.205113199603864 
1137	 0.205279242120561 
1138	 0.205429747175533 
1139	 0.205574792595448 
1140	 0.205692209735524 
1141	 0.205838477031782 
1142	 0.206004056863063 
1143	 0.206146198673219 
1144	 0.206291062556457 
1145	 0.206425967374255 
1146	 0.206530138817782 
1147	 0.206659516701728 
1148	 0.206800110217117 
1149	 0.206938940691927 
1150	 0.207083577413317 
1151	 0.207236098133377 
1152	 0.207384034037972 
1153	 0.20752595658923 
1154	 0.207661382091035 
1155	 0.207789712759786 
1156	 0.207924531253605 
1157	 0.208054288050559 
1158	 0.208188869099875 
1159	 0.208338437977053 
1160	 0.208466841058145 
1161	 0.208587896153307 
1162	 0.208702892683719 
1163	 0.208792933820463 
1164	 0.208905590491315 
1165	 0.209025688572444 
1166	 0.20914440255031 
1167	 0.209277315609415 
1168	 0.209429379047035 
1169	 0.209561758587892 
1170	 0.209688195194554 
1171	 0.209822033448308 
1172	 0.209960328679055 
1173	 0.210078984819509 
1174	 0.210188667654539 
1175	 0.210311027020974 
1176	 0.210424919362905 
1177	 0.210540989880603 
1178	 0.210682231023198 
1179	 0.210798262355166 
1180	 0.210877344385877 
1181	 0.210983206294976 
1182	 0.2110998452484 
1183	 0.211213566662565 
1184	 0.211324998242113 
1185	 0.211448847367929 
1186	 0.211565613141687 
1187	 0.21167060161422 
1188	 0.211781937465793 
1189	 0.211905805355545 
1190	 0.212013071617902 
1191	 0.212110554516963 
1192	 0.212208784867072 
1193	 0.212301014633754 
1194	 0.212395538108171 
1195	 0.21248444975218 
1196	 0.212579763845878 
1197	 0.212671316897974 
1198	 0.212773924195283 
1199	 0.212883866246592 
1200	 0.213009736543842 
1201	 0.21311345452737 
1202	 0.213219640217717 
1203	 0.213315071790407 
1204	 0.213392854504095 
1205	 0.213476877455296 
1206	 0.213554606686653 
1207	 0.213645300094137 
1208	 0.213742870555831 
1209	 0.213834015689303 
1210	 0.213942414375589 
1211	 0.214029255612441 
1212	 0.214085331914992 
1213	 0.214163178355546 
1214	 0.214239505634617 
1215	 0.214323682936963 
1216	 0.214416427223861 
1217	 0.214533569199758 
1218	 0.214620382151786 
1219	 0.214700083721435 
1220	 0.214777250000389 
1221	 0.214838889116178 
1222	 0.214910110663089 
1223	 0.214987731711065 
1224	 0.215057743646118 
1225	 0.215117181532574 
1226	 0.215189730804286 
1227	 0.215267986256384 
1228	 0.215343083127791 
1229	 0.215428767705336 
1230	 0.215507080624714 
1231	 0.215587362378386 
1232	 0.215652229982351 
1233	 0.215708623287089 
1234	 0.215754956530734 
1235	 0.215810018206475 
1236	 0.215852074817255 
1237	 0.215908939462926 
1238	 0.215975725606046 
1239	 0.216046329699215 
1240	 0.216127605269768 
1241	 0.216195420515452 
1242	 0.216271316070804 
1243	 0.216332629573272 
1244	 0.216361095111955 
1245	 0.216420047724397 
1246	 0.216495553213563 
1247	 0.216562713483916 
1248	 0.21664728258869 
1249	 0.216719889094273 
1250	 0.216772358426829 
1251	 0.216833594224585 
1252	 0.2168802051754 
1253	 0.216918955286302 
1254	 0.216955283386929 
1255	 0.216980049415255 
1256	 0.21701098852129 
1257	 0.217042475317187 
1258	 0.21707358103511 
1259	 0.217100361151716 
1260	 0.217134292998143 
1261	 0.217167595893058 
1262	 0.217209680930523 
1263	 0.217269253650243 
1264	 0.217315975586193 
1265	 0.21735833401139 
1266	 0.217402078962771 
1267	 0.217440363522243 
1268	 0.217476493170938 
1269	 0.21752254455676 
1270	 0.217576135310895 
1271	 0.217631739489612 
1272	 0.217689028349685 
1273	 0.217754644321331 
1274	 0.217823524687109 
1275	 0.217901546938947 
1276	 0.218002943414193 
1277	 0.218075477698336 
1278	 0.2181291779403 
1279	 0.218205983908219 
1280	 0.218272815350592 
1281	 0.218355912571229 
1282	 0.218466549543669 
1283	 0.218572805707246 
1284	 0.218686071850824 
1285	 0.218785717420943 
1286	 0.21890053882355 
1287	 0.219013073940879 
1288	 0.219112898591219 
1289	 0.219205998332053 
1290	 0.219296473582969 
1291	 0.219371364046896 
1292	 0.219461207352769 
1293	 0.219559032917848 
1294	 0.219646142975312 
1295	 0.219744023950776 
1296	 0.219819213884254 
1297	 0.219877378806689 
1298	 0.219933097838258 
1299	 0.219975158702435 
1300	 0.22001750702079 
1301	 0.220061528355999 
1302	 0.220092166663717 
1303	 0.220104865368411 
1304	 0.220129410881566 
1305	 0.220154196724514 
1306	 0.220160529807991 
1307	 0.220169962491102 
1308	 0.220171929864701 
1309	 0.22016657787567 
1310	 0.220149328526594 
1311	 0.220126517745311 
1312	 0.220095394640815 
1313	 0.220070479459668 
1314	 0.220040481423249 
1315	 0.220009975440331 
1316	 0.219983125874348 
1317	 0.219952523808508 
1318	 0.219918289478829 
1319	 0.219881202896862 
1320	 0.219841237212197 
1321	 0.219805001650646 
1322	 0.219773082416374 
1323	 0.219724893696796 
1324	 0.2196826380006 
1325	 0.219641605420231 
1326	 0.219597181299024 
1327	 0.219555842284892 
1328	 0.219521121016095 
1329	 0.219491714050075 
1330	 0.219443251032599 
1331	 0.21938699126245 
1332	 0.219323203026766 
1333	 0.21923648156802 
1334	 0.219171454156404 
1335	 0.219104286087902 
1336	 0.219056679793392 
1337	 0.219032117674181 
1338	 0.218995899656549 
1339	 0.2189734697073 
1340	 0.21892849120124 
1341	 0.218859446132995 
1342	 0.21880846559308 
1343	 0.218750333930791 
1344	 0.218712334986918 
1345	 0.21867411169406 
1346	 0.218618400876283 
1347	 0.218571361787545 
1348	 0.218524527640572 
1349	 0.21846778977 
1350	 0.218414482398312 
1351	 0.218359295751943 
1352	 0.218298472502739 
1353	 0.218230305834705 
1354	 0.218158693010137 
1355	 0.218092712740804 
1356	 0.218011062648767 
1357	 0.217945357037288 
1358	 0.217895968398133 
1359	 0.217846472003886 
1360	 0.2177961825135 
1361	 0.217756237748094 
1362	 0.217732678208874 
1363	 0.217697052837637 
1364	 0.217662678179036 
1365	 0.217621926642663 
1366	 0.217568577963314 
1367	 0.217521909586379 
1368	 0.21747807679688 
1369	 0.217446233541486 
1370	 0.217424251055893 
1371	 0.217386368654068 
1372	 0.217308327076866 
1373	 0.217215791243447 
1374	 0.217109981620835 
1375	 0.216971376826237 
1376	 0.216831238714536 
1377	 0.216695455877754 
1378	 0.216526156973335 
1379	 0.216324781116325 
1380	 0.216128432003901 
1381	 0.215922474944498 
1382	 0.215701290108447 
1383	 0.215477272159219 
1384	 0.215230702903222 
1385	 0.214969074276617 
1386	 0.214688820781085 
1387	 0.214397332640565 
1388	 0.21408474054125 
1389	 0.213760543598346 
1390	 0.213397924150332 
1391	 0.213013137605054 
1392	 0.212603445212222 
1393	 0.212169070687769 
1394	 0.211717398698339 
1395	 0.211234926683105 
1396	 0.210744787556439 
1397	 0.210255216052518 
1398	 0.209738535070928 
1399	 0.209249383668889 
1400	 0.208779124452887 
1401	 0.208292955957959 
1402	 0.207788849439527 
1403	 0.207328239207448 
1404	 0.206873850160036 
1405	 0.206443742541097 
1406	 0.206058441402505 
1407	 0.20565849531445 
1408	 0.205243887768912 
1409	 0.204868206407342 
1410	 0.204494127035058 
1411	 0.204166987648771 
1412	 0.203871513718134 
1413	 0.203614009989697 
1414	 0.203398795889037 
1415	 0.203198067738843 
1416	 0.203039394997814 
1417	 0.202908096257113 
1418	 0.202781284180556 
1419	 0.202685393306144 
1420	 0.202592590554478 
1421	 0.202497079810761 
1422	 0.202409246069277 
1423	 0.202318736730589 
1424	 0.202219993415886 
1425	 0.20210349304272 
1426	 0.202017596233824 
1427	 0.201931302929918 
1428	 0.201870649254545 
1429	 0.201844588167163 
1430	 0.201802894419711 
1431	 0.201765777256171 
1432	 0.201730368812146 
1433	 0.20169077505352 
1434	 0.201662665989964 
1435	 0.201639427115075 
1436	 0.201624907124238 
1437	 0.201618036988529 
1438	 0.201619745026591 
1439	 0.201634924541656 
1440	 0.201647367243005 
1441	 0.201667634367673 
1442	 0.201676741556955 
1443	 0.201692630693767 
1444	 0.201720991880082 
1445	 0.201741315114824 
1446	 0.201778628321535 
1447	 0.201823488474174 
1448	 0.201854662530779 
1449	 0.201882709450857 
1450	 0.20191575500339 
1451	 0.201954987391635 
1452	 0.201989579829188 
1453	 0.202031312723967 
1454	 0.202087241519115 
1455	 0.202138409574175 
1456	 0.20218426359936 
1457	 0.202239888558819 
1458	 0.20230197860056 
1459	 0.202365798836443 
1460	 0.202425465190379 
1461	 0.202504186404595 
1462	 0.20259131986243 
1463	 0.202689818409325 
1464	 0.202816617361168 
1465	 0.202921961320575 
1466	 0.203019035982229 
1467	 0.203128847163427 
1468	 0.203216678181924 
1469	 0.203340978856524 
1470	 0.203495996501376 
1471	 0.203656380018437 
1472	 0.203820712413239 
1473	 0.203998497968805 
1474	 0.204145443616671 
1475	 0.204291393676146 
1476	 0.20444679179693 
1477	 0.204596929701203 
1478	 0.204767575944004 
1479	 0.204937513935924 
1480	 0.205095170981497 
1481	 0.205253469442944 
1482	 0.205417125108508 
1483	 0.205577459756003 
1484	 0.205746686701353 
1485	 0.205924954999451 
1486	 0.206104851262103 
1487	 0.20628640128644 
1488	 0.206469187858636 
1489	 0.206669206074791 
1490	 0.20684190687374 
1491	 0.20700543629768 
1492	 0.207164989979959 
1493	 0.207294029416811 
1494	 0.207447053799606 
1495	 0.207619474422446 
1496	 0.207773330246318 
1497	 0.20792756412064 
1498	 0.208081669131207 
1499	 0.208226433921204 
1500	 0.208366923060515 
1501	 0.208506466045551 
1502	 0.208645765667426 
1503	 0.208781220049229 
1504	 0.208905284307899 
1505	 0.209048430904074 
1506	 0.209206278910773 
1507	 0.209347550749122 
1508	 0.209482427898143 
1509	 0.209610170022627 
1510	 0.209738299528716 
1511	 0.209867142280184 
1512	 0.210000175478112 
1513	 0.210131293942708 
1514	 0.210244710412097 
1515	 0.210353444643947 
1516	 0.210469980487049 
1517	 0.210602729244447 
1518	 0.210753507897774 
1519	 0.210879413132311 
1520	 0.211011348557211 
1521	 0.211129460619722 
1522	 0.211217427744439 
1523	 0.211328750498085 
1524	 0.211454851417962 
1525	 0.211573685285034 
1526	 0.211691764050416 
1527	 0.211806599285518 
1528	 0.211922925463755 
1529	 0.212029921578259 
1530	 0.212128774694021 
1531	 0.212233622389301 
1532	 0.212335564730947 
1533	 0.2124347160643 
1534	 0.212549864922534 
1535	 0.212638734913453 
1536	 0.212698032690216 
1537	 0.212775144624387 
1538	 0.212848039835798 
1539	 0.212920405244646 
1540	 0.213004895466788 
1541	 0.213084321701507 
1542	 0.213150024372617 
1543	 0.213223526828099 
1544	 0.213306585108954 
1545	 0.21338253365092 
1546	 0.213460459420945 
1547	 0.213533611903189 
1548	 0.213592752903509 
1549	 0.213654242428559 
1550	 0.213711456555322 
1551	 0.21378185401962 
1552	 0.213878526495258 
1553	 0.213987571956952 
1554	 0.214086821577689 
1555	 0.214168332287355 
1556	 0.214215789223284 
1557	 0.214247926903929 
1558	 0.214303062361661 
1559	 0.214342984028329 
1560	 0.214389631955254 
1561	 0.214444391354852 
1562	 0.21449643131122 
1563	 0.21454086877732 
1564	 0.214601911014435 
1565	 0.214677862971019 
1566	 0.214734238757446 
1567	 0.214789761624419 
1568	 0.214839793257942 
1569	 0.214867473467213 
1570	 0.214925420808541 
1571	 0.215006749706417 
1572	 0.215065001578837 
1573	 0.215130057074189 
1574	 0.215180918019738 
1575	 0.215212973731759 
1576	 0.215244009920087 
1577	 0.215270966107213 
1578	 0.215298537053356 
1579	 0.215298182809647 
1580	 0.215338691715101 
1581	 0.215415058916525 
1582	 0.215466858412468 
1583	 0.215534264923446 
1584	 0.215587307304697 
1585	 0.215616809742274 
1586	 0.215650300750236 
1587	 0.215690648438227 
1588	 0.215718323615132 
1589	 0.215729686624195 
1590	 0.215749192817788 
1591	 0.21576180965802 
1592	 0.215785746510983 
1593	 0.215817908716058 
1594	 0.215849585320909 
1595	 0.21588584330165 
1596	 0.215925570686817 
1597	 0.215971386130656 
1598	 0.216012200228023 
1599	 0.216057396570058 
1600	 0.21609659985438 
1601	 0.216128520736171 
1602	 0.216160488311588 
1603	 0.216187835946855 
1604	 0.216217031842123 
1605	 0.216238353534821 
1606	 0.216271074971605 
1607	 0.216306896794433 
1608	 0.216357694573002 
1609	 0.21641279847472 
1610	 0.21646886618087 
1611	 0.216483978258377 
1612	 0.216496154569453 
1613	 0.21650028750389 
1614	 0.216489814070639 
1615	 0.216514523655934 
1616	 0.216533866207377 
1617	 0.216538788475063 
1618	 0.216562291438393 
1619	 0.2165772676922 
1620	 0.216589156368441 
1621	 0.216607862408987 
1622	 0.21663280258073 
1623	 0.216654460280591 
1624	 0.216675521330822 
1625	 0.21669935823056 
1626	 0.216729873247263 
1627	 0.216744576308879 
1628	 0.216750475900606 
1629	 0.216768311108361 
1630	 0.216778980236501 
1631	 0.21680050324966 
1632	 0.21683639083682 
1633	 0.216867551891566 
1634	 0.216899575732362 
1635	 0.216926149327666 
1636	 0.216964019014062 
1637	 0.216969912206347 
1638	 0.216953479093257 
1639	 0.216946738005511 
1640	 0.216916358270984 
1641	 0.216918488143531 
1642	 0.21693041481094 
1643	 0.216963064961341 
1644	 0.217025428954561 
1645	 0.217065802551727 
1646	 0.217125938206149 
1647	 0.217149267864346 
1648	 0.217132185574154 
1649	 0.217154979737885 
1650	 0.217188736155596 
1651	 0.217201847178473 
1652	 0.217226486628526 
1653	 0.21723817778557 
1654	 0.217216396069752 
1655	 0.217222292890242 
1656	 0.217255817354263 
1657	 0.217257961604194 
1658	 0.217250511109325 
1659	 0.217238799114043 
1660	 0.217205727923728 
1661	 0.217189316285574 
1662	 0.217175534510725 
1663	 0.217167435639924 
1664	 0.217163856521142 
1665	 0.217166080808564 
1666	 0.217174145919645 
1667	 0.217185914444619 
1668	 0.217210465948417 
1669	 0.217221412907606 
1670	 0.217228746176354 
1671	 0.217237028321607 
1672	 0.217248567545449 
1673	 0.217238668169258 
1674	 0.217210176234966 
1675	 0.217203181290943 
1676	 0.217184449135448 
1677	 0.217180855946813 
1678	 0.217210668012497 
1679	 0.217214515134231 
1680	 0.217202099171147 
1681	 0.2172000530318 
1682	 0.217184198665485 
1683	 0.217199089079639 
1684	 0.217244722945751 
1685	 0.217261730402902 
1686	 0.217291953640021 
1687	 0.217299338939334 
1688	 0.217263152476351 
1689	 0.217264139481774 
1690	 0.217281476231256 
1691	 0.217289788243135 
1692	 0.217315838492889 
1693	 0.217319373548871 
1694	 0.217293905202094 
1695	 0.217297559539221 
1696	 0.217306516883566 
1697	 0.217317300387584 
1698	 0.217355463417622 
1699	 0.217367329149028 
1700	 0.217362338928277 
1701	 0.217362739058009 
1702	 0.217353174071586 
1703	 0.217348109196033 
1704	 0.217356752506691 
1705	 0.217338398850697 
1706	 0.217307277593566 
1707	 0.217274981495995 
1708	 0.217213095789358 
1709	 0.217186279495564 
1710	 0.217176017522636 
1711	 0.217164600060516 
1712	 0.217175188753557 
1713	 0.217161052458954 
1714	 0.217129352149826 
1715	 0.217117669905279 
1716	 0.217104332614471 
1717	 0.217099497047418 
1718	 0.217118725516322 
1719	 0.217109723218474 
1720	 0.217093225244032 
1721	 0.217066641904323 
1722	 0.217015195447761 
1723	 0.216987568967363 
1724	 0.216968543447814 
1725	 0.216938216469667 
1726	 0.216919040209699 
1727	 0.216876706314325 
1728	 0.216808122556952 
1729	 0.216759739578029 
1730	 0.216712204263724 
1731	 0.216667750948663 
1732	 0.216636580135163 
1733	 0.216588234842374 
1734	 0.216523665174353 
1735	 0.216483911190955 
1736	 0.216441801414267 
1737	 0.216419372193493 
1738	 0.216434798960946 
1739	 0.216396958709428 
1740	 0.2163396985789 
1741	 0.216292583231059 
1742	 0.216223789179957 
1743	 0.216173664676895 
1744	 0.216150112084232 
1745	 0.216097998132966 
1746	 0.216033025313687 
1747	 0.215934387596247 
1748	 0.215849096168892 
1749	 0.215776488091429 
1750	 0.215703626665418 
1751	 0.215653193584366 
1752	 0.215592632282674 
1753	 0.215534742626646 
1754	 0.215479543578764 
1755	 0.215410997988195 
1756	 0.215337428233064 
1757	 0.21524011957319 
1758	 0.215161204584423 
1759	 0.215131517086954 
1760	 0.215100113171314 
1761	 0.215046317069628 
1762	 0.214999100744055 
1763	 0.214936320579831 
1764	 0.214854209255196 
1765	 0.214794700479721 
1766	 0.214725887004696 
1767	 0.214651692186018 
1768	 0.214605787065623 
1769	 0.214581597731588 
1770	 0.21458600591096 
1771	 0.214583488032877 
1772	 0.214562377041077 
1773	 0.214540139062698 
1774	 0.214501224660609 
1775	 0.214452386609736 
1776	 0.214396167599481 
1777	 0.214341473419431 
1778	 0.214286833124825 
1779	 0.214206796161848 
1780	 0.214158627432284 
1781	 0.214147066266996 
1782	 0.21413025542393 
1783	 0.214158130943644 
1784	 0.214154148668594 
1785	 0.214126326135673 
1786	 0.214103816266947 
1787	 0.21407305561888 
1788	 0.21405039994895 
1789	 0.214032807831691 
1790	 0.214011517957424 
1791	 0.213979647639027 
1792	 0.21396237374086 
1793	 0.213952859742141 
1794	 0.213956211399359 
1795	 0.213969890431943 
1796	 0.213995121670066 
1797	 0.214048495691014 
1798	 0.214054729010518 
1799	 0.214056096485057 
1800	 0.214047982777507 
1801	 0.214302492267954 
1802	 0.214402696048833 
1803	 0.214545052002575 
1804	 0.214677776670679 
1805	 0.214823184133797 
1806	 0.214959183243942 
1807	 0.215063179676859 
1808	 0.215143689628091 
1809	 0.21520190733279 
1810	 0.215243563951082 
1811	 0.215243890482431 
1812	 0.215265472498188 
1813	 0.215315219482578 
1814	 0.215319563655384 
1815	 0.21532357212055 
1816	 0.215317270872832 
1817	 0.215301176206544 
1818	 0.215252320602256 
1819	 0.215226949829171 
1820	 0.215203482657297 
1821	 0.21518799065218 
1822	 0.215196322179316 
1823	 0.215176226412953 
1824	 0.215193431671468 
1825	 0.215231750604817 
1826	 0.215233178851202 
1827	 0.215252081091318 
1828	 0.215248619400257 
1829	 0.215229588584156 
1830	 0.215196793602002 
1831	 0.215148501752032 
1832	 0.215094439332172 
1833	 0.215040044962895 
1834	 0.214994044791725 
1835	 0.214953722655977 
1836	 0.21491819991475 
1837	 0.214902306831566 
1838	 0.21488684098881 
1839	 0.214875539975259 
1840	 0.214880580235699 
1841	 0.21488390211221 
1842	 0.214858959192992 
1843	 0.214818121043615 
1844	 0.214765853717704 
1845	 0.214697923176288 
1846	 0.214624175865329 
1847	 0.214566243458964 
1848	 0.214508126360994 
1849	 0.214445655695228 
1850	 0.214376927936701 
1851	 0.214316743677099 
1852	 0.214227562526572 
1853	 0.214114876044153 
1854	 0.213994461392034 
1855	 0.213842438676354 
1856	 0.213689806751586 
1857	 0.21353940447716 
1858	 0.213342212945629 
1859	 0.213136896444193 
1860	 0.212911163696155 
1861	 0.212668442925669 
1862	 0.212371061897766 
1863	 0.212064877910712 
1864	 0.211747970359633 
1865	 0.211389792456162 
1866	 0.21099084504972 
1867	 0.210553838899967 
1868	 0.210075392602768 
1869	 0.209557915702802 
1870	 0.208998311159879 
1871	 0.208416249984984 
1872	 0.207814130098758 
1873	 0.207190616543563 
1874	 0.20651806962085 
1875	 0.205830772606922 
1876	 0.205103187481296 
1877	 0.204296000397608 
1878	 0.203427191536132 
1879	 0.2024908702842 
1880	 0.201470221091533 
1881	 0.200350230686521 
1882	 0.199197567184906 
1883	 0.197993706410923 
1884	 0.19668684918905 
1885	 0.195324656644111 
1886	 0.19393789801697 
1887	 0.192434004927389 
1888	 0.190869428139634 
1889	 0.18927288138742 
1890	 0.18761069727674 
1891	 0.1859841946361 
1892	 0.184338495178855 
1893	 0.182702746882476 
1894	 0.181059832853148 
1895	 0.179464756990092 
1896	 0.177849129972917 
1897	 0.176291324267874 
1898	 0.17478984305308 
1899	 0.173329630127521 
1900	 0.171925556321792 
1901	 0.170567324944275 
1902	 0.169301484521319 
1903	 0.16812311985135 
1904	 0.167001745998436 
1905	 0.165951188294326 
1906	 0.164984629110029 
1907	 0.164061004742018 
1908	 0.163191471203486 
1909	 0.162429438796982 
1910	 0.161724539592879 
1911	 0.161056167439503 
1912	 0.160460564826223 
1913	 0.159877593912547 
1914	 0.15929421752585 
1915	 0.158779722410538 
1916	 0.158319182546071 
1917	 0.15788920847204 
1918	 0.157508505999325 
1919	 0.157179880086514 
1920	 0.156874981860007 
1921	 0.156605240668249 
1922	 0.156374267468806 
1923	 0.156187348335456 
1924	 0.156033101571788 
1925	 0.155929079975139 
1926	 0.155841321829892 
1927	 0.155780912951612 
1928	 0.155746220242184 
1929	 0.155757002274785 
1930	 0.155776740492121 
1931	 0.155810910954297 
1932	 0.155875743816586 
1933	 0.155954029975751 
1934	 0.156050448901061 
1935	 0.156170359400633 
1936	 0.156327770503249 
1937	 0.156485530665599 
1938	 0.156646591430332 
1939	 0.156836322044753 
1940	 0.157046423892512 
1941	 0.157280243712223 
1942	 0.157513798484691 
1943	 0.157760097173641 
1944	 0.158019041691473 
1945	 0.15826972382939 
1946	 0.158538646374099 
1947	 0.158818705786933 
1948	 0.159118990516855 
1949	 0.159428889983077 
1950	 0.159754231124052 
1951	 0.160098637439606 
1952	 0.160462979683826 
1953	 0.16082754773999 
1954	 0.16121407517787 
1955	 0.161594401247135 
1956	 0.161948319893545 
1957	 0.162317170462041 
1958	 0.162673651494294 
1959	 0.163051608833324 
1960	 0.163443741504603 
1961	 0.16384192677558 
1962	 0.164254401960035 
1963	 0.164662353249424 
1964	 0.165069843989805 
1965	 0.165484216929919 
1966	 0.165922181460089 
1967	 0.166361920016368 
1968	 0.166789499815303 
1969	 0.167223055931096 
1970	 0.167656297776424 
1971	 0.168075816211774 
1972	 0.168503066479122 
1973	 0.168939029720376 
1974	 0.169378668165158 
1975	 0.169821445629113 
1976	 0.170247472343462 
1977	 0.17071288679839 
1978	 0.171192310716853 
1979	 0.171651212272679 
1980	 0.172111868900448 
1981	 0.172544565849322 
1982	 0.172931170594988 
1983	 0.173354545319736 
1984	 0.173780158318379 
1985	 0.174209131749331 
1986	 0.174657631891533 
1987	 0.175096042554111 
1988	 0.175529185361425 
1989	 0.175966427641218 
1990	 0.176373655841935 
1991	 0.176793739520556 
1992	 0.177213549770776 
1993	 0.177620297380552 
1994	 0.178032309851205 
1995	 0.178459006166947 
1996	 0.178872823054142 
1997	 0.179273776409732 
1998	 0.179684083049539 
1999	 0.180097920854726 
2000	 0.180511568903101 
2001	 0.180932752132018 
2002	 0.181341251259307 
2003	 0.181753632000349 
2004	 0.18215523999489 
2005	 0.182551082416476 
2006	 0.182940465651341 
2007	 0.183324290124096 
2008	 0.183696572550429 
2009	 0.18407477842835 
2010	 0.184452460550992 
2011	 0.184824571176718 
2012	 0.185203607981651 
2013	 0.185565921297394 
2014	 0.185912791981889 
2015	 0.186260381197072 
2016	 0.186596472066857 
2017	 0.186936135047303 
2018	 0.187289432463456 
2019	 0.187653103343351 
2020	 0.188015022026979 
2021	 0.188400397117248 
2022	 0.188754606210932 
2023	 0.189095752312545 
2024	 0.189434045521837 
2025	 0.189740979978343 
2026	 0.19007037295587 
2027	 0.190404288929602 
2028	 0.190757399914601 
2029	 0.191090407228034 
2030	 0.191422016565815 
2031	 0.191758824630979 
2032	 0.192089770848232 
2033	 0.192419868990004 
2034	 0.192783990261008 
2035	 0.193093554843557 
2036	 0.193359650291686 
2037	 0.193639664497209 
2038	 0.193900021132999 
2039	 0.194156195032933 
2040	 0.194404248715687 
2041	 0.19467340615409 
2042	 0.194916158311395 
2043	 0.195146618501181 
2044	 0.195405934182879 
2045	 0.195682938934985 
2046	 0.195954740896003 
2047	 0.196243518759616 
2048	 0.196520065511398 
2049	 0.196808542721316 
2050	 0.197058992456608 
2051	 0.197286590467047 
2052	 0.197514922891236 
2053	 0.197714344450374 
2054	 0.197921113758531 
2055	 0.198131661492791 
2056	 0.198336594738286 
2057	 0.198550897659338 
2058	 0.198763607275085 
2059	 0.198975133171933 
2060	 0.199187668498458 
2061	 0.199414060292807 
2062	 0.199645937433906 
2063	 0.199870949115687 
2064	 0.200123539760095 
2065	 0.200344297599502 
2066	 0.20053441291554 
2067	 0.200734219114693 
2068	 0.200936102115692 
2069	 0.201115341731948 
2070	 0.201305938185922 
2071	 0.201495749395648 
2072	 0.201690895782536 
2073	 0.20188711207897 
2074	 0.202082222279781 
2075	 0.202279021189545 
2076	 0.202481585757978 
2077	 0.202692118592572 
2078	 0.20288947782926 
2079	 0.203086953513838 
2080	 0.203281385994379 
2081	 0.203452193313001 
2082	 0.20364396014619 
2083	 0.203855332323529 
2084	 0.204061882161324 
2085	 0.204256109406503 
2086	 0.204453076613175 
2087	 0.204637500442165 
2088	 0.204799539611928 
2089	 0.20498034539075 
2090	 0.205169601103557 
2091	 0.205348794855299 
2092	 0.205531479405413 
2093	 0.205705511982856 
2094	 0.205858403619875 
2095	 0.206032193772112 
2096	 0.206213700185434 
2097	 0.20639471439072 
2098	 0.206576428768339 
2099	 0.206783835725585 
2100	 0.20696649176292 
2101	 0.20713330735899 
2102	 0.207325863437772 
2103	 0.207524685807413 
2104	 0.207717806670621 
2105	 0.207926615703279 
2106	 0.208124415093352 
2107	 0.20831512426977 
2108	 0.2085006332172 
2109	 0.208674530327657 
2110	 0.208865273423703 
2111	 0.209063650412432 
2112	 0.209249105440927 
2113	 0.209447200853272 
2114	 0.209634802772275 
2115	 0.209810241574653 
2116	 0.209959158098699 
2117	 0.210130943387421 
2118	 0.210310459039606 
2119	 0.210480200901336 
2120	 0.210649004958145 
2121	 0.210818673291041 
2122	 0.210984402445655 
2123	 0.211150336156597 
2124	 0.211336079084714 
2125	 0.211487098927814 
2126	 0.211622799310437 
2127	 0.211746235201851 
2128	 0.211834133921473 
2129	 0.21193345866734 
2130	 0.212038306764342 
2131	 0.212128717237772 
2132	 0.212212622862005 
2133	 0.212292704928556 
2134	 0.212367484550883 
2135	 0.212426252282843 
2136	 0.212493834590511 
2137	 0.212583931705212 
2138	 0.212627864311736 
2139	 0.212654893024641 
2140	 0.212667651000775 
2141	 0.212638196730934 
2142	 0.212621591043659 
2143	 0.212608032750865 
2144	 0.212580805702788 
2145	 0.212527710520908 
2146	 0.212498335928367 
2147	 0.212472575987088 
2148	 0.212456730815025 
2149	 0.212426311777604 
2150	 0.212417292390853 
2151	 0.212366742995454 
2152	 0.212272630853454 
2153	 0.212213381324161 
2154	 0.212165249948462 
2155	 0.212093252535198 
2156	 0.212039293887811 
2157	 0.211945492141672 
2158	 0.211810037312 
2159	 0.211679690506459 
2160	 0.211528201909002 
2161	 0.211383196817499 
2162	 0.211230888258376 
2163	 0.211083958621276 
2164	 0.210952771966536 
2165	 0.210804808899625 
2166	 0.210641528782427 
2167	 0.210465962101478 
2168	 0.210296990644062 
2169	 0.210104846095683 
2170	 0.209942456494019 
2171	 0.209799230012512 
2172	 0.20965374483466 
2173	 0.209526834698407 
2174	 0.209375234688991 
2175	 0.209220514165483 
2176	 0.209055577592327 
2177	 0.208862843906319 
2178	 0.208685266343114 
2179	 0.2085052953986 
2180	 0.208335191597011 
2181	 0.208193677089419 
2182	 0.208025675801781 
2183	 0.207852429559271 
2184	 0.207662455397193 
2185	 0.20747855190232 
2186	 0.207269670584707 
2187	 0.207084236017282 
2188	 0.206907262833101 
2189	 0.206747969847874 
2190	 0.206599609140083 
2191	 0.206452096626213 
2192	 0.206330709428915 
2193	 0.206188473049054 
2194	 0.206034569467028 
2195	 0.205884598362513 
2196	 0.205721265444966 
2197	 0.205578043749252 
2198	 0.205432382852943 
2199	 0.205309596866656 
2200	 0.205209671331553 
2201	 0.205117826992561 
2202	 0.205035743719443 
2203	 0.204973653450039 
2204	 0.204921426582837 
2205	 0.204884342246254 
2206	 0.204847351090043 
2207	 0.204819635409454 
2208	 0.204805842807892 
2209	 0.204798515069188 
2210	 0.20480128243204 
2211	 0.204824608696637 
2212	 0.204842968754496 
2213	 0.204852945391731 
2214	 0.204890151484 
2215	 0.20495685811033 
2216	 0.205003997506606 
2217	 0.205064088004542 
2218	 0.205112053499281 
2219	 0.205126841822478 
2220	 0.205168693942314 
2221	 0.205230366719273 
2222	 0.205283718768653 
2223	 0.205346838119329 
2224	 0.205408706355492 
2225	 0.205462744144439 
2226	 0.205522490604932 
2227	 0.205537917842965 
2228	 0.205529528059624 
2229	 0.205529198870649 
2230	 0.205495270948536 
2231	 0.205479178181062 
2232	 0.205477490088978 
2233	 0.205467886515663 
2234	 0.205437002986938 
2235	 0.205435683476344 
2236	 0.205471474196135 
2237	 0.205472559487487 
2238	 0.205462925036834 
2239	 0.205459714589066 
2240	 0.205427208886535 
2241	 0.20542079881144 
2242	 0.205458693135952 
2243	 0.205463088288462 
2244	 0.205450762233629 
2245	 0.205449366980255 
2246	 0.205435278223807 
2247	 0.205390926292196 
2248	 0.205364727861291 
2249	 0.205347518261764 
2250	 0.20531914795052 
2251	 0.205280782561917 
2252	 0.205252789265154 
2253	 0.205213530964965 
2254	 0.205203401608374 
2255	 0.20522846225576 
2256	 0.205218267161858 
2257	 0.205185265209349 
2258	 0.205197441478536 
2259	 0.205224463551644 
2260	 0.205230377195204 
2261	 0.205286695080093 
2262	 0.205292854878302 
2263	 0.205234065756785 
2264	 0.205196612206132 
2265	 0.20515409971609 
2266	 0.205118014257591 
2267	 0.205068253552457 
2268	 0.205045043024233 
2269	 0.205046240755795 
2270	 0.205043183671255 
2271	 0.205045883553839 
2272	 0.205056890745803 
2273	 0.205059178076212 
2274	 0.205020315608107 
2275	 0.204987519039181 
2276	 0.2049297594147 
2277	 0.204917950506573 
2278	 0.204935475299325 
2279	 0.204913279372638 
2280	 0.204901698180899 
2281	 0.204863695217487 
2282	 0.204766937073914 
2283	 0.20472294425969 
2284	 0.204724423095515 
2285	 0.20468236155947 
2286	 0.204612022283343 
2287	 0.204573935582047 
2288	 0.204511570524335 
2289	 0.204492320207607 
2290	 0.20455807918282 
2291	 0.204558722209051 
2292	 0.204532020017736 
2293	 0.204514865662767 
2294	 0.20448086428458 
2295	 0.204432362625322 
2296	 0.204378453027433 
2297	 0.204338337133068 
2298	 0.204253082059807 
2299	 0.204189736012021 
2300	 0.204101278336883 
2301	 0.204050249840857 
2302	 0.204031295504026 
2303	 0.203958534468869 
2304	 0.203925518908245 
2305	 0.203857339502044 
2306	 0.203787659801063 
2307	 0.203703419404508 
2308	 0.203605377113015 
2309	 0.203478247162982 
2310	 0.20339633160217 
2311	 0.203329107258105 
2312	 0.203235595505872 
2313	 0.203163786670896 
2314	 0.203079969404597 
2315	 0.202944664008226 
2316	 0.202848992508292 
2317	 0.202777733344712 
2318	 0.20271370674455 
2319	 0.202671695566243 
2320	 0.202603505208759 
2321	 0.202547903755907 
2322	 0.202481049999195 
2323	 0.202378867290064 
2324	 0.202302815965771 
2325	 0.20224548509937 
2326	 0.202174046297434 
2327	 0.202109064014148 
2328	 0.202015861991406 
2329	 0.201946802801464 
2330	 0.201908281974294 
2331	 0.201869326383739 
2332	 0.201835506128987 
2333	 0.201784147953198 
2334	 0.201724303337541 
2335	 0.20165867529841 
2336	 0.201588785614319 
2337	 0.20151627460625 
2338	 0.201388071867616 
2339	 0.201255260408106 
2340	 0.201178038964555 
2341	 0.201133319685655 
2342	 0.201082543820603 
2343	 0.200980956176835 
2344	 0.200821462636189 
2345	 0.200700671350898 
2346	 0.200541925978063 
2347	 0.200410487243084 
2348	 0.200352443850345 
2349	 0.200223661248768 
2350	 0.200027129318792 
2351	 0.199865342124329 
2352	 0.199684722626333 
2353	 0.199517331681532 
2354	 0.19939522824011 
2355	 0.199224232587098 
2356	 0.199020026550384 
2357	 0.198860352838886 
2358	 0.198675024939406 
2359	 0.198504007814733 
2360	 0.198375731394669 
2361	 0.198256822886408 
2362	 0.198175260595704 
2363	 0.198040879827819 
2364	 0.197883475655372 
2365	 0.197708714538063 
2366	 0.197446703106106 
2367	 0.197268501414655 
2368	 0.197177625606233 
2369	 0.197045146409469 
2370	 0.196925332960185 
2371	 0.196780465484221 
2372	 0.196640201252388 
2373	 0.196474670341723 
2374	 0.196302701557272 
2375	 0.196130300334224 
2376	 0.195882653150076 
2377	 0.195632912518992 
2378	 0.195435550082761 
2379	 0.195228123172255 
2380	 0.195011349618533 
2381	 0.194798001291257 
2382	 0.194624943076495 
2383	 0.194411934609665 
2384	 0.194179323963823 
2385	 0.194018046452474 
2386	 0.193797279339166 
2387	 0.193564894276552 
2388	 0.193375653702991 
2389	 0.193200719668969 
2390	 0.192983195715982 
2391	 0.192740129693531 
2392	 0.192511761079358 
2393	 0.192208334043837 
2394	 0.192019441674274 
2395	 0.191874723513061 
2396	 0.191693346446789 
2397	 0.191518257661783 
2398	 0.19122463358861 
2399	 0.190956889725695 
2400	 0.190770352763037 
2401	 0.190539199542061 
2402	 0.190256393852865 
2403	 0.189983442353222 
2404	 0.189651326430419 
2405	 0.189387410429695 
2406	 0.189239267542943 
2407	 0.188998485038459 
2408	 0.188753103616901 
2409	 0.188488675268214 
2410	 0.188222937910977 
2411	 0.188062779931548 
2412	 0.187847296547118 
2413	 0.187583538070641 
2414	 0.187223244869406 
2415	 0.186769460122725 
2416	 0.186482070785026 
2417	 0.186305903091424 
2418	 0.186046222018088 
2419	 0.185899933639805 
2420	 0.185638755667352 
2421	 0.185251528296348 
2422	 0.184898226775408 
2423	 0.184521891618892 
2424	 0.18417861116809 
2425	 0.183761435718984 
2426	 0.183480872915562 
2427	 0.183391934946815 
2428	 0.183124362885527 
2429	 0.182867138096708 
2430	 0.182507719088538 
2431	 0.18189482473972 
2432	 0.181525145720858 
2433	 0.181275175846211 
2434	 0.1809706157251 
2435	 0.180775736719027 
2436	 0.180509181539124 
2437	 0.180160328374162 
2438	 0.179834117607272 
2439	 0.179469426479742 
2440	 0.179162480268829 
2441	 0.178893363800199 
2442	 0.178620710135434 
2443	 0.178476130988575 
2444	 0.178202483146116 
2445	 0.177761694294026 
2446	 0.177430001223357 
2447	 0.177103241539261 
2448	 0.176759031220358 
2449	 0.17649090485456 
2450	 0.176259490874265 
2451	 0.175975658925866 
2452	 0.175738335281426 
2453	 0.175609298257728 
2454	 0.17532695651611 
2455	 0.174980139825987 
2456	 0.174671161352799 
2457	 0.174298126115838 
2458	 0.173970444661288 
2459	 0.173704451607387 
2460	 0.173388826606434 
2461	 0.173026883011599 
2462	 0.172734191444076 
2463	 0.17248105821259 
2464	 0.172126175984804 
2465	 0.171793614642334 
2466	 0.171472054878018 
2467	 0.171027155885554 
2468	 0.170735343112801 
2469	 0.170584932672875 
2470	 0.170243204318425 
2471	 0.169807384666623 
2472	 0.169381956242459 
2473	 0.169040399461793 
2474	 0.168796699826362 
2475	 0.168701793001152 
2476	 0.168479076771825 
2477	 0.168185833846162 
2478	 0.167914718971006 
2479	 0.167560204039109 
2480	 0.167135040124302 
2481	 0.166681972917921 
2482	 0.166391855020861 
2483	 0.166072131307232 
2484	 0.165760183547715 
2485	 0.16558398509082 
2486	 0.165246007393268 
2487	 0.164912606884009 
2488	 0.16461196340809 
2489	 0.16427625699704 
2490	 0.164005186632161 
2491	 0.163716866604167 
2492	 0.163465930374834 
2493	 0.163297880655867 
2494	 0.163160159774521 
2495	 0.16314148936376 
2496	 0.163257369972828 
2497	 0.163258909420123 
2498	 0.163033711302412 
2499	 0.162697684184222 
2500	 0.1623780330403 
