Wavelength	mm1300001.asd
350	 6.43136096891195E-02 
351	 6.41045271101643E-02 
352	 0.058788099596912 
353	 4.90532869692877E-02 
354	 5.40722691327808E-02 
355	 6.09545384873891E-02 
356	 0.060654347899462 
357	 5.29350233637799E-02 
358	 0.064924780132875 
359	 6.67057498673949E-02 
360	 0.059067580818576 
361	 6.15136561830019E-02 
362	 5.84076450380016E-02 
363	 0.058749474355132 
364	 6.39124105811027E-02 
365	 5.89683223603626E-02 
366	 5.60213701530792E-02 
367	 5.75554681039165E-02 
368	 6.17660222600431E-02 
369	 6.22327434999856E-02 
370	 6.24606599488062E-02 
371	 6.27288754126063E-02 
372	 6.14285119582442E-02 
373	 6.44062819387826E-02 
374	 6.60248460496263E-02 
375	 0.063821726698704 
376	 6.30621181357307E-02 
377	 6.41141124440654E-02 
378	 6.50154813722523E-02 
379	 6.43147171065285E-02 
380	 6.67840069308903E-02 
381	 6.68368396733113E-02 
382	 6.52939399365007E-02 
383	 6.75442311915908E-02 
384	 7.03589919357472E-02 
385	 7.07744207850372E-02 
386	 6.88747708938853E-02 
387	 7.05031366636452E-02 
388	 7.01546281917092E-02 
389	 6.93908920738051E-02 
390	 7.08696698897203E-02 
391	 7.12921528077022E-02 
392	 7.22440819858429E-02 
393	 7.33907683380306E-02 
394	 7.28508617673054E-02 
395	 7.37477092404586E-02 
396	 7.49670416360769E-02 
397	 7.54922643908244E-02 
398	 7.59760599711113E-02 
399	 7.71353760825789E-02 
400	 7.83062305225631E-02 
401	 7.85551608563447E-02 
402	 7.87262971497142E-02 
403	 7.82474482938753E-02 
404	 7.70084137785305E-02 
405	 0.075483953637778 
406	 7.74112440862629E-02 
407	 7.91877920464039E-02 
408	 7.82305093865343E-02 
409	 7.81758698412092E-02 
410	 7.83159105846124E-02 
411	 7.87291468672211E-02 
412	 7.97314530370253E-02 
413	 0.081234197285694 
414	 0.081367853090895 
415	 8.02338888712245E-02 
416	 8.05347586296453E-02 
417	 8.02597702171088E-02 
418	 8.01581502947789E-02 
419	 8.08982725033877E-02 
420	 8.06684759911925E-02 
421	 8.03670452284619E-02 
422	 8.04976139087473E-02 
423	 8.11223462786054E-02 
424	 0.08064104614698 
425	 0.080767390761442 
426	 0.081850947452095 
427	 8.09424728239478E-02 
428	 8.08573399745472E-02 
429	 8.12900758287766E-02 
430	 8.11852722172336E-02 
431	 8.10177817258361E-02 
432	 8.12139385746592E-02 
433	 0.08151968272262 
434	 0.081102917004982 
435	 0.081112371873145 
436	 8.12548250911038E-02 
437	 8.11892506509964E-02 
438	 8.11701324278778E-02 
439	 8.15556588166275E-02 
440	 8.18821856454768E-02 
441	 8.14977944341547E-02 
442	 8.18907599078683E-02 
443	 8.22846522559864E-02 
444	 8.21959088058173E-02 
445	 8.18908272588884E-02 
446	 8.18579732342323E-02 
447	 8.20948202417968E-02 
448	 8.23828313955185E-02 
449	 8.23376520178736E-02 
450	 8.24847816852866E-02 
451	 8.28618712377628E-02 
452	 8.30711276355966E-02 
453	 8.30029267269842E-02 
454	 8.27174633695003E-02 
455	 8.24907760808696E-02 
456	 8.31130905117524E-02 
457	 8.32913991717512E-02 
458	 8.31596849724979E-02 
459	 8.33904655009188E-02 
460	 8.33384486705132E-02 
461	 0.08307638340372 
462	 8.28836033523098E-02 
463	 8.32360932426656E-02 
464	 8.35332737147193E-02 
465	 8.37085944469792E-02 
466	 8.38319235515158E-02 
467	 8.38565648185478E-02 
468	 8.39282764966359E-02 
469	 8.39532886373876E-02 
470	 8.36953757190317E-02 
471	 8.39423585602194E-02 
472	 8.41053160095713E-02 
473	 8.38557705508336E-02 
474	 8.40265181927479E-02 
475	 0.084288655581716 
476	 8.43988131196043E-02 
477	 8.42347082002484E-02 
478	 8.43537045681051E-02 
479	 8.45030138367658E-02 
480	 0.084559746154426 
481	 8.46842684836565E-02 
482	 0.084721297143607 
483	 8.47787595835911E-02 
484	 8.49463547287361E-02 
485	 8.49576016529723E-02 
486	 8.48542795873813E-02 
487	 8.47306239620204E-02 
488	 8.47123022345551E-02 
489	 8.48063592580431E-02 
490	 0.084955155147435 
491	 8.51009608911704E-02 
492	 8.52400559093556E-02 
493	 0.085200058792334 
494	 8.50931483936812E-02 
495	 8.51378494666179E-02 
496	 8.52100386018323E-02 
497	 8.51942080531558E-02 
498	 8.51671185196835E-02 
499	 8.54998514286542E-02 
500	 8.55976135532888E-02 
501	 8.55779873535884E-02 
502	 8.56831586790035E-02 
503	 8.56844349321127E-02 
504	 8.57490667524557E-02 
505	 8.58766467340939E-02 
506	 8.59104197712099E-02 
507	 8.59188664923167E-02 
508	 8.59506123722464E-02 
509	 8.60260059644081E-02 
510	 8.61094865481609E-02 
511	 8.61378286167979E-02 
512	 8.61096541348875E-02 
513	 8.60772796533666E-02 
514	 8.62355536767796E-02 
515	 8.63198174407011E-02 
516	 8.62537622495737E-02 
517	 8.63680546490096E-02 
518	 8.64745481902152E-02 
519	 8.64711627284759E-02 
520	 8.63604761425621E-02 
521	 8.65415491476866E-02 
522	 8.66634535265508E-02 
523	 8.66577849241242E-02 
524	 8.67888591871892E-02 
525	 8.68577989741597E-02 
526	 8.68677704501931E-02 
527	 8.68680329357727E-02 
528	 8.68986356317593E-02 
529	 8.69916789500228E-02 
530	 8.70691823572844E-02 
531	 8.70039324562454E-02 
532	 8.69717850112024E-02 
533	 8.71184786889686E-02 
534	 0.087410252329344 
535	 8.74598297687163E-02 
536	 8.74939553455789E-02 
537	 8.75363168568377E-02 
538	 8.75518348942506E-02 
539	 8.76257808578424E-02 
540	 8.76897879220091E-02 
541	 8.77207098176014E-02 
542	 8.77699289001926E-02 
543	 8.78388488426998E-02 
544	 8.79060517581066E-02 
545	 8.79660874955769E-02 
546	 8.81182518135584E-02 
547	 8.82148329512875E-02 
548	 0.088263283458128 
549	 8.83984269813328E-02 
550	 8.84734754110212E-02 
551	 8.85288614559517E-02 
552	 8.86252976806921E-02 
553	 8.87990230156551E-02 
554	 8.88922844521801E-02 
555	 0.088972486829718 
556	 0.089202159176297 
557	 8.94270006265375E-02 
558	 0.089607846085598 
559	 8.97725056650072E-02 
560	 9.00497182139861E-02 
561	 0.090232412682968 
562	 9.03676668045802E-02 
563	 9.05784632349389E-02 
564	 9.08911799577464E-02 
565	 9.10594596663336E-02 
566	 9.11006054585204E-02 
567	 9.13353114381197E-02 
568	 9.15191155212238E-02 
569	 9.17603548214391E-02 
570	 9.21703316452363E-02 
571	 9.26135413974267E-02 
572	 9.30095988597078E-02 
573	 9.33312504130801E-02 
574	 9.36026681269907E-02 
575	 9.39335990719654E-02 
576	 9.43722527206575E-02 
577	 9.48708142682617E-02 
578	 9.51869453704697E-02 
579	 9.55803039573391E-02 
580	 9.59758863497218E-02 
581	 9.62110543743772E-02 
582	 9.65668539940635E-02 
583	 0.096978125735493 
584	 9.74089244628494E-02 
585	 9.79102538895794E-02 
586	 9.85315653552195E-02 
587	 9.91297121478706E-02 
588	 0.099598203383263 
589	 0.100249262978888 
590	 0.100931425200368 
591	 0.101559515480954 
592	 0.102128016538583 
593	 0.102636056714023 
594	 0.10313531622 
595	 0.103628142328336 
596	 0.103954923655955 
597	 0.104243925929348 
598	 0.104568757056974 
599	 0.104967309530044 
600	 0.105416230146525 
601	 0.105917714914529 
602	 0.106446089537956 
603	 0.106924074192432 
604	 0.107376786580585 
605	 0.107857191409065 
606	 0.108401580721639 
607	 0.108888167255968 
608	 0.109366297490017 
609	 0.109852385151942 
610	 0.110314238897153 
611	 0.11068767723843 
612	 0.110990539458256 
613	 0.111263678633909 
614	 0.111545945072692 
615	 0.111805449116349 
616	 0.112045777676502 
617	 0.112297353691305 
618	 0.112618078708371 
619	 0.112910204614169 
620	 0.113119608947161 
621	 0.113332306193774 
622	 0.113523954053213 
623	 0.11369707874842 
624	 0.113870670595094 
625	 0.114109419500876 
626	 0.114327557735393 
627	 0.114501468890609 
628	 0.114704266209677 
629	 0.114897637264767 
630	 0.11505962192403 
631	 0.115191977678541 
632	 0.115372955181314 
633	 0.115514069845457 
634	 0.115632264035626 
635	 0.115826116371186 
636	 0.116016760863959 
637	 0.116184921650157 
638	 0.116326265958231 
639	 0.116435378523336 
640	 0.116625541650323 
641	 0.11682902215284 
642	 0.116924860660276 
643	 0.117109030651599 
644	 0.117308907053512 
645	 0.117471105231035 
646	 0.11760640816791 
647	 0.117748464750123 
648	 0.117918880159494 
649	 0.118116796649883 
650	 0.118271912375844 
651	 0.11843824198017 
652	 0.118632298109812 
653	 0.118834046326061 
654	 0.11902614461107 
655	 0.119205175363241 
656	 0.119377939148778 
657	 0.11956222936269 
658	 0.119787905578634 
659	 0.120009747069863 
660	 0.120169162117835 
661	 0.120412421482145 
662	 0.120667919133456 
663	 0.120877162145904 
664	 0.121028267662271 
665	 0.121262895306738 
666	 0.121505690065767 
667	 0.121672339022221 
668	 0.121922176381189 
669	 0.122203551439146 
670	 0.122477834402626 
671	 0.122723204851366 
672	 0.122932471778355 
673	 0.123203619627651 
674	 0.123555429700782 
675	 0.123779137208333 
676	 0.123980539863598 
677	 0.124221621940654 
678	 0.124527445940611 
679	 0.124780064965433 
680	 0.12505166553307 
681	 0.125365898246971 
682	 0.125662047916682 
683	 0.12599074017227 
684	 0.126305592328141 
685	 0.126575328582128 
686	 0.126914770027645 
687	 0.127252686350016 
688	 0.127557492729946 
689	 0.127836715668545 
690	 0.128189540710403 
691	 0.128538464059535 
692	 0.128840557207889 
693	 0.129173799029066 
694	 0.129530956432861 
695	 0.129878886504952 
696	 0.130190488450401 
697	 0.130538432862011 
698	 0.130881089562785 
699	 0.131222089255265 
700	 0.131615477887061 
701	 0.131983612503267 
702	 0.132334265168307 
703	 0.132684456004644 
704	 0.133020677024845 
705	 0.133355303781298 
706	 0.133716632549355 
707	 0.134123382725644 
708	 0.134453150757978 
709	 0.13481085979247 
710	 0.135215896904985 
711	 0.135530800710587 
712	 0.135862006619125 
713	 0.136187575228841 
714	 0.136485729842631 
715	 0.136877219656667 
716	 0.137221241540308 
717	 0.137513125633649 
718	 0.137848402026712 
719	 0.138211947135902 
720	 0.138531343025387 
721	 0.138792241146335 
722	 0.139111230389625 
723	 0.139401316273427 
724	 0.139670194383702 
725	 0.139949676433181 
726	 0.140225502348329 
727	 0.140482403030755 
728	 0.14071561837063 
729	 0.140932266145862 
730	 0.14117083678128 
731	 0.141397911828346 
732	 0.141593272648356 
733	 0.141803517524667 
734	 0.141991311535021 
735	 0.142132478168962 
736	 0.142227157799431 
737	 0.142378267420198 
738	 0.142543379362545 
739	 0.142682098827192 
740	 0.142771311088886 
741	 0.142853597529955 
742	 0.142917822332482 
743	 0.142963428478015 
744	 0.143059005197727 
745	 0.143089177502009 
746	 0.143088615051328 
747	 0.143142331989096 
748	 0.143133049270991 
749	 0.14309941490469 
750	 0.143083236757737 
751	 0.143110745461659 
752	 0.143071493649989 
753	 0.142975526705048 
754	 0.142869750338653 
755	 0.142813069440338 
756	 0.14277593377246 
757	 0.142706978284063 
758	 0.14256622816118 
759	 0.142479908354356 
760	 0.142398019003882 
761	 0.142282102158848 
762	 0.142130964725041 
763	 0.141976623272214 
764	 0.141825533387188 
765	 0.141674015097764 
766	 0.141507166305306 
767	 0.141355855726161 
768	 0.141215813407749 
769	 0.141063909123124 
770	 0.140890575090107 
771	 0.140696713587485 
772	 0.140495112265793 
773	 0.140309855932442 
774	 0.140131065742708 
775	 0.139943422113265 
776	 0.139743315259296 
777	 0.139563533044206 
778	 0.139375690906715 
779	 0.139190455866294 
780	 0.139022046403109 
781	 0.138785668708539 
782	 0.138577033308428 
783	 0.138407880396749 
784	 0.138191434061773 
785	 0.137989016496662 
786	 0.137799166754794 
787	 0.137610929327026 
788	 0.137417825643172 
789	 0.137252107795666 
790	 0.137052787582549 
791	 0.136773074466976 
792	 0.136627993937616 
793	 0.136466940225339 
794	 0.136264241985353 
795	 0.13610867651354 
796	 0.135876155557463 
797	 0.13567976967172 
798	 0.135563678591898 
799	 0.135379842413019 
800	 0.135231128191182 
801	 0.135062391638484 
802	 0.134820918299004 
803	 0.134642056261178 
804	 0.134498058067862 
805	 0.134366270257765 
806	 0.134225492589569 
807	 0.134030957752921 
808	 0.13385880572879 
809	 0.133723086816748 
810	 0.133541779929554 
811	 0.133390372787281 
812	 0.133226969646053 
813	 0.133046605965036 
814	 0.133028845267432 
815	 0.132918548908387 
816	 0.132746585798009 
817	 0.132631764222962 
818	 0.132444549896211 
819	 0.132322440222218 
820	 0.132260626534305 
821	 0.13213305186055 
822	 0.13204112519626 
823	 0.131930439789188 
824	 0.131789186969372 
825	 0.131710083184816 
826	 0.131620128226715 
827	 0.131498701629283 
828	 0.131366357736711 
829	 0.131333681534068 
830	 0.131214711567574 
831	 0.131074278987093 
832	 0.131064056396304 
833	 0.131046435092645 
834	 0.130959587055315 
835	 0.130851210676287 
836	 0.130850903027 
837	 0.130824993663975 
838	 0.130753849353112 
839	 0.130654863976176 
840	 0.130573450756624 
841	 0.130510269963176 
842	 0.130435867278628 
843	 0.130354195520061 
844	 0.130412058221514 
845	 0.130425673237427 
846	 0.130355055636688 
847	 0.130261695974563 
848	 0.13033108489917 
849	 0.13035265804192 
850	 0.130263479275087 
851	 0.130159438462435 
852	 0.130144280922332 
853	 0.130178038132611 
854	 0.130209501831652 
855	 0.130209699697949 
856	 0.130261980438191 
857	 0.130292538268722 
858	 0.130254483118056 
859	 0.130264918450972 
860	 0.130268100958379 
861	 0.130281994487836 
862	 0.130325284926168 
863	 0.130305859002236 
864	 0.130352036474951 
865	 0.130444732506001 
866	 0.130477071127548 
867	 0.130448342244219 
868	 0.130480557155712 
869	 0.130571447314349 
870	 0.130591141778326 
871	 0.130617749996296 
872	 0.130677933661554 
873	 0.130767066500263 
874	 0.130844378446548 
875	 0.130948003436667 
876	 0.131018081261242 
877	 0.131020067901032 
878	 0.1310348409961 
879	 0.131143207583634 
880	 0.131280083437343 
881	 0.131360182911468 
882	 0.131463662326879 
883	 0.131597850310545 
884	 0.131728813834217 
885	 0.131817159680286 
886	 0.131940941011736 
887	 0.132053200065071 
888	 0.132134664087812 
889	 0.132204478097114 
890	 0.132325176603616 
891	 0.132475782278348 
892	 0.132630651103064 
893	 0.132776132671021 
894	 0.13293852982009 
895	 0.133045414599392 
896	 0.133105232449166 
897	 0.133297982243567 
898	 0.133470480997429 
899	 0.133629881363255 
900	 0.133794214214141 
901	 0.133888783286628 
902	 0.134049279209033 
903	 0.134255026262087 
904	 0.134439166660973 
905	 0.134591556048153 
906	 0.13475276333725 
907	 0.13496187596398 
908	 0.135233557970647 
909	 0.135502943289281 
910	 0.135641263542711 
911	 0.13572758544428 
912	 0.135945121569616 
913	 0.136159317823639 
914	 0.136414436550392 
915	 0.136664996775657 
916	 0.136805605968543 
917	 0.137023052483121 
918	 0.137338679061193 
919	 0.13764999632021 
920	 0.137776046400178 
921	 0.138064558909819 
922	 0.138388757757556 
923	 0.138618388516943 
924	 0.138753812573077 
925	 0.138990451369076 
926	 0.139305130615295 
927	 0.139616239377545 
928	 0.139838241888752 
929	 0.140155787694239 
930	 0.140459635731618 
931	 0.14067755834269 
932	 0.140999254509106 
933	 0.141320075263559 
934	 0.141621350845824 
935	 0.141915452537991 
936	 0.142231691846648 
937	 0.142526860758426 
938	 0.142815994467537 
939	 0.143123487719964 
940	 0.143422176385819 
941	 0.143820973242109 
942	 0.144275562290884 
943	 0.144682656250949 
944	 0.14498597130201 
945	 0.145267594938089 
946	 0.145566889245954 
947	 0.145896121713349 
948	 0.146264851252593 
949	 0.146617678053112 
950	 0.146959308879527 
951	 0.147329601597281 
952	 0.147761740012822 
953	 0.148156949891971 
954	 0.148530849037004 
955	 0.148948435933471 
956	 0.149333772087102 
957	 0.149758962338719 
958	 0.15014788817641 
959	 0.150416692263567 
960	 0.150979716215856 
961	 0.15149107915191 
962	 0.1518923996411 
963	 0.152310609001961 
964	 0.152542464586376 
965	 0.153002568229859 
966	 0.153650389606608 
967	 0.154129585217122 
968	 0.154363201528999 
969	 0.154738575583588 
970	 0.155236060728863 
971	 0.155598023193218 
972	 0.15611649016799 
973	 0.156620067441979 
974	 0.157011423772326 
975	 0.157330649594216 
976	 0.157931116714563 
977	 0.15844592381314 
978	 0.158880990721849 
979	 0.159453240768387 
980	 0.159893758425684 
981	 0.160319529840976 
982	 0.160768288008888 
983	 0.161210455719727 
984	 0.161629902216746 
985	 0.162021479115458 
986	 0.162442123990393 
987	 0.162966796585032 
988	 0.163603160781144 
989	 0.16415223461975 
990	 0.164531447468084 
991	 0.164814731637663 
992	 0.165375108709993 
993	 0.165791816479905 
994	 0.16620272355717 
995	 0.166850206390011 
996	 0.167253637752443 
997	 0.167754302388889 
998	 0.168248617567099 
999	 0.168583426418471 
1000	 0.169083733798723 
1001	 0.169180918474848 
1002	 0.169596072726414 
1003	 0.170024292683742 
1004	 0.170442641513817 
1005	 0.170907111852954 
1006	 0.171329643100817 
1007	 0.171724148678093 
1008	 0.17208603302767 
1009	 0.17249034635226 
1010	 0.172870729949682 
1011	 0.173249948025934 
1012	 0.173671717351301 
1013	 0.174059255336232 
1014	 0.174556941516118 
1015	 0.17502940877317 
1016	 0.175389115348257 
1017	 0.175750964196506 
1018	 0.176097309034437 
1019	 0.176363627500076 
1020	 0.176674816224934 
1021	 0.177057368127221 
1022	 0.177417579385572 
1023	 0.177772663418604 
1024	 0.178070880935264 
1025	 0.178361337515073 
1026	 0.178705402640674 
1027	 0.179025355056371 
1028	 0.17934137263312 
1029	 0.179645759722577 
1030	 0.179952426727926 
1031	 0.18028335740078 
1032	 0.180647821524257 
1033	 0.180977345204641 
1034	 0.181294579578789 
1035	 0.181564713137725 
1036	 0.181752421339017 
1037	 0.182061115393721 
1038	 0.1824715337373 
1039	 0.182831441122237 
1040	 0.183167534340237 
1041	 0.183479586694179 
1042	 0.183733222669472 
1043	 0.184005834668518 
1044	 0.184281879476497 
1045	 0.184592076177954 
1046	 0.184880250327394 
1047	 0.185150813459256 
1048	 0.18542001679626 
1049	 0.185740970694628 
1050	 0.186056030981716 
1051	 0.186347484346753 
1052	 0.186627118022568 
1053	 0.186868539803098 
1054	 0.187180856003021 
1055	 0.187531625427054 
1056	 0.187833984503291 
1057	 0.188136127553086 
1058	 0.18843593005736 
1059	 0.188723567679165 
1060	 0.188972486380185 
1061	 0.189284050104295 
1062	 0.18957417287367 
1063	 0.189879225446038 
1064	 0.190165111954742 
1065	 0.190410427004344 
1066	 0.190709168597798 
1067	 0.190978087164399 
1068	 0.191256116027906 
1069	 0.191589816994399 
1070	 0.191892644651433 
1071	 0.192209401895267 
1072	 0.192482336712518 
1073	 0.192696776855756 
1074	 0.192958930925976 
1075	 0.193221116947048 
1076	 0.193497147070826 
1077	 0.193756379283293 
1078	 0.193976522197279 
1079	 0.194182469635161 
1080	 0.194358041507438 
1081	 0.194571250966772 
1082	 0.194818625730188 
1083	 0.195055140839611 
1084	 0.195288527788394 
1085	 0.195535065172397 
1086	 0.195816763907364 
1087	 0.196053788808401 
1088	 0.196291533629718 
1089	 0.196465927651162 
1090	 0.196661026486057 
1091	 0.196843761467692 
1092	 0.19699282706651 
1093	 0.197188796080331 
1094	 0.197430666267411 
1095	 0.197654387531598 
1096	 0.197879912317187 
1097	 0.198134259382341 
1098	 0.198361198772642 
1099	 0.198559365624509 
1100	 0.198740987239752 
1101	 0.198918091111897 
1102	 0.199094057074083 
1103	 0.199246098526246 
1104	 0.199382366004098 
1105	 0.199576914436698 
1106	 0.199753912067703 
1107	 0.199915382911288 
1108	 0.200126207814042 
1109	 0.200351209428696 
1110	 0.200569067804552 
1111	 0.20076428998541 
1112	 0.200972173392752 
1113	 0.201139809203512 
1114	 0.201243226378719 
1115	 0.201396069298834 
1116	 0.201546891051019 
1117	 0.201734155533206 
1118	 0.201961709921497 
1119	 0.202166729875788 
1120	 0.202404042179372 
1121	 0.202607281621847 
1122	 0.202769754141155 
1123	 0.202971679516234 
1124	 0.20316102233018 
1125	 0.203344531170489 
1126	 0.203518840152494 
1127	 0.203690197523924 
1128	 0.203866497322279 
1129	 0.204040184998581 
1130	 0.204211400539359 
1131	 0.204386164915432 
1132	 0.204557679924239 
1133	 0.204714255466943 
1134	 0.204881967451795 
1135	 0.205054360255652 
1136	 0.205241873079205 
1137	 0.205407984772881 
1138	 0.205559936296816 
1139	 0.205727336169659 
1140	 0.205896791691772 
1141	 0.206054456374834 
1142	 0.20622637466645 
1143	 0.2063684010428 
1144	 0.206470093578246 
1145	 0.206603092427864 
1146	 0.206741299976227 
1147	 0.20687992059378 
1148	 0.20703468795717 
1149	 0.207179159804369 
1150	 0.207319417437893 
1151	 0.207457673919162 
1152	 0.207569274581354 
1153	 0.207676548810988 
1154	 0.207805038304391 
1155	 0.207922187935211 
1156	 0.20805930340649 
1157	 0.208233700881535 
1158	 0.208382185047158 
1159	 0.208516965250969 
1160	 0.208658664933707 
1161	 0.208810197761527 
1162	 0.208943819723893 
1163	 0.209068795474827 
1164	 0.20919497553499 
1165	 0.209308169834829 
1166	 0.209428526069087 
1167	 0.209551360509335 
1168	 0.209669406128182 
1169	 0.209779910172347 
1170	 0.209866826161617 
1171	 0.209996404285394 
1172	 0.210153348849852 
1173	 0.210279985730586 
1174	 0.210423630236563 
1175	 0.210548844284712 
1176	 0.210630175558824 
1177	 0.210741857702224 
1178	 0.210874281575305 
1179	 0.210997262971356 
1180	 0.211129379907183 
1181	 0.211249927044615 
1182	 0.211360718112529 
1183	 0.211472687730712 
1184	 0.211583268093768 
1185	 0.211695631633537 
1186	 0.211787229817888 
1187	 0.211861576206977 
1188	 0.211957993074615 
1189	 0.212037995797862 
1190	 0.212143850427545 
1191	 0.212291224179605 
1192	 0.212408488712521 
1193	 0.21251934519288 
1194	 0.212628583509798 
1195	 0.212727056851455 
1196	 0.21282616076858 
1197	 0.212926694034859 
1198	 0.21302433867172 
1199	 0.213119325658881 
1200	 0.213202788384983 
1201	 0.213310210695873 
1202	 0.21343387775896 
1203	 0.213534565549898 
1204	 0.213642353695172 
1205	 0.213736878472407 
1206	 0.21380637325441 
1207	 0.213889380516471 
1208	 0.213977891637864 
1209	 0.214064396021109 
1210	 0.214155357675723 
1211	 0.214235204845897 
1212	 0.214296791641088 
1213	 0.214380126646103 
1214	 0.214472456771917 
1215	 0.214558474754908 
1216	 0.214648318410003 
1217	 0.214757771744263 
1218	 0.21484693763224 
1219	 0.214926418761736 
1220	 0.214997957343953 
1221	 0.215059449234947 
1222	 0.215130647415141 
1223	 0.215190879416744 
1224	 0.215262077297784 
1225	 0.215356683159861 
1226	 0.215428578012903 
1227	 0.215485419091696 
1228	 0.215550533958997 
1229	 0.215611038213302 
1230	 0.21567191112156 
1231	 0.215733462756032 
1232	 0.215800044916717 
1233	 0.215868427177461 
1234	 0.21593655502928 
1235	 0.216004056600292 
1236	 0.216080568180386 
1237	 0.216144721517844 
1238	 0.216196888147601 
1239	 0.216257184412331 
1240	 0.216315418721303 
1241	 0.216379232923838 
1242	 0.216451756319817 
1243	 0.216517234777276 
1244	 0.216583250675989 
1245	 0.216646160473797 
1246	 0.216707951297908 
1247	 0.216763041705064 
1248	 0.216799950122493 
1249	 0.216859588890701 
1250	 0.216930193146544 
1251	 0.216979565972611 
1252	 0.217042218688715 
1253	 0.217125753118083 
1254	 0.217180554605868 
1255	 0.217223660569272 
1256	 0.217261024640732 
1257	 0.217280276066508 
1258	 0.217310037238663 
1259	 0.217331576219282 
1260	 0.217367748281464 
1261	 0.217418481281926 
1262	 0.217460019782094 
1263	 0.217506950710445 
1264	 0.217547639748731 
1265	 0.217567315503013 
1266	 0.217608625655045 
1267	 0.217658153726838 
1268	 0.217722220287608 
1269	 0.217770969103792 
1270	 0.217824681412349 
1271	 0.217881112665026 
1272	 0.217925079704795 
1273	 0.217981733368831 
1274	 0.218055355386176 
1275	 0.218121140411708 
1276	 0.218173085335169 
1277	 0.218249228703418 
1278	 0.218341464855719 
1279	 0.218430948135472 
1280	 0.218528372197215 
1281	 0.218631680292709 
1282	 0.218743877318038 
1283	 0.218847709342263 
1284	 0.218955481728393 
1285	 0.219066227480631 
1286	 0.21915087865048 
1287	 0.219234205295599 
1288	 0.219336187044324 
1289	 0.219446870766957 
1290	 0.219550005165943 
1291	 0.219664890976283 
1292	 0.219767730042559 
1293	 0.219863995389515 
1294	 0.219948551299141 
1295	 0.220029244528821 
1296	 0.220106681655197 
1297	 0.220170293124082 
1298	 0.220233715878551 
1299	 0.220310253600384 
1300	 0.22035718647223 
1301	 0.220371228932656 
1302	 0.220402133176521 
1303	 0.220435463862408 
1304	 0.220453918069019 
1305	 0.22045678735499 
1306	 0.220477016868549 
1307	 0.220467486249308 
1308	 0.220437309408068 
1309	 0.22042152031978 
1310	 0.220410572226772 
1311	 0.220391374263016 
1312	 0.220373352397836 
1313	 0.220353579512557 
1314	 0.220333601635652 
1315	 0.220300326605202 
1316	 0.220254233186844 
1317	 0.220213614062861 
1318	 0.220169780503362 
1319	 0.220127346572414 
1320	 0.220078445528834 
1321	 0.220046339695431 
1322	 0.220022445867408 
1323	 0.21999413300857 
1324	 0.21998567637158 
1325	 0.21996299217956 
1326	 0.219910585653356 
1327	 0.219862744731272 
1328	 0.219809988430968 
1329	 0.219755106194067 
1330	 0.219705063496499 
1331	 0.219663916565218 
1332	 0.219610592677805 
1333	 0.219554739440713 
1334	 0.219491338601888 
1335	 0.219402891200462 
1336	 0.219349636668488 
1337	 0.219315847460971 
1338	 0.219273998949998 
1339	 0.219248430871701 
1340	 0.219213826030728 
1341	 0.219165241336441 
1342	 0.219122678905886 
1343	 0.219076449966955 
1344	 0.219051889696288 
1345	 0.219033766261172 
1346	 0.218999043901164 
1347	 0.218962747976948 
1348	 0.218930856037421 
1349	 0.218894865530377 
1350	 0.21884518492288 
1351	 0.218784329595244 
1352	 0.218715140541318 
1353	 0.218653224683886 
1354	 0.218575873758363 
1355	 0.218510731321865 
1356	 0.218458088942558 
1357	 0.218404077094803 
1358	 0.2183430490447 
1359	 0.218290431641851 
1360	 0.2182477571531 
1361	 0.21820749297594 
1362	 0.21816908563167 
1363	 0.218136092672841 
1364	 0.218116475790972 
1365	 0.218083143232177 
1366	 0.218045530661435 
1367	 0.218006054790366 
1368	 0.217961727331124 
1369	 0.217928997946708 
1370	 0.217886569334146 
1371	 0.217842874412195 
1372	 0.217790318129763 
1373	 0.217701067929494 
1374	 0.21760718325241 
1375	 0.217505515098887 
1376	 0.217381549377652 
1377	 0.21723892553236 
1378	 0.21708460895519 
1379	 0.216910515661266 
1380	 0.216727565125226 
1381	 0.216527277863271 
1382	 0.216321857028607 
1383	 0.216118611424058 
1384	 0.215887553134205 
1385	 0.215642755666396 
1386	 0.215387808003184 
1387	 0.215118606517242 
1388	 0.214827302296909 
1389	 0.2145317469281 
1390	 0.214197330673283 
1391	 0.213844403813584 
1392	 0.21346268463626 
1393	 0.213052362414588 
1394	 0.212628765096262 
1395	 0.212174165949939 
1396	 0.211711892168199 
1397	 0.211258901763572 
1398	 0.210798960687915 
1399	 0.210347196860287 
1400	 0.209902543021623 
1401	 0.209453670855342 
1402	 0.208993123201677 
1403	 0.208559639232188 
1404	 0.208130282545739 
1405	 0.207726252738113 
1406	 0.20735163810971 
1407	 0.206971962164359 
1408	 0.206585425737157 
1409	 0.206238472965146 
1410	 0.20589350157879 
1411	 0.205593403419536 
1412	 0.205331011304575 
1413	 0.205102964257038 
1414	 0.204902425405027 
1415	 0.204722997883046 
1416	 0.204568981022999 
1417	 0.204442770298744 
1418	 0.204320239267252 
1419	 0.204210277791056 
1420	 0.204136758146383 
1421	 0.204055276436576 
1422	 0.203970746306326 
1423	 0.203911461372825 
1424	 0.203827178288097 
1425	 0.203717236792021 
1426	 0.203632515110534 
1427	 0.203541256374493 
1428	 0.203478306666594 
1429	 0.203440511072921 
1430	 0.203396046014049 
1431	 0.203367929025384 
1432	 0.20333353050864 
1433	 0.203283071535082 
1434	 0.20325961329971 
1435	 0.203252902496927 
1436	 0.203248013643776 
1437	 0.203259758995905 
1438	 0.203272056699221 
1439	 0.203292639534255 
1440	 0.203298466356061 
1441	 0.203316019600387 
1442	 0.20333800950622 
1443	 0.203358588639526 
1444	 0.203383332614631 
1445	 0.203409700364087 
1446	 0.203427968755253 
1447	 0.203448501191692 
1448	 0.203479439727991 
1449	 0.203506336356918 
1450	 0.203538624667081 
1451	 0.203576036782691 
1452	 0.203613386953259 
1453	 0.203657967305565 
1454	 0.203720699145968 
1455	 0.203760510583886 
1456	 0.203779561370612 
1457	 0.203827385776764 
1458	 0.203873949024682 
1459	 0.20393691458545 
1460	 0.204028641609735 
1461	 0.20411413721606 
1462	 0.204195448010174 
1463	 0.204289188577992 
1464	 0.204399936039312 
1465	 0.204503326230353 
1466	 0.204608421247622 
1467	 0.204716127734613 
1468	 0.204809556627337 
1469	 0.204925657373139 
1470	 0.205057836831064 
1471	 0.205193791405083 
1472	 0.205340592199783 
1473	 0.205496731025949 
1474	 0.205633660361234 
1475	 0.205780176451275 
1476	 0.205930676201919 
1477	 0.206076083591177 
1478	 0.206222467496625 
1479	 0.2063633116923 
1480	 0.206515416709054 
1481	 0.206676450140209 
1482	 0.206841616570466 
1483	 0.207028108740488 
1484	 0.207192735446971 
1485	 0.207354475111503 
1486	 0.207508594960903 
1487	 0.207647680551265 
1488	 0.20779920488535 
1489	 0.207947230849583 
1490	 0.208098104833469 
1491	 0.208264108541588 
1492	 0.208414654948437 
1493	 0.208554957261374 
1494	 0.208699430421685 
1495	 0.208845321423507 
1496	 0.208977613519094 
1497	 0.209099473633672 
1498	 0.209231587592209 
1499	 0.209353313330631 
1500	 0.209485781797175 
1501	 0.209637259207557 
1502	 0.20977917693824 
1503	 0.209922340960642 
1504	 0.210054095831349 
1505	 0.210187656796888 
1506	 0.210315038759671 
1507	 0.210433556611239 
1508	 0.210553433361895 
1509	 0.210657952928674 
1510	 0.210763292296841 
1511	 0.210884689851468 
1512	 0.210996650181346 
1513	 0.211103436323308 
1514	 0.211224657195708 
1515	 0.211334028167921 
1516	 0.211447839680115 
1517	 0.21157198052863 
1518	 0.211713299876841 
1519	 0.211835820448519 
1520	 0.211959624097058 
1521	 0.212071319194703 
1522	 0.212169007971438 
1523	 0.212276882135742 
1524	 0.212378268454639 
1525	 0.212490187783313 
1526	 0.212617897180603 
1527	 0.212724445471952 
1528	 0.212825079958053 
1529	 0.212927527819691 
1530	 0.213020791897929 
1531	 0.213113415749517 
1532	 0.213214167722887 
1533	 0.213296209139543 
1534	 0.213360810222192 
1535	 0.213433224228906 
1536	 0.213501714273775 
1537	 0.213568090592469 
1538	 0.213629355917025 
1539	 0.213696642107586 
1540	 0.213762395190132 
1541	 0.213835283950524 
1542	 0.213922571563601 
1543	 0.21399715731855 
1544	 0.21407006433969 
1545	 0.214139075908666 
1546	 0.214195001445732 
1547	 0.214266218734474 
1548	 0.214334121729219 
1549	 0.214367957914455 
1550	 0.214413984382962 
1551	 0.214461161650991 
1552	 0.214512820654908 
1553	 0.214590765035772 
1554	 0.214653837235764 
1555	 0.214721040524889 
1556	 0.214794386361949 
1557	 0.214843304341314 
1558	 0.214892055379833 
1559	 0.214944411574947 
1560	 0.214997768450287 
1561	 0.215044083472249 
1562	 0.215097725646603 
1563	 0.215159286663126 
1564	 0.215220080066764 
1565	 0.215279976061574 
1566	 0.215340986408044 
1567	 0.215413331713498 
1568	 0.215467612800932 
1569	 0.21550920258557 
1570	 0.215559052582486 
1571	 0.215601854770059 
1572	 0.215647536040696 
1573	 0.215701414975173 
1574	 0.215750952739363 
1575	 0.215802642507002 
1576	 0.21583906753478 
1577	 0.215861595122268 
1578	 0.215897333788938 
1579	 0.215929776792526 
1580	 0.215963226462531 
1581	 0.216000224867817 
1582	 0.21604775520932 
1583	 0.216099076229298 
1584	 0.216142573010482 
1585	 0.216206733558431 
1586	 0.216247107971166 
1587	 0.216257094108078 
1588	 0.216284537659948 
1589	 0.216316732228368 
1590	 0.216341634947436 
1591	 0.216367377896695 
1592	 0.216390512413812 
1593	 0.216402713975921 
1594	 0.216424244300472 
1595	 0.216445577458392 
1596	 0.216477417495732 
1597	 0.216523807523162 
1598	 0.216562225672057 
1599	 0.21661203279818 
1600	 0.216646424629406 
1601	 0.216664724755042 
1602	 0.216686321296278 
1603	 0.216697918551131 
1604	 0.216716970771271 
1605	 0.216731098196146 
1606	 0.216761848553845 
1607	 0.216808653122758 
1608	 0.216852140763791 
1609	 0.216909510401698 
1610	 0.216957815499096 
1611	 0.216982003132847 
1612	 0.216995420274581 
1613	 0.216995772584738 
1614	 0.21700567031172 
1615	 0.217007996022326 
1616	 0.217023521280075 
1617	 0.217062784494881 
1618	 0.217089546459502 
1619	 0.217124562872904 
1620	 0.217167510355616 
1621	 0.217197414387946 
1622	 0.217220463899392 
1623	 0.217228228589626 
1624	 0.217222932212141 
1625	 0.217233349184235 
1626	 0.217236622709784 
1627	 0.217244569926498 
1628	 0.217266513931648 
1629	 0.21727917916809 
1630	 0.217279016130174 
1631	 0.217290227194833 
1632	 0.21731460787344 
1633	 0.217325613616501 
1634	 0.217329027976721 
1635	 0.217336671708033 
1636	 0.217347727180824 
1637	 0.217342266628921 
1638	 0.217327103728046 
1639	 0.217324441821011 
1640	 0.217301399469498 
1641	 0.217321581111889 
1642	 0.217372413341176 
1643	 0.217414434567021 
1644	 0.217479898854238 
1645	 0.217523335243782 
1646	 0.217560841105876 
1647	 0.217593010464888 
1648	 0.217626932520143 
1649	 0.217631922246782 
1650	 0.217603420571198 
1651	 0.217613002453106 
1652	 0.217625642041829 
1653	 0.217628592636594 
1654	 0.217652290911265 
1655	 0.217662151626128 
1656	 0.217649380203855 
1657	 0.217641204943988 
1658	 0.217645973364272 
1659	 0.217636945809753 
1660	 0.217612936385703 
1661	 0.217584811133503 
1662	 0.217537789496557 
1663	 0.217529537699975 
1664	 0.217522733692403 
1665	 0.217535580262143 
1666	 0.217593099865903 
1667	 0.217629099926626 
1668	 0.217672572512714 
1669	 0.217687919516887 
1670	 0.217693751965207 
1671	 0.217692144564686 
1672	 0.217655365409282 
1673	 0.21764572805531 
1674	 0.217652468981346 
1675	 0.217646328267592 
1676	 0.217634956815121 
1677	 0.217635122956082 
1678	 0.217634033524476 
1679	 0.217637194870185 
1680	 0.217651553395782 
1681	 0.217667360479596 
1682	 0.217690796529857 
1683	 0.217697301198188 
1684	 0.217697075954853 
1685	 0.217704392832658 
1686	 0.217698888488488 
1687	 0.217704854641148 
1688	 0.217735811131328 
1689	 0.217740907880704 
1690	 0.217728729359863 
1691	 0.217725679539705 
1692	 0.217712767724773 
1693	 0.217712471732645 
1694	 0.217725257715042 
1695	 0.217727742532467 
1696	 0.217723144756206 
1697	 0.217734631301863 
1698	 0.217754369500234 
1699	 0.217767574017246 
1700	 0.217793794235471 
1701	 0.217804571006724 
1702	 0.217803111348484 
1703	 0.21779652463952 
1704	 0.217787088922298 
1705	 0.217771698391146 
1706	 0.217752698185705 
1707	 0.21771562889094 
1708	 0.217653660702966 
1709	 0.217617288853747 
1710	 0.217571151242505 
1711	 0.217547734922614 
1712	 0.217557535960005 
1713	 0.217550654387044 
1714	 0.217546920386958 
1715	 0.217530974114939 
1716	 0.21750609801148 
1717	 0.217491186930177 
1718	 0.217473968894792 
1719	 0.217450781073031 
1720	 0.217433235675066 
1721	 0.217405071670403 
1722	 0.217358834668158 
1723	 0.217340576444304 
1724	 0.217336705200615 
1725	 0.217319180058829 
1726	 0.217311396086461 
1727	 0.217282325811827 
1728	 0.217236995685949 
1729	 0.217195189194946 
1730	 0.217149236969933 
1731	 0.217101730188474 
1732	 0.217044469255958 
1733	 0.217002562253006 
1734	 0.216964839229883 
1735	 0.216925959044386 
1736	 0.216896081124144 
1737	 0.216860250565909 
1738	 0.216821043037201 
1739	 0.216784179112637 
1740	 0.216742001811188 
1741	 0.216712389679894 
1742	 0.216697307291353 
1743	 0.216661746949599 
1744	 0.216638135276842 
1745	 0.216573071809933 
1746	 0.216462695635818 
1747	 0.216371559966254 
1748	 0.216303397868052 
1749	 0.216260490681953 
1750	 0.216237593302044 
1751	 0.216210756768704 
1752	 0.216171175638403 
1753	 0.21614515535735 
1754	 0.216116784971809 
1755	 0.216060119832582 
1756	 0.215992300446902 
1757	 0.215906478315316 
1758	 0.2158305253146 
1759	 0.215778103916505 
1760	 0.21572740198807 
1761	 0.21567344723565 
1762	 0.215601028996413 
1763	 0.215529539664824 
1764	 0.215471786204457 
1765	 0.215428927844057 
1766	 0.215374072708747 
1767	 0.215303931425485 
1768	 0.215264341453433 
1769	 0.215212312262054 
1770	 0.215170683921165 
1771	 0.215162924017711 
1772	 0.215119155723606 
1773	 0.215080804187352 
1774	 0.21504950240619 
1775	 0.215004300522606 
1776	 0.21496012445721 
1777	 0.214889815269009 
1778	 0.214826500833477 
1779	 0.214762547653828 
1780	 0.214687017340255 
1781	 0.214650087300074 
1782	 0.214651871503164 
1783	 0.214688083684852 
1784	 0.214699257376782 
1785	 0.214720821741051 
1786	 0.214724097240507 
1787	 0.214708270062758 
1788	 0.214682220312618 
1789	 0.214637760130519 
1790	 0.214615465311466 
1791	 0.21458831684569 
1792	 0.214570864604208 
1793	 0.214573198153254 
1794	 0.214570686020662 
1795	 0.214548973596441 
1796	 0.214561950958475 
1797	 0.214630309292178 
1798	 0.214633721154609 
1799	 0.214618696217706 
1800	 0.214596355163577 
1801	 0.215082004842362 
1802	 0.215205921946642 
1803	 0.215306608723115 
1804	 0.215387210920151 
1805	 0.215536820057997 
1806	 0.215659024802075 
1807	 0.215750239315757 
1808	 0.2158206120261 
1809	 0.21586981187732 
1810	 0.215914592128426 
1811	 0.215926795104312 
1812	 0.215957898991449 
1813	 0.216004148899174 
1814	 0.216024766551977 
1815	 0.21602739985897 
1816	 0.216019715907589 
1817	 0.21600410216782 
1818	 0.215957497160525 
1819	 0.215942276404381 
1820	 0.215933567875093 
1821	 0.215926733568488 
1822	 0.215944026832096 
1823	 0.215953870279464 
1824	 0.215969823349731 
1825	 0.215972150060252 
1826	 0.215982019259511 
1827	 0.216017014869228 
1828	 0.216013402221072 
1829	 0.216001153147241 
1830	 0.215980677879197 
1831	 0.215932955781062 
1832	 0.215875686743157 
1833	 0.215842930806958 
1834	 0.215822012644113 
1835	 0.215828322412863 
1836	 0.215798476925588 
1837	 0.215753618622809 
1838	 0.215727725342533 
1839	 0.215704061876296 
1840	 0.215669779579976 
1841	 0.215655842833693 
1842	 0.215647011232747 
1843	 0.215622048965823 
1844	 0.215587973780721 
1845	 0.215540471183659 
1846	 0.215484682611833 
1847	 0.215425046511158 
1848	 0.215356927149405 
1849	 0.215275872041735 
1850	 0.215198930371105 
1851	 0.215123983186305 
1852	 0.215057567784501 
1853	 0.214975430947779 
1854	 0.214900413326611 
1855	 0.214832089657388 
1856	 0.214694798372305 
1857	 0.21451780942364 
1858	 0.214336975025643 
1859	 0.214135139157696 
1860	 0.213922699664936 
1861	 0.213710421446849 
1862	 0.213493827032404 
1863	 0.213234710343496 
1864	 0.21292540543624 
1865	 0.212585808929924 
1866	 0.212207274608004 
1867	 0.211799749994166 
1868	 0.211348633169272 
1869	 0.210864533515312 
1870	 0.210383085528463 
1871	 0.209861654575917 
1872	 0.209306962886161 
1873	 0.208744385795653 
1874	 0.208161872611365 
1875	 0.207501778026534 
1876	 0.206810130871831 
1877	 0.206078950340394 
1878	 0.205263982981734 
1879	 0.204404716247968 
1880	 0.203479241747768 
1881	 0.202497289715977 
1882	 0.201435703682634 
1883	 0.200312414491889 
1884	 0.199086667894908 
1885	 0.197823830071818 
1886	 0.196495458525023 
1887	 0.195107901614869 
1888	 0.193705136001834 
1889	 0.192197670434381 
1890	 0.190651786144586 
1891	 0.189113147700013 
1892	 0.187499811063553 
1893	 0.185935969285273 
1894	 0.184393475635549 
1895	 0.182855097905754 
1896	 0.181297461220886 
1897	 0.179810425184847 
1898	 0.178343089510549 
1899	 0.176929426690668 
1900	 0.175587771980542 
1901	 0.174302058199275 
1902	 0.173091865141751 
1903	 0.171962438502824 
1904	 0.17087912475259 
1905	 0.169865415872085 
1906	 0.168908645004783 
1907	 0.167975239820833 
1908	 0.167117758058044 
1909	 0.166318077012032 
1910	 0.165572566338678 
1911	 0.164922159958094 
1912	 0.164323614275433 
1913	 0.16376086836718 
1914	 0.163270329680045 
1915	 0.162780324493195 
1916	 0.16230526621131 
1917	 0.16187568727652 
1918	 0.161499311287938 
1919	 0.161163529935358 
1920	 0.160877474913504 
1921	 0.160620120144802 
1922	 0.16037591301222 
1923	 0.16017010331734 
1924	 0.160001802497475 
1925	 0.15987990214735 
1926	 0.159777589283692 
1927	 0.15970270783253 
1928	 0.15966540816334 
1929	 0.159640225297194 
1930	 0.159664930286081 
1931	 0.15972747105376 
1932	 0.159782144530346 
1933	 0.159878444491229 
1934	 0.159996168113523 
1935	 0.160117576766308 
1936	 0.160261189915492 
1937	 0.16040570676241 
1938	 0.160536452378376 
1939	 0.160704773900629 
1940	 0.160901566348816 
1941	 0.161090757441325 
1942	 0.161297800369305 
1943	 0.16154563796495 
1944	 0.161794866016552 
1945	 0.162079247753394 
1946	 0.162367542892575 
1947	 0.16269212902237 
1948	 0.162995075480871 
1949	 0.163291371559043 
1950	 0.163593475368012 
1951	 0.163886949529293 
1952	 0.164205604529528 
1953	 0.164527096746689 
1954	 0.164877671731834 
1955	 0.165232203720503 
1956	 0.165585181322282 
1957	 0.165941873786389 
1958	 0.166299544124457 
1959	 0.166662117463267 
1960	 0.167023290184215 
1961	 0.167395405540444 
1962	 0.167776083940529 
1963	 0.168161397338854 
1964	 0.168543729378345 
1965	 0.168964090295807 
1966	 0.169366304470421 
1967	 0.169771089205934 
1968	 0.17018409831633 
1969	 0.170603629151335 
1970	 0.171011900774918 
1971	 0.171419509290316 
1972	 0.171837213996988 
1973	 0.172248803888728 
1974	 0.172671320926571 
1975	 0.173115209598756 
1976	 0.173550938353921 
1977	 0.17397059205981 
1978	 0.174385965178438 
1979	 0.174792804138857 
1980	 0.1751862973813 
1981	 0.175597955599479 
1982	 0.176013909691165 
1983	 0.176432305740032 
1984	 0.176866003225328 
1985	 0.177292699073819 
1986	 0.177723541449081 
1987	 0.178140645613729 
1988	 0.178555834635878 
1989	 0.178958311445519 
1990	 0.179350872008589 
1991	 0.179745321361339 
1992	 0.18013513705894 
1993	 0.180522994924221 
1994	 0.180906689034213 
1995	 0.181278533045596 
1996	 0.181662782870611 
1997	 0.182042871775079 
1998	 0.182439361158727 
1999	 0.182859070213592 
2000	 0.183263315082151 
2001	 0.183671990936795 
2002	 0.184077480995522 
2003	 0.184471972752266 
2004	 0.184854863815816 
2005	 0.185230363733778 
2006	 0.185595655842909 
2007	 0.185964884308957 
2008	 0.186317388772555 
2009	 0.186687760253935 
2010	 0.187086560167515 
2011	 0.187450020368491 
2012	 0.187805892883671 
2013	 0.188152435218616 
2014	 0.188459985274449 
2015	 0.188785937339148 
2016	 0.189145811425957 
2017	 0.189494657386653 
2018	 0.189840374237441 
2019	 0.190201853130921 
2020	 0.190543457551531 
2021	 0.19086796756768 
2022	 0.191192839247776 
2023	 0.191510038737042 
2024	 0.191833740639492 
2025	 0.192148267301471 
2026	 0.192469530732942 
2027	 0.19279859892724 
2028	 0.193136601799189 
2029	 0.193458165414909 
2030	 0.19377449486493 
2031	 0.194092775024266 
2032	 0.194406119548522 
2033	 0.19471324106345 
2034	 0.195031201999011 
2035	 0.195320662947105 
2036	 0.195583617057941 
2037	 0.195856840665834 
2038	 0.196124810592137 
2039	 0.196382116620474 
2040	 0.196632721003902 
2041	 0.196887223658604 
2042	 0.197125427592066 
2043	 0.197361567933633 
2044	 0.197620509340725 
2045	 0.197899499427307 
2046	 0.198165739367995 
2047	 0.198444028373839 
2048	 0.198710708709673 
2049	 0.198981550007235 
2050	 0.199226845807391 
2051	 0.199465014033885 
2052	 0.199684735985724 
2053	 0.199858342688998 
2054	 0.200055372465637 
2055	 0.200247819268184 
2056	 0.200461088723649 
2057	 0.200655411666018 
2058	 0.200851926077259 
2059	 0.201049098425967 
2060	 0.201218349150818 
2061	 0.201430614516359 
2062	 0.201693847695026 
2063	 0.201908925848322 
2064	 0.202112837487014 
2065	 0.202324464780578 
2066	 0.202521889668393 
2067	 0.20270916645028 
2068	 0.202877983876449 
2069	 0.203098436074627 
2070	 0.203285723876728 
2071	 0.203444240525537 
2072	 0.203626868907275 
2073	 0.203830190910331 
2074	 0.20401020004574 
2075	 0.204181711406732 
2076	 0.204352969972655 
2077	 0.204506211728587 
2078	 0.204681251088107 
2079	 0.204872948688478 
2080	 0.205050321857299 
2081	 0.205224766783657 
2082	 0.205408070270715 
2083	 0.205584209194212 
2084	 0.205766687049832 
2085	 0.205956056745175 
2086	 0.206171647910286 
2087	 0.206353418577591 
2088	 0.206511134195588 
2089	 0.206695729525269 
2090	 0.20688729139543 
2091	 0.207063671019303 
2092	 0.207258577726798 
2093	 0.207429638665483 
2094	 0.207567285064852 
2095	 0.207714635984692 
2096	 0.20784539005528 
2097	 0.208000737430333 
2098	 0.208155125792634 
2099	 0.208340292967569 
2100	 0.208512507657403 
2101	 0.208701561790579 
2102	 0.208882869608625 
2103	 0.20905505657657 
2104	 0.209236392998146 
2105	 0.209432559199288 
2106	 0.209615421548211 
2107	 0.209796792866655 
2108	 0.209968535167217 
2109	 0.210109477608764 
2110	 0.210290663642063 
2111	 0.210495464518974 
2112	 0.210687115549842 
2113	 0.210899280602693 
2114	 0.211115038696391 
2115	 0.211294658028947 
2116	 0.211435317669555 
2117	 0.211608464340472 
2118	 0.211779580874483 
2119	 0.21195552009176 
2120	 0.212159516317036 
2121	 0.212322849979124 
2122	 0.212470017462613 
2123	 0.212607007610124 
2124	 0.21271620300224 
2125	 0.212832594237169 
2126	 0.212938172699637 
2127	 0.213051245723365 
2128	 0.213180110820289 
2129	 0.213285193988385 
2130	 0.213389904151754 
2131	 0.213473641114666 
2132	 0.213551597031002 
2133	 0.213603203116365 
2134	 0.213669107753097 
2135	 0.213728535115848 
2136	 0.213805255667396 
2137	 0.213914031599265 
2138	 0.213965155367445 
2139	 0.214010289177075 
2140	 0.214029729457083 
2141	 0.213983801875355 
2142	 0.213968236111249 
2143	 0.213980052054951 
2144	 0.213950757358599 
2145	 0.213895552038189 
2146	 0.213844225120846 
2147	 0.213756775369192 
2148	 0.213689485972241 
2149	 0.213623054004058 
2150	 0.213575952027913 
2151	 0.213502187712738 
2152	 0.21340977666924 
2153	 0.213336917809546 
2154	 0.213260723266502 
2155	 0.21318937385443 
2156	 0.21315581117532 
2157	 0.213071959748219 
2158	 0.212969515327326 
2159	 0.212848234358856 
2160	 0.212695340657167 
2161	 0.21253352945304 
2162	 0.212337994125469 
2163	 0.212162832241948 
2164	 0.211987400998649 
2165	 0.211803208634431 
2166	 0.211638385957376 
2167	 0.211495750030169 
2168	 0.211335856798672 
2169	 0.211168112922004 
2170	 0.211017225829384 
2171	 0.210861150477001 
2172	 0.210727947979126 
2173	 0.21062880231897 
2174	 0.21050280192779 
2175	 0.210393577082469 
2176	 0.210249457878879 
2177	 0.210070327410494 
2178	 0.209900278926721 
2179	 0.209715618877218 
2180	 0.209530531279408 
2181	 0.209360184330354 
2182	 0.209163727202502 
2183	 0.208916043061934 
2184	 0.208712271993433 
2185	 0.208522521106482 
2186	 0.208330068624509 
2187	 0.208159520265184 
2188	 0.208037417628168 
2189	 0.207881334106064 
2190	 0.207710299995503 
2191	 0.207553876748706 
2192	 0.207393974645835 
2193	 0.207248506222582 
2194	 0.207116361603565 
2195	 0.206981365327767 
2196	 0.206850324560115 
2197	 0.20672746433774 
2198	 0.206596917809716 
2199	 0.206490200873948 
2200	 0.206415327503218 
2201	 0.206327600610939 
2202	 0.206250907140167 
2203	 0.206162287408258 
2204	 0.206088514944594 
2205	 0.205996969542277 
2206	 0.205959114618174 
2207	 0.205958418664194 
2208	 0.205947358205305 
2209	 0.205961628848778 
2210	 0.205970132455584 
2211	 0.205958125326513 
2212	 0.205989550850789 
2213	 0.206067178299595 
2214	 0.206110364339698 
2215	 0.206157540698587 
2216	 0.206208246640226 
2217	 0.206242454647915 
2218	 0.206280177187276 
2219	 0.206340005575961 
2220	 0.206384329832425 
2221	 0.206395906285076 
2222	 0.206440445554233 
2223	 0.206489984334201 
2224	 0.206516538895533 
2225	 0.206555056083292 
2226	 0.206603548364244 
2227	 0.20662807840554 
2228	 0.206644851775836 
2229	 0.206655183684437 
2230	 0.206651631655374 
2231	 0.206647624922683 
2232	 0.206641345759671 
2233	 0.206628469794599 
2234	 0.20660257806434 
2235	 0.206582745310676 
2236	 0.206566794401416 
2237	 0.206540338196153 
2238	 0.206482534504594 
2239	 0.206472518609319 
2240	 0.206486008111921 
2241	 0.206496067776154 
2242	 0.206560247267425 
2243	 0.206583928768558 
2244	 0.206604099376216 
2245	 0.206569242208873 
2246	 0.206505217554685 
2247	 0.206467140805104 
2248	 0.206451465050486 
2249	 0.20644306804162 
2250	 0.206428131996911 
2251	 0.206442500452526 
2252	 0.206431260835461 
2253	 0.206374364314817 
2254	 0.206382027411763 
2255	 0.206437545928122 
2256	 0.206450749913927 
2257	 0.206469353692695 
2258	 0.206489424241088 
2259	 0.20650128779873 
2260	 0.206492172226863 
2261	 0.206486959902041 
2262	 0.20647038215054 
2263	 0.206404759338116 
2264	 0.206371009002357 
2265	 0.206355180206521 
2266	 0.206345337036536 
2267	 0.206349164460328 
2268	 0.206344186001369 
2269	 0.206338489509212 
2270	 0.206348087448563 
2271	 0.206345138337508 
2272	 0.206346337205942 
2273	 0.206340238728365 
2274	 0.206299997050595 
2275	 0.206275812710478 
2276	 0.206235918130884 
2277	 0.206199228701178 
2278	 0.206163376947819 
2279	 0.206149476658163 
2280	 0.206127408895524 
2281	 0.206125277149514 
2282	 0.206184008023349 
2283	 0.206173801852265 
2284	 0.206116210190639 
2285	 0.206095152447213 
2286	 0.206074214579173 
2287	 0.206032082824402 
2288	 0.205987385964673 
2289	 0.20596675470247 
2290	 0.205936311421789 
2291	 0.205905166494608 
2292	 0.205915193429486 
2293	 0.205887855927128 
2294	 0.205808579411913 
2295	 0.205755784045332 
2296	 0.205693337521719 
2297	 0.205673668217138 
2298	 0.205648523186162 
2299	 0.205629811025411 
2300	 0.205626200721824 
2301	 0.205604640522451 
2302	 0.205581065748832 
2303	 0.2055635441713 
2304	 0.205494565376453 
2305	 0.20541446437179 
2306	 0.205346156230252 
2307	 0.205261075644677 
2308	 0.205185261146907 
2309	 0.205129681996789 
2310	 0.20504512245641 
2311	 0.204935793601387 
2312	 0.204849601780526 
2313	 0.204759778940811 
2314	 0.204692909906701 
2315	 0.204646290644997 
2316	 0.204584189255787 
2317	 0.204533672695926 
2318	 0.20446329206896 
2319	 0.204386983623092 
2320	 0.204307178659144 
2321	 0.204220578437144 
2322	 0.204122555825764 
2323	 0.203980919780063 
2324	 0.203890484389244 
2325	 0.203822025693409 
2326	 0.20375042424256 
2327	 0.203707839452132 
2328	 0.203680268301381 
2329	 0.203593163230639 
2330	 0.203530883534264 
2331	 0.203476754560853 
2332	 0.203362936907123 
2333	 0.203279733383315 
2334	 0.203199948976 
2335	 0.203140457703261 
2336	 0.203149301255025 
2337	 0.203154525304047 
2338	 0.203125947718153 
2339	 0.203013219499271 
2340	 0.202885501623678 
2341	 0.202806844902077 
2342	 0.202719083006558 
2343	 0.20267270214262 
2344	 0.202653530074038 
2345	 0.202541694198625 
2346	 0.202340600176314 
2347	 0.20218295931001 
2348	 0.20198476550021 
2349	 0.201827401346547 
2350	 0.201712015460001 
2351	 0.201571980697358 
2352	 0.201419800152845 
2353	 0.201274743277619 
2354	 0.201131709547586 
2355	 0.200989392884414 
2356	 0.200871512453178 
2357	 0.200725640202812 
2358	 0.200535602117912 
2359	 0.200396838608428 
2360	 0.200265387981053 
2361	 0.200134048536838 
2362	 0.200048757777058 
2363	 0.199921664995718 
2364	 0.199764082855971 
2365	 0.199631991719386 
2366	 0.199509213712123 
2367	 0.199369938209302 
2368	 0.199230277850453 
2369	 0.199090890445513 
2370	 0.198914496243857 
2371	 0.198807819522162 
2372	 0.198684980520345 
2373	 0.198464448582174 
2374	 0.198295383459591 
2375	 0.198092632847788 
2376	 0.197906172390697 
2377	 0.19779155074521 
2378	 0.197619596066972 
2379	 0.197404458528953 
2380	 0.197200223333555 
2381	 0.197025559467984 
2382	 0.196821096376207 
2383	 0.196641681212313 
2384	 0.196491189169177 
2385	 0.19625629793233 
2386	 0.196009164887788 
2387	 0.195779986282882 
2388	 0.195488351336773 
2389	 0.195224322554553 
2390	 0.195035771239837 
2391	 0.194814468493538 
2392	 0.194622246417334 
2393	 0.194450028015772 
2394	 0.194244749062726 
2395	 0.194036702589895 
2396	 0.193790340673772 
2397	 0.193539729209949 
2398	 0.193263557385455 
2399	 0.193009915365535 
2400	 0.192865162801021 
2401	 0.192669996979149 
2402	 0.192458585399152 
2403	 0.192293060223443 
2404	 0.192141220354964 
2405	 0.192043279228124 
2406	 0.191849947784892 
2407	 0.191619119172869 
2408	 0.191330055964557 
2409	 0.190868632641144 
2410	 0.190553296124295 
2411	 0.19039555447283 
2412	 0.190131875405686 
2413	 0.189876800397502 
2414	 0.189653221862922 
2415	 0.189332905725724 
2416	 0.189057904978692 
2417	 0.18881222805879 
2418	 0.188591159201268 
2419	 0.188431556804571 
2420	 0.188181782996015 
2421	 0.187926028194597 
2422	 0.187643065117518 
2423	 0.187266437269031 
2424	 0.186894053707761 
2425	 0.186460276945168 
2426	 0.186112044039505 
2427	 0.185824064008493 
2428	 0.185505116909293 
2429	 0.185238672199366 
2430	 0.184988591603632 
2431	 0.184672694990792 
2432	 0.184438378137662 
2433	 0.184352575399475 
2434	 0.184068335383079 
2435	 0.183681105175638 
2436	 0.183389185233678 
2437	 0.183025691643095 
2438	 0.18275336144979 
2439	 0.182642506467838 
2440	 0.182382664542986 
2441	 0.182047957543444 
2442	 0.181704279026989 
2443	 0.181321361849115 
2444	 0.180939468177163 
2445	 0.180435518443105 
2446	 0.180099123068009 
2447	 0.179907925874374 
2448	 0.179633900915056 
2449	 0.179438901363372 
2450	 0.179202904959426 
2451	 0.178861249002895 
2452	 0.178546816382346 
2453	 0.178242794472644 
2454	 0.177988879246954 
2455	 0.177808937592011 
2456	 0.177539201018903 
2457	 0.177216088613197 
2458	 0.176966245386398 
2459	 0.176681083187986 
2460	 0.17640479691612 
2461	 0.176268496818834 
2462	 0.176006407639172 
2463	 0.175605909726643 
2464	 0.175280560375326 
2465	 0.174924720379415 
2466	 0.17463706844806 
2467	 0.174470884868668 
2468	 0.174175123853605 
2469	 0.173836566783619 
2470	 0.173626578565825 
2471	 0.173234610221842 
2472	 0.172924358249271 
2473	 0.172588228437394 
2474	 0.172086505785849 
2475	 0.17163694013619 
2476	 0.171286281694707 
2477	 0.171012091764701 
2478	 0.170734919478138 
2479	 0.170513673465706 
2480	 0.170348128437316 
2481	 0.170107026264338 
2482	 0.169869061353809 
2483	 0.169775019904454 
2484	 0.169583130656431 
2485	 0.169363700745797 
2486	 0.169376776813544 
2487	 0.169221136177924 
2488	 0.16897592466816 
2489	 0.168818802267346 
2490	 0.168488771216714 
2491	 0.168124697133755 
2492	 0.167820644235479 
2493	 0.167423436754566 
2494	 0.166988778150494 
2495	 0.166683315206571 
2496	 0.166479847724445 
2497	 0.166460704405321 
2498	 0.166464809547032 
2499	 0.166347146445056 
2500	 0.166243034629755 
