Wavelength	mm1300004.asd
350	 7.10156113061182E-02 
351	 7.65540853685068E-02 
352	 6.79434116356078E-02 
353	 5.37061580558958E-02 
354	 6.43302306159337E-02 
355	 6.71065250093035E-02 
356	 6.67170288401928E-02 
357	 7.27209928158413E-02 
358	 7.39924242142821E-02 
359	 7.10663554972083E-02 
360	 6.61439431000481E-02 
361	 6.22153916929893E-02 
362	 5.93896239881476E-02 
363	 6.01340060305577E-02 
364	 6.42027035673578E-02 
365	 6.75870765823205E-02 
366	 6.34822445213508E-02 
367	 6.06803101676423E-02 
368	 6.66959443985539E-02 
369	 6.68689910019065E-02 
370	 0.065517542500253 
371	 6.52978167459442E-02 
372	 6.69645593551337E-02 
373	 6.73339098845344E-02 
374	 0.067384944179763 
375	 6.82176382749076E-02 
376	 7.04323811670314E-02 
377	 6.85492069231818E-02 
378	 6.70928621874653E-02 
379	 7.07598956914244E-02 
380	 7.18658150909648E-02 
381	 6.89440891835547E-02 
382	 6.65387127166731E-02 
383	 7.20313802918187E-02 
384	 7.23774194296146E-02 
385	 7.01311437088878E-02 
386	 6.91010309538083E-02 
387	 0.071020374372986 
388	 7.25332390570796E-02 
389	 7.28967767255899E-02 
390	 7.26011900378061E-02 
391	 7.34351110320597E-02 
392	 7.36694243761508E-02 
393	 7.39926007765137E-02 
394	 7.69135642501037E-02 
395	 7.89016345696812E-02 
396	 7.87196212762603E-02 
397	 7.72249430941522E-02 
398	 0.078959022308612 
399	 7.91512819726777E-02 
400	 7.89271763344401E-02 
401	 0.08049523812492 
402	 7.92721194949365E-02 
403	 7.78025436846854E-02 
404	 7.80042321488364E-02 
405	 8.05212784840248E-02 
406	 8.09615962152564E-02 
407	 8.14048195721953E-02 
408	 8.31537375968467E-02 
409	 8.19570448595925E-02 
410	 8.10175644882196E-02 
411	 8.07795014375747E-02 
412	 8.05067576375575E-02 
413	 8.11943650705289E-02 
414	 0.081361939354346 
415	 8.08628984046277E-02 
416	 8.14681955919516E-02 
417	 8.20102007198046E-02 
418	 8.22267738499665E-02 
419	 8.22218446685237E-02 
420	 8.26173831345046E-02 
421	 8.22778631521741E-02 
422	 8.17740919183085E-02 
423	 8.25384301154067E-02 
424	 8.25532112173483E-02 
425	 8.22928869231017E-02 
426	 8.22547453039162E-02 
427	 8.24018501465014E-02 
428	 8.23999563952955E-02 
429	 0.082216128757898 
430	 8.19886359341123E-02 
431	 8.20920783150051E-02 
432	 8.22842562725076E-02 
433	 8.25048055519269E-02 
434	 8.28859948050044E-02 
435	 8.31240973573191E-02 
436	 8.30224136077609E-02 
437	 8.26440149206377E-02 
438	 8.26047878344308E-02 
439	 8.27548141660086E-02 
440	 8.30384646446586E-02 
441	 8.33901173776876E-02 
442	 8.33526923421704E-02 
443	 8.34116569050935E-02 
444	 8.36880761112153E-02 
445	 8.36254744005412E-02 
446	 8.34614132682704E-02 
447	 8.33697482675339E-02 
448	 8.34905926632869E-02 
449	 8.39072099623692E-02 
450	 8.42251390122256E-02 
451	 8.43130233327113E-02 
452	 8.42880555916586E-02 
453	 8.42971000242715E-02 
454	 8.42217556298014E-02 
455	 8.40619590390542E-02 
456	 8.42262331433899E-02 
457	 8.45725009448152E-02 
458	 8.47290379257114E-02 
459	 8.43925315162197E-02 
460	 8.46493017142734E-02 
461	 8.47411340656819E-02 
462	 8.45181334385773E-02 
463	 8.49184775956055E-02 
464	 8.48715973350176E-02 
465	 8.46682724309823E-02 
466	 8.48164734163871E-02 
467	 8.51090948831175E-02 
468	 0.085358498180052 
469	 8.53714201637176E-02 
470	 8.50175193240023E-02 
471	 8.51270280866712E-02 
472	 8.53850815491256E-02 
473	 8.54520247890796E-02 
474	 0.085427153652151 
475	 0.085203292377914 
476	 8.51053269984108E-02 
477	 8.55072069411312E-02 
478	 8.57075467226293E-02 
479	 8.57654771840521E-02 
480	 8.57901848278136E-02 
481	 8.58578355118644E-02 
482	 8.58886452993574E-02 
483	 8.59623859346407E-02 
484	 8.61262081237589E-02 
485	 8.61255734671177E-02 
486	 8.61203290819346E-02 
487	 8.61570580538553E-02 
488	 8.61815587904419E-02 
489	 8.62418850584587E-02 
490	 8.62642204136266E-02 
491	 8.62377033688575E-02 
492	 8.63580214473878E-02 
493	 8.65061370707877E-02 
494	 8.65085949519706E-02 
495	 8.62707678185314E-02 
496	 8.65046960853565E-02 
497	 8.67112724000004E-02 
498	 8.66702049312202E-02 
499	 8.67484768025674E-02 
500	 8.67404527139494E-02 
501	 8.67031918542268E-02 
502	 0.086731907799757 
503	 0.086746591503258 
504	 8.68322343891002E-02 
505	 8.69430587719866E-02 
506	 0.086923202916744 
507	 8.69477014504578E-02 
508	 8.70990903278302E-02 
509	 8.72976282172924E-02 
510	 8.70507809807451E-02 
511	 8.69948286786711E-02 
512	 8.71480652345616E-02 
513	 8.72142164425765E-02 
514	 8.73214007842114E-02 
515	 8.74541038468904E-02 
516	 8.75524909491537E-02 
517	 8.74937464534735E-02 
518	 8.74936549784892E-02 
519	 8.75459351287814E-02 
520	 8.75880648200173E-02 
521	 8.77007443239001E-02 
522	 8.77366771475385E-02 
523	 8.77193118597425E-02 
524	 8.78546724926732E-02 
525	 8.78350781074406E-02 
526	 8.78031503434527E-02 
527	 8.79208610602243E-02 
528	 8.81083740181291E-02 
529	 8.81510297212772E-02 
530	 8.80996953650547E-02 
531	 8.81663714285261E-02 
532	 8.82086625654373E-02 
533	 8.82692206716701E-02 
534	 8.83706603744654E-02 
535	 8.84507930640673E-02 
536	 8.84573367534168E-02 
537	 8.84738587961941E-02 
538	 8.86049779261196E-02 
539	 8.86798602764798E-02 
540	 8.87727604185395E-02 
541	 8.88903845462169E-02 
542	 8.89238087925989E-02 
543	 0.088972820823972 
544	 8.90518323381775E-02 
545	 8.91426741334798E-02 
546	 8.92021072603831E-02 
547	 8.92231131521632E-02 
548	 0.089283494290296 
549	 8.95106557873422E-02 
550	 8.95691505209508E-02 
551	 0.089590211888077 
552	 8.97114484179998E-02 
553	 8.98618848890608E-02 
554	 8.99538310566868E-02 
555	 9.00536164206461E-02 
556	 9.02873261828741E-02 
557	 9.05015405402244E-02 
558	 9.06826257390843E-02 
559	 9.08547507238201E-02 
560	 0.091083970764534 
561	 9.12310759677219E-02 
562	 9.13869265212644E-02 
563	 9.16683928421844E-02 
564	 9.18738261123092E-02 
565	 9.20282537473179E-02 
566	 9.21554094172209E-02 
567	 9.22631955447318E-02 
568	 9.25029338884682E-02 
569	 9.28125554747609E-02 
570	 9.31260209071268E-02 
571	 9.35731308544999E-02 
572	 9.39762044068787E-02 
573	 0.094302274591944 
574	 9.46287545845619E-02 
575	 9.50007057546768E-02 
576	 9.54104500197275E-02 
577	 9.58238630535712E-02 
578	 9.61704257697504E-02 
579	 0.096497791674336 
580	 0.096838770816943 
581	 9.72126514429029E-02 
582	 9.75781465720713E-02 
583	 9.79136611220034E-02 
584	 9.82739451046346E-02 
585	 9.88203349534594E-02 
586	 9.94397058705375E-02 
587	 0.10004825546072 
588	 0.100601676635149 
589	 0.101191273315787 
590	 0.101807987147781 
591	 0.102414066307865 
592	 0.102955748288221 
593	 0.103504214848821 
594	 0.104029809442 
595	 0.104475309830558 
596	 0.104743671407059 
597	 0.105067220879532 
598	 0.105464007091974 
599	 0.105840576320893 
600	 0.106243641689287 
601	 0.106709563201393 
602	 0.107226130094872 
603	 0.107699560444469 
604	 0.108178072668455 
605	 0.10865185717015 
606	 0.109106693893647 
607	 0.109608817043447 
608	 0.110094473942253 
609	 0.110557149084218 
610	 0.111062367833144 
611	 0.111442411448236 
612	 0.111756795628183 
613	 0.112076255356953 
614	 0.112299425064613 
615	 0.112562176519594 
616	 0.112855029143633 
617	 0.113075442529658 
618	 0.113344675821708 
619	 0.113640150366165 
620	 0.113911726319691 
621	 0.114086180938763 
622	 0.114282025861926 
623	 0.114507298578157 
624	 0.114722730072674 
625	 0.114904639847524 
626	 0.115065300990691 
627	 0.115242012720357 
628	 0.115501154313398 
629	 0.115646719286136 
630	 0.115787600394389 
631	 0.116028372071666 
632	 0.116094903517107 
633	 0.116228917886784 
634	 0.116436187203061 
635	 0.116536104091518 
636	 0.116733314467555 
637	 0.116929857393968 
638	 0.117049141598917 
639	 0.117191415756794 
640	 0.117349768490781 
641	 0.117516482836871 
642	 0.117684813631253 
643	 0.117894101300748 
644	 0.118069390973183 
645	 0.118187890205928 
646	 0.118315296902902 
647	 0.118455966161192 
648	 0.118617001360662 
649	 0.11879869853892 
650	 0.11898504946107 
651	 0.119163473497187 
652	 0.119338804776651 
653	 0.11953063426431 
654	 0.119743967612316 
655	 0.119916227084494 
656	 0.120039547963906 
657	 0.120275005791592 
658	 0.120495829415736 
659	 0.120686529705585 
660	 0.120883840131085 
661	 0.121091540643588 
662	 0.121342772330453 
663	 0.12160328948171 
664	 0.121736372121938 
665	 0.121948547331349 
666	 0.122186555361691 
667	 0.122366445970083 
668	 0.122609091502152 
669	 0.122863998866416 
670	 0.123109250558957 
671	 0.123350368723759 
672	 0.123583118227964 
673	 0.123838252876057 
674	 0.124124472659044 
675	 0.124387103919605 
676	 0.124636542493144 
677	 0.124896079177811 
678	 0.125185808363767 
679	 0.125444575651719 
680	 0.125732480137323 
681	 0.126059599156617 
682	 0.126359054281566 
683	 0.126619731339973 
684	 0.126881583305321 
685	 0.127187837558873 
686	 0.127544883781902 
687	 0.127861192949778 
688	 0.12814704344545 
689	 0.128481169902049 
690	 0.128817526526962 
691	 0.129155800818543 
692	 0.129501253580707 
693	 0.129863606781139 
694	 0.130174389830052 
695	 0.130492066986841 
696	 0.130884721815454 
697	 0.131190939404666 
698	 0.131509222373774 
699	 0.131872780313417 
700	 0.132229989615044 
701	 0.132572490696312 
702	 0.132923951296078 
703	 0.133291062035376 
704	 0.133604792857644 
705	 0.133956604888141 
706	 0.134340366817564 
707	 0.134700923822622 
708	 0.13505089491907 
709	 0.135402304390071 
710	 0.135761564781488 
711	 0.136128182329409 
712	 0.136471020040209 
713	 0.136773370515368 
714	 0.137056655891822 
715	 0.137468804037326 
716	 0.137814294030429 
717	 0.138094981365574 
718	 0.138451213876775 
719	 0.138783872081188 
720	 0.13907766694836 
721	 0.139344558926572 
722	 0.139627036426645 
723	 0.139887838628698 
724	 0.140162511739952 
725	 0.140483865267554 
726	 0.140750101018355 
727	 0.140987115612074 
728	 0.141211910747037 
729	 0.141428124861637 
730	 0.141662908692186 
731	 0.14187751542066 
732	 0.14205441040378 
733	 0.142257596812399 
734	 0.142441698856786 
735	 0.142587877568739 
736	 0.14270321774263 
737	 0.142880506595051 
738	 0.143037658116078 
739	 0.143149083590559 
740	 0.143263878818029 
741	 0.143339134095018 
742	 0.143394260430351 
743	 0.143454379026661 
744	 0.14352616966881 
745	 0.143579221878407 
746	 0.143613266243931 
747	 0.143638009607128 
748	 0.143617349007879 
749	 0.143583490214475 
750	 0.143572525888834 
751	 0.143614682737366 
752	 0.143565335648049 
753	 0.143453988920823 
754	 0.143349370884965 
755	 0.143301560126255 
756	 0.143259595502079 
757	 0.143182871695837 
758	 0.143052948508364 
759	 0.142961370573831 
760	 0.142861492347228 
761	 0.142732127650095 
762	 0.14260055600213 
763	 0.142448513879222 
764	 0.142293084875975 
765	 0.142149407235782 
766	 0.142002452309344 
767	 0.141853829138037 
768	 0.141714466025719 
769	 0.141591019829193 
770	 0.141431565307228 
771	 0.141235025964039 
772	 0.141022974109847 
773	 0.140835878390626 
774	 0.140656352421316 
775	 0.140473642643265 
776	 0.140285100472493 
777	 0.140110514862182 
778	 0.139908352476678 
779	 0.139703627462147 
780	 0.139537243670504 
781	 0.139337628237279 
782	 0.139149836085062 
783	 0.138981218203168 
784	 0.138791436631047 
785	 0.138575802177205 
786	 0.138366661326108 
787	 0.138177445985303 
788	 0.137951988439978 
789	 0.137784826108342 
790	 0.137616308024188 
791	 0.137367935380739 
792	 0.137187341938488 
793	 0.137026075132727 
794	 0.136850950234562 
795	 0.136652779122995 
796	 0.136430578105978 
797	 0.136254504079038 
798	 0.136139346791943 
799	 0.13598326535067 
800	 0.135814056846586 
801	 0.135628689898045 
802	 0.135428249504486 
803	 0.135252277668577 
804	 0.135095314230828 
805	 0.134940976562616 
806	 0.134770572422534 
807	 0.134600472159942 
808	 0.134458213039674 
809	 0.134323052815586 
810	 0.134114747087351 
811	 0.133963598131158 
812	 0.133823308974397 
813	 0.13366268482029 
814	 0.133613160344521 
815	 0.133520398074205 
816	 0.133370050898289 
817	 0.133209487378243 
818	 0.133055540424976 
819	 0.13294389478244 
820	 0.132853729714835 
821	 0.132724454419008 
822	 0.132630420825066 
823	 0.132535297908127 
824	 0.1324180777309 
825	 0.132308468352924 
826	 0.132240392268107 
827	 0.13216235789207 
828	 0.132035703077049 
829	 0.131945411806719 
830	 0.131814029371826 
831	 0.13169699405663 
832	 0.131684283743482 
833	 0.13166206738266 
834	 0.131594107692707 
835	 0.131498653817156 
836	 0.131438468304687 
837	 0.131430715779373 
838	 0.131391442603753 
839	 0.131284425841928 
840	 0.131181144733414 
841	 0.131135782876188 
842	 0.131099407658717 
843	 0.131032327243552 
844	 0.131030076266775 
845	 0.13102460025914 
846	 0.130989967228965 
847	 0.130940414104908 
848	 0.130991201418913 
849	 0.130984570274105 
850	 0.130894533544109 
851	 0.13082086472026 
852	 0.130753860788318 
853	 0.130771571123115 
854	 0.130852628325368 
855	 0.130826095830019 
856	 0.130848566862228 
857	 0.130905128884472 
858	 0.13094117062939 
859	 0.130902705095076 
860	 0.130884101381138 
861	 0.130912026060807 
862	 0.130967573902893 
863	 0.13096107974198 
864	 0.130993419862528 
865	 0.131073821336154 
866	 0.131141886241606 
867	 0.131115270413231 
868	 0.131113306379216 
869	 0.131172358845446 
870	 0.131225627414015 
871	 0.131280602609892 
872	 0.131355528289324 
873	 0.131441177940251 
874	 0.131482158568622 
875	 0.131548843306144 
876	 0.131633285762261 
877	 0.13170225141609 
878	 0.131700168671449 
879	 0.131796301530145 
880	 0.131922088018506 
881	 0.131974652848342 
882	 0.13209235349515 
883	 0.132235036045975 
884	 0.13233664095626 
885	 0.13236082595846 
886	 0.13252192026526 
887	 0.132645371134233 
888	 0.132721465787943 
889	 0.132880999857335 
890	 0.132936558491569 
891	 0.133018649722941 
892	 0.133187885171222 
893	 0.133364362737208 
894	 0.133491763300241 
895	 0.13361319408722 
896	 0.133761566137086 
897	 0.133910942619531 
898	 0.134063990334103 
899	 0.134223911420341 
900	 0.134385190775416 
901	 0.134515198816448 
902	 0.134672000185049 
903	 0.134850833845504 
904	 0.135028884935398 
905	 0.135212896593795 
906	 0.135360429060015 
907	 0.135537007383825 
908	 0.135817788911722 
909	 0.136065181040403 
910	 0.136222047389193 
911	 0.136339329354891 
912	 0.136523967368786 
913	 0.136744758920907 
914	 0.136991477296524 
915	 0.137234278798523 
916	 0.137436605173197 
917	 0.137647859031401 
918	 0.13790149018915 
919	 0.138154349848834 
920	 0.138300960320681 
921	 0.138577974622297 
922	 0.138867179942822 
923	 0.139096117387285 
924	 0.13934912985514 
925	 0.139562256207403 
926	 0.139792244328176 
927	 0.140075223119647 
928	 0.140363485693868 
929	 0.1406706621671 
930	 0.140976000826584 
931	 0.141255147411485 
932	 0.141489406239695 
933	 0.141852132164686 
934	 0.142203629894676 
935	 0.142430655307521 
936	 0.142781252905498 
937	 0.143048669301886 
938	 0.14329782629373 
939	 0.143630306239373 
940	 0.143942907854382 
941	 0.144278697218025 
942	 0.144687323277966 
943	 0.145160741075217 
944	 0.145476007970651 
945	 0.145770956284819 
946	 0.146084116191559 
947	 0.146399449533202 
948	 0.146688116809767 
949	 0.147085369730513 
950	 0.147487130234836 
951	 0.147750529621156 
952	 0.148194461036736 
953	 0.14858373718906 
954	 0.148921619185315 
955	 0.14934782189952 
956	 0.149876525476596 
957	 0.150281053074747 
958	 0.150589133410023 
959	 0.150971493445895 
960	 0.151370932694386 
961	 0.1517977893898 
962	 0.152214623397165 
963	 0.1525852183643 
964	 0.153072677327764 
965	 0.153557046649452 
966	 0.15399882278648 
967	 0.154427488192254 
968	 0.154836648970923 
969	 0.155228759579746 
970	 0.155621104708189 
971	 0.15602975726596 
972	 0.156405273785319 
973	 0.156879698105421 
974	 0.157440260358328 
975	 0.157958692106212 
976	 0.158311500821808 
977	 0.15876507185984 
978	 0.159298563472528 
979	 0.15971757687335 
980	 0.16010567190678 
981	 0.160584878768921 
982	 0.161081051246274 
983	 0.161460767836513 
984	 0.161982864754384 
985	 0.162404013629 
986	 0.162760437616552 
987	 0.163245214297589 
988	 0.163896742247912 
989	 0.164426222712845 
990	 0.164790996439973 
991	 0.165123961534925 
992	 0.165595426021998 
993	 0.166100252400333 
994	 0.16661882236874 
995	 0.167135636480378 
996	 0.167470127535278 
997	 0.167891363539929 
998	 0.168409284566009 
999	 0.168939734301202 
1000	 0.169513048157235 
1001	 0.169405888426076 
1002	 0.16983875560694 
1003	 0.17032350829322 
1004	 0.170770835919877 
1005	 0.171250981255717 
1006	 0.171686859176348 
1007	 0.172112304739408 
1008	 0.172437106941971 
1009	 0.172763411566056 
1010	 0.173175346290966 
1011	 0.173606386261717 
1012	 0.17403242493853 
1013	 0.174468520327365 
1014	 0.17490635688962 
1015	 0.175250054952114 
1016	 0.175556374929658 
1017	 0.175908588069365 
1018	 0.176271849645512 
1019	 0.176603788925375 
1020	 0.176934567105617 
1021	 0.177314080237713 
1022	 0.177670531244188 
1023	 0.177938069414684 
1024	 0.178274737812096 
1025	 0.178679759209934 
1026	 0.178984852851758 
1027	 0.179281582773114 
1028	 0.179614649485967 
1029	 0.179896609602988 
1030	 0.180208270426669 
1031	 0.180525167703214 
1032	 0.180894568047748 
1033	 0.181201031423165 
1034	 0.18147702258772 
1035	 0.18174860541656 
1036	 0.182027021669179 
1037	 0.182314625730372 
1038	 0.182619588416907 
1039	 0.182942747103838 
1040	 0.183238245667889 
1041	 0.183551292904732 
1042	 0.183879855238257 
1043	 0.184152558700459 
1044	 0.184429527699369 
1045	 0.184693266216949 
1046	 0.184992798318381 
1047	 0.185282873727193 
1048	 0.18560263331154 
1049	 0.185945738445185 
1050	 0.186243466655998 
1051	 0.186529846175318 
1052	 0.18680653105484 
1053	 0.187104476660928 
1054	 0.187428157784076 
1055	 0.187738943583445 
1056	 0.188021486790597 
1057	 0.188313123184126 
1058	 0.188591299514961 
1059	 0.18888967363349 
1060	 0.189196640865271 
1061	 0.189512271129353 
1062	 0.189804358739295 
1063	 0.190076781540912 
1064	 0.190352339908106 
1065	 0.190637923146044 
1066	 0.190940080109303 
1067	 0.191202400912965 
1068	 0.191441357550033 
1069	 0.191735217641817 
1070	 0.192025722982786 
1071	 0.192336221539165 
1072	 0.192626693470998 
1073	 0.192927672680051 
1074	 0.193193231702891 
1075	 0.193417730084073 
1076	 0.19369032713166 
1077	 0.19394329242742 
1078	 0.194130541530639 
1079	 0.194362492929861 
1080	 0.194596975518699 
1081	 0.194801610749874 
1082	 0.195075996579642 
1083	 0.195308158845814 
1084	 0.195515328232112 
1085	 0.195724301693357 
1086	 0.195920082836405 
1087	 0.196117288870589 
1088	 0.196300533586661 
1089	 0.196515472131947 
1090	 0.196737126112413 
1091	 0.196968135913878 
1092	 0.197172726033452 
1093	 0.197357889631442 
1094	 0.197544084407937 
1095	 0.197723023288344 
1096	 0.197946851217396 
1097	 0.198181308982523 
1098	 0.198395810992348 
1099	 0.198606061923936 
1100	 0.19881482123311 
1101	 0.199016751387444 
1102	 0.199217169893113 
1103	 0.19942987070171 
1104	 0.199614887836667 
1105	 0.199785376133339 
1106	 0.199934740141617 
1107	 0.200069804986004 
1108	 0.200253510317314 
1109	 0.200418744888728 
1110	 0.200588197437216 
1111	 0.200787186998175 
1112	 0.20101557234573 
1113	 0.201203251605259 
1114	 0.201400351328016 
1115	 0.201587452504041 
1116	 0.201729932544237 
1117	 0.201909694480612 
1118	 0.202117002926544 
1119	 0.20231723348968 
1120	 0.202495440931227 
1121	 0.202699428975887 
1122	 0.202897089168308 
1123	 0.203071282509949 
1124	 0.203257100435047 
1125	 0.203456380746274 
1126	 0.203631610785417 
1127	 0.203788778631009 
1128	 0.20396173798638 
1129	 0.204137996337881 
1130	 0.20430514575365 
1131	 0.20447703797718 
1132	 0.204640019470851 
1133	 0.204777917227478 
1134	 0.204936414415909 
1135	 0.205103897329678 
1136	 0.20527346111282 
1137	 0.2054457643439 
1138	 0.205618888394495 
1139	 0.20577910137363 
1140	 0.20592403162392 
1141	 0.206080367190558 
1142	 0.20624224447369 
1143	 0.206389573776419 
1144	 0.206537417012347 
1145	 0.206673352956036 
1146	 0.206785329530732 
1147	 0.206913051113439 
1148	 0.20703803795589 
1149	 0.207173690421162 
1150	 0.207327830939761 
1151	 0.207479380191883 
1152	 0.207595374691832 
1153	 0.207699639114123 
1154	 0.207825777658906 
1155	 0.20793304939062 
1156	 0.208068646645901 
1157	 0.208244775507169 
1158	 0.20839259765889 
1159	 0.208536448995559 
1160	 0.208669203309635 
1161	 0.208792964890155 
1162	 0.208917404884406 
1163	 0.209032159001528 
1164	 0.209148418654898 
1165	 0.209256027161093 
1166	 0.209379965456605 
1167	 0.209515116366529 
1168	 0.209643187905481 
1169	 0.209772427966692 
1170	 0.20991416908538 
1171	 0.210042554242054 
1172	 0.210163107133404 
1173	 0.21028162503106 
1174	 0.210394950125805 
1175	 0.210511428580729 
1176	 0.210624087289541 
1177	 0.210737141388079 
1178	 0.210845134174468 
1179	 0.210969373823853 
1180	 0.211117751573122 
1181	 0.211235712176266 
1182	 0.211349357800532 
1183	 0.211457148008004 
1184	 0.211565006279973 
1185	 0.211645531439446 
1186	 0.211753674865637 
1187	 0.211889067144894 
1188	 0.211996144658318 
1189	 0.212085076497471 
1190	 0.212193347458277 
1191	 0.212305916686636 
1192	 0.212412886999752 
1193	 0.212529689093092 
1194	 0.212640540744105 
1195	 0.212741504365687 
1196	 0.212841947246166 
1197	 0.212952393249587 
1198	 0.213049181956955 
1199	 0.213137936296201 
1200	 0.213211244532663 
1201	 0.213300971024433 
1202	 0.213387803641124 
1203	 0.213481954785578 
1204	 0.213590122043075 
1205	 0.213685465310431 
1206	 0.213779682245541 
1207	 0.213867563452664 
1208	 0.213948161515668 
1209	 0.214030627663332 
1210	 0.214111845095408 
1211	 0.214188786136419 
1212	 0.214240219059524 
1213	 0.214329513545644 
1214	 0.214446935930067 
1215	 0.214550284994444 
1216	 0.214659095603059 
1217	 0.214804697250984 
1218	 0.214895995136847 
1219	 0.214957974279089 
1220	 0.21501974007353 
1221	 0.215049671019261 
1222	 0.215114219368375 
1223	 0.215184423500783 
1224	 0.215257195039206 
1225	 0.215356159028242 
1226	 0.215435511125463 
1227	 0.215501995377624 
1228	 0.215571967876259 
1229	 0.215640243410465 
1230	 0.215707765063305 
1231	 0.215774332817763 
1232	 0.215839854247525 
1233	 0.215904240516189 
1234	 0.215962570131231 
1235	 0.216033288873232 
1236	 0.216112812726469 
1237	 0.216182531252655 
1238	 0.216256932177558 
1239	 0.21632468766478 
1240	 0.216382837517612 
1241	 0.216441650310275 
1242	 0.216505446813481 
1243	 0.21656043175417 
1244	 0.216597759496699 
1245	 0.21665205645465 
1246	 0.216713815897439 
1247	 0.216770105515972 
1248	 0.216829429180974 
1249	 0.216895822206354 
1250	 0.21695203870606 
1251	 0.217010698535517 
1252	 0.217062008976981 
1253	 0.217110810337288 
1254	 0.217162846559215 
1255	 0.217209483153646 
1256	 0.21726001017457 
1257	 0.217328407106287 
1258	 0.217369633563748 
1259	 0.21739268749739 
1260	 0.217421300778824 
1261	 0.217428467714268 
1262	 0.217455240777324 
1263	 0.217492168383672 
1264	 0.217532930250247 
1265	 0.217591525140985 
1266	 0.217640579023831 
1267	 0.217692094224258 
1268	 0.21772976263589 
1269	 0.217784024550861 
1270	 0.217836066116208 
1271	 0.217892336071337 
1272	 0.217963720550886 
1273	 0.218026563810636 
1274	 0.218080482819719 
1275	 0.218142224552176 
1276	 0.218199285015621 
1277	 0.21827721804505 
1278	 0.218367197127432 
1279	 0.218460781326421 
1280	 0.218582645752034 
1281	 0.21868086312687 
1282	 0.218760303050401 
1283	 0.218853078709778 
1284	 0.21894099525425 
1285	 0.219034466939247 
1286	 0.219148607608185 
1287	 0.219270585587939 
1288	 0.219375192328465 
1289	 0.219483803556109 
1290	 0.219573050652068 
1291	 0.219634911347999 
1292	 0.219722610463698 
1293	 0.219815751751723 
1294	 0.219901566395266 
1295	 0.220002758610405 
1296	 0.220083735518019 
1297	 0.220158024594112 
1298	 0.220212257977323 
1299	 0.220241044959393 
1300	 0.220283505803821 
1301	 0.220315196997181 
1302	 0.220345537088313 
1303	 0.22038790119022 
1304	 0.220422745763016 
1305	 0.220430795911318 
1306	 0.220442697136668 
1307	 0.220451701915731 
1308	 0.220454936721115 
1309	 0.220448979133686 
1310	 0.220444333819557 
1311	 0.220414593273768 
1312	 0.220359243217737 
1313	 0.220317343683065 
1314	 0.220254565343944 
1315	 0.220219886218521 
1316	 0.22021063476565 
1317	 0.220187671470913 
1318	 0.220171137459002 
1319	 0.220148877156622 
1320	 0.220125930252132 
1321	 0.220086207143776 
1322	 0.220028036384998 
1323	 0.21998843858351 
1324	 0.219941959027793 
1325	 0.219904025935289 
1326	 0.219887285227084 
1327	 0.219848088890989 
1328	 0.219797130346291 
1329	 0.219754838812509 
1330	 0.2196981959223 
1331	 0.219633122935366 
1332	 0.219573022612005 
1333	 0.219507646351067 
1334	 0.219440793490123 
1335	 0.219367488820066 
1336	 0.219308433536766 
1337	 0.21924399947402 
1338	 0.219197047158004 
1339	 0.219181666514353 
1340	 0.219145763801732 
1341	 0.219108210622697 
1342	 0.219064854445088 
1343	 0.219014827159902 
1344	 0.218955165154132 
1345	 0.218892199604538 
1346	 0.218856177711959 
1347	 0.218805267319698 
1348	 0.218761462410664 
1349	 0.218729447800838 
1350	 0.218670232200672 
1351	 0.218624439289536 
1352	 0.218589450955686 
1353	 0.21853235531092 
1354	 0.218468708570894 
1355	 0.218402714231214 
1356	 0.218313704636029 
1357	 0.218244675818577 
1358	 0.218179597243547 
1359	 0.218122762100291 
1360	 0.218075430411455 
1361	 0.218029695629457 
1362	 0.217994685002256 
1363	 0.217956864009637 
1364	 0.217916462617643 
1365	 0.217882852686755 
1366	 0.217862516887015 
1367	 0.217820696266384 
1368	 0.217786668162781 
1369	 0.217756352981419 
1370	 0.217704400428771 
1371	 0.217643366116447 
1372	 0.217570804066225 
1373	 0.217485414478654 
1374	 0.217394201621714 
1375	 0.217308410677394 
1376	 0.217179830339975 
1377	 0.217031452075236 
1378	 0.216861942162427 
1379	 0.216644396499183 
1380	 0.216446860951462 
1381	 0.216257997083634 
1382	 0.216039142404764 
1383	 0.215814964090232 
1384	 0.215567355968739 
1385	 0.21529390430896 
1386	 0.215011773890398 
1387	 0.214722330540529 
1388	 0.214412147779188 
1389	 0.214092055042222 
1390	 0.213739110794812 
1391	 0.213364259359497 
1392	 0.212972992818956 
1393	 0.21255785637512 
1394	 0.212115825687793 
1395	 0.211632743962928 
1396	 0.211148959413438 
1397	 0.210663619940513 
1398	 0.210150434997902 
1399	 0.209662051294855 
1400	 0.209186176757389 
1401	 0.208708222190406 
1402	 0.208223481830767 
1403	 0.207764603232459 
1404	 0.207313784591702 
1405	 0.206882683888202 
1406	 0.20647401630921 
1407	 0.206070460968572 
1408	 0.205662679425133 
1409	 0.205294975209519 
1410	 0.204938224162299 
1411	 0.204623282704676 
1412	 0.204342252718752 
1413	 0.204097611942772 
1414	 0.203886762220421 
1415	 0.203696134204279 
1416	 0.203537118403 
1417	 0.203395427348385 
1418	 0.20326482349458 
1419	 0.203152156675861 
1420	 0.203048139473941 
1421	 0.202959956866198 
1422	 0.202883267228997 
1423	 0.202796579183614 
1424	 0.202697614843193 
1425	 0.202582313819068 
1426	 0.202490310470963 
1427	 0.202384825565014 
1428	 0.202314446581277 
1429	 0.20227569092177 
1430	 0.202233989573581 
1431	 0.202203708431491 
1432	 0.202178473064504 
1433	 0.20216444075446 
1434	 0.202147200643452 
1435	 0.202130202222022 
1436	 0.202123995198412 
1437	 0.202115155086335 
1438	 0.202122928561002 
1439	 0.202152055656098 
1440	 0.20217698580604 
1441	 0.202197166935048 
1442	 0.202217358229358 
1443	 0.20221712590612 
1444	 0.202224025999702 
1445	 0.202253828290291 
1446	 0.202274862278373 
1447	 0.202311569450748 
1448	 0.202357555215487 
1449	 0.202371533097864 
1450	 0.202393166843264 
1451	 0.20242265866544 
1452	 0.202440337279357 
1453	 0.202487999315076 
1454	 0.202566239503558 
1455	 0.202624745759176 
1456	 0.202690711683744 
1457	 0.202753276012257 
1458	 0.20279736133183 
1459	 0.202862955484036 
1460	 0.202944332537323 
1461	 0.203019212386686 
1462	 0.203093762324115 
1463	 0.203183389572714 
1464	 0.203279554122251 
1465	 0.203381585648225 
1466	 0.203494884012905 
1467	 0.203613429749155 
1468	 0.20372647434185 
1469	 0.203856065419338 
1470	 0.20400705584227 
1471	 0.204156882352329 
1472	 0.204291449058272 
1473	 0.204451823287429 
1474	 0.204608516317403 
1475	 0.204763858438705 
1476	 0.204936860261568 
1477	 0.205097412551825 
1478	 0.205257542742389 
1479	 0.205415749188138 
1480	 0.205562937450725 
1481	 0.205726895690946 
1482	 0.20588960673926 
1483	 0.206051770016718 
1484	 0.206211099565607 
1485	 0.20637350307947 
1486	 0.20653819078005 
1487	 0.206694839257504 
1488	 0.206866802145385 
1489	 0.207059344079276 
1490	 0.207234050422468 
1491	 0.207411063701637 
1492	 0.207572524876292 
1493	 0.207718796192494 
1494	 0.207867677845866 
1495	 0.208005126422094 
1496	 0.208151056577174 
1497	 0.208305478792045 
1498	 0.208447578756666 
1499	 0.208576890351665 
1500	 0.208722736758407 
1501	 0.208878617867455 
1502	 0.209024458767828 
1503	 0.209176236136697 
1504	 0.2093229219177 
1505	 0.209468582053376 
1506	 0.209588067858636 
1507	 0.209712077923153 
1508	 0.209852613007581 
1509	 0.209978270790678 
1510	 0.210093456839777 
1511	 0.210214015229359 
1512	 0.210339340483839 
1513	 0.21046709526223 
1514	 0.210604352108237 
1515	 0.210743832742911 
1516	 0.210868931844264 
1517	 0.210991790685238 
1518	 0.211101247160151 
1519	 0.211227489885405 
1520	 0.211361800886522 
1521	 0.211487304512747 
1522	 0.211623970490785 
1523	 0.211733476549431 
1524	 0.211816638242145 
1525	 0.21191667275935 
1526	 0.212006250878852 
1527	 0.212116881865571 
1528	 0.212251098593849 
1529	 0.212366490199648 
1530	 0.212481782815001 
1531	 0.212588907287707 
1532	 0.21269120586897 
1533	 0.212783378284248 
1534	 0.212868056670559 
1535	 0.212954569200006 
1536	 0.213025631659963 
1537	 0.213104278530009 
1538	 0.213195867757092 
1539	 0.21327137242306 
1540	 0.213328343209331 
1541	 0.213405320738408 
1542	 0.213490658708294 
1543	 0.213568057857651 
1544	 0.213660611913933 
1545	 0.213737913192409 
1546	 0.213794390461627 
1547	 0.213855159817946 
1548	 0.213932637670853 
1549	 0.21399939181048 
1550	 0.214055438916903 
1551	 0.21412346500818 
1552	 0.214187116141431 
1553	 0.214262483416527 
1554	 0.214356088225212 
1555	 0.214419706604331 
1556	 0.214468826005932 
1557	 0.214520314013695 
1558	 0.21456304210782 
1559	 0.214617062385316 
1560	 0.214674622928122 
1561	 0.214742977745273 
1562	 0.214791967783905 
1563	 0.214833462232227 
1564	 0.214888252012036 
1565	 0.214937263715092 
1566	 0.214991684388117 
1567	 0.21506546521838 
1568	 0.215117065902763 
1569	 0.215148159351888 
1570	 0.215200876914679 
1571	 0.215259623068236 
1572	 0.215316638476408 
1573	 0.215389189116142 
1574	 0.215441126311071 
1575	 0.215481821658268 
1576	 0.215516924792675 
1577	 0.215532005846953 
1578	 0.215569217417804 
1579	 0.215611665977843 
1580	 0.215655806905086 
1581	 0.215714081236111 
1582	 0.215766812710489 
1583	 0.215818924806237 
1584	 0.215863916838675 
1585	 0.215917045049324 
1586	 0.215950890768658 
1587	 0.215962291832927 
1588	 0.215983452014805 
1589	 0.216000192154623 
1590	 0.216014680459346 
1591	 0.216025602351081 
1592	 0.216044447330313 
1593	 0.216053301204598 
1594	 0.216082236833149 
1595	 0.216126151526232 
1596	 0.216178274573403 
1597	 0.216261133535854 
1598	 0.216318069887492 
1599	 0.216380278436553 
1600	 0.21642251038141 
1601	 0.216426413662787 
1602	 0.21644622640141 
1603	 0.216463311432319 
1604	 0.216482979193644 
1605	 0.216501298511804 
1606	 0.21653632637085 
1607	 0.216592068638059 
1608	 0.216626718091112 
1609	 0.216678122393837 
1610	 0.216731522200739 
1611	 0.21674825013667 
1612	 0.216764688055375 
1613	 0.216774486871904 
1614	 0.216774142028991 
1615	 0.216794305658507 
1616	 0.216815597398113 
1617	 0.216836209709405 
1618	 0.216867278170763 
1619	 0.216897691386317 
1620	 0.216919360420647 
1621	 0.216930066743035 
1622	 0.2169312969694 
1623	 0.216945381369486 
1624	 0.216950896500816 
1625	 0.216965954059035 
1626	 0.217002731681034 
1627	 0.217011726003238 
1628	 0.216999575436513 
1629	 0.217014243712633 
1630	 0.217027078440818 
1631	 0.217051919053608 
1632	 0.217101757751823 
1633	 0.217129348199589 
1634	 0.21715287113831 
1635	 0.217170080173231 
1636	 0.217183067563068 
1637	 0.217184492894574 
1638	 0.217170490618575 
1639	 0.217172749955628 
1640	 0.217161464869615 
1641	 0.217183487315685 
1642	 0.217233027287241 
1643	 0.217271242803347 
1644	 0.217323823542936 
1645	 0.217364911484626 
1646	 0.21740870935185 
1647	 0.217427730832143 
1648	 0.217429478128502 
1649	 0.217444417870726 
1650	 0.217442925829707 
1651	 0.217454311397938 
1652	 0.217489964508075 
1653	 0.217499563828491 
1654	 0.21749121948486 
1655	 0.217494250160178 
1656	 0.217495223352791 
1657	 0.217494717041514 
1658	 0.217507454840089 
1659	 0.217492865065374 
1660	 0.217454912487248 
1661	 0.21743330263033 
1662	 0.217395281589513 
1663	 0.217382741656528 
1664	 0.217390910948663 
1665	 0.217397080535684 
1666	 0.217405128697549 
1667	 0.217430161445469 
1668	 0.217484066902273 
1669	 0.217500928857379 
1670	 0.217520452059621 
1671	 0.217518367633749 
1672	 0.217470702564284 
1673	 0.21745574260057 
1674	 0.217439936662372 
1675	 0.217446862928706 
1676	 0.217483305264817 
1677	 0.21749577806947 
1678	 0.217521004750806 
1679	 0.217521549110328 
1680	 0.217486254507326 
1681	 0.217479688208025 
1682	 0.217469116530113 
1683	 0.217481074527106 
1684	 0.217524965774305 
1685	 0.217544480960053 
1686	 0.217568235404868 
1687	 0.217581077339254 
1688	 0.217579472728582 
1689	 0.2175768013217 
1690	 0.217572218055405 
1691	 0.217561482957631 
1692	 0.217535488184756 
1693	 0.217523944905799 
1694	 0.217512354209544 
1695	 0.217513050807637 
1696	 0.2175265163263 
1697	 0.217536255225596 
1698	 0.217552648299026 
1699	 0.217565514580818 
1700	 0.217579668281502 
1701	 0.21758781893886 
1702	 0.217597806679066 
1703	 0.217597238044247 
1704	 0.217592019073533 
1705	 0.217574417818836 
1706	 0.217542373974545 
1707	 0.217515652221603 
1708	 0.217480294441427 
1709	 0.217448970346357 
1710	 0.217411472966515 
1711	 0.217395424021978 
1712	 0.217397210633325 
1713	 0.217377294376022 
1714	 0.217366403411779 
1715	 0.217342120995566 
1716	 0.217287555537254 
1717	 0.217259682844946 
1718	 0.217248553047691 
1719	 0.217229486596457 
1720	 0.217207092599946 
1721	 0.217192432189245 
1722	 0.217185065423912 
1723	 0.217170183174202 
1724	 0.217158958846514 
1725	 0.217145020326718 
1726	 0.217135027737727 
1727	 0.217093172536686 
1728	 0.21702737773307 
1729	 0.216988676788649 
1730	 0.216938305114325 
1731	 0.216900036402421 
1732	 0.216892749625826 
1733	 0.216859971619612 
1734	 0.21681261195643 
1735	 0.216757899892197 
1736	 0.216691995795967 
1737	 0.216645974005581 
1738	 0.216589842156381 
1739	 0.21655601352953 
1740	 0.216556092318146 
1741	 0.216529437211314 
1742	 0.216498004504603 
1743	 0.216459070314454 
1744	 0.21641994184736 
1745	 0.21634849176434 
1746	 0.216253212781899 
1747	 0.216180132328697 
1748	 0.216088347508518 
1749	 0.216048233575527 
1750	 0.216015050127873 
1751	 0.215942728455718 
1752	 0.215878859762363 
1753	 0.215814512804718 
1754	 0.21573066349394 
1755	 0.215659827251853 
1756	 0.215605046248724 
1757	 0.215537842265184 
1758	 0.215483526736599 
1759	 0.215437652839045 
1760	 0.215387228999184 
1761	 0.215369574969152 
1762	 0.215336192888308 
1763	 0.215265784776748 
1764	 0.21521360157959 
1765	 0.215144186931111 
1766	 0.215053484748206 
1767	 0.21499621257328 
1768	 0.214941178334305 
1769	 0.214883017552298 
1770	 0.214854424692702 
1771	 0.214835548513878 
1772	 0.214809090685851 
1773	 0.214786615676661 
1774	 0.214749788566022 
1775	 0.214713502741936 
1776	 0.214686713287326 
1777	 0.214629509937944 
1778	 0.214570478076684 
1779	 0.214505075647215 
1780	 0.21442500991186 
1781	 0.214377846063054 
1782	 0.214360419276567 
1783	 0.214403499899246 
1784	 0.214409062372586 
1785	 0.214422289554171 
1786	 0.214416357610836 
1787	 0.214370818053962 
1788	 0.214336081498921 
1789	 0.214306537647166 
1790	 0.214265234458762 
1791	 0.214199364729427 
1792	 0.214170813842721 
1793	 0.21415017177638 
1794	 0.214156512133733 
1795	 0.214206892767306 
1796	 0.214226035997059 
1797	 0.214240459594435 
1798	 0.214263210194198 
1799	 0.214288076724262 
1800	 0.214302864012478 
1801	 0.214585220718399 
1802	 0.214702764100036 
1803	 0.214829967467662 
1804	 0.214938141513978 
1805	 0.21507188996229 
1806	 0.215225024157108 
1807	 0.215326344700005 
1808	 0.215403131027495 
1809	 0.215479648362462 
1810	 0.215527760418671 
1811	 0.215523820329478 
1812	 0.215519390562265 
1813	 0.215534592281955 
1814	 0.215540775259936 
1815	 0.215554795641273 
1816	 0.215588072006733 
1817	 0.215586853426128 
1818	 0.215577936268445 
1819	 0.215568158980139 
1820	 0.215534683734142 
1821	 0.215490074185954 
1822	 0.215523737454421 
1823	 0.215552262760519 
1824	 0.215574736728335 
1825	 0.215602274921636 
1826	 0.215608554449565 
1827	 0.215623810320042 
1828	 0.215619843645727 
1829	 0.215624753001262 
1830	 0.21559457997524 
1831	 0.215533115594616 
1832	 0.215468061737133 
1833	 0.21538897674658 
1834	 0.215327879245638 
1835	 0.215324772913701 
1836	 0.215331025533341 
1837	 0.215326252576975 
1838	 0.215313292663063 
1839	 0.215287906578036 
1840	 0.215240550990241 
1841	 0.215172105630115 
1842	 0.215138851452537 
1843	 0.215119457626241 
1844	 0.215083097356083 
1845	 0.215028127213961 
1846	 0.214954047827641 
1847	 0.21488103104023 
1848	 0.214803031018274 
1849	 0.21473059168619 
1850	 0.214656137866717 
1851	 0.214585287780639 
1852	 0.214494015260009 
1853	 0.21440092415116 
1854	 0.214293483878281 
1855	 0.21416134228186 
1856	 0.214025131994193 
1857	 0.21388178371893 
1858	 0.21373659999828 
1859	 0.213558617154831 
1860	 0.213339091848569 
1861	 0.213086649008809 
1862	 0.212810640285887 
1863	 0.212487067904262 
1864	 0.212139813102338 
1865	 0.211777043572127 
1866	 0.211366446037523 
1867	 0.210916359500118 
1868	 0.210443908641842 
1869	 0.209951742731427 
1870	 0.209440588797368 
1871	 0.208891667935176 
1872	 0.20832696160167 
1873	 0.207713154690475 
1874	 0.207063882698551 
1875	 0.206379104191635 
1876	 0.205616316610114 
1877	 0.204796892452888 
1878	 0.20391697831781 
1879	 0.202963186976252 
1880	 0.201952506223583 
1881	 0.200882918685968 
1882	 0.199765959631925 
1883	 0.198603705092686 
1884	 0.197336146916877 
1885	 0.196027312891096 
1886	 0.194648496256243 
1887	 0.193174766193841 
1888	 0.191646787331346 
1889	 0.190040294253876 
1890	 0.188405766980468 
1891	 0.186791344895191 
1892	 0.185132332645095 
1893	 0.183512409174443 
1894	 0.181918547514841 
1895	 0.180316074113256 
1896	 0.178710382386728 
1897	 0.177160763695022 
1898	 0.175640457669807 
1899	 0.174189979841886 
1900	 0.172794837711325 
1901	 0.171442144997159 
1902	 0.17018130348339 
1903	 0.168997250693127 
1904	 0.167881426579859 
1905	 0.166845699601043 
1906	 0.165890556152702 
1907	 0.164977263774504 
1908	 0.16412838482344 
1909	 0.163339668364077 
1910	 0.162590658774101 
1911	 0.161919942725341 
1912	 0.161293997970783 
1913	 0.160711214294838 
1914	 0.160191400154938 
1915	 0.159701434100675 
1916	 0.159251212398638 
1917	 0.158830422603446 
1918	 0.158453471201885 
1919	 0.158107517420337 
1920	 0.157792054500817 
1921	 0.157511062208922 
1922	 0.157272119686809 
1923	 0.157074816553236 
1924	 0.156912307694335 
1925	 0.156796955788749 
1926	 0.156704483661295 
1927	 0.156644731629488 
1928	 0.156613847501283 
1929	 0.156606052744304 
1930	 0.156636835695723 
1931	 0.156683297388668 
1932	 0.156718532752202 
1933	 0.156791030763907 
1934	 0.156873168094391 
1935	 0.156985361874467 
1936	 0.157140879395957 
1937	 0.157298190470964 
1938	 0.15746651790675 
1939	 0.157652676882244 
1940	 0.157857982562839 
1941	 0.158062112126643 
1942	 0.158282484780742 
1943	 0.158535160501671 
1944	 0.158803376339605 
1945	 0.159074669603712 
1946	 0.15936066022514 
1947	 0.159671989748331 
1948	 0.159976488119966 
1949	 0.1602739132155 
1950	 0.160598796345161 
1951	 0.160943918104819 
1952	 0.1612812769078 
1953	 0.16163894183055 
1954	 0.162025745209283 
1955	 0.162380995149394 
1956	 0.162740272072609 
1957	 0.163113073067911 
1958	 0.163482537742263 
1959	 0.163862929720229 
1960	 0.164261008826577 
1961	 0.164662085117505 
1962	 0.16507584905708 
1963	 0.165485161170149 
1964	 0.165893995846131 
1965	 0.166309925028457 
1966	 0.166735098572639 
1967	 0.167159329812491 
1968	 0.167589504202016 
1969	 0.168039517576107 
1970	 0.168471284741769 
1971	 0.168889172995262 
1972	 0.169321443534866 
1973	 0.169752103137415 
1974	 0.17019276909686 
1975	 0.170655010152617 
1976	 0.171099001269883 
1977	 0.171536996145709 
1978	 0.171976169739147 
1979	 0.172398448910618 
1980	 0.172840260730574 
1981	 0.173262415251272 
1982	 0.17367597559109 
1983	 0.17409099304998 
1984	 0.174486745653721 
1985	 0.174903095945533 
1986	 0.175337513587583 
1987	 0.175762536602022 
1988	 0.176185169670534 
1989	 0.176622029612566 
1990	 0.177041077080421 
1991	 0.177468907357834 
1992	 0.177903123766547 
1993	 0.178360209790844 
1994	 0.178777686161933 
1995	 0.179179432607195 
1996	 0.179586549955757 
1997	 0.179967002170252 
1998	 0.180364847904613 
1999	 0.180780433219518 
2000	 0.1811891858325 
2001	 0.181607088204632 
2002	 0.18200346027738 
2003	 0.182397283086662 
2004	 0.182788580256137 
2005	 0.183167429148537 
2006	 0.183519609538748 
2007	 0.183904069719207 
2008	 0.184302215393995 
2009	 0.184684829208829 
2010	 0.185078757399217 
2011	 0.185463501282544 
2012	 0.185835629678502 
2013	 0.186200721765135 
2014	 0.186561065353499 
2015	 0.186926640673962 
2016	 0.187265763753747 
2017	 0.187619256275405 
2018	 0.187975026225376 
2019	 0.188341479857169 
2020	 0.18869338467476 
2021	 0.189047026077072 
2022	 0.189392256942894 
2023	 0.189728479785583 
2024	 0.190064431273524 
2025	 0.190390895233078 
2026	 0.190721591621351 
2027	 0.191055623950117 
2028	 0.191378501889998 
2029	 0.191713864503126 
2030	 0.192058699696969 
2031	 0.19239772708737 
2032	 0.192747817337341 
2033	 0.193074070416661 
2034	 0.193399373818269 
2035	 0.1936985522197 
2036	 0.19396907986126 
2037	 0.194243238117545 
2038	 0.194499160352278 
2039	 0.194758453532152 
2040	 0.195011879297894 
2041	 0.195270522769279 
2042	 0.195532180763587 
2043	 0.19578889935848 
2044	 0.19605356925964 
2045	 0.196326830004255 
2046	 0.196594992398157 
2047	 0.19687137529119 
2048	 0.19713089160663 
2049	 0.197393743254912 
2050	 0.197634671138867 
2051	 0.197853231075309 
2052	 0.198069895335669 
2053	 0.198260832087517 
2054	 0.198467333674484 
2055	 0.198676218822476 
2056	 0.198888425624948 
2057	 0.199101984161902 
2058	 0.199326487325799 
2059	 0.199541061620766 
2060	 0.199741267718592 
2061	 0.199966236115187 
2062	 0.200206521188041 
2063	 0.200435588102094 
2064	 0.200679919675773 
2065	 0.200909371784232 
2066	 0.201135302928275 
2067	 0.201342811171005 
2068	 0.201536522785216 
2069	 0.201727168615449 
2070	 0.201908724262543 
2071	 0.2020645367308 
2072	 0.202243119983057 
2073	 0.202421981993382 
2074	 0.202615094304006 
2075	 0.202829170675712 
2076	 0.203022509114913 
2077	 0.203208079099837 
2078	 0.203406660022532 
2079	 0.203598758680631 
2080	 0.20379735384677 
2081	 0.204024906431805 
2082	 0.204230631015688 
2083	 0.204417699633945 
2084	 0.204610551127741 
2085	 0.204802448078993 
2086	 0.204986851759503 
2087	 0.205181321839897 
2088	 0.205382922337247 
2089	 0.205578035217769 
2090	 0.205786716622585 
2091	 0.20596346148895 
2092	 0.20612144620636 
2093	 0.206283330010296 
2094	 0.206405998729997 
2095	 0.206567901710958 
2096	 0.206764595629165 
2097	 0.206942411164315 
2098	 0.207130746270969 
2099	 0.207312141932334 
2100	 0.20748774181407 
2101	 0.207645263536504 
2102	 0.20781738133141 
2103	 0.207989909922096 
2104	 0.208173545136576 
2105	 0.208367845937096 
2106	 0.208553947751442 
2107	 0.20875402093731 
2108	 0.208936524760991 
2109	 0.209092623919151 
2110	 0.209270479746059 
2111	 0.209452149821319 
2112	 0.209635783540356 
2113	 0.20983770699312 
2114	 0.2100334043056 
2115	 0.210214477411915 
2116	 0.210382416435852 
2117	 0.210561071081578 
2118	 0.210738915467284 
2119	 0.210908709731132 
2120	 0.211076264664994 
2121	 0.211248435657771 
2122	 0.211413287679146 
2123	 0.211580851992934 
2124	 0.211777582554371 
2125	 0.211932845433076 
2126	 0.212065069329364 
2127	 0.212190029427132 
2128	 0.212279042175436 
2129	 0.212380943592357 
2130	 0.212490962565937 
2131	 0.212595349557662 
2132	 0.212672299180748 
2133	 0.212735514602319 
2134	 0.212803446788509 
2135	 0.212849749977291 
2136	 0.212900970013483 
2137	 0.212976581862351 
2138	 0.213009389222976 
2139	 0.213007985765779 
2140	 0.213014364665549 
2141	 0.212999748390829 
2142	 0.212993211305187 
2143	 0.212996540847076 
2144	 0.212987094499631 
2145	 0.212984849245607 
2146	 0.212957490118015 
2147	 0.21291403800882 
2148	 0.212842577324318 
2149	 0.212799489768165 
2150	 0.212745685638717 
2151	 0.212704147897766 
2152	 0.212694130596548 
2153	 0.212651833846436 
2154	 0.212601549031489 
2155	 0.212532371858062 
2156	 0.212454856783131 
2157	 0.212354413388759 
2158	 0.212221522389044 
2159	 0.212096222572518 
2160	 0.211965195802812 
2161	 0.211821142758149 
2162	 0.211659702148012 
2163	 0.211508723977195 
2164	 0.211355926524576 
2165	 0.211191815248151 
2166	 0.211035127098102 
2167	 0.210892906725724 
2168	 0.210736181013315 
2169	 0.210567570507057 
2170	 0.210404137940749 
2171	 0.210229277552298 
2172	 0.210080660667441 
2173	 0.209960522596904 
2174	 0.209804344735636 
2175	 0.209651555213533 
2176	 0.209489100202635 
2177	 0.209292388421373 
2178	 0.209105187151039 
2179	 0.208922456421031 
2180	 0.208740721990729 
2181	 0.208547237277311 
2182	 0.20836581465328 
2183	 0.208190031763316 
2184	 0.208032228201379 
2185	 0.207864353776811 
2186	 0.207699192342987 
2187	 0.207528260558211 
2188	 0.207356843644506 
2189	 0.207179098029612 
2190	 0.206979115987993 
2191	 0.206815607119193 
2192	 0.206659149040647 
2193	 0.206519404683261 
2194	 0.206422399223257 
2195	 0.20630074501526 
2196	 0.206179686286168 
2197	 0.206048870941543 
2198	 0.205893267178257 
2199	 0.205760108534926 
2200	 0.205618121306564 
2201	 0.205505392926787 
2202	 0.205405538739478 
2203	 0.205340992835772 
2204	 0.205287894957625 
2205	 0.205256490975102 
2206	 0.205237495591608 
2207	 0.20525038512341 
2208	 0.205240979020556 
2209	 0.205233738190099 
2210	 0.205235822553448 
2211	 0.205216259913631 
2212	 0.205241012095768 
2213	 0.205304777635252 
2214	 0.205356882639342 
2215	 0.205439150507514 
2216	 0.205497181129336 
2217	 0.205535048915217 
2218	 0.205582966925698 
2219	 0.205643461797003 
2220	 0.205679211933207 
2221	 0.205698288420826 
2222	 0.205728353359709 
2223	 0.20573654581631 
2224	 0.205748350319677 
2225	 0.205762055794071 
2226	 0.205782208328155 
2227	 0.205804842729325 
2228	 0.205825809317542 
2229	 0.205846024495531 
2230	 0.205887156738827 
2231	 0.205891854454974 
2232	 0.205868733680775 
2233	 0.205859766852132 
2234	 0.205833168572709 
2235	 0.205823605064283 
2236	 0.205828304608041 
2237	 0.205832010686453 
2238	 0.205850094140912 
2239	 0.205846642245813 
2240	 0.205821688981303 
2241	 0.205818868287906 
2242	 0.205813288207805 
2243	 0.205813506999631 
2244	 0.20584393228013 
2245	 0.205863770624871 
2246	 0.205851852605773 
2247	 0.205805201344377 
2248	 0.205789885302271 
2249	 0.205775171767064 
2250	 0.205744214076927 
2251	 0.205723090396651 
2252	 0.205689285478815 
2253	 0.205605573952239 
2254	 0.205585118072662 
2255	 0.205602805799229 
2256	 0.205607381927933 
2257	 0.205640166952141 
2258	 0.205652614532088 
2259	 0.205652953670922 
2260	 0.205658069827464 
2261	 0.205669782279619 
2262	 0.205662109402416 
2263	 0.205642629140033 
2264	 0.205621265163744 
2265	 0.20557681408946 
2266	 0.205551565597894 
2267	 0.205544950039152 
2268	 0.205525662225208 
2269	 0.20550039436972 
2270	 0.20548367942034 
2271	 0.205470674603109 
2272	 0.205448894098602 
2273	 0.205434745130248 
2274	 0.20543173241819 
2275	 0.205407015249949 
2276	 0.205364741423941 
2277	 0.205329082774413 
2278	 0.205284783223451 
2279	 0.205242520587046 
2280	 0.205200087426049 
2281	 0.205160684467806 
2282	 0.205120930265066 
2283	 0.205090816604358 
2284	 0.205058569687797 
2285	 0.20504569485671 
2286	 0.205047977426858 
2287	 0.205043158967382 
2288	 0.205049125509939 
2289	 0.205053567377102 
2290	 0.205074217905193 
2291	 0.205068073393996 
2292	 0.205065079988012 
2293	 0.205033083513214 
2294	 0.204948465007349 
2295	 0.204882423136939 
2296	 0.204803273538005 
2297	 0.204732424667997 
2298	 0.204702363537215 
2299	 0.204664400294931 
2300	 0.20463861437552 
2301	 0.204650341489125 
2302	 0.204619060866939 
2303	 0.20454600002153 
2304	 0.204485566692434 
2305	 0.204413395750992 
2306	 0.204330183871241 
2307	 0.204243425536133 
2308	 0.204158591485357 
2309	 0.204054178156799 
2310	 0.203963789923197 
2311	 0.203889992240155 
2312	 0.203802777993645 
2313	 0.203698682221345 
2314	 0.203613633959924 
2315	 0.20353928270993 
2316	 0.203462227213661 
2317	 0.203404874845256 
2318	 0.203323971885476 
2319	 0.203216784310283 
2320	 0.20312407810216 
2321	 0.203042097908093 
2322	 0.202942953981574 
2323	 0.202809760275317 
2324	 0.202732484685496 
2325	 0.202691217640821 
2326	 0.202613492972828 
2327	 0.202546848391495 
2328	 0.202501781139746 
2329	 0.202375964060569 
2330	 0.202284439721301 
2331	 0.20228469502563 
2332	 0.202264787872269 
2333	 0.202225557981705 
2334	 0.202203176043774 
2335	 0.202118844872303 
2336	 0.202016214031399 
2337	 0.201991541424224 
2338	 0.201943704335575 
2339	 0.201841929935774 
2340	 0.201737968110143 
2341	 0.201631713624047 
2342	 0.201542539697455 
2343	 0.201465574549303 
2344	 0.201380011683067 
2345	 0.201253876752864 
2346	 0.201065241044196 
2347	 0.200902222221918 
2348	 0.200733580057093 
2349	 0.200575626796895 
2350	 0.200429176535629 
2351	 0.200269807017395 
2352	 0.200081217824184 
2353	 0.199938994616783 
2354	 0.199842293782831 
2355	 0.19968334219457 
2356	 0.199515267317845 
2357	 0.199356949310617 
2358	 0.199134462380855 
2359	 0.198971591462951 
2360	 0.198897740682629 
2361	 0.198748865604643 
2362	 0.198561676563887 
2363	 0.198405107261546 
2364	 0.198213152311434 
2365	 0.198050718151296 
2366	 0.197921367187172 
2367	 0.197818937787879 
2368	 0.197770431253943 
2369	 0.197652460151094 
2370	 0.197535050012826 
2371	 0.197396903029889 
2372	 0.19715292112091 
2373	 0.196938913057576 
2374	 0.196785206698096 
2375	 0.196548924016727 
2376	 0.196330374879257 
2377	 0.196146774767216 
2378	 0.195997991983716 
2379	 0.195817016900882 
2380	 0.195598872482913 
2381	 0.195453822453728 
2382	 0.195253202117963 
2383	 0.195030077513499 
2384	 0.194880910882641 
2385	 0.194636363700434 
2386	 0.194338850095806 
2387	 0.194104933012969 
2388	 0.193891309563527 
2389	 0.193727789018174 
2390	 0.193569600047576 
2391	 0.193366848974285 
2392	 0.193149134067924 
2393	 0.192881041194483 
2394	 0.19258575945003 
2395	 0.192389532516025 
2396	 0.192187870156009 
2397	 0.191973941158784 
2398	 0.191797332585405 
2399	 0.191578589969395 
2400	 0.191381927785608 
2401	 0.191129371963712 
2402	 0.190822840090947 
2403	 0.190531857222123 
2404	 0.190241945933185 
2405	 0.1900261754737 
2406	 0.18988347818174 
2407	 0.189707776916534 
2408	 0.189434537342794 
2409	 0.189093953235227 
2410	 0.188733770171293 
2411	 0.188376639974456 
2412	 0.188086790838382 
2413	 0.187891144392303 
2414	 0.187645086886595 
2415	 0.18740962032317 
2416	 0.187155085852379 
2417	 0.186843593009916 
2418	 0.186531500279372 
2419	 0.186227315153054 
2420	 0.185927595481694 
2421	 0.185618894158417 
2422	 0.185345572752948 
2423	 0.18511916723971 
2424	 0.18481978084616 
2425	 0.184481973503903 
2426	 0.184162795374885 
2427	 0.183803755485564 
2428	 0.183479865923677 
2429	 0.183204089185141 
2430	 0.18288889962729 
2431	 0.182560199967886 
2432	 0.182266979684678 
2433	 0.181972586844547 
2434	 0.181654552663592 
2435	 0.181332825721059 
2436	 0.181019932638326 
2437	 0.180706172411951 
2438	 0.1804175542625 
2439	 0.180167546786644 
2440	 0.179848399873066 
2441	 0.179466496262112 
2442	 0.179142517399986 
2443	 0.178794324772551 
2444	 0.178529087924204 
2445	 0.178378953876637 
2446	 0.178180337811228 
2447	 0.178009336608247 
2448	 0.177839972204208 
2449	 0.177675165991517 
2450	 0.177394130494535 
2451	 0.177073165641064 
2452	 0.17670923623122 
2453	 0.176259594343672 
2454	 0.175815912828833 
2455	 0.17526492008935 
2456	 0.174857852455432 
2457	 0.174519548785065 
2458	 0.174191552877735 
2459	 0.17395787800457 
2460	 0.173746549398177 
2461	 0.173546318913655 
2462	 0.173295996096202 
2463	 0.173110136624331 
2464	 0.172811165214111 
2465	 0.172421714157703 
2466	 0.172044946160173 
2467	 0.171616896379956 
2468	 0.171272939255088 
2469	 0.170883767492299 
2470	 0.170598543852347 
2471	 0.170368957717124 
2472	 0.170163203119281 
2473	 0.170025347962885 
2474	 0.169651264738355 
2475	 0.169289268363837 
2476	 0.1689868297136 
2477	 0.168719112396329 
2478	 0.168717571036242 
2479	 0.168543546722959 
2480	 0.168329254435038 
2481	 0.168077764550913 
2482	 0.167535626801461 
2483	 0.167173757990726 
2484	 0.166749870545668 
2485	 0.166304189712965 
2486	 0.166226116092228 
2487	 0.166237001621467 
2488	 0.166144053543688 
2489	 0.165763997254681 
2490	 0.1653745276316 
2491	 0.164972091207367 
2492	 0.164468456963856 
2493	 0.164362575966264 
2494	 0.164186979547125 
2495	 0.163698764914619 
2496	 0.163515322273254 
2497	 0.163392635101132 
2498	 0.163150165351706 
2499	 0.163113789138202 
2500	 0.162843641248511 
