Wavelength	mm1400009.asd
350	 5.18367253807731E-02 
351	 5.87541188389301E-02 
352	 5.79538017021693E-02 
353	 0.051663847197159 
354	 0.059688835364311 
355	 0.061679365496797 
356	 5.57930912323221E-02 
357	 4.83621092712993E-02 
358	 5.60781790580136E-02 
359	 0.059343214089871 
360	 5.65534600798742E-02 
361	 0.057480837181772 
362	 5.43615747299716E-02 
363	 5.38015020897493E-02 
364	 5.76511123664072E-02 
365	 5.81575304676062E-02 
366	 5.79671531037997E-02 
367	 5.65292878213315E-02 
368	 5.43808367003885E-02 
369	 0.059850921962486 
370	 5.90040160870964E-02 
371	 5.40731232959224E-02 
372	 5.74576233509041E-02 
373	 5.94749283800588E-02 
374	 5.92898120623518E-02 
375	 5.82395057742214E-02 
376	 5.93641193854678E-02 
377	 5.93778090298444E-02 
378	 0.058969688552053 
379	 5.96058470180645E-02 
380	 6.09527247272757E-02 
381	 6.04548210997699E-02 
382	 6.02088660980857E-02 
383	 6.48480341313795E-02 
384	 6.48605566417132E-02 
385	 6.22662642111773E-02 
386	 6.02624378187928E-02 
387	 6.07675854726782E-02 
388	 6.31934421448419E-02 
389	 0.064429856331645 
390	 6.24092363374596E-02 
391	 6.39735932685067E-02 
392	 6.42660971123668E-02 
393	 6.34127348867241E-02 
394	 6.57800021376487E-02 
395	 6.78540658060652E-02 
396	 6.73337049560399E-02 
397	 0.064840193486154 
398	 6.67126456795882E-02 
399	 6.85454898033166E-02 
400	 6.92047603748204E-02 
401	 6.89300177629417E-02 
402	 0.068410316801887 
403	 6.80965854182358E-02 
404	 6.82707880351573E-02 
405	 6.90341385165565E-02 
406	 6.92481407621642E-02 
407	 6.98531326076749E-02 
408	 7.11922659987516E-02 
409	 7.10484561952917E-02 
410	 7.03437574878354E-02 
411	 7.01842492586131E-02 
412	 7.13443830302139E-02 
413	 7.18103684376597E-02 
414	 7.13591455686647E-02 
415	 7.06690215479685E-02 
416	 7.13010995835029E-02 
417	 7.10925360600502E-02 
418	 7.08764485351969E-02 
419	 7.15561195956818E-02 
420	 7.18102516783205E-02 
421	 0.071427347341172 
422	 7.11230261652218E-02 
423	 7.19535300979695E-02 
424	 7.19406053947369E-02 
425	 7.16294677641808E-02 
426	 0.071527525129277 
427	 0.07148953332361 
428	 7.11854950910976E-02 
429	 7.07187108699769E-02 
430	 7.03917320357743E-02 
431	 0.070702552621325 
432	 7.07937214193714E-02 
433	 7.07232354947568E-02 
434	 7.14126895522175E-02 
435	 7.14382519131246E-02 
436	 0.071224270640062 
437	 7.12524755769524E-02 
438	 7.11589490234736E-02 
439	 7.10966103017843E-02 
440	 7.12185091849359E-02 
441	 7.15790687048991E-02 
442	 7.14597481151139E-02 
443	 7.12438150165387E-02 
444	 7.12849862015437E-02 
445	 7.17477064732732E-02 
446	 7.18620314385062E-02 
447	 7.18371281508001E-02 
448	 7.20135631753417E-02 
449	 7.19015669471063E-02 
450	 7.21571259030694E-02 
451	 7.26276811329967E-02 
452	 7.25120735193708E-02 
453	 7.25417044974228E-02 
454	 7.25299131837909E-02 
455	 7.23578742189282E-02 
456	 7.24493809488416E-02 
457	 0.072735687048633 
458	 7.29841848354375E-02 
459	 7.29398131481479E-02 
460	 7.28746665200446E-02 
461	 7.27801801783961E-02 
462	 7.27240640673525E-02 
463	 7.29229862030422E-02 
464	 7.28912551656031E-02 
465	 7.28301836863413E-02 
466	 7.30128681362877E-02 
467	 7.32017400042011E-02 
468	 7.32334418238845E-02 
469	 7.31537713232974E-02 
470	 7.31700605229048E-02 
471	 7.32495984841088E-02 
472	 7.32891659439506E-02 
473	 7.32585383186832E-02 
474	 7.33268951394195E-02 
475	 7.34620384036887E-02 
476	 0.073489421804148 
477	 7.32439111647493E-02 
478	 7.30980210730425E-02 
479	 7.31138800973712E-02 
480	 7.32694552267576E-02 
481	 7.34809481496825E-02 
482	 7.35268437180124E-02 
483	 7.35871990435143E-02 
484	 7.38133702670564E-02 
485	 7.37389005749392E-02 
486	 7.36900983275107E-02 
487	 7.37015934613981E-02 
488	 7.35676535673551E-02 
489	 7.35195344971547E-02 
490	 0.073622424802096 
491	 7.38377275724785E-02 
492	 7.39827572387837E-02 
493	 7.39502796672251E-02 
494	 7.38575652063186E-02 
495	 7.39153366932851E-02 
496	 7.41071180060641E-02 
497	 7.41252461341966E-02 
498	 7.39523506228213E-02 
499	 7.40323274996019E-02 
500	 7.41317350002989E-02 
501	 7.41660223105493E-02 
502	 0.074133278670013 
503	 0.074212363073407 
504	 7.42857765108815E-02 
505	 7.43065506906325E-02 
506	 7.43077824392063E-02 
507	 7.44667467987761E-02 
508	 7.45513937188666E-02 
509	 7.44284166490615E-02 
510	 7.44316288331262E-02 
511	 7.44725881597635E-02 
512	 7.45136337482562E-02 
513	 7.45412396871973E-02 
514	 7.45604261171977E-02 
515	 0.074523914249575 
516	 7.44728798916947E-02 
517	 7.46139575407617E-02 
518	 7.47351673081836E-02 
519	 7.47864536050612E-02 
520	 7.47974394448796E-02 
521	 7.49170092213839E-02 
522	 7.49539038057402E-02 
523	 7.48971632747391E-02 
524	 7.49388454907237E-02 
525	 7.49917750833832E-02 
526	 7.50422066892649E-02 
527	 7.50991681987081E-02 
528	 7.52089274903153E-02 
529	 7.52430972649223E-02 
530	 7.52522302069782E-02 
531	 7.53821561246331E-02 
532	 7.53915588120959E-02 
533	 7.54539982613665E-02 
534	 7.56192455105855E-02 
535	 0.075540628387065 
536	 7.55376646382003E-02 
537	 7.56394685525759E-02 
538	 7.57571984262997E-02 
539	 0.075844961929682 
540	 7.58687475516833E-02 
541	 7.58694993360381E-02 
542	 7.59815767460569E-02 
543	 7.60877885758693E-02 
544	 7.62205802637628E-02 
545	 7.63986558719187E-02 
546	 7.64140651809213E-02 
547	 7.64874896996096E-02 
548	 7.66413450700552E-02 
549	 7.67256610607628E-02 
550	 7.68074251666099E-02 
551	 7.68915585933556E-02 
552	 7.69885361207011E-02 
553	 7.71614617981271E-02 
554	 7.72720375304128E-02 
555	 7.73455694396627E-02 
556	 7.74907337914536E-02 
557	 7.77104528344042E-02 
558	 7.79064807386874E-02 
559	 7.80810058912825E-02 
560	 7.84454673605677E-02 
561	 7.86950693907496E-02 
562	 7.88639484223268E-02 
563	 7.90940260361848E-02 
564	 7.94188735175895E-02 
565	 7.96457673717083E-02 
566	 7.97819192256493E-02 
567	 8.00669429914427E-02 
568	 8.03625109280335E-02 
569	 0.080672301528529 
570	 8.10361576701923E-02 
571	 8.15160611106441E-02 
572	 8.20121540005278E-02 
573	 8.24430367759536E-02 
574	 8.27597928866411E-02 
575	 8.30947211212824E-02 
576	 8.35880924261328E-02 
577	 8.42348310983473E-02 
578	 8.47221797767936E-02 
579	 8.51813264890835E-02 
580	 0.085657062594578 
581	 8.61564944688844E-02 
582	 8.66282326358107E-02 
583	 8.70819431143617E-02 
584	 8.75797394158646E-02 
585	 8.82521978929282E-02 
586	 8.90131696443752E-02 
587	 8.97914659749591E-02 
588	 9.05372145003635E-02 
589	 0.091284041051311 
590	 9.20392862283268E-02 
591	 9.27840467584364E-02 
592	 9.34823374024894E-02 
593	 9.41983557915274E-02 
594	 9.48679221934798E-02 
595	 9.54367203566241E-02 
596	 9.59298973768038E-02 
597	 9.64596574156106E-02 
598	 9.70303783141879E-02 
599	 9.75929275406598E-02 
600	 9.82032034072517E-02 
601	 9.88161952881368E-02 
602	 9.94107612264225E-02 
603	 0.100032375893783 
604	 0.10065131457614 
605	 0.101269015576463 
606	 0.101893017821467 
607	 0.102503568589823 
608	 0.103108799486198 
609	 0.103707975717595 
610	 0.104289109658839 
611	 0.10479627331107 
612	 0.105237014124905 
613	 0.1056224755161 
614	 0.105901831102174 
615	 0.106243538182469 
616	 0.106634944116757 
617	 0.106942889952777 
618	 0.107278896533435 
619	 0.107576207114608 
620	 0.107806561133435 
621	 0.108077453445728 
622	 0.108333405814781 
623	 0.108582772065625 
624	 0.108848360477468 
625	 0.109084662191479 
626	 0.109290518433867 
627	 0.109483335512385 
628	 0.109698471354202 
629	 0.109921662918383 
630	 0.110153494434929 
631	 0.110385405619536 
632	 0.110557731687089 
633	 0.110732858148305 
634	 0.110926871575115 
635	 0.111115846616561 
636	 0.111303440944373 
637	 0.111493828950723 
638	 0.111680405900499 
639	 0.1118131330063 
640	 0.11208095125859 
641	 0.112381415140382 
642	 0.112511680041732 
643	 0.112658885985311 
644	 0.11284823922544 
645	 0.11306896294863 
646	 0.113282211017449 
647	 0.113465120349784 
648	 0.113655503907262 
649	 0.113891653147 
650	 0.114132094098704 
651	 0.114345599701042 
652	 0.114549980848565 
653	 0.114801260913015 
654	 0.11504697713671 
655	 0.11526696340801 
656	 0.115469782399795 
657	 0.115714858922684 
658	 0.115995368221209 
659	 0.116282325658045 
660	 0.116540970974354 
661	 0.116794412682145 
662	 0.117095789098628 
663	 0.117424163339012 
664	 0.117645551191733 
665	 0.117960866412326 
666	 0.118311506596008 
667	 0.118602498700581 
668	 0.118919293776957 
669	 0.119256162717566 
670	 0.119607096057144 
671	 0.119964246955069 
672	 0.120280191749862 
673	 0.12059972383746 
674	 0.120961196600377 
675	 0.121353243023806 
676	 0.121734572954468 
677	 0.122089848263129 
678	 0.122433244678166 
679	 0.122875061933657 
680	 0.123316611331613 
681	 0.1237151817503 
682	 0.124124100786104 
683	 0.124587857188887 
684	 0.125043456121694 
685	 0.12543582885128 
686	 0.125843775593596 
687	 0.126305019115179 
688	 0.126798409901289 
689	 0.127263761583084 
690	 0.127724458856199 
691	 0.128208677583247 
692	 0.128714909616427 
693	 0.129179288055011 
694	 0.129660061019309 
695	 0.130173903019321 
696	 0.130709548405189 
697	 0.131189850636061 
698	 0.131690868548373 
699	 0.132228241853122 
700	 0.132746319763514 
701	 0.133317879599995 
702	 0.133883143832301 
703	 0.134390994034893 
704	 0.134889138010054 
705	 0.135398771660039 
706	 0.135953831345354 
707	 0.13657073253246 
708	 0.137098931769398 
709	 0.137639782558865 
710	 0.138219219041299 
711	 0.138715999103588 
712	 0.13924720921603 
713	 0.139763179960621 
714	 0.140222305902046 
715	 0.140795210796671 
716	 0.141342708628 
717	 0.141834037771759 
718	 0.142327654053125 
719	 0.142887526056951 
720	 0.143408436012007 
721	 0.143843800929096 
722	 0.144309402316368 
723	 0.144767359816093 
724	 0.145194567992067 
725	 0.145585375289947 
726	 0.146003737181193 
727	 0.146407433733534 
728	 0.146786639913097 
729	 0.147164887400729 
730	 0.147519343698286 
731	 0.14784500449862 
732	 0.148145363214063 
733	 0.148432611520549 
734	 0.148733349827023 
735	 0.149005871393942 
736	 0.149202013075713 
737	 0.149425324056161 
738	 0.149642866090787 
739	 0.149827135555075 
740	 0.149969125825891 
741	 0.150094649255025 
742	 0.15019668853001 
743	 0.150265876925089 
744	 0.15030337925452 
745	 0.150340034371162 
746	 0.150373710325894 
747	 0.150386220535379 
748	 0.150378546858477 
749	 0.150340956684076 
750	 0.15028509641501 
751	 0.150247190006182 
752	 0.150150061961162 
753	 0.149999077475893 
754	 0.14983252735822 
755	 0.149724242808077 
756	 0.149598835368826 
757	 0.149421444925144 
758	 0.149192220019088 
759	 0.148983736241796 
760	 0.148788214330227 
761	 0.148588628824225 
762	 0.148367613665227 
763	 0.148080351369988 
764	 0.147786772665217 
765	 0.14753238904864 
766	 0.147239833169236 
767	 0.146957885240792 
768	 0.146686454462594 
769	 0.146401734315014 
770	 0.146107606593678 
771	 0.145781404061482 
772	 0.145425726166704 
773	 0.145075237799403 
774	 0.144758248990163 
775	 0.144452036612976 
776	 0.14412866372869 
777	 0.143779701247723 
778	 0.143443690298585 
779	 0.143130193673803 
780	 0.142823964910194 
781	 0.14245577574886 
782	 0.142106811134779 
783	 0.141785911701822 
784	 0.141418385078743 
785	 0.141074031930723 
786	 0.140735953496839 
787	 0.140388774211638 
788	 0.140059851803039 
789	 0.13975936006774 
790	 0.139427111868009 
791	 0.139022291215602 
792	 0.138745920223067 
793	 0.138466223482961 
794	 0.138148465681509 
795	 0.13785123357514 
796	 0.137490696854407 
797	 0.137161963392852 
798	 0.13690500046479 
799	 0.136611438172768 
800	 0.136315905466377 
801	 0.136011937956712 
802	 0.135694711762306 
803	 0.135404453508326 
804	 0.135119779743526 
805	 0.134836867261342 
806	 0.134566408961172 
807	 0.134335561713712 
808	 0.134079943519713 
809	 0.133795026330951 
810	 0.133562996221428 
811	 0.133301231959061 
812	 0.133035561563123 
813	 0.13280022467129 
814	 0.132582296201887 
815	 0.132409968074294 
816	 0.132226974544089 
817	 0.131966629741427 
818	 0.131692233073631 
819	 0.131525639897163 
820	 0.131409882604348 
821	 0.131158044648315 
822	 0.130982288178281 
823	 0.130793084229591 
824	 0.130560094303881 
825	 0.130420500084514 
826	 0.130295038647821 
827	 0.130145553053741 
828	 0.129966159617846 
829	 0.129818359274723 
830	 0.129646707956225 
831	 0.129468139017589 
832	 0.129335002571061 
833	 0.129286729743173 
834	 0.129186997124746 
835	 0.129018761276882 
836	 0.128888380242417 
837	 0.128811870828274 
838	 0.128734184496597 
839	 0.128624579469542 
840	 0.128516474643765 
841	 0.12841811735878 
842	 0.128329644264259 
843	 0.128245141644841 
844	 0.128146417151361 
845	 0.128115432943383 
846	 0.128072760219431 
847	 0.127922551224873 
848	 0.127935304587933 
849	 0.127925945464685 
850	 0.127845015635012 
851	 0.127783070401025 
852	 0.127750393931215 
853	 0.12773876396494 
854	 0.12774779490403 
855	 0.127793815683847 
856	 0.127779456059882 
857	 0.127749050209867 
858	 0.1277559777328 
859	 0.127786392453448 
860	 0.127807228629476 
861	 0.127794756290106 
862	 0.127753188747648 
863	 0.127770270002878 
864	 0.127820709189337 
865	 0.127875559313058 
866	 0.127911688892363 
867	 0.127951254664849 
868	 0.127985213241964 
869	 0.128025742750462 
870	 0.128103902504067 
871	 0.128173820849183 
872	 0.128268943060436 
873	 0.12839432904742 
874	 0.128490766197748 
875	 0.12858054613582 
876	 0.128631096599699 
877	 0.128646721070112 
878	 0.128750341188827 
879	 0.128942298638242 
880	 0.129131702736456 
881	 0.129237040450609 
882	 0.129365274417412 
883	 0.129525622637723 
884	 0.129680011664984 
885	 0.129780730501134 
886	 0.129889617044571 
887	 0.130030595203411 
888	 0.130190192825398 
889	 0.130332295455279 
890	 0.130505278492216 
891	 0.130702656426586 
892	 0.130910981795667 
893	 0.131116850560198 
894	 0.131277937242539 
895	 0.131475480587445 
896	 0.131725303512039 
897	 0.131884865023352 
898	 0.132141381305442 
899	 0.132399222210155 
900	 0.132565225994228 
901	 0.13274997725918 
902	 0.132981613210508 
903	 0.133249978344883 
904	 0.133528296927001 
905	 0.133805427558837 
906	 0.134088857854994 
907	 0.13436172776725 
908	 0.134614473531918 
909	 0.1349387478522 
910	 0.135188421007213 
911	 0.13542065164703 
912	 0.135790280957334 
913	 0.136091092800995 
914	 0.136420056283863 
915	 0.136780141694434 
916	 0.137080614632483 
917	 0.137365581601877 
918	 0.137742677015558 
919	 0.138169212200476 
920	 0.138448364593953 
921	 0.13882708239247 
922	 0.139216888711704 
923	 0.139570622252295 
924	 0.139981423169207 
925	 0.140350968086117 
926	 0.140755232051181 
927	 0.141209494668388 
928	 0.141555533961079 
929	 0.141964584776834 
930	 0.14245705493543 
931	 0.142974784748904 
932	 0.143385475283912 
933	 0.143777075721875 
934	 0.144254081905216 
935	 0.144840398188812 
936	 0.145329541848278 
937	 0.145801001628252 
938	 0.146270432286281 
939	 0.146745076855211 
940	 0.147262360171223 
941	 0.147804518556026 
942	 0.148372603931275 
943	 0.148964933389939 
944	 0.149554487343772 
945	 0.150003219578555 
946	 0.150484457806823 
947	 0.151188618862834 
948	 0.151729566228788 
949	 0.152216509797768 
950	 0.152786119253221 
951	 0.153515724721217 
952	 0.154193025021825 
953	 0.154770458670802 
954	 0.155344146890551 
955	 0.156046524066365 
956	 0.156767809140577 
957	 0.157388374566686 
958	 0.157958803932013 
959	 0.158615814592233 
960	 0.159327760008397 
961	 0.160014324700537 
962	 0.160711342227581 
963	 0.161481243441232 
964	 0.162056438164718 
965	 0.162804948430037 
966	 0.163656930698044 
967	 0.164302422543073 
968	 0.165062628159035 
969	 0.165802703349486 
970	 0.166516186036559 
971	 0.167294581919409 
972	 0.168153879349017 
973	 0.168958448297581 
974	 0.169720782565485 
975	 0.170542121791214 
976	 0.171367088820923 
977	 0.172127152390866 
978	 0.172874019743 
979	 0.173717443492125 
980	 0.174631348446574 
981	 0.175435945841451 
982	 0.176218273806314 
983	 0.177150701214602 
984	 0.177871251704006 
985	 0.178760308930213 
986	 0.179743042486937 
987	 0.180531002942579 
988	 0.181302503260709 
989	 0.182043677426542 
990	 0.182849993866661 
991	 0.183810246912324 
992	 0.184739729400727 
993	 0.185629157730103 
994	 0.18649495112203 
995	 0.187338428274284 
996	 0.188037955505812 
997	 0.188934337936337 
998	 0.189849969230456 
999	 0.190585281183033 
1000	 0.191660633700493 
1001	 0.189594078162661 
1002	 0.190475039177162 
1003	 0.191325031967135 
1004	 0.192134500976784 
1005	 0.192922088060482 
1006	 0.193710506766364 
1007	 0.194449997915068 
1008	 0.195218069254298 
1009	 0.196062733121831 
1010	 0.196848661471203 
1011	 0.197613786216077 
1012	 0.19839948260299 
1013	 0.19913046561569 
1014	 0.199815358996805 
1015	 0.200479954606788 
1016	 0.201159536746299 
1017	 0.201891608874782 
1018	 0.202616786482184 
1019	 0.203430840792669 
1020	 0.204266208804529 
1021	 0.205022227895741 
1022	 0.205736502397838 
1023	 0.206407133015601 
1024	 0.207105782614031 
1025	 0.207821914906096 
1026	 0.208488369215156 
1027	 0.209144765872352 
1028	 0.209811557402947 
1029	 0.210511415843609 
1030	 0.211231705570479 
1031	 0.211897679754309 
1032	 0.212560325417949 
1033	 0.213169645252188 
1034	 0.213771710973523 
1035	 0.214382231292618 
1036	 0.215012138469171 
1037	 0.215700296671568 
1038	 0.216352716854957 
1039	 0.216950962991373 
1040	 0.217601023925881 
1041	 0.218201428754835 
1042	 0.218770975040852 
1043	 0.219414434693607 
1044	 0.220032651155667 
1045	 0.220640596755782 
1046	 0.2212482136819 
1047	 0.221843836784294 
1048	 0.222436895019771 
1049	 0.223059926999274 
1050	 0.223641753319338 
1051	 0.224307592044318 
1052	 0.224964862002555 
1053	 0.225536356927808 
1054	 0.226217494378652 
1055	 0.226858442041799 
1056	 0.227451014159334 
1057	 0.228079125943259 
1058	 0.228715561448041 
1059	 0.229328852588683 
1060	 0.229947059968938 
1061	 0.230587416252126 
1062	 0.23113196959453 
1063	 0.23172148649832 
1064	 0.232297109700637 
1065	 0.232818178737918 
1066	 0.233412642983824 
1067	 0.234033946849437 
1068	 0.234639476876929 
1069	 0.235248030875707 
1070	 0.235832283149769 
1071	 0.236360078509803 
1072	 0.236941316578103 
1073	 0.237552027746182 
1074	 0.238144808659312 
1075	 0.23875303936497 
1076	 0.239361200134911 
1077	 0.239919636729238 
1078	 0.240404027572831 
1079	 0.240938657258592 
1080	 0.241494628978343 
1081	 0.242017930638304 
1082	 0.242620362787391 
1083	 0.243197248536356 
1084	 0.24376658470413 
1085	 0.24431447766851 
1086	 0.244853377375623 
1087	 0.245395011361504 
1088	 0.245906919881289 
1089	 0.246456343495174 
1090	 0.247014512428817 
1091	 0.247586422222297 
1092	 0.248181951585189 
1093	 0.248761570428085 
1094	 0.249339824547284 
1095	 0.249881018444464 
1096	 0.25038603583213 
1097	 0.250938739975816 
1098	 0.251489334357334 
1099	 0.252059682843862 
1100	 0.252611315672 
1101	 0.253160410408291 
1102	 0.253708396744678 
1103	 0.254241323941229 
1104	 0.254799625878525 
1105	 0.255342737545966 
1106	 0.255881718259114 
1107	 0.256440383824851 
1108	 0.256991683850833 
1109	 0.257596611824903 
1110	 0.258201947921218 
1111	 0.258777955545695 
1112	 0.259355169187525 
1113	 0.259912943284345 
1114	 0.260423144030708 
1115	 0.26096852483098 
1116	 0.261511123950648 
1117	 0.262071269513905 
1118	 0.262638147871426 
1119	 0.263250468562963 
1120	 0.263827621535571 
1121	 0.264386217420579 
1122	 0.264960142580431 
1123	 0.265519861551799 
1124	 0.266100435749528 
1125	 0.266701376959332 
1126	 0.267286859418153 
1127	 0.267875182067645 
1128	 0.268460028913841 
1129	 0.269042882086721 
1130	 0.269624598699396 
1131	 0.27021552009065 
1132	 0.270777357954108 
1133	 0.271307438622056 
1134	 0.271863023585337 
1135	 0.27242343956625 
1136	 0.272966290499184 
1137	 0.273534371795712 
1138	 0.274102719017937 
1139	 0.274649156901895 
1140	 0.275166715344586 
1141	 0.275721407512115 
1142	 0.276292247168717 
1143	 0.276840543763734 
1144	 0.277395064933289 
1145	 0.277938713814469 
1146	 0.278465935438327 
1147	 0.278987689111424 
1148	 0.279508547255097 
1149	 0.280028483567926 
1150	 0.280530704876776 
1151	 0.281041965477957 
1152	 0.281565222787303 
1153	 0.282083336354555 
1154	 0.282592383489575 
1155	 0.283096012858382 
1156	 0.283596988573854 
1157	 0.284093985478918 
1158	 0.284589324982221 
1159	 0.285080408885369 
1160	 0.285572047348125 
1161	 0.286066416929516 
1162	 0.28654741249665 
1163	 0.287029800083671 
1164	 0.28750267499292 
1165	 0.287954214606267 
1166	 0.288416710939239 
1167	 0.288886457598023 
1168	 0.289349695720109 
1169	 0.28981246134651 
1170	 0.290281086585231 
1171	 0.290737620822049 
1172	 0.291188622575009 
1173	 0.29163500239959 
1174	 0.292085140315078 
1175	 0.292516729999806 
1176	 0.292929098278945 
1177	 0.293348421688478 
1178	 0.293755442704051 
1179	 0.294171474292797 
1180	 0.294611756534193 
1181	 0.29502494381877 
1182	 0.295426229076932 
1183	 0.295820256932733 
1184	 0.296213356394934 
1185	 0.29658913095182 
1186	 0.296975611602576 
1187	 0.297385885643783 
1188	 0.297748627194732 
1189	 0.298083366091079 
1190	 0.298427564267007 
1191	 0.298738618628976 
1192	 0.299079708402876 
1193	 0.299445361186866 
1194	 0.299798954025892 
1195	 0.300166222290924 
1196	 0.30051196742714 
1197	 0.300845267991572 
1198	 0.301174892237858 
1199	 0.301496497425629 
1200	 0.301805771232824 
1201	 0.302113061848429 
1202	 0.302414922811594 
1203	 0.302716147318922 
1204	 0.303008361085357 
1205	 0.303306413835649 
1206	 0.303605994361081 
1207	 0.303906504727024 
1208	 0.304225074378612 
1209	 0.304509761030713 
1210	 0.304789445858008 
1211	 0.305048578121644 
1212	 0.305258970566565 
1213	 0.305495379240549 
1214	 0.305736177330452 
1215	 0.305974433036674 
1216	 0.306215560351753 
1217	 0.306470033039069 
1218	 0.306709544164233 
1219	 0.306940603007786 
1220	 0.307173292050612 
1221	 0.307404324028269 
1222	 0.307634053182604 
1223	 0.307865062475277 
1224	 0.30808809137585 
1225	 0.308317543835065 
1226	 0.30852491846307 
1227	 0.308713689268709 
1228	 0.308904308661906 
1229	 0.309074718838826 
1230	 0.30925713902793 
1231	 0.309465703541675 
1232	 0.309642837424461 
1233	 0.309807046091555 
1234	 0.309957193368239 
1235	 0.31011968453261 
1236	 0.310257456483069 
1237	 0.310426775927467 
1238	 0.310634724829865 
1239	 0.310804868373732 
1240	 0.310966591363586 
1241	 0.311123999459823 
1242	 0.311256063923739 
1243	 0.311407885047245 
1244	 0.311570145631722 
1245	 0.311728452378501 
1246	 0.31190066123278 
1247	 0.312055942751919 
1248	 0.31219087209933 
1249	 0.312344033877468 
1250	 0.312488806210531 
1251	 0.312611906242763 
1252	 0.31275397550136 
1253	 0.312914202876952 
1254	 0.313037169076105 
1255	 0.313153129684881 
1256	 0.313257832802843 
1257	 0.313327450860596 
1258	 0.31341764542386 
1259	 0.313512437982173 
1260	 0.313606326793073 
1261	 0.313703325925974 
1262	 0.313795981877633 
1263	 0.313889979995528 
1264	 0.313980755436484 
1265	 0.314072526404355 
1266	 0.314154606241888 
1267	 0.314226252335022 
1268	 0.314292791005633 
1269	 0.314383901496334 
1270	 0.314475782306865 
1271	 0.314583577621994 
1272	 0.314716818025018 
1273	 0.314842025389466 
1274	 0.314973285966809 
1275	 0.315094729759273 
1276	 0.315199770098102 
1277	 0.315341731165883 
1278	 0.315502731137363 
1279	 0.315649995163313 
1280	 0.315822948726136 
1281	 0.315985358646526 
1282	 0.316124130734979 
1283	 0.316270528176376 
1284	 0.316435397561021 
1285	 0.316578810034343 
1286	 0.31672809858744 
1287	 0.316878653099445 
1288	 0.31702910324509 
1289	 0.317193828420749 
1290	 0.317331710691991 
1291	 0.317464011602767 
1292	 0.317576318970801 
1293	 0.31765538397055 
1294	 0.317761099478021 
1295	 0.317874384813529 
1296	 0.317964522617855 
1297	 0.318053583938254 
1298	 0.318143794990515 
1299	 0.318218808761754 
1300	 0.318289404481234 
1301	 0.318378498988737 
1302	 0.318437622836619 
1303	 0.318468831365991 
1304	 0.318496446384059 
1305	 0.318513958068406 
1306	 0.318509100840934 
1307	 0.318498621756308 
1308	 0.318491944403888 
1309	 0.318483380764565 
1310	 0.318472271492932 
1311	 0.31846402575927 
1312	 0.318464698458654 
1313	 0.318440664203467 
1314	 0.318403834023569 
1315	 0.318372766173991 
1316	 0.318330208875394 
1317	 0.318289343984669 
1318	 0.318242224048835 
1319	 0.318211141002577 
1320	 0.318191864952408 
1321	 0.318159958691399 
1322	 0.318127849371126 
1323	 0.31811259538685 
1324	 0.318073351438568 
1325	 0.318018061019982 
1326	 0.317991596564995 
1327	 0.317961021733342 
1328	 0.317908948177694 
1329	 0.317867463413805 
1330	 0.317817472219807 
1331	 0.317757676068758 
1332	 0.317692281396421 
1333	 0.317626168716585 
1334	 0.317558747191911 
1335	 0.3174625294063 
1336	 0.317404882509974 
1337	 0.317376166691317 
1338	 0.317329511539118 
1339	 0.31729509472922 
1340	 0.3172581473329 
1341	 0.317210562246451 
1342	 0.317166562517263 
1343	 0.317129845084876 
1344	 0.317085909329457 
1345	 0.317049421253982 
1346	 0.3170019257713 
1347	 0.316974166566128 
1348	 0.316939143111278 
1349	 0.316871112537078 
1350	 0.316813258897295 
1351	 0.316758164837037 
1352	 0.316692939158842 
1353	 0.316640162274522 
1354	 0.31660571596207 
1355	 0.316547389705524 
1356	 0.316479931877757 
1357	 0.316412240325796 
1358	 0.316328914700025 
1359	 0.316267544665052 
1360	 0.316205580993732 
1361	 0.316156828674867 
1362	 0.316138226390887 
1363	 0.316097990383003 
1364	 0.31605513794007 
1365	 0.316008591540519 
1366	 0.315948638901463 
1367	 0.315891556281693 
1368	 0.315843629372551 
1369	 0.315806560201968 
1370	 0.315740031563964 
1371	 0.315654818957409 
1372	 0.315543602966236 
1373	 0.315414650532187 
1374	 0.315275533827062 
1375	 0.315127785632927 
1376	 0.31495173183715 
1377	 0.314761629781233 
1378	 0.31453998520562 
1379	 0.31428844520624 
1380	 0.314031951913662 
1381	 0.313754908698428 
1382	 0.3134586683172 
1383	 0.313164082911105 
1384	 0.312824890474425 
1385	 0.312470267646132 
1386	 0.312064288087279 
1387	 0.311624445054345 
1388	 0.311139213580696 
1389	 0.310602245571955 
1390	 0.310036128730719 
1391	 0.309443859427194 
1392	 0.308813865114314 
1393	 0.308141367913648 
1394	 0.307448030911734 
1395	 0.306690042285623 
1396	 0.305906465874096 
1397	 0.305137173737542 
1398	 0.304351222621273 
1399	 0.303553677294472 
1400	 0.302760363093309 
1401	 0.301950562746092 
1402	 0.30109552015747 
1403	 0.300293821625093 
1404	 0.299497645854207 
1405	 0.298740844859245 
1406	 0.298021058303704 
1407	 0.297305105367858 
1408	 0.296584806430281 
1409	 0.295927741638564 
1410	 0.295282597109497 
1411	 0.294704653529998 
1412	 0.294182400117215 
1413	 0.293719731771977 
1414	 0.293304625031122 
1415	 0.292924611989084 
1416	 0.292604961426024 
1417	 0.292329529187305 
1418	 0.292063700318698 
1419	 0.2918299514678 
1420	 0.291636012049504 
1421	 0.291444730559319 
1422	 0.291254784945972 
1423	 0.291085664822519 
1424	 0.290899836575846 
1425	 0.290691287465949 
1426	 0.290508084478291 
1427	 0.290320117159481 
1428	 0.290169228596348 
1429	 0.290041220810312 
1430	 0.289923147024624 
1431	 0.289842249936063 
1432	 0.289747376251084 
1433	 0.289642147764714 
1434	 0.289562496040226 
1435	 0.289489419492682 
1436	 0.28942884156568 
1437	 0.28939668972449 
1438	 0.289359303570828 
1439	 0.289319913093335 
1440	 0.289296627848549 
1441	 0.289279106056056 
1442	 0.28926200948304 
1443	 0.289254527517504 
1444	 0.289256125105968 
1445	 0.289290396367414 
1446	 0.289320523897578 
1447	 0.28934555588886 
1448	 0.289385643426631 
1449	 0.289395711346495 
1450	 0.2894028959431 
1451	 0.28941650838637 
1452	 0.289423635593111 
1453	 0.289452542865495 
1454	 0.289487412639973 
1455	 0.289534507106279 
1456	 0.289613241393938 
1457	 0.28966454816978 
1458	 0.28971074319051 
1459	 0.289757985550881 
1460	 0.289774516278357 
1461	 0.289835185354161 
1462	 0.289924743658544 
1463	 0.29000712542696 
1464	 0.290113310237098 
1465	 0.290210978695039 
1466	 0.290287268816607 
1467	 0.290389335891615 
1468	 0.290490827264199 
1469	 0.290624787574498 
1470	 0.290778651653694 
1471	 0.290964095792019 
1472	 0.291172781251106 
1473	 0.291384895795454 
1474	 0.291584939801308 
1475	 0.291790885493126 
1476	 0.291977844521675 
1477	 0.292173560418391 
1478	 0.292404292073581 
1479	 0.292619716014413 
1480	 0.292834287861689 
1481	 0.293063922907798 
1482	 0.293286305198605 
1483	 0.293495899362296 
1484	 0.293720190936142 
1485	 0.293950323055592 
1486	 0.294191422951071 
1487	 0.294439158337997 
1488	 0.294688172683837 
1489	 0.294959472164943 
1490	 0.295206365468603 
1491	 0.295448055752845 
1492	 0.29567698704768 
1493	 0.295889635582907 
1494	 0.296100984791489 
1495	 0.296298864166967 
1496	 0.296500966593854 
1497	 0.296696362795363 
1498	 0.296907530403758 
1499	 0.297134064057235 
1500	 0.297345090891826 
1501	 0.297559343959065 
1502	 0.297761580755448 
1503	 0.297947380034847 
1504	 0.29813498085429 
1505	 0.298323291069279 
1506	 0.298513675723786 
1507	 0.298688668449804 
1508	 0.298862443265749 
1509	 0.299030753306214 
1510	 0.299185701158551 
1511	 0.299347549676157 
1512	 0.29951193347942 
1513	 0.299669783331976 
1514	 0.299847973394404 
1515	 0.300028077849994 
1516	 0.300194868137677 
1517	 0.300365801919474 
1518	 0.300538726961253 
1519	 0.300703869713667 
1520	 0.300868169562897 
1521	 0.301027832243977 
1522	 0.301178017723931 
1523	 0.30133577745981 
1524	 0.301491323809938 
1525	 0.301653117814028 
1526	 0.30182341204058 
1527	 0.301985539669606 
1528	 0.30215471360616 
1529	 0.302302862855992 
1530	 0.302447366385679 
1531	 0.302571373834216 
1532	 0.302666971787066 
1533	 0.302774493355765 
1534	 0.302870515862319 
1535	 0.302971344831391 
1536	 0.303071940755749 
1537	 0.303182929415306 
1538	 0.303299770209478 
1539	 0.303411898756735 
1540	 0.303530447221024 
1541	 0.303651537199246 
1542	 0.30377139999942 
1543	 0.303885611738107 
1544	 0.304016311307793 
1545	 0.304126462238871 
1546	 0.304215436759374 
1547	 0.304303410201465 
1548	 0.304399581019677 
1549	 0.304471216300463 
1550	 0.304543394809658 
1551	 0.304632768341577 
1552	 0.304724540859007 
1553	 0.304823741787446 
1554	 0.304935465859362 
1555	 0.305028914584396 
1556	 0.305103367171364 
1557	 0.305180572326922 
1558	 0.305265557659827 
1559	 0.305357964902965 
1560	 0.305449425881975 
1561	 0.305562818406895 
1562	 0.305638252242922 
1563	 0.305689231728262 
1564	 0.305759247437933 
1565	 0.305817034049184 
1566	 0.30588827531162 
1567	 0.305980214731986 
1568	 0.30604859408992 
1569	 0.306110339306406 
1570	 0.30616936839457 
1571	 0.306218096724598 
1572	 0.306271268171346 
1573	 0.306320042546435 
1574	 0.306374901250884 
1575	 0.306428130932536 
1576	 0.306487548434261 
1577	 0.306556165555264 
1578	 0.306621013142598 
1579	 0.306682741268217 
1580	 0.306755003317195 
1581	 0.306827147313113 
1582	 0.306911106088426 
1583	 0.307021172936594 
1584	 0.30710681475381 
1585	 0.307200616607742 
1586	 0.307261583366469 
1587	 0.307290827643644 
1588	 0.307324469511657 
1589	 0.307328576117205 
1590	 0.307358249345653 
1591	 0.307412732282209 
1592	 0.30744005777249 
1593	 0.307456080076544 
1594	 0.307483831526817 
1595	 0.307493760785361 
1596	 0.307518084831007 
1597	 0.307560669507016 
1598	 0.307605751880047 
1599	 0.307668152842196 
1600	 0.307708060958768 
1601	 0.30774469494791 
1602	 0.307778238065259 
1603	 0.307779462772899 
1604	 0.307801740442235 
1605	 0.307837063563043 
1606	 0.307876109442953 
1607	 0.307918516821764 
1608	 0.307973411739258 
1609	 0.308061075291391 
1610	 0.308119151332524 
1611	 0.308158901520023 
1612	 0.308199142083462 
1613	 0.30819157023023 
1614	 0.308187014287587 
1615	 0.30819721501183 
1616	 0.308196142007444 
1617	 0.308216009100299 
1618	 0.308237015561307 
1619	 0.308247078049711 
1620	 0.3082677643225 
1621	 0.308284475066661 
1622	 0.308299503171489 
1623	 0.308297538423381 
1624	 0.308294574971164 
1625	 0.308285712627104 
1626	 0.308245866571668 
1627	 0.308254084573522 
1628	 0.308281579433415 
1629	 0.308312892513663 
1630	 0.308367757126188 
1631	 0.308413550777702 
1632	 0.308466516024129 
1633	 0.308503133561861 
1634	 0.308542141887467 
1635	 0.308560922101943 
1636	 0.308558745419931 
1637	 0.308562772256126 
1638	 0.308550080537242 
1639	 0.308565265163586 
1640	 0.308589716339713 
1641	 0.308617832478082 
1642	 0.308672981100754 
1643	 0.308694677421719 
1644	 0.308702770149508 
1645	 0.30871112088573 
1646	 0.308702685711772 
1647	 0.30870707257227 
1648	 0.308719421936355 
1649	 0.308721767473914 
1650	 0.308724925201517 
1651	 0.308716887033025 
1652	 0.308691790633038 
1653	 0.30868503177424 
1654	 0.308678253489685 
1655	 0.308679785652969 
1656	 0.308708965416747 
1657	 0.308699030540156 
1658	 0.308667772474884 
1659	 0.308648850475075 
1660	 0.308617839395963 
1661	 0.308586420200151 
1662	 0.308559948657331 
1663	 0.308536095735583 
1664	 0.308498246311263 
1665	 0.308476628167662 
1666	 0.308467752494513 
1667	 0.308467302154881 
1668	 0.308479157588752 
1669	 0.308479560026372 
1670	 0.308499520754244 
1671	 0.308486682657978 
1672	 0.30843953753518 
1673	 0.308415284040525 
1674	 0.308387057982396 
1675	 0.308363429188808 
1676	 0.308350673166611 
1677	 0.308335474111825 
1678	 0.308312342239536 
1679	 0.308301668660934 
1680	 0.308309436625568 
1681	 0.308297551468549 
1682	 0.308280175374164 
1683	 0.308263622444637 
1684	 0.308224840051383 
1685	 0.308218097551086 
1686	 0.308240996481252 
1687	 0.308237243049334 
1688	 0.308236688001034 
1689	 0.308230084577038 
1690	 0.308210587174177 
1691	 0.308183655099755 
1692	 0.308147723093827 
1693	 0.308128424024295 
1694	 0.308101211398023 
1695	 0.308081821168331 
1696	 0.308084428149311 
1697	 0.308076461565524 
1698	 0.308062360388395 
1699	 0.308046789437723 
1700	 0.308040895104736 
1701	 0.308015285538444 
1702	 0.307967736177751 
1703	 0.307934353573268 
1704	 0.307906410764635 
1705	 0.307864218392565 
1706	 0.307813591432177 
1707	 0.307774938657974 
1708	 0.307726725107402 
1709	 0.307687562142219 
1710	 0.307676249806134 
1711	 0.307634477084058 
1712	 0.307567437856255 
1713	 0.307522749478676 
1714	 0.307484190334727 
1715	 0.307434475669284 
1716	 0.307391701921064 
1717	 0.307338754196776 
1718	 0.307265845359909 
1719	 0.307202966513143 
1720	 0.307146155763681 
1721	 0.307085685696868 
1722	 0.307018577485655 
1723	 0.306963907881997 
1724	 0.30692628374649 
1725	 0.306864045511089 
1726	 0.306791286390827 
1727	 0.306724398572548 
1728	 0.30663672351664 
1729	 0.306574451295644 
1730	 0.306546246722352 
1731	 0.306482331136928 
1732	 0.306411787189337 
1733	 0.306323988135332 
1734	 0.306214708376825 
1735	 0.306104661164929 
1736	 0.30597320323156 
1737	 0.305876771808431 
1738	 0.305782959231901 
1739	 0.305702203599383 
1740	 0.305655430589837 
1741	 0.305583063525723 
1742	 0.305505114934429 
1743	 0.305426173377399 
1744	 0.305348572540917 
1745	 0.305247843014898 
1746	 0.305134213513666 
1747	 0.305004285494879 
1748	 0.304882774386253 
1749	 0.304804539726189 
1750	 0.304737494817222 
1751	 0.304691211291386 
1752	 0.304625264509867 
1753	 0.304541745570745 
1754	 0.304441141877469 
1755	 0.3043167763232 
1756	 0.304207344483545 
1757	 0.304068943723331 
1758	 0.303913341164977 
1759	 0.303777987561122 
1760	 0.303659429906153 
1761	 0.303564126600566 
1762	 0.303492046789666 
1763	 0.303422818064248 
1764	 0.303323335590278 
1765	 0.303225322978084 
1766	 0.303107379256166 
1767	 0.30293415265527 
1768	 0.302811424102779 
1769	 0.302714292390811 
1770	 0.30261576878129 
1771	 0.302592278150323 
1772	 0.302551556338346 
1773	 0.302488030715993 
1774	 0.302465350035132 
1775	 0.302422569334904 
1776	 0.30233963486329 
1777	 0.302272131139309 
1778	 0.302188160691888 
1779	 0.302048796727463 
1780	 0.301938821778333 
1781	 0.30185532358346 
1782	 0.30177108707958 
1783	 0.301779284801611 
1784	 0.301759766786258 
1785	 0.301738325491127 
1786	 0.301704093160057 
1787	 0.301669072700934 
1788	 0.30161009704455 
1789	 0.301527831005137 
1790	 0.301451671371706 
1791	 0.301347833540182 
1792	 0.301274192262205 
1793	 0.301209862118405 
1794	 0.301164335994389 
1795	 0.30114173009823 
1796	 0.301125151461226 
1797	 0.301135022521287 
1798	 0.301128742221479 
1799	 0.301117435808442 
1800	 0.301111620005114 
1801	 0.300267340923951 
1802	 0.300460853461394 
1803	 0.30064544538521 
1804	 0.300833572593506 
1805	 0.301020882067043 
1806	 0.301214455289855 
1807	 0.301404952084707 
1808	 0.301558431393394 
1809	 0.301690931872969 
1810	 0.301804636036025 
1811	 0.301897562589212 
1812	 0.30196946132524 
1813	 0.302017332843576 
1814	 0.302052165548567 
1815	 0.302058741450655 
1816	 0.302060725759109 
1817	 0.302063030273678 
1818	 0.302048004166856 
1819	 0.302050632652815 
1820	 0.3020518932323 
1821	 0.30207031574321 
1822	 0.302121953038807 
1823	 0.302146392564975 
1824	 0.302181167420192 
1825	 0.302202203047538 
1826	 0.302175553413729 
1827	 0.302180695323787 
1828	 0.302159695451948 
1829	 0.302132323996666 
1830	 0.302076652026317 
1831	 0.301997398540205 
1832	 0.30190394224854 
1833	 0.30181826318832 
1834	 0.30173146395817 
1835	 0.301700643931991 
1836	 0.301684742988688 
1837	 0.301645250601977 
1838	 0.301626692079537 
1839	 0.301598897058471 
1840	 0.301565375616263 
1841	 0.301510465093087 
1842	 0.301479842294287 
1843	 0.301443822722191 
1844	 0.301365515112833 
1845	 0.301297997603819 
1846	 0.301226515094118 
1847	 0.301122652032241 
1848	 0.301025294478666 
1849	 0.300917720526621 
1850	 0.300793042673776 
1851	 0.300642553212686 
1852	 0.300509196357841 
1853	 0.300356581602557 
1854	 0.300147989305191 
1855	 0.299967734614546 
1856	 0.299771300535264 
1857	 0.299548972340187 
1858	 0.299353852507467 
1859	 0.299112537370772 
1860	 0.298822656385704 
1861	 0.298486821867455 
1862	 0.29811946531715 
1863	 0.297717358220526 
1864	 0.297283198428729 
1865	 0.29681349408545 
1866	 0.296294140291455 
1867	 0.295735346570988 
1868	 0.295130269936956 
1869	 0.294457349353226 
1870	 0.293765851779122 
1871	 0.293029872632191 
1872	 0.292253676892916 
1873	 0.291431354224217 
1874	 0.290590216991293 
1875	 0.289677607592664 
1876	 0.288672065231883 
1877	 0.287568241775466 
1878	 0.286362830237818 
1879	 0.285087670731847 
1880	 0.283737297192006 
1881	 0.282320812371918 
1882	 0.280808720454583 
1883	 0.279226533364567 
1884	 0.277514533401308 
1885	 0.275717037193053 
1886	 0.273822477528994 
1887	 0.271824462823233 
1888	 0.269751666557047 
1889	 0.267586341794283 
1890	 0.265380487312943 
1891	 0.263162809158418 
1892	 0.260885747852988 
1893	 0.258600515955564 
1894	 0.25628800548981 
1895	 0.253967510364646 
1896	 0.251640060951338 
1897	 0.24938230485158 
1898	 0.247135268400591 
1899	 0.244943028493224 
1900	 0.242792243935314 
1901	 0.240657800564563 
1902	 0.238654157639669 
1903	 0.236743806113951 
1904	 0.234925693436682 
1905	 0.233193436523963 
1906	 0.231606743493584 
1907	 0.23006470878322 
1908	 0.228616066461134 
1909	 0.227274339305629 
1910	 0.22597083154814 
1911	 0.224767849554164 
1912	 0.223646928376405 
1913	 0.222593332151359 
1914	 0.221607409176495 
1915	 0.220702337655211 
1916	 0.219878986681842 
1917	 0.219119331320134 
1918	 0.218423240475774 
1919	 0.217782489685318 
1920	 0.217189156807939 
1921	 0.216645283136815 
1922	 0.216173952634053 
1923	 0.215749206315445 
1924	 0.215377928556304 
1925	 0.2150666046481 
1926	 0.214811633641637 
1927	 0.214614113137473 
1928	 0.214454979969655 
1929	 0.21434530041644 
1930	 0.214270337209967 
1931	 0.214220987947796 
1932	 0.214206305466122 
1933	 0.214223798956994 
1934	 0.214272951702473 
1935	 0.214351152883902 
1936	 0.214446783427891 
1937	 0.214585558511586 
1938	 0.214773054791693 
1939	 0.214979712536366 
1940	 0.215226484942203 
1941	 0.215482741159042 
1942	 0.215744972257117 
1943	 0.216006947370427 
1944	 0.216294205775134 
1945	 0.21661443297106 
1946	 0.216946928303 
1947	 0.217311828154879 
1948	 0.217690607010934 
1949	 0.218074248572097 
1950	 0.218480131462886 
1951	 0.21892616839739 
1952	 0.219369467888959 
1953	 0.219784971486116 
1954	 0.220246155950166 
1955	 0.220703401692171 
1956	 0.221163968445511 
1957	 0.221639831398461 
1958	 0.222133886392029 
1959	 0.222632227745367 
1960	 0.223146705392223 
1961	 0.223649509400523 
1962	 0.224155398411949 
1963	 0.224672430417491 
1964	 0.225176770732371 
1965	 0.225702404384958 
1966	 0.226256416361325 
1967	 0.226808071996468 
1968	 0.227378588929865 
1969	 0.227972624540648 
1970	 0.228555681341956 
1971	 0.229155122445501 
1972	 0.22974063068179 
1973	 0.23031968866787 
1974	 0.230895109977756 
1975	 0.231471063395429 
1976	 0.232029232338582 
1977	 0.232602051860571 
1978	 0.23315996335408 
1979	 0.233723197377701 
1980	 0.234313571320047 
1981	 0.234897909949784 
1982	 0.235488963967664 
1983	 0.236082446057589 
1984	 0.236675392629215 
1985	 0.237277098920398 
1986	 0.237904554705817 
1987	 0.238497071367085 
1988	 0.239068344203907 
1989	 0.239663282606487 
1990	 0.2402239337477 
1991	 0.240787185137028 
1992	 0.241354023790719 
1993	 0.241929194862325 
1994	 0.242492849767906 
1995	 0.243046823785148 
1996	 0.243608298020249 
1997	 0.244174788111611 
1998	 0.244737124884413 
1999	 0.245300693928831 
2000	 0.245859612742935 
2001	 0.24641950247849 
2002	 0.246970551467446 
2003	 0.247509107331837 
2004	 0.248054012245434 
2005	 0.248583803833036 
2006	 0.249100910649199 
2007	 0.249616940205566 
2008	 0.250112868486187 
2009	 0.250634153768783 
2010	 0.251160544253856 
2011	 0.251690773189974 
2012	 0.252266169047434 
2013	 0.252793926195227 
2014	 0.253304271438859 
2015	 0.253792103585475 
2016	 0.254271959206022 
2017	 0.254725205448293 
2018	 0.255207849616034 
2019	 0.255711494286455 
2020	 0.256194310614138 
2021	 0.256678944089484 
2022	 0.257155389492721 
2023	 0.257607747531426 
2024	 0.258077700612345 
2025	 0.258565103378411 
2026	 0.259038022182857 
2027	 0.259506680149805 
2028	 0.259974538174722 
2029	 0.26044461184458 
2030	 0.260913181931583 
2031	 0.261369405486652 
2032	 0.26183139303243 
2033	 0.262270962680282 
2034	 0.262685454205078 
2035	 0.263103690923057 
2036	 0.263524020630378 
2037	 0.263929341076102 
2038	 0.264328640724994 
2039	 0.264712407270302 
2040	 0.265082046282023 
2041	 0.265433754178318 
2042	 0.265781101247813 
2043	 0.266117917651485 
2044	 0.26648150217993 
2045	 0.266854109674944 
2046	 0.267227789884665 
2047	 0.267631611539478 
2048	 0.268004580770929 
2049	 0.268375133340832 
2050	 0.268721771972099 
2051	 0.269032687834407 
2052	 0.26936015285428 
2053	 0.269680646785051 
2054	 0.269997459032728 
2055	 0.270305960786135 
2056	 0.270647164183686 
2057	 0.270961342224037 
2058	 0.271252052819458 
2059	 0.271572593462434 
2060	 0.271916367113609 
2061	 0.272226305133081 
2062	 0.272548363807422 
2063	 0.272835332435212 
2064	 0.273065038398339 
2065	 0.273331291083841 
2066	 0.273604577691979 
2067	 0.273871107755147 
2068	 0.274135600905026 
2069	 0.274410146737471 
2070	 0.274708980390579 
2071	 0.27501666175892 
2072	 0.275316925054708 
2073	 0.275658267586076 
2074	 0.275948466295507 
2075	 0.276202620295799 
2076	 0.276461802466218 
2077	 0.276698710769767 
2078	 0.276954475485099 
2079	 0.277204654660763 
2080	 0.277466754173358 
2081	 0.277769032376365 
2082	 0.278030714941579 
2083	 0.278264318328631 
2084	 0.278508293109344 
2085	 0.278755651480785 
2086	 0.278977396144045 
2087	 0.279232580011605 
2088	 0.279515372122742 
2089	 0.279790841550451 
2090	 0.280076644282186 
2091	 0.280350758727688 
2092	 0.280642457926858 
2093	 0.280901109906348 
2094	 0.281129216799061 
2095	 0.281364834759587 
2096	 0.281579943087623 
2097	 0.281806408374212 
2098	 0.282029616775175 
2099	 0.282270693640432 
2100	 0.282517737283377 
2101	 0.282769921794676 
2102	 0.28303224840608 
2103	 0.28331406649102 
2104	 0.283586266594681 
2105	 0.283869773678654 
2106	 0.284131661894733 
2107	 0.284377885826591 
2108	 0.284632900836883 
2109	 0.284870525505891 
2110	 0.285128697550522 
2111	 0.285399546627775 
2112	 0.285675946944572 
2113	 0.285959598431083 
2114	 0.286259949870567 
2115	 0.286538550673216 
2116	 0.286816834411257 
2117	 0.287090481902594 
2118	 0.287350577919281 
2119	 0.287615716026864 
2120	 0.287897593682402 
2121	 0.28814722439566 
2122	 0.288376890480116 
2123	 0.288607616234817 
2124	 0.288825239434314 
2125	 0.28903563811697 
2126	 0.289261616534844 
2127	 0.289448937398442 
2128	 0.28960014390296 
2129	 0.289751465358085 
2130	 0.289894188445371 
2131	 0.29000679975813 
2132	 0.29011354450407 
2133	 0.290213144965359 
2134	 0.29030171445297 
2135	 0.29038028679947 
2136	 0.290429472919562 
2137	 0.290458855838415 
2138	 0.290485785205724 
2139	 0.290476840349992 
2140	 0.290482775973621 
2141	 0.290505981613226 
2142	 0.290506720917693 
2143	 0.290490887778822 
2144	 0.290475364220475 
2145	 0.290445432834348 
2146	 0.290420680948737 
2147	 0.290415988546223 
2148	 0.290381146865538 
2149	 0.29033114360106 
2150	 0.290273348105567 
2151	 0.290198142111899 
2152	 0.29009531378623 
2153	 0.289992617028035 
2154	 0.289889785654926 
2155	 0.28976161042469 
2156	 0.289619674872747 
2157	 0.289455774633647 
2158	 0.289273443340561 
2159	 0.289073848385706 
2160	 0.28883903441582 
2161	 0.28861210380295 
2162	 0.288366177088181 
2163	 0.288128419105909 
2164	 0.287866664243987 
2165	 0.287656818059675 
2166	 0.287448499789139 
2167	 0.287265361473167 
2168	 0.287042633452632 
2169	 0.286821483155452 
2170	 0.286599583789849 
2171	 0.286345291694724 
2172	 0.286116522422094 
2173	 0.285904237166666 
2174	 0.285698867511046 
2175	 0.285509109323078 
2176	 0.285297186424199 
2177	 0.28510649045616 
2178	 0.284880571886789 
2179	 0.284618022728643 
2180	 0.284351630193649 
2181	 0.284071337496821 
2182	 0.283781817616696 
2183	 0.28344550098166 
2184	 0.283164824157124 
2185	 0.282864144161669 
2186	 0.282545439052143 
2187	 0.282269473146134 
2188	 0.282023491473499 
2189	 0.281757420082401 
2190	 0.281504123793635 
2191	 0.281251928033727 
2192	 0.280974968581972 
2193	 0.28073494201405 
2194	 0.280513384963393 
2195	 0.280311654945928 
2196	 0.280142733433643 
2197	 0.279966919635449 
2198	 0.279785898399132 
2199	 0.279641762582541 
2200	 0.279509706101346 
2201	 0.279399062988903 
2202	 0.279312003840417 
2203	 0.279271369500262 
2204	 0.279222998547877 
2205	 0.27917385226165 
2206	 0.279156385255857 
2207	 0.279165045634594 
2208	 0.27917998552157 
2209	 0.279210542791123 
2210	 0.279266489393737 
2211	 0.279327622065751 
2212	 0.279428933083178 
2213	 0.279588984517457 
2214	 0.279719036885991 
2215	 0.279874543282063 
2216	 0.280004729751918 
2217	 0.280119595876953 
2218	 0.280220890414648 
2219	 0.280295757036326 
2220	 0.280388888344449 
2221	 0.280483715849072 
2222	 0.280570566832968 
2223	 0.280652859170883 
2224	 0.280747559245686 
2225	 0.280819229198234 
2226	 0.280878899146369 
2227	 0.280908116108543 
2228	 0.280907743203774 
2229	 0.280936925096 
2230	 0.280959048297634 
2231	 0.280962582892897 
2232	 0.280987238859796 
2233	 0.280981591106904 
2234	 0.280923048479816 
2235	 0.280891065391943 
2236	 0.280876957433115 
2237	 0.280847084744796 
2238	 0.280792481449312 
2239	 0.280764564775377 
2240	 0.280750914293299 
2241	 0.28072872788317 
2242	 0.280724795004666 
2243	 0.280705987804302 
2244	 0.280671118390174 
2245	 0.280636835810234 
2246	 0.280603791995355 
2247	 0.280566700023648 
2248	 0.280513361436032 
2249	 0.280446335497164 
2250	 0.280384323182208 
2251	 0.280305167528152 
2252	 0.280246744457814 
2253	 0.280201049089875 
2254	 0.280159081257995 
2255	 0.280133767169601 
2256	 0.280082368878302 
2257	 0.280016794134007 
2258	 0.279959660328424 
2259	 0.279877621425956 
2260	 0.279836455698082 
2261	 0.279827533869721 
2262	 0.279814060418086 
2263	 0.279820840662377 
2264	 0.279813649798126 
2265	 0.279812572432351 
2266	 0.279796305615304 
2267	 0.279763267354398 
2268	 0.279737652318857 
2269	 0.279701354766382 
2270	 0.279668658387986 
2271	 0.279663894696142 
2272	 0.279644986810099 
2273	 0.279618987168698 
2274	 0.279588836202585 
2275	 0.27954528341014 
2276	 0.279469035834619 
2277	 0.279438361764753 
2278	 0.279415999269031 
2279	 0.279403977076827 
2280	 0.279425797713962 
2281	 0.279421415974591 
2282	 0.279414585870475 
2283	 0.279402182199164 
2284	 0.279382841994158 
2285	 0.279359784414322 
2286	 0.279341349082852 
2287	 0.279298758551303 
2288	 0.279231477504824 
2289	 0.279176379317279 
2290	 0.279100514526028 
2291	 0.279045224280762 
2292	 0.279034135912744 
2293	 0.278975597379697 
2294	 0.278884956991049 
2295	 0.27881184133263 
2296	 0.278729462259349 
2297	 0.278623693577806 
2298	 0.278550931114911 
2299	 0.278498981994573 
2300	 0.278466559516136 
2301	 0.278429819372456 
2302	 0.278341906081989 
2303	 0.278278677147301 
2304	 0.278184111643286 
2305	 0.278058999172005 
2306	 0.277937377464008 
2307	 0.277816768578547 
2308	 0.277696207642144 
2309	 0.277562078786083 
2310	 0.277422872533924 
2311	 0.277293866182388 
2312	 0.277174701509608 
2313	 0.277047719210241 
2314	 0.276915829583064 
2315	 0.276816972556751 
2316	 0.276660427799405 
2317	 0.276437574224219 
2318	 0.276250204984803 
2319	 0.276043943331923 
2320	 0.275880793095577 
2321	 0.275758671449533 
2322	 0.275626012895963 
2323	 0.275517041011184 
2324	 0.275392818077298 
2325	 0.275262415873433 
2326	 0.27512192471046 
2327	 0.274984045642851 
2328	 0.274819408085261 
2329	 0.274616474616122 
2330	 0.274475283891825 
2331	 0.274393259030385 
2332	 0.274272337554351 
2333	 0.274145486369728 
2334	 0.274002556506846 
2335	 0.273841030271841 
2336	 0.273709207895013 
2337	 0.273558458555173 
2338	 0.27343326046109 
2339	 0.273313766788227 
2340	 0.273092254462715 
2341	 0.272902647548415 
2342	 0.272762852846029 
2343	 0.272522584540268 
2344	 0.272335727337917 
2345	 0.272137386792575 
2346	 0.271935173004441 
2347	 0.271713124537983 
2348	 0.271502636126618 
2349	 0.271255147706394 
2350	 0.270953901010247 
2351	 0.270726244734486 
2352	 0.270514772452311 
2353	 0.270286873888649 
2354	 0.270122369274953 
2355	 0.269900976649163 
2356	 0.269635041597682 
2357	 0.26935784193723 
2358	 0.269028653288959 
2359	 0.268749298669451 
2360	 0.268462561285938 
2361	 0.268219919619478 
2362	 0.268063862685121 
2363	 0.267845659454887 
2364	 0.267582799729065 
2365	 0.267356837438118 
2366	 0.267145618020927 
2367	 0.266921042930715 
2368	 0.2667245643303 
2369	 0.266503943627626 
2370	 0.26625996252413 
2371	 0.26600335457186 
2372	 0.265727814105797 
2373	 0.265429161299919 
2374	 0.265105519904454 
2375	 0.264680811633157 
2376	 0.264299738606505 
2377	 0.264010752071202 
2378	 0.263770909769904 
2379	 0.263549868182167 
2380	 0.263260515080317 
2381	 0.262956838679814 
2382	 0.262655589339938 
2383	 0.26235332577185 
2384	 0.262033483700568 
2385	 0.261718920157318 
2386	 0.261342683189625 
2387	 0.260878038808413 
2388	 0.260519065957829 
2389	 0.260228493064485 
2390	 0.259910023271284 
2391	 0.259619459924872 
2392	 0.259337949489301 
2393	 0.258930142628322 
2394	 0.258493500460243 
2395	 0.258185385588633 
2396	 0.257783168012417 
2397	 0.257387673473151 
2398	 0.257136558045708 
2399	 0.256780296309645 
2400	 0.256421403333273 
2401	 0.256102030272986 
2402	 0.255629571020508 
2403	 0.255138836368779 
2404	 0.254768287966845 
2405	 0.254404269715036 
2406	 0.254064626293931 
2407	 0.253727797397322 
2408	 0.253337058086046 
2409	 0.253002168431088 
2410	 0.252642670065514 
2411	 0.252237789933659 
2412	 0.251775900142132 
2413	 0.251209468569672 
2414	 0.25073244008936 
2415	 0.250339002592002 
2416	 0.24994097729299 
2417	 0.249637847382337 
2418	 0.24927965292372 
2419	 0.248901232790698 
2420	 0.248479188585291 
2421	 0.248067417791763 
2422	 0.247641802590806 
2423	 0.247123728458746 
2424	 0.246645380361357 
2425	 0.24621856209636 
2426	 0.24567934280304 
2427	 0.245063422499185 
2428	 0.244557164322889 
2429	 0.244032831545346 
2430	 0.24354579650067 
2431	 0.24315861266886 
2432	 0.242735690433388 
2433	 0.242278191790722 
2434	 0.241848486741466 
2435	 0.241420631829034 
2436	 0.241022670866165 
2437	 0.240713086238715 
2438	 0.240325086404033 
2439	 0.239906980681805 
2440	 0.23949596190336 
2441	 0.238974787298032 
2442	 0.238590610052193 
2443	 0.238380016251618 
2444	 0.237983629438183 
2445	 0.237566177523726 
2446	 0.237057822408983 
2447	 0.236331410866109 
2448	 0.235824083033242 
2449	 0.23541365386177 
2450	 0.234976314628756 
2451	 0.234666469432992 
2452	 0.234248426773085 
2453	 0.233698360929582 
2454	 0.233245476275016 
2455	 0.232783574532885 
2456	 0.232316971747188 
2457	 0.231950344993184 
2458	 0.231522960675784 
2459	 0.231023347009496 
2460	 0.230604672471595 
2461	 0.230229628735622 
2462	 0.229855480554085 
2463	 0.229525154119528 
2464	 0.229146181359043 
2465	 0.228730372425379 
2466	 0.228316360226991 
2467	 0.227876577618237 
2468	 0.227468047404402 
2469	 0.227112423297911 
2470	 0.226857299777381 
2471	 0.226349437845066 
2472	 0.22575629393242 
2473	 0.225128121159993 
2474	 0.224443324007706 
2475	 0.224068186363952 
2476	 0.223809287745874 
2477	 0.223547952494295 
2478	 0.223286270896734 
2479	 0.222909489960196 
2480	 0.22267294141386 
2481	 0.22247343788795 
2482	 0.222230450261826 
2483	 0.221965134459449 
2484	 0.221447980999632 
2485	 0.22097391134614 
2486	 0.220622480806343 
2487	 0.220346520597506 
2488	 0.220155058151105 
2489	 0.219775335464187 
2490	 0.219394905385946 
2491	 0.21911207744561 
2492	 0.218671105238698 
2493	 0.218161246933702 
2494	 0.217796552334099 
2495	 0.217238802419889 
2496	 0.216707675153088 
2497	 0.216650041744882 
2498	 0.216537261186016 
2499	 0.216361931318695 
2500	 0.216181865958736 
