Wavelength	mm1400007.asd
350	 0.04999577489013 
351	 5.37021036681572E-02 
352	 0.056609911930964 
353	 5.48310119878148E-02 
354	 5.30547649103224E-02 
355	 5.41637313654639E-02 
356	 5.44583130002497E-02 
357	 5.17206313668842E-02 
358	 5.72239306517217E-02 
359	 5.36239180861302E-02 
360	 0.046785716866458 
361	 5.46804846432386E-02 
362	 5.09885421330124E-02 
363	 4.86621624218358E-02 
364	 5.43455550607554E-02 
365	 5.83487431636114E-02 
366	 5.36496933128104E-02 
367	 0.0481900102175 
368	 0.050654854894998 
369	 5.54261343508187E-02 
370	 5.64306043020737E-02 
371	 5.51624889703173E-02 
372	 5.74895379872476E-02 
373	 5.58395657823526E-02 
374	 5.32672573486885E-02 
375	 5.30747488122599E-02 
376	 5.70070522212038E-02 
377	 5.73303905124543E-02 
378	 5.64914516143661E-02 
379	 0.058399052710677 
380	 5.90168140375135E-02 
381	 5.83009540421633E-02 
382	 5.79229345247614E-02 
383	 6.02175892114196E-02 
384	 6.04635289230005E-02 
385	 0.059940833904243 
386	 6.01392154822059E-02 
387	 6.13194655223063E-02 
388	 6.15872275615021E-02 
389	 6.14701666729532E-02 
390	 6.18279509117945E-02 
391	 6.06503353558498E-02 
392	 6.20164777686972E-02 
393	 6.52507617325618E-02 
394	 6.57361510854619E-02 
395	 6.51103752959541E-02 
396	 6.50121434228692E-02 
397	 6.61748810899604E-02 
398	 6.77505049106397E-02 
399	 6.69728313756219E-02 
400	 6.57902228139316E-02 
401	 6.71231041660992E-02 
402	 0.06875540641928 
403	 6.81676295751593E-02 
404	 6.64983022582321E-02 
405	 6.82313057815791E-02 
406	 6.90689944348701E-02 
407	 6.92967694103745E-02 
408	 6.96999490255454E-02 
409	 6.99307996142536E-02 
410	 7.00011542193329E-02 
411	 6.98029034977981E-02 
412	 6.93807358875672E-02 
413	 7.03401093927851E-02 
414	 7.04660088339739E-02 
415	 6.95388059684907E-02 
416	 7.02470743003527E-02 
417	 7.05880727037218E-02 
418	 7.04253281565676E-02 
419	 7.01951110319555E-02 
420	 7.07943888201147E-02 
421	 7.01519818841319E-02 
422	 6.91901635639001E-02 
423	 0.070391252519041 
424	 7.07240989227707E-02 
425	 7.05762840055709E-02 
426	 7.04189711995206E-02 
427	 6.99724525512259E-02 
428	 6.98291211660983E-02 
429	 7.00651602794157E-02 
430	 7.04558725677808E-02 
431	 0.070295299028087 
432	 7.01290712952677E-02 
433	 7.03129181328396E-02 
434	 7.09195136754445E-02 
435	 7.09532541013805E-02 
436	 7.07325578069695E-02 
437	 7.05633044753928E-02 
438	 6.98219761714694E-02 
439	 7.01604967412023E-02 
440	 7.10516356739361E-02 
441	 7.10357187793596E-02 
442	 7.08773448588389E-02 
443	 0.070783308609733 
444	 7.08047329022692E-02 
445	 7.08449042754476E-02 
446	 7.09331066319291E-02 
447	 7.11591928517406E-02 
448	 7.15255003785561E-02 
449	 7.15941049060487E-02 
450	 7.17753078763139E-02 
451	 7.20607197721406E-02 
452	 7.20838441414526E-02 
453	 7.19860641154011E-02 
454	 7.18921959743195E-02 
455	 7.18991269392207E-02 
456	 7.20584288893323E-02 
457	 7.22184399853683E-02 
458	 7.21856135340748E-02 
459	 7.18635701402397E-02 
460	 7.19467009870164E-02 
461	 7.20590141841276E-02 
462	 7.21106529514124E-02 
463	 7.25643672750216E-02 
464	 7.25469485953058E-02 
465	 7.24231072158985E-02 
466	 7.26788896856026E-02 
467	 7.28277122370623E-02 
468	 7.28133312532343E-02 
469	 7.26944569629093E-02 
470	 7.26196908536287E-02 
471	 0.072738986906792 
472	 7.26745531225984E-02 
473	 7.23446099268128E-02 
474	 7.25850656806355E-02 
475	 7.28238959643684E-02 
476	 7.29034768167068E-02 
477	 7.28654788387661E-02 
478	 7.28500554778942E-02 
479	 7.27017393898213E-02 
480	 7.25560509368489E-02 
481	 7.29903202393081E-02 
482	 7.31448114015024E-02 
483	 7.32155698691473E-02 
484	 7.34698274152595E-02 
485	 7.31835636742405E-02 
486	 7.29216706237109E-02 
487	 7.28881007506167E-02 
488	 7.29541013141087E-02 
489	 7.31344853957108E-02 
490	 7.33099013615001E-02 
491	 7.33881329718159E-02 
492	 7.33829928015083E-02 
493	 7.33069020582392E-02 
494	 7.33162103264636E-02 
495	 7.35540781150247E-02 
496	 7.35272203210507E-02 
497	 7.35135722555439E-02 
498	 7.36467285880535E-02 
499	 7.37460779195694E-02 
500	 7.36439583805778E-02 
501	 7.35035329750579E-02 
502	 7.35383401330348E-02 
503	 7.37064027967879E-02 
504	 7.37513308366128E-02 
505	 7.36943153182126E-02 
506	 7.38024001106609E-02 
507	 0.073931429666333 
508	 7.40320920268011E-02 
509	 0.074085760967933 
510	 7.41133792383503E-02 
511	 7.40582406850626E-02 
512	 7.39627753574515E-02 
513	 7.39215424265255E-02 
514	 7.39667254180187E-02 
515	 7.40406351030824E-02 
516	 7.41209835697911E-02 
517	 7.42797481567553E-02 
518	 7.42789302671137E-02 
519	 7.41946182403875E-02 
520	 7.41985139950674E-02 
521	 7.43473378909521E-02 
522	 7.45055098501683E-02 
523	 0.074591363447947 
524	 0.074594350894641 
525	 7.45297505310648E-02 
526	 7.45052751171145E-02 
527	 7.46008713342783E-02 
528	 7.47717206062401E-02 
529	 7.48787927089987E-02 
530	 7.48731680392512E-02 
531	 7.47909789599002E-02 
532	 7.48730479237624E-02 
533	 7.50344636844677E-02 
534	 7.51551319887039E-02 
535	 7.51338444554707E-02 
536	 0.075152546616824 
537	 7.52157447301715E-02 
538	 7.52727111542298E-02 
539	 0.075432252204863 
540	 7.55201144840086E-02 
541	 0.075517440819649 
542	 7.56358237380717E-02 
543	 7.57471571960166E-02 
544	 7.58424818124535E-02 
545	 0.075934882537426 
546	 7.59906904692576E-02 
547	 7.60985160073238E-02 
548	 7.62526891672807E-02 
549	 0.076366740326288 
550	 7.64344983872603E-02 
551	 7.65010927709221E-02 
552	 7.66006153278771E-02 
553	 7.67074107629065E-02 
554	 7.68567429661997E-02 
555	 7.70316657562732E-02 
556	 7.71900010852508E-02 
557	 7.73225207945249E-02 
558	 7.75483145779664E-02 
559	 7.78741582367631E-02 
560	 7.80909380336897E-02 
561	 7.82769044563974E-02 
562	 7.84859529326956E-02 
563	 7.87503890592001E-02 
564	 7.90066127662576E-02 
565	 7.92458923919249E-02 
566	 0.079462779159143 
567	 7.96532268323409E-02 
568	 7.99706304949396E-02 
569	 8.03449901179768E-02 
570	 8.07019486976601E-02 
571	 8.11606396130953E-02 
572	 8.16051585328692E-02 
573	 8.20066431618475E-02 
574	 8.24023230830561E-02 
575	 8.27952206532282E-02 
576	 8.32817436763107E-02 
577	 8.38716437170331E-02 
578	 8.43608908082442E-02 
579	 8.48202201236211E-02 
580	 0.085308526315042 
581	 8.58617907158602E-02 
582	 8.63409259231762E-02 
583	 8.68227757869729E-02 
584	 0.087359740369348 
585	 8.79412715782772E-02 
586	 8.86925251084013E-02 
587	 8.95006275914682E-02 
588	 9.02325177839652E-02 
589	 9.10085027098218E-02 
590	 9.18104547582295E-02 
591	 9.25803087536036E-02 
592	 9.32372633498696E-02 
593	 9.38535612586655E-02 
594	 9.44901541118904E-02 
595	 9.51483302949675E-02 
596	 9.56797828359089E-02 
597	 9.61918741921317E-02 
598	 9.67352440898241E-02 
599	 9.73254005540963E-02 
600	 9.79267422260411E-02 
601	 9.85497311327216E-02 
602	 9.91921653658329E-02 
603	 0.099826473981086 
604	 0.100408418675277 
605	 0.100992141184995 
606	 0.101644372657292 
607	 0.102285856592643 
608	 0.102888529471957 
609	 0.10346751261067 
610	 0.104081706472777 
611	 0.104550815657328 
612	 0.104938151802895 
613	 0.105331283854477 
614	 0.105679441999639 
615	 0.106033478329622 
616	 0.106390301981405 
617	 0.10671008429111 
618	 0.107033476969419 
619	 0.10730979446521 
620	 0.107532057163736 
621	 0.107817089773295 
622	 0.108076783574865 
623	 0.108296645028287 
624	 0.1085035403174 
625	 0.108792119210766 
626	 0.109064333584932 
627	 0.109272004419463 
628	 0.109451611818535 
629	 0.109666464570689 
630	 0.10988331034947 
631	 0.110068126922753 
632	 0.110304862171492 
633	 0.110514347507769 
634	 0.110686985282058 
635	 0.110872573859084 
636	 0.111066852487162 
637	 0.111278111812473 
638	 0.111492291960366 
639	 0.111632590794878 
640	 0.11180257519768 
641	 0.111999962338658 
642	 0.112180612488387 
643	 0.112391782559776 
644	 0.11262546551519 
645	 0.112845339068943 
646	 0.112978873372987 
647	 0.113177613644459 
648	 0.113399765111421 
649	 0.113585159652352 
650	 0.113861318778416 
651	 0.114112739081887 
652	 0.114333508708681 
653	 0.11461037659837 
654	 0.114807284438415 
655	 0.114996181168098 
656	 0.115244043591982 
657	 0.115511041791713 
658	 0.115776244252223 
659	 0.116043958781014 
660	 0.116325004123288 
661	 0.116565517537271 
662	 0.11683382085874 
663	 0.117144158297485 
664	 0.117415255544172 
665	 0.117724420917091 
666	 0.118047735521074 
667	 0.118346490446826 
668	 0.118641935048374 
669	 0.118971722789294 
670	 0.119332004063239 
671	 0.119682857726349 
672	 0.120000925090254 
673	 0.120347800682033 
674	 0.120746737944186 
675	 0.121090773545505 
676	 0.121469709433822 
677	 0.121869308427326 
678	 0.122239492529606 
679	 0.122608484718772 
680	 0.12302654700069 
681	 0.123480177127304 
682	 0.123872133388175 
683	 0.124296665142428 
684	 0.124740749242346 
685	 0.125178011716349 
686	 0.125643682513078 
687	 0.126097095002027 
688	 0.126541331860077 
689	 0.127007880456279 
690	 0.127463343850834 
691	 0.12795023667317 
692	 0.128476707361586 
693	 0.12896452431516 
694	 0.129429455900116 
695	 0.129916255110883 
696	 0.130455914127278 
697	 0.130923964905311 
698	 0.131432056832753 
699	 0.132004444959523 
700	 0.132559663363226 
701	 0.133095825198332 
702	 0.133648169554203 
703	 0.134218947758118 
704	 0.134681139042846 
705	 0.135197545269322 
706	 0.135787563282315 
707	 0.136383022770129 
708	 0.136894493871672 
709	 0.137442346903069 
710	 0.13804002093547 
711	 0.138514952986685 
712	 0.139028459511771 
713	 0.139556153729811 
714	 0.140055425762437 
715	 0.140624597536808 
716	 0.141140491881405 
717	 0.14160587869825 
718	 0.142114731750806 
719	 0.142637605066613 
720	 0.143153676884824 
721	 0.143647167273582 
722	 0.144115746328897 
723	 0.144532846799934 
724	 0.144945959915547 
725	 0.145401845452156 
726	 0.145810728329649 
727	 0.146167519481984 
728	 0.146515114829556 
729	 0.146928833164457 
730	 0.147318691309096 
731	 0.147660642707117 
732	 0.147958792172664 
733	 0.148249012935593 
734	 0.148541932822305 
735	 0.148793391111955 
736	 0.148963195366928 
737	 0.149186945489619 
738	 0.149412883510483 
739	 0.149611828171077 
740	 0.149793937876161 
741	 0.149911227417353 
742	 0.149984568825548 
743	 0.15004877332749 
744	 0.150136674945017 
745	 0.150178810356282 
746	 0.150188575053859 
747	 0.150212294320046 
748	 0.150221613794512 
749	 0.150174865424946 
750	 0.150088058352486 
751	 0.150044777667209 
752	 0.149936669680067 
753	 0.149785725685403 
754	 0.149639633902622 
755	 0.149533248186643 
756	 0.149378034914093 
757	 0.149188760464646 
758	 0.149022165678773 
759	 0.148803657210528 
760	 0.148582932704157 
761	 0.14837376548935 
762	 0.14813177991198 
763	 0.14789958838194 
764	 0.147636994616228 
765	 0.147321855024039 
766	 0.147037358816911 
767	 0.146754880829653 
768	 0.14647319437936 
769	 0.146197968543596 
770	 0.145891825865126 
771	 0.145569658699908 
772	 0.145240271136162 
773	 0.144899564269782 
774	 0.144572044726309 
775	 0.144241421340757 
776	 0.143896203361729 
777	 0.143565224691245 
778	 0.143226021274487 
779	 0.142899537545523 
780	 0.142605070066543 
781	 0.142220848817783 
782	 0.141863079561338 
783	 0.141549377171032 
784	 0.141180529584572 
785	 0.140852592734045 
786	 0.140541420173171 
787	 0.140215267208448 
788	 0.139877935036674 
789	 0.139569852192584 
790	 0.13923873138211 
791	 0.138836717390977 
792	 0.138530169303326 
793	 0.138221668342955 
794	 0.137901257357026 
795	 0.137635381158519 
796	 0.137295475712887 
797	 0.136967898949222 
798	 0.136701797166259 
799	 0.136417821478766 
800	 0.136126959322112 
801	 0.135827255578066 
802	 0.135523287694192 
803	 0.135252553538465 
804	 0.134967380490829 
805	 0.134664370961453 
806	 0.134376451959753 
807	 0.134172995144146 
808	 0.133929973858989 
809	 0.133618955341669 
810	 0.133360184166602 
811	 0.133113068404017 
812	 0.132866298207141 
813	 0.132624641822399 
814	 0.132424486119907 
815	 0.132230994785432 
816	 0.13201807580599 
817	 0.131774266553666 
818	 0.13152961885403 
819	 0.131355759105139 
820	 0.131207685619566 
821	 0.130959640148994 
822	 0.130786966656465 
823	 0.130606552327726 
824	 0.130384523582246 
825	 0.130229581236023 
826	 0.130069054223052 
827	 0.129911994231681 
828	 0.12977616040359 
829	 0.129639920483405 
830	 0.129469187192785 
831	 0.129297122603091 
832	 0.129179770114587 
833	 0.12909559026788 
834	 0.128966940059949 
835	 0.128805283932708 
836	 0.128704466625323 
837	 0.128646572076317 
838	 0.128547546857558 
839	 0.12839232513161 
840	 0.128299806341852 
841	 0.128208031376506 
842	 0.128134069779587 
843	 0.128085550138829 
844	 0.127969771241173 
845	 0.127937085815542 
846	 0.127913418027872 
847	 0.127775742497768 
848	 0.127773009240108 
849	 0.127742619145558 
850	 0.127666445065683 
851	 0.127654843017029 
852	 0.12756939207745 
853	 0.127511654408198 
854	 0.127536688525872 
855	 0.127583217654086 
856	 0.127597429476554 
857	 0.127591536134532 
858	 0.12759227999811 
859	 0.127615121939165 
860	 0.12762658624261 
861	 0.127616283166589 
862	 0.1275929045492 
863	 0.127596525446312 
864	 0.12763313982737 
865	 0.127691806575277 
866	 0.127749859817005 
867	 0.127786080372984 
868	 0.127818499845458 
869	 0.127858162796345 
870	 0.127905415901074 
871	 0.127975445470283 
872	 0.128078519852188 
873	 0.128197118081864 
874	 0.128274552774518 
875	 0.128333848902345 
876	 0.128396385478451 
877	 0.12847251079692 
878	 0.12853296790208 
879	 0.128707010617608 
880	 0.128899760516982 
881	 0.12899989617731 
882	 0.129185184748355 
883	 0.129381882533333 
884	 0.12951320737298 
885	 0.12955018885822 
886	 0.129723472572453 
887	 0.129892566291799 
888	 0.130013885278416 
889	 0.130150177613564 
890	 0.130301045407001 
891	 0.130489859099451 
892	 0.130712696815898 
893	 0.130930371026821 
894	 0.131122925285158 
895	 0.131312520229581 
896	 0.131515040636205 
897	 0.131716932592922 
898	 0.131971183301678 
899	 0.132228284605246 
900	 0.132438547919598 
901	 0.132622175655937 
902	 0.132841251239212 
903	 0.13309723587841 
904	 0.133362393613195 
905	 0.133598011437225 
906	 0.133876339085565 
907	 0.134171650639963 
908	 0.134438169932219 
909	 0.134797903896159 
910	 0.135116597188748 
911	 0.135377783405687 
912	 0.135647562032616 
913	 0.135903660201309 
914	 0.136202480940061 
915	 0.136562761621994 
916	 0.136951774150844 
917	 0.137240067892204 
918	 0.137579431240289 
919	 0.137991496649455 
920	 0.138319385298141 
921	 0.138689050551364 
922	 0.139084552373306 
923	 0.139461540513547 
924	 0.13977811781385 
925	 0.140156126386096 
926	 0.140600516242956 
927	 0.141052698304358 
928	 0.141395305072656 
929	 0.141855792232179 
930	 0.142361447452885 
931	 0.142807760018376 
932	 0.143207666087908 
933	 0.143651808835815 
934	 0.144159414166825 
935	 0.144702171017667 
936	 0.145203446277718 
937	 0.145624308088497 
938	 0.146021283120766 
939	 0.146483576050412 
940	 0.147081307503224 
941	 0.14764018545774 
942	 0.148188497750338 
943	 0.148795723348736 
944	 0.149339416564263 
945	 0.149844609582553 
946	 0.15037486103482 
947	 0.150981027566612 
948	 0.151599287187633 
949	 0.15213234229944 
950	 0.152642900842972 
951	 0.153261932320215 
952	 0.154006885883984 
953	 0.154660032580992 
954	 0.15524150541755 
955	 0.15589327064844 
956	 0.156559671023683 
957	 0.157224001359699 
958	 0.157853267570007 
959	 0.158437693763371 
960	 0.159129359027429 
961	 0.159866051824506 
962	 0.160603510912084 
963	 0.161310275961175 
964	 0.161893456185817 
965	 0.162626891199835 
966	 0.163478528901924 
967	 0.164223919421121 
968	 0.164927463924398 
969	 0.165738437267437 
970	 0.166531942441694 
971	 0.167107489258345 
972	 0.168007402850006 
973	 0.16893912668417 
974	 0.169733874214508 
975	 0.170407084408963 
976	 0.171216510339598 
977	 0.172006650733036 
978	 0.172770886923101 
979	 0.173610449602026 
980	 0.174536731334799 
981	 0.175456549587185 
982	 0.176293236936416 
983	 0.177021137988568 
984	 0.177726122399171 
985	 0.178616876778727 
986	 0.179600321884842 
987	 0.180454576904529 
988	 0.181295802739866 
989	 0.182057317970066 
990	 0.182849398682345 
991	 0.183803133772033 
992	 0.184716424052483 
993	 0.185576050160078 
994	 0.186427079197883 
995	 0.187301465683145 
996	 0.188064350741554 
997	 0.188943898669497 
998	 0.189927449368955 
999	 0.190892116075952 
1000	 0.191734406700195 
1001	 0.189631189375601 
1002	 0.190498040134887 
1003	 0.19136285037607 
1004	 0.192169410733397 
1005	 0.192923749918147 
1006	 0.19371159157395 
1007	 0.194460131729653 
1008	 0.195249515579917 
1009	 0.196061836857823 
1010	 0.196866620526956 
1011	 0.197637810750544 
1012	 0.198367860762391 
1013	 0.199062950712262 
1014	 0.199820366158219 
1015	 0.200613905706237 
1016	 0.201367233025 
1017	 0.202139520984964 
1018	 0.202963784164002 
1019	 0.203738622314414 
1020	 0.204410889065594 
1021	 0.205160458756073 
1022	 0.205877350285026 
1023	 0.206519833405182 
1024	 0.207198332145568 
1025	 0.207866423566719 
1026	 0.208573333510754 
1027	 0.209321634326295 
1028	 0.21005578114452 
1029	 0.210726474376402 
1030	 0.211354528886478 
1031	 0.21199819121028 
1032	 0.21263462049846 
1033	 0.213259926150432 
1034	 0.213901467573026 
1035	 0.214516419051472 
1036	 0.215113777102214 
1037	 0.21579257688507 
1038	 0.216456218343121 
1039	 0.217095422166019 
1040	 0.217766043340146 
1041	 0.218379845535923 
1042	 0.218988272822453 
1043	 0.219638417192409 
1044	 0.22025625468568 
1045	 0.220846396354741 
1046	 0.22144591223424 
1047	 0.222021153182579 
1048	 0.222645605490117 
1049	 0.223344321281969 
1050	 0.223952274519078 
1051	 0.224612250486207 
1052	 0.225228174987962 
1053	 0.225722500019228 
1054	 0.226332738700308 
1055	 0.226966319768108 
1056	 0.227579246838499 
1057	 0.228203971766397 
1058	 0.228850644643338 
1059	 0.229467511155344 
1060	 0.230061170106091 
1061	 0.23069284238271 
1062	 0.231297452410412 
1063	 0.231933049684283 
1064	 0.232548332821563 
1065	 0.233085144473646 
1066	 0.233629891483384 
1067	 0.234190304673002 
1068	 0.234753002530602 
1069	 0.235349921804487 
1070	 0.235963962391621 
1071	 0.236627784556397 
1072	 0.237221326405914 
1073	 0.237814227903258 
1074	 0.238391871554659 
1075	 0.238917779092401 
1076	 0.239436043157687 
1077	 0.240037892022801 
1078	 0.240586112605065 
1079	 0.241133347610302 
1080	 0.241699800986079 
1081	 0.242233402027804 
1082	 0.242817164088666 
1083	 0.243397121515479 
1084	 0.24400618088959 
1085	 0.244587093775206 
1086	 0.245153472551654 
1087	 0.245710569100407 
1088	 0.246253987739365 
1089	 0.246805697339162 
1090	 0.247335227336837 
1091	 0.247884211747708 
1092	 0.248429712220716 
1093	 0.248929478901743 
1094	 0.249435479786391 
1095	 0.249964694689391 
1096	 0.250504227543893 
1097	 0.251071420213067 
1098	 0.251626484274298 
1099	 0.252196504847043 
1100	 0.25275177473509 
1101	 0.253291117207783 
1102	 0.253847487287085 
1103	 0.254422342928353 
1104	 0.254980050112456 
1105	 0.255528359455485 
1106	 0.256060852645217 
1107	 0.256582570852817 
1108	 0.257158158026233 
1109	 0.257765174315614 
1110	 0.258364277135264 
1111	 0.258929995068324 
1112	 0.259472773172817 
1113	 0.260031740758021 
1114	 0.260558511557542 
1115	 0.261118122043392 
1116	 0.261732104661355 
1117	 0.262304534606015 
1118	 0.262842721881939 
1119	 0.263416175513665 
1120	 0.264006734704873 
1121	 0.264566375703496 
1122	 0.265156720286273 
1123	 0.265745099928516 
1124	 0.266330269428763 
1125	 0.266906457720517 
1126	 0.267482597239207 
1127	 0.26806379226412 
1128	 0.26864150316307 
1129	 0.269207533844179 
1130	 0.269777991349573 
1131	 0.270346281273303 
1132	 0.270927587589591 
1133	 0.271519213336747 
1134	 0.272098008687436 
1135	 0.272687135410015 
1136	 0.27326775722524 
1137	 0.273819567998423 
1138	 0.274372637651298 
1139	 0.274913911826117 
1140	 0.275433920827408 
1141	 0.27597901840945 
1142	 0.276537989870434 
1143	 0.277072374545521 
1144	 0.277604789115887 
1145	 0.278139887953327 
1146	 0.278657703882907 
1147	 0.279178768045274 
1148	 0.279714921972411 
1149	 0.280242424249114 
1150	 0.280764796860782 
1151	 0.281268671351741 
1152	 0.281794204755223 
1153	 0.282306077785714 
1154	 0.282808173529964 
1155	 0.283299265359098 
1156	 0.283796791667414 
1157	 0.284281597044016 
1158	 0.284784539910496 
1159	 0.285310877311666 
1160	 0.285810126093828 
1161	 0.28630562861721 
1162	 0.286790916364592 
1163	 0.287271251171628 
1164	 0.287732422733708 
1165	 0.288163155037211 
1166	 0.288624660642659 
1167	 0.289070312706596 
1168	 0.289498227831183 
1169	 0.289967811127924 
1170	 0.290472322166078 
1171	 0.290947628586495 
1172	 0.291447950395715 
1173	 0.291904450974983 
1174	 0.292325459859259 
1175	 0.292757588133839 
1176	 0.293178974413476 
1177	 0.293594633399194 
1178	 0.294012476525896 
1179	 0.294422976680153 
1180	 0.294814940201559 
1181	 0.295213086144251 
1182	 0.295612122197885 
1183	 0.296011582084165 
1184	 0.296410174219744 
1185	 0.29681966232103 
1186	 0.297202979205945 
1187	 0.297577820250191 
1188	 0.297942629302805 
1189	 0.298289334194284 
1190	 0.298635355088677 
1191	 0.298976354534797 
1192	 0.299314130182516 
1193	 0.299634951647214 
1194	 0.299971414556363 
1195	 0.300326437513698 
1196	 0.300659705531002 
1197	 0.300984378072755 
1198	 0.30131323816304 
1199	 0.301637726484081 
1200	 0.301947204525227 
1201	 0.302263171760753 
1202	 0.302593201617445 
1203	 0.302900354596973 
1204	 0.303193121436915 
1205	 0.303485813730874 
1206	 0.303766495543529 
1207	 0.304056178349488 
1208	 0.304349162559388 
1209	 0.304635087063617 
1210	 0.304929526923273 
1211	 0.305207676377654 
1212	 0.305471612096549 
1213	 0.305734486149677 
1214	 0.305992466298902 
1215	 0.306243307385641 
1216	 0.306488706371054 
1217	 0.306739184218177 
1218	 0.306955831618658 
1219	 0.307142425523935 
1220	 0.307355390003288 
1221	 0.307551746303551 
1222	 0.307769173631105 
1223	 0.308026268708685 
1224	 0.30824485731796 
1225	 0.30844912517234 
1226	 0.308651279199589 
1227	 0.30883267646708 
1228	 0.309024653688999 
1229	 0.309223149431174 
1230	 0.309415550998134 
1231	 0.309614695657507 
1232	 0.309799644880452 
1233	 0.309976346474539 
1234	 0.310140533484602 
1235	 0.310316014872143 
1236	 0.310492747453982 
1237	 0.310656778809338 
1238	 0.31082461559003 
1239	 0.310978339485394 
1240	 0.311105227996115 
1241	 0.311252065293444 
1242	 0.311408625656681 
1243	 0.311557409388482 
1244	 0.311711804418993 
1245	 0.311858299277279 
1246	 0.311990474572343 
1247	 0.312131368078266 
1248	 0.312278778260346 
1249	 0.312418168574886 
1250	 0.312558254278657 
1251	 0.312703876031057 
1252	 0.312842310756112 
1253	 0.312977374138145 
1254	 0.313106758074384 
1255	 0.313232767896938 
1256	 0.31335627445 
1257	 0.313481911595403 
1258	 0.313588517231159 
1259	 0.313669331588541 
1260	 0.313779899268296 
1261	 0.313896108306315 
1262	 0.314004073709339 
1263	 0.314154348641148 
1264	 0.314256085578586 
1265	 0.314290570602141 
1266	 0.314368323352904 
1267	 0.314464451575506 
1268	 0.314531911688504 
1269	 0.31461319685013 
1270	 0.314714614222424 
1271	 0.314817090688777 
1272	 0.314903280349692 
1273	 0.315013594564492 
1274	 0.31515925902858 
1275	 0.315281187572357 
1276	 0.315383898144222 
1277	 0.31551470504799 
1278	 0.315655607754683 
1279	 0.315799412849238 
1280	 0.315960768152852 
1281	 0.316119643479718 
1282	 0.316289101843227 
1283	 0.31644140585681 
1284	 0.316580326901194 
1285	 0.316737687162844 
1286	 0.316868227159911 
1287	 0.316997985232141 
1288	 0.317141216071207 
1289	 0.317297548123106 
1290	 0.31743561428132 
1291	 0.317573272450091 
1292	 0.317705704506126 
1293	 0.317835737033272 
1294	 0.317949515385112 
1295	 0.31805879667767 
1296	 0.318155055117575 
1297	 0.318234516913921 
1298	 0.318305353945385 
1299	 0.318362345120426 
1300	 0.318422065525973 
1301	 0.318474574134475 
1302	 0.318520115122147 
1303	 0.31855735367781 
1304	 0.318601390162079 
1305	 0.318662333284215 
1306	 0.318681205851682 
1307	 0.318687381385752 
1308	 0.318700248791333 
1309	 0.318691572943037 
1310	 0.318650702344161 
1311	 0.318617959780595 
1312	 0.3185774274035 
1313	 0.318554046377791 
1314	 0.318525920302095 
1315	 0.318505719859677 
1316	 0.318522960029481 
1317	 0.318492311630927 
1318	 0.318428690047038 
1319	 0.318382837269355 
1320	 0.318308861504184 
1321	 0.318265378453619 
1322	 0.31824243553424 
1323	 0.318234403760416 
1324	 0.318213628536179 
1325	 0.318168051488633 
1326	 0.318129585275488 
1327	 0.318090689865906 
1328	 0.318044321383677 
1329	 0.318017078604494 
1330	 0.317957158326518 
1331	 0.317859206717897 
1332	 0.31779833829558 
1333	 0.317743199249014 
1334	 0.317688039262767 
1335	 0.317648380125279 
1336	 0.317608943255643 
1337	 0.317567247614177 
1338	 0.317520338972528 
1339	 0.317478364018764 
1340	 0.317436687064308 
1341	 0.317389314207123 
1342	 0.317341343160086 
1343	 0.317295755249838 
1344	 0.317254733873492 
1345	 0.317214021897723 
1346	 0.317162533861397 
1347	 0.317104659342383 
1348	 0.317076717061253 
1349	 0.317027199267482 
1350	 0.316963652548346 
1351	 0.31692504377953 
1352	 0.316902815767628 
1353	 0.316858866138791 
1354	 0.316828147998504 
1355	 0.316769322400506 
1356	 0.316675552688835 
1357	 0.316614888905628 
1358	 0.316550231553354 
1359	 0.316497806296532 
1360	 0.316470019848004 
1361	 0.316427226035469 
1362	 0.316382527622271 
1363	 0.316343923502047 
1364	 0.316303123928138 
1365	 0.316261596168632 
1366	 0.316228111094429 
1367	 0.316184737554097 
1368	 0.316126032227291 
1369	 0.316089592949622 
1370	 0.316024236870338 
1371	 0.315925269293407 
1372	 0.315829106134175 
1373	 0.315720150822616 
1374	 0.315598558373082 
1375	 0.315480294733196 
1376	 0.315320960786084 
1377	 0.315145290574118 
1378	 0.314926252078686 
1379	 0.314658540093055 
1380	 0.31439767417482 
1381	 0.314110527438241 
1382	 0.313816139681718 
1383	 0.313539212833097 
1384	 0.313207546968116 
1385	 0.312860084072909 
1386	 0.312463586287243 
1387	 0.312020729181609 
1388	 0.31154944230135 
1389	 0.311051433472572 
1390	 0.310502336106329 
1391	 0.309903661062685 
1392	 0.309275674506696 
1393	 0.308614526743508 
1394	 0.30790683703538 
1395	 0.307164791559754 
1396	 0.306421691459719 
1397	 0.305671093477934 
1398	 0.304892274709677 
1399	 0.304117091638077 
1400	 0.303350440635915 
1401	 0.302558608439986 
1402	 0.301726209720528 
1403	 0.300940310879667 
1404	 0.300148972709538 
1405	 0.299400957444903 
1406	 0.298689225838539 
1407	 0.297980395490398 
1408	 0.297269181537909 
1409	 0.296618123874577 
1410	 0.2959734550643 
1411	 0.295406338897898 
1412	 0.294899792419618 
1413	 0.294445379186063 
1414	 0.294054074524333 
1415	 0.293688249071959 
1416	 0.293359017232499 
1417	 0.293081206444967 
1418	 0.292824171059117 
1419	 0.292606941794523 
1420	 0.292431948783471 
1421	 0.292259991256337 
1422	 0.292100681900253 
1423	 0.291948779713375 
1424	 0.291778126567358 
1425	 0.291601472135119 
1426	 0.291419768774085 
1427	 0.291204604542311 
1428	 0.291042797361723 
1429	 0.290895456410281 
1430	 0.290767942998386 
1431	 0.290684379748017 
1432	 0.29058415654568 
1433	 0.290481266340518 
1434	 0.290393487300863 
1435	 0.29030156447354 
1436	 0.290239108115511 
1437	 0.290204844973175 
1438	 0.290163722445939 
1439	 0.290133769618973 
1440	 0.290116383595153 
1441	 0.290084211673799 
1442	 0.290067004187693 
1443	 0.290059717453896 
1444	 0.290041526823931 
1445	 0.290044258689986 
1446	 0.290058818931307 
1447	 0.290077759833626 
1448	 0.290114277466126 
1449	 0.29013275294614 
1450	 0.290144153515006 
1451	 0.290166896161594 
1452	 0.290187055408001 
1453	 0.290223582099835 
1454	 0.290272432104465 
1455	 0.290318102426656 
1456	 0.290372207533679 
1457	 0.290422719483726 
1458	 0.290477867412026 
1459	 0.290527690502143 
1460	 0.29056539543708 
1461	 0.290623221454549 
1462	 0.290680927451923 
1463	 0.290753715351744 
1464	 0.290849626338812 
1465	 0.29094245533887 
1466	 0.291033071736848 
1467	 0.291137611088017 
1468	 0.291237077645693 
1469	 0.291368690212435 
1470	 0.291518649224651 
1471	 0.291692152858303 
1472	 0.291894465253244 
1473	 0.292103145593288 
1474	 0.292307849611682 
1475	 0.292517347028319 
1476	 0.292710836450584 
1477	 0.292910760480271 
1478	 0.293112510056667 
1479	 0.293311361939506 
1480	 0.29353409950034 
1481	 0.293751091537106 
1482	 0.293963860303614 
1483	 0.294182154713537 
1484	 0.294398352750446 
1485	 0.294597288285536 
1486	 0.294823194880656 
1487	 0.295066472903769 
1488	 0.295306634998948 
1489	 0.295563775320984 
1490	 0.295801526737841 
1491	 0.296040347257386 
1492	 0.296259976563365 
1493	 0.296458160775104 
1494	 0.296666312456371 
1495	 0.29686232664623 
1496	 0.297065676780553 
1497	 0.297283259542939 
1498	 0.297486123757621 
1499	 0.297686474290706 
1500	 0.297880230571251 
1501	 0.29806169585387 
1502	 0.298241579252993 
1503	 0.298415372178984 
1504	 0.29858684432528 
1505	 0.298768990674509 
1506	 0.298951350136029 
1507	 0.299129991458895 
1508	 0.299329537277229 
1509	 0.299513409333757 
1510	 0.299678476168117 
1511	 0.299854880601076 
1512	 0.300013647207949 
1513	 0.30015354791357 
1514	 0.300316556795481 
1515	 0.300490543857962 
1516	 0.300649782357688 
1517	 0.300813892744972 
1518	 0.300996836316038 
1519	 0.301156005116499 
1520	 0.301294156020032 
1521	 0.301445443533537 
1522	 0.301592873306962 
1523	 0.301746458672654 
1524	 0.301904733653659 
1525	 0.302067179795005 
1526	 0.302240900911154 
1527	 0.302402046277047 
1528	 0.302567532110248 
1529	 0.302712022731319 
1530	 0.302835086052047 
1531	 0.302964809395042 
1532	 0.30309171241104 
1533	 0.303210039976629 
1534	 0.303330732731163 
1535	 0.303438670171132 
1536	 0.303523005777606 
1537	 0.303621141901243 
1538	 0.303717966194496 
1539	 0.303818555840787 
1540	 0.303920837647237 
1541	 0.304030331088998 
1542	 0.30415153153647 
1543	 0.304264345089 
1544	 0.30438952418373 
1545	 0.304494968163966 
1546	 0.304585582569072 
1547	 0.304668462009455 
1548	 0.304740963103122 
1549	 0.304813835368093 
1550	 0.304888870092455 
1551	 0.304959488126974 
1552	 0.30503830986244 
1553	 0.305126142765529 
1554	 0.305214628077322 
1555	 0.305303802074728 
1556	 0.305375366271613 
1557	 0.30544890770531 
1558	 0.305550555348923 
1559	 0.305640080638077 
1560	 0.30573123081602 
1561	 0.30584520068524 
1562	 0.305925864721271 
1563	 0.305975753100772 
1564	 0.306055255928823 
1565	 0.306141918161864 
1566	 0.306213684740405 
1567	 0.306291354850406 
1568	 0.306359476583988 
1569	 0.306410694513515 
1570	 0.306471186802911 
1571	 0.306536367036872 
1572	 0.306600227878936 
1573	 0.306658030238798 
1574	 0.3067175967289 
1575	 0.306784624507365 
1576	 0.306842144287484 
1577	 0.306898913864003 
1578	 0.306947948610732 
1579	 0.306972309074913 
1580	 0.307034391011554 
1581	 0.307107471045208 
1582	 0.30718322931192 
1583	 0.307300135120552 
1584	 0.307381335487141 
1585	 0.30744564299566 
1586	 0.307505140048077 
1587	 0.307553781418276 
1588	 0.3075923621722 
1589	 0.307621992278394 
1590	 0.3076448351144 
1591	 0.30764641049376 
1592	 0.307662784699066 
1593	 0.307677730691104 
1594	 0.307695896194158 
1595	 0.307718534120294 
1596	 0.307750162517042 
1597	 0.307793036366332 
1598	 0.30782798715834 
1599	 0.307872946516933 
1600	 0.307907552033263 
1601	 0.307930091627639 
1602	 0.307952578073811 
1603	 0.307957876654307 
1604	 0.307982186096277 
1605	 0.308010165526937 
1606	 0.308047027469447 
1607	 0.308091168218415 
1608	 0.308167217725963 
1609	 0.308242827382647 
1610	 0.308284855362393 
1611	 0.308303855859884 
1612	 0.308321593686474 
1613	 0.308316717584139 
1614	 0.308326687108269 
1615	 0.308350110269476 
1616	 0.308366396568888 
1617	 0.308386986183126 
1618	 0.308406339200329 
1619	 0.308435542399649 
1620	 0.308466201398941 
1621	 0.308485572780746 
1622	 0.308506596743265 
1623	 0.308505473585702 
1624	 0.308485431783734 
1625	 0.308475797944565 
1626	 0.30845012096406 
1627	 0.308452532688117 
1628	 0.308464773349079 
1629	 0.308493045848316 
1630	 0.30854278118699 
1631	 0.308580533328204 
1632	 0.308633142032262 
1633	 0.30866088080531 
1634	 0.308676380371869 
1635	 0.308689374343702 
1636	 0.308693416910295 
1637	 0.30869217474536 
1638	 0.308679646366221 
1639	 0.308679299416784 
1640	 0.308662989092069 
1641	 0.308688618776165 
1642	 0.308751527767683 
1643	 0.308781018237736 
1644	 0.308826099879682 
1645	 0.308845530278315 
1646	 0.30883006193479 
1647	 0.308834980560992 
1648	 0.308846736552457 
1649	 0.308849290815052 
1650	 0.308852613130172 
1651	 0.308844944249403 
1652	 0.308819036351639 
1653	 0.308816010900203 
1654	 0.308821490892893 
1655	 0.308816147568485 
1656	 0.308824021466426 
1657	 0.308814288495016 
1658	 0.308785925495633 
1659	 0.308760249467428 
1660	 0.308735024271343 
1661	 0.308701913916471 
1662	 0.308655707843743 
1663	 0.308618065742513 
1664	 0.308569625529463 
1665	 0.308548526401323 
1666	 0.308534386423144 
1667	 0.30854208285221 
1668	 0.308586650027692 
1669	 0.308608031811509 
1670	 0.308650114457628 
1671	 0.308649531385265 
1672	 0.308610279964191 
1673	 0.308595384998186 
1674	 0.308565820877634 
1675	 0.308549195889411 
1676	 0.308555101566988 
1677	 0.308544939920962 
1678	 0.308522600155304 
1679	 0.308509924077366 
1680	 0.308507019444977 
1681	 0.308488026093641 
1682	 0.308457362789084 
1683	 0.308439353525977 
1684	 0.308414166868245 
1685	 0.308399521891654 
1686	 0.308412290841655 
1687	 0.308394842180039 
1688	 0.308357103554647 
1689	 0.308333820442115 
1690	 0.308300481641849 
1691	 0.308279095492374 
1692	 0.30827131694355 
1693	 0.308262452119269 
1694	 0.308256677314953 
1695	 0.308247351831776 
1696	 0.308249460193396 
1697	 0.308232769606605 
1698	 0.308199303666106 
1699	 0.308175027716065 
1700	 0.308148039704915 
1701	 0.308114958398001 
1702	 0.30807895595656 
1703	 0.308050296382519 
1704	 0.308021418023544 
1705	 0.3079863833447 
1706	 0.307957499078643 
1707	 0.307926102411995 
1708	 0.307884805713983 
1709	 0.307843793617006 
1710	 0.307806833054793 
1711	 0.307764291822934 
1712	 0.307720740453822 
1713	 0.307661151465575 
1714	 0.307595307626718 
1715	 0.307526244038546 
1716	 0.307423866864875 
1717	 0.307367734242609 
1718	 0.307335911364915 
1719	 0.307303209656155 
1720	 0.307303601184198 
1721	 0.307264662056611 
1722	 0.307205427680553 
1723	 0.307153266919752 
1724	 0.307094640661924 
1725	 0.30702879155764 
1726	 0.306958083369262 
1727	 0.306893315498078 
1728	 0.306815889793688 
1729	 0.306753132499398 
1730	 0.306713333368028 
1731	 0.306649873942799 
1732	 0.306583903782859 
1733	 0.306500644024076 
1734	 0.306405519837931 
1735	 0.306292145997132 
1736	 0.306141221685155 
1737	 0.306042542160407 
1738	 0.305949910555277 
1739	 0.305870220058373 
1740	 0.305837308043114 
1741	 0.305761042572608 
1742	 0.305666136952941 
1743	 0.305576025084739 
1744	 0.305487859593135 
1745	 0.305370661060017 
1746	 0.305221688754787 
1747	 0.305113420355955 
1748	 0.305011105670525 
1749	 0.30493281704847 
1750	 0.3048752461014 
1751	 0.30476321931526 
1752	 0.304640255718402 
1753	 0.304552132468632 
1754	 0.304444411906801 
1755	 0.304328199163915 
1756	 0.304207818661324 
1757	 0.304049757836448 
1758	 0.303907832893796 
1759	 0.303804566313127 
1760	 0.3037131230375 
1761	 0.303639059809577 
1762	 0.303560340697149 
1763	 0.303477002269688 
1764	 0.303381757384464 
1765	 0.303280900978992 
1766	 0.303175351843043 
1767	 0.303033117496911 
1768	 0.302914685392408 
1769	 0.30282672681232 
1770	 0.302757661453548 
1771	 0.3027253120949 
1772	 0.302698526765728 
1773	 0.302642066973217 
1774	 0.302557543284602 
1775	 0.302480793267864 
1776	 0.302385293132402 
1777	 0.302318159441808 
1778	 0.302270550463955 
1779	 0.302157549472338 
1780	 0.302069448622116 
1781	 0.302006728286675 
1782	 0.301917425267034 
1783	 0.301904064209113 
1784	 0.301891283075263 
1785	 0.301891593801671 
1786	 0.30187344330794 
1787	 0.301878489322242 
1788	 0.301848521775524 
1789	 0.30178582973547 
1790	 0.301709507800027 
1791	 0.301585818798209 
1792	 0.301504404754083 
1793	 0.301422693962387 
1794	 0.301371111096164 
1795	 0.301353963739497 
1796	 0.301347245173275 
1797	 0.301358673471535 
1798	 0.301369698309159 
1799	 0.30141925390364 
1800	 0.301417478964227 
1801	 0.300705284870757 
1802	 0.300857705912656 
1803	 0.301014874517401 
1804	 0.301238290524374 
1805	 0.301474628072025 
1806	 0.301668983461757 
1807	 0.30185723040809 
1808	 0.302003438978681 
1809	 0.302100415607623 
1810	 0.302182688247328 
1811	 0.302229992466669 
1812	 0.302296777737658 
1813	 0.302347710421765 
1814	 0.302376887837968 
1815	 0.302404320850424 
1816	 0.302417834085752 
1817	 0.302428389023246 
1818	 0.302398787872287 
1819	 0.302405919639359 
1820	 0.302433024462486 
1821	 0.302457274217985 
1822	 0.302478532297314 
1823	 0.302513601724599 
1824	 0.302535204292155 
1825	 0.302561394467561 
1826	 0.302593490990999 
1827	 0.302603349815548 
1828	 0.30258838608904 
1829	 0.302557225356944 
1830	 0.302509511275747 
1831	 0.302416493252587 
1832	 0.302360657225141 
1833	 0.302307450148289 
1834	 0.302235849173882 
1835	 0.302184941702734 
1836	 0.302143956858045 
1837	 0.302112559324892 
1838	 0.302101770010122 
1839	 0.302085438941814 
1840	 0.302091296124403 
1841	 0.302058039862885 
1842	 0.302009561944245 
1843	 0.301954182439164 
1844	 0.301875829925765 
1845	 0.301773443093342 
1846	 0.301656572477708 
1847	 0.301552056045 
1848	 0.30145572293028 
1849	 0.301344512834584 
1850	 0.30122432808619 
1851	 0.301109951567741 
1852	 0.30097228618974 
1853	 0.300791369335899 
1854	 0.300621981194321 
1855	 0.300448500059577 
1856	 0.300253631329744 
1857	 0.300073669693938 
1858	 0.299863049323175 
1859	 0.299612573360452 
1860	 0.299323478490618 
1861	 0.298999802658881 
1862	 0.29862268040099 
1863	 0.298224891973367 
1864	 0.297805447529346 
1865	 0.297364786652601 
1866	 0.296873984265617 
1867	 0.296351961339006 
1868	 0.29577147209775 
1869	 0.295107086225845 
1870	 0.294428420128367 
1871	 0.293693277548489 
1872	 0.292892829973483 
1873	 0.29207859015311 
1874	 0.291245999058722 
1875	 0.290323958888571 
1876	 0.289379790849383 
1877	 0.288349398777022 
1878	 0.287235979646321 
1879	 0.286054275003985 
1880	 0.284763219190949 
1881	 0.283374291925109 
1882	 0.281900837301578 
1883	 0.280324988210955 
1884	 0.27865691174886 
1885	 0.276940518245614 
1886	 0.275120240628282 
1887	 0.273198144924193 
1888	 0.271184215083388 
1889	 0.269071157849709 
1890	 0.266908216771665 
1891	 0.264728424202487 
1892	 0.262475587196518 
1893	 0.260243980256392 
1894	 0.258001069025189 
1895	 0.255731151270826 
1896	 0.253447305896372 
1897	 0.251208692403549 
1898	 0.248967593154389 
1899	 0.246781243944972 
1900	 0.244660598701713 
1901	 0.242608646201544 
1902	 0.240647663842352 
1903	 0.238771234960689 
1904	 0.236971171701536 
1905	 0.235246840820474 
1906	 0.233629661793584 
1907	 0.232085003669448 
1908	 0.230628656477005 
1909	 0.229289914704316 
1910	 0.22801109676696 
1911	 0.226816761901204 
1912	 0.225725106169903 
1913	 0.2246864921462 
1914	 0.223719587930436 
1915	 0.222815316218219 
1916	 0.221981382205464 
1917	 0.221198229715439 
1918	 0.220487972691863 
1919	 0.219823841996673 
1920	 0.219225554968287 
1921	 0.218692079649389 
1922	 0.218202399078065 
1923	 0.217774653895846 
1924	 0.21739655051725 
1925	 0.217066123009529 
1926	 0.216793141436845 
1927	 0.216574875915773 
1928	 0.216416794917343 
1929	 0.216294741929429 
1930	 0.216225264375175 
1931	 0.216184138606732 
1932	 0.216170257640885 
1933	 0.216191283376057 
1934	 0.216221687820341 
1935	 0.216291947630856 
1936	 0.21638474170445 
1937	 0.216518259150843 
1938	 0.216708352355307 
1939	 0.216900306332572 
1940	 0.217124216056995 
1941	 0.21734411202299 
1942	 0.217583583808073 
1943	 0.217851384446458 
1944	 0.218136879407316 
1945	 0.218448392116507 
1946	 0.218767839456094 
1947	 0.219094978279693 
1948	 0.21944720517212 
1949	 0.219812608411346 
1950	 0.220203582101422 
1951	 0.220640498195803 
1952	 0.221060202828547 
1953	 0.221453484907773 
1954	 0.221872134486169 
1955	 0.222288461687543 
1956	 0.222731036183242 
1957	 0.223193910272992 
1958	 0.223717769872307 
1959	 0.224199054890545 
1960	 0.224663632846639 
1961	 0.225141904426915 
1962	 0.225596965978036 
1963	 0.226093286966196 
1964	 0.226615048785938 
1965	 0.227152258511789 
1966	 0.227705496273384 
1967	 0.228294792097247 
1968	 0.228866497245178 
1969	 0.229443494041507 
1970	 0.230016914393116 
1971	 0.230593910923961 
1972	 0.231165208324753 
1973	 0.231743563702134 
1974	 0.232306256378772 
1975	 0.232863865788598 
1976	 0.233398808262932 
1977	 0.233950933309564 
1978	 0.234496286800276 
1979	 0.235063800674761 
1980	 0.235653603216071 
1981	 0.236224638598397 
1982	 0.236787531759641 
1983	 0.237361084302023 
1984	 0.237921499752092 
1985	 0.238511483794679 
1986	 0.239140492829708 
1987	 0.239740184753104 
1988	 0.24035947677628 
1989	 0.240941892182025 
1990	 0.241490182015202 
1991	 0.242049992125438 
1992	 0.242604066754461 
1993	 0.243141345985279 
1994	 0.243701691819584 
1995	 0.24427098280024 
1996	 0.244836901078747 
1997	 0.24542284830118 
1998	 0.245989708308133 
1999	 0.24655010627722 
2000	 0.247103552181816 
2001	 0.24765752441975 
2002	 0.248186207245104 
2003	 0.248715513225487 
2004	 0.249219666676837 
2005	 0.249738367380211 
2006	 0.250255732695996 
2007	 0.250770331465399 
2008	 0.251274953252101 
2009	 0.251801951831932 
2010	 0.252343200261657 
2011	 0.25286824185484 
2012	 0.253424963092994 
2013	 0.253943019562634 
2014	 0.254442931658018 
2015	 0.254898744607067 
2016	 0.255355750449932 
2017	 0.255819539933208 
2018	 0.25628653057759 
2019	 0.256754038904697 
2020	 0.257224139964528 
2021	 0.257696632740617 
2022	 0.258171436369931 
2023	 0.258658774989276 
2024	 0.259129658189153 
2025	 0.259595405333159 
2026	 0.260059540990167 
2027	 0.260506805774446 
2028	 0.260957624981009 
2029	 0.261424387133567 
2030	 0.261917011474446 
2031	 0.262361816802224 
2032	 0.262800834797212 
2033	 0.26322249760296 
2034	 0.263598832312549 
2035	 0.264002980158199 
2036	 0.264421121479142 
2037	 0.264823597308353 
2038	 0.265238149107759 
2039	 0.265619856095722 
2040	 0.265975041671877 
2041	 0.26632185300627 
2042	 0.266679536428378 
2043	 0.267022514125663 
2044	 0.267374852434817 
2045	 0.267734631890565 
2046	 0.268106836795979 
2047	 0.268489414216848 
2048	 0.268853070512095 
2049	 0.269249431008077 
2050	 0.269592131204773 
2051	 0.269880542578015 
2052	 0.270187064527412 
2053	 0.270463330365148 
2054	 0.27075999585854 
2055	 0.271070818832566 
2056	 0.271385615694892 
2057	 0.271692372463047 
2058	 0.272004604903924 
2059	 0.272310909833714 
2060	 0.272614745772051 
2061	 0.272907632107028 
2062	 0.273191720559959 
2063	 0.273481878720646 
2064	 0.273770589417961 
2065	 0.274049061343339 
2066	 0.274329151549286 
2067	 0.274603525781386 
2068	 0.274865298330473 
2069	 0.275117119422322 
2070	 0.275387274922145 
2071	 0.275652948719496 
2072	 0.275957720729438 
2073	 0.276302477574298 
2074	 0.276603015378411 
2075	 0.27693350765459 
2076	 0.27720687232535 
2077	 0.277410476018145 
2078	 0.277652679649069 
2079	 0.27787858234876 
2080	 0.278124539027746 
2081	 0.278410358648487 
2082	 0.278662358456674 
2083	 0.278894631222933 
2084	 0.279141585824442 
2085	 0.279381475806609 
2086	 0.279596015193972 
2087	 0.279842997906882 
2088	 0.280104121669121 
2089	 0.280377231573591 
2090	 0.280679377948848 
2091	 0.280948555903168 
2092	 0.281224486573156 
2093	 0.281482795310762 
2094	 0.281717202117497 
2095	 0.281946485591723 
2096	 0.282159264472204 
2097	 0.282382606156092 
2098	 0.282594375263681 
2099	 0.282811691102003 
2100	 0.28304062518575 
2101	 0.283282295611619 
2102	 0.283529284469603 
2103	 0.283781052650711 
2104	 0.284041393099817 
2105	 0.28432132270771 
2106	 0.284589194790931 
2107	 0.284864108774485 
2108	 0.285123080775608 
2109	 0.285368138460786 
2110	 0.28561873112734 
2111	 0.285851215521399 
2112	 0.286104544911383 
2113	 0.286367388028556 
2114	 0.286643588657708 
2115	 0.286913123035058 
2116	 0.287196957888776 
2117	 0.287459812100775 
2118	 0.287712822195516 
2119	 0.287964970738073 
2120	 0.288212994020123 
2121	 0.288453647317459 
2122	 0.288683736712819 
2123	 0.288920470541426 
2124	 0.289162086277281 
2125	 0.289386954792494 
2126	 0.289637594928133 
2127	 0.28983195952631 
2128	 0.289969289089424 
2129	 0.290120679070213 
2130	 0.290247744080446 
2131	 0.290369763616963 
2132	 0.290486577725477 
2133	 0.290619470962678 
2134	 0.290712236625195 
2135	 0.290777662021021 
2136	 0.29083812187093 
2137	 0.290883167933476 
2138	 0.290917756598564 
2139	 0.290930767476296 
2140	 0.290948828539047 
2141	 0.290953033952186 
2142	 0.29096594451539 
2143	 0.291001996733603 
2144	 0.291005238637511 
2145	 0.290995577551588 
2146	 0.290975364728949 
2147	 0.290932801023974 
2148	 0.290886148479749 
2149	 0.290811742893305 
2150	 0.290723884705826 
2151	 0.290623417465307 
2152	 0.290486295056574 
2153	 0.290368428602529 
2154	 0.290258515147616 
2155	 0.290131889180134 
2156	 0.290022319717843 
2157	 0.289859492675232 
2158	 0.289664511291437 
2159	 0.289457856392008 
2160	 0.289191687099018 
2161	 0.288955420633622 
2162	 0.288712455416425 
2163	 0.288488193752203 
2164	 0.288278899291908 
2165	 0.288085675853337 
2166	 0.287877585236151 
2167	 0.287682536259528 
2168	 0.287460296779952 
2169	 0.287204380428593 
2170	 0.28699356400176 
2171	 0.286800238066625 
2172	 0.286588942735292 
2173	 0.286402687250997 
2174	 0.286188143846642 
2175	 0.285939274428827 
2176	 0.285703422700625 
2177	 0.285493133339772 
2178	 0.285235758695198 
2179	 0.284942879057149 
2180	 0.284657766552744 
2181	 0.284344532115995 
2182	 0.284034733192911 
2183	 0.283712286304512 
2184	 0.283417447591244 
2185	 0.283136734134144 
2186	 0.282856616163748 
2187	 0.282592554975127 
2188	 0.282369856645623 
2189	 0.282114856430157 
2190	 0.281841950819041 
2191	 0.281588074583584 
2192	 0.28132273782993 
2193	 0.281090367714419 
2194	 0.280878971135184 
2195	 0.28067321875528 
2196	 0.280483531517837 
2197	 0.280309672158024 
2198	 0.280128250620686 
2199	 0.279991162406159 
2200	 0.279901761201509 
2201	 0.279810267751646 
2202	 0.279725538120203 
2203	 0.279688230863531 
2204	 0.279646099078132 
2205	 0.279602796338461 
2206	 0.279587474637908 
2207	 0.279594802181786 
2208	 0.279616572276437 
2209	 0.279650258408336 
2210	 0.279712818102628 
2211	 0.279809088798171 
2212	 0.279903657680867 
2213	 0.280016522163462 
2214	 0.280134205003947 
2215	 0.280276343602245 
2216	 0.280392609032458 
2217	 0.280513787320297 
2218	 0.280617629622877 
2219	 0.280687161172124 
2220	 0.280769607717893 
2221	 0.280856545339878 
2222	 0.280944066336157 
2223	 0.280984740018248 
2224	 0.281050176134498 
2225	 0.281113957070707 
2226	 0.281170406881487 
2227	 0.281205830071803 
2228	 0.281254383350248 
2229	 0.281275173683418 
2230	 0.281253827990546 
2231	 0.281248777102055 
2232	 0.281243657882282 
2233	 0.281241596884697 
2234	 0.281245466999293 
2235	 0.281223694906866 
2236	 0.281186948851175 
2237	 0.281165271691422 
2238	 0.281117912833553 
2239	 0.281092531937874 
2240	 0.281111036065115 
2241	 0.281097918809952 
2242	 0.281060089057761 
2243	 0.281040719019009 
2244	 0.281019774446416 
2245	 0.281007351547333 
2246	 0.280992667002074 
2247	 0.280968216779806 
2248	 0.280912608723339 
2249	 0.28082240203951 
2250	 0.280740416639967 
2251	 0.280626316972559 
2252	 0.280560133313354 
2253	 0.280505843924151 
2254	 0.28047056199797 
2255	 0.280481115324371 
2256	 0.280454155392682 
2257	 0.280418764453899 
2258	 0.280391353739431 
2259	 0.280341804449671 
2260	 0.280319886555483 
2261	 0.280327471156274 
2262	 0.280320364878224 
2263	 0.280336551532155 
2264	 0.280316376293474 
2265	 0.280247380620517 
2266	 0.280217390858284 
2267	 0.280179826957946 
2268	 0.280158133804395 
2269	 0.280170668278468 
2270	 0.280200660483806 
2271	 0.280174393636567 
2272	 0.280149534067272 
2273	 0.280117487826211 
2274	 0.280058936807149 
2275	 0.280022035857956 
2276	 0.279992498574659 
2277	 0.279960873938164 
2278	 0.279934736449059 
2279	 0.279897244991932 
2280	 0.279846322470887 
2281	 0.279823580298809 
2282	 0.279816485413613 
2283	 0.279794049660207 
2284	 0.279794507419762 
2285	 0.279758984889619 
2286	 0.279691123578628 
2287	 0.279627274559061 
2288	 0.279540182179095 
2289	 0.279478320787703 
2290	 0.279417491584864 
2291	 0.279366555087477 
2292	 0.279333416422029 
2293	 0.279302111046042 
2294	 0.279306624232292 
2295	 0.279261817728787 
2296	 0.279177436529508 
2297	 0.279132890864195 
2298	 0.279043504626205 
2299	 0.278909657601884 
2300	 0.27886491674645 
2301	 0.278784019026021 
2302	 0.278677353780625 
2303	 0.278621261182942 
2304	 0.278504938928955 
2305	 0.278361711319015 
2306	 0.278232555879658 
2307	 0.278083182447101 
2308	 0.277958412975017 
2309	 0.277847999934302 
2310	 0.277734758984208 
2311	 0.2776457343235 
2312	 0.27753236710813 
2313	 0.277415963177494 
2314	 0.277280703779308 
2315	 0.277113405337753 
2316	 0.276964719116443 
2317	 0.276810008275558 
2318	 0.276659878770903 
2319	 0.276528582369461 
2320	 0.276372870634916 
2321	 0.276196006395094 
2322	 0.276034646838199 
2323	 0.275856301968028 
2324	 0.275711724127018 
2325	 0.275618901920926 
2326	 0.275480953470695 
2327	 0.275335417223946 
2328	 0.275186137427589 
2329	 0.274997662513061 
2330	 0.274802867643073 
2331	 0.274662354149599 
2332	 0.274554465890889 
2333	 0.274455463494123 
2334	 0.274392581222669 
2335	 0.274312155494972 
2336	 0.274171806158609 
2337	 0.274049244994933 
2338	 0.273924549294271 
2339	 0.273722269560296 
2340	 0.2735053473787 
2341	 0.273338926742058 
2342	 0.273183619306664 
2343	 0.273067010430868 
2344	 0.272973918580994 
2345	 0.272791708753477 
2346	 0.272518210804998 
2347	 0.272278219084203 
2348	 0.271994959941896 
2349	 0.271779319045484 
2350	 0.271625161902164 
2351	 0.271426854591075 
2352	 0.271223275250303 
2353	 0.270993039685137 
2354	 0.270730728497145 
2355	 0.270476814302338 
2356	 0.270215270367618 
2357	 0.269985567955859 
2358	 0.269746865808022 
2359	 0.269538290183478 
2360	 0.269401572777004 
2361	 0.269179787073329 
2362	 0.268946257797606 
2363	 0.268700760323113 
2364	 0.268352181539845 
2365	 0.268077971417853 
2366	 0.267853738326545 
2367	 0.267616623403726 
2368	 0.267413959429907 
2369	 0.267201069688358 
2370	 0.267052450331259 
2371	 0.266729074540781 
2372	 0.266361115658616 
2373	 0.266026220984112 
2374	 0.265618809079577 
2375	 0.265288631068098 
2376	 0.26502009983751 
2377	 0.264729258640674 
2378	 0.264467593822816 
2379	 0.264216981582652 
2380	 0.26395236700414 
2381	 0.263608542375978 
2382	 0.263241629668663 
2383	 0.262853574954477 
2384	 0.262427785692347 
2385	 0.262120152433504 
2386	 0.261833023156385 
2387	 0.261500976560449 
2388	 0.261232993474852 
2389	 0.260975366016004 
2390	 0.260666548753802 
2391	 0.260353611376183 
2392	 0.260014877281727 
2393	 0.259666309771661 
2394	 0.259337158322419 
2395	 0.259000341903971 
2396	 0.258742617515402 
2397	 0.25843353049719 
2398	 0.258033081763356 
2399	 0.257717048254696 
2400	 0.257392276114141 
2401	 0.25697828488528 
2402	 0.256537389405054 
2403	 0.256142990515519 
2404	 0.255784562671606 
2405	 0.25539049674164 
2406	 0.255014324551944 
2407	 0.254605524544872 
2408	 0.254073155472881 
2409	 0.253595487523697 
2410	 0.25320478094339 
2411	 0.252835462438094 
2412	 0.252468475966313 
2413	 0.252089444080306 
2414	 0.251724808362891 
2415	 0.251353101082763 
2416	 0.251006722833919 
2417	 0.250693920121045 
2418	 0.250353117873005 
2419	 0.250046738590072 
2420	 0.249670206152113 
2421	 0.249253893194917 
2422	 0.248818128677314 
2423	 0.248313426666376 
2424	 0.247818264328046 
2425	 0.247337684548266 
2426	 0.246839539345871 
2427	 0.246313154621192 
2428	 0.245830951406799 
2429	 0.245328874162341 
2430	 0.244845956151383 
2431	 0.244359673102329 
2432	 0.24389897800123 
2433	 0.243510972893276 
2434	 0.243118387708225 
2435	 0.242759312568332 
2436	 0.242392081696444 
2437	 0.242022228518924 
2438	 0.2415630112595 
2439	 0.241028701214391 
2440	 0.240559322627441 
2441	 0.24003893275155 
2442	 0.239668161235051 
2443	 0.239530396410915 
2444	 0.23913724729102 
2445	 0.238652260611425 
2446	 0.238174258871722 
2447	 0.237484273641354 
2448	 0.236965449228716 
2449	 0.236606842602635 
2450	 0.236222324612913 
2451	 0.235862489971252 
2452	 0.235430965944892 
2453	 0.234992851674722 
2454	 0.234544609717096 
2455	 0.23403858247747 
2456	 0.233585263897194 
2457	 0.23316332065421 
2458	 0.232735647947638 
2459	 0.232356054380402 
2460	 0.231875918809567 
2461	 0.231348983363814 
2462	 0.230843799385401 
2463	 0.230211781350717 
2464	 0.229717744891349 
2465	 0.22933591293771 
2466	 0.229005223258859 
2467	 0.228772702455122 
2468	 0.228460761179954 
2469	 0.228126123109235 
2470	 0.227706033151595 
2471	 0.227386121185402 
2472	 0.226951960122598 
2473	 0.226496518656807 
2474	 0.226087652187923 
2475	 0.225713207745721 
2476	 0.225486523808381 
2477	 0.225316512651731 
2478	 0.225130441492067 
2479	 0.224863697807168 
2480	 0.224278651814233 
2481	 0.223752041976944 
2482	 0.223417435626093 
2483	 0.223026719171621 
2484	 0.222756709920255 
2485	 0.222466878370728 
2486	 0.221868095888451 
2487	 0.221352409461573 
2488	 0.221065308496449 
2489	 0.220813277113341 
2490	 0.22072033474205 
2491	 0.220464666819833 
2492	 0.220040622006897 
2493	 0.219619367526903 
2494	 0.219239192622116 
2495	 0.219031504344096 
2496	 0.2188803866171 
2497	 0.218682654147423 
2498	 0.218369370751988 
2499	 0.218079969582538 
2500	 0.217748340587603 
