Wavelength	mm1400004.asd
350	 5.60515256209126E-02 
351	 6.22461573981987E-02 
352	 0.060584451139745 
353	 4.93150515881733E-02 
354	 4.87400337614153E-02 
355	 5.34889375834798E-02 
356	 5.66835078482234E-02 
357	 5.41574911269105E-02 
358	 5.24321058797528E-02 
359	 5.16404454090624E-02 
360	 0.052575113835679 
361	 5.55918923105813E-02 
362	 4.98107331454138E-02 
363	 4.87420406262423E-02 
364	 5.60400485600513E-02 
365	 5.61536731141659E-02 
366	 5.36610100341271E-02 
367	 5.24552593635743E-02 
368	 0.054394312355583 
369	 5.38742123351394E-02 
370	 5.23025471468806E-02 
371	 0.052272929062963 
372	 5.63278449820287E-02 
373	 5.95624526917566E-02 
374	 5.82741656096793E-02 
375	 5.40514737149464E-02 
376	 5.71105149176543E-02 
377	 0.058117635076752 
378	 5.77653812891186E-02 
379	 5.88526277910054E-02 
380	 6.01825821615967E-02 
381	 5.87434734884551E-02 
382	 5.70709628204469E-02 
383	 6.08967077447554E-02 
384	 6.15849563808686E-02 
385	 5.97344394897404E-02 
386	 5.80720784704412E-02 
387	 6.09080763660131E-02 
388	 6.12585146270547E-02 
389	 6.03332406545391E-02 
390	 6.07465905353002E-02 
391	 5.77896809711878E-02 
392	 5.82224117481505E-02 
393	 6.18529489961718E-02 
394	 6.25397167613874E-02 
395	 6.17943889201905E-02 
396	 6.22627981642096E-02 
397	 0.064912997048486 
398	 6.70793931148178E-02 
399	 6.70608535256483E-02 
400	 6.70254042580543E-02 
401	 6.92631791187858E-02 
402	 6.77313886551623E-02 
403	 6.57994477265115E-02 
404	 0.065567367237039 
405	 6.71058388576769E-02 
406	 6.73081942945864E-02 
407	 0.06794315749825 
408	 6.98608639062863E-02 
409	 6.89326681485291E-02 
410	 6.78184751327287E-02 
411	 6.76745206005538E-02 
412	 6.86966954056998E-02 
413	 7.00188176754241E-02 
414	 7.05066510164598E-02 
415	 6.99925579068791E-02 
416	 6.94790067931574E-02 
417	 6.86904829161514E-02 
418	 6.88990980245092E-02 
419	 0.070586782363037 
420	 7.06769643399593E-02 
421	 7.00831775524567E-02 
422	 6.96474082024203E-02 
423	 6.99776829265555E-02 
424	 7.01857652474758E-02 
425	 0.070065387108426 
426	 6.97965482654914E-02 
427	 7.01123010841283E-02 
428	 6.99557916734361E-02 
429	 0.069726873132471 
430	 7.00088072444818E-02 
431	 0.069801510793253 
432	 6.96418943437526E-02 
433	 6.97488485694719E-02 
434	 6.99607940182966E-02 
435	 7.01587406551118E-02 
436	 7.01282959637712E-02 
437	 6.98518546771137E-02 
438	 6.98424186557672E-02 
439	 6.96732209849603E-02 
440	 6.95751960544621E-02 
441	 6.99895836374416E-02 
442	 7.02325456015062E-02 
443	 0.070554560012237 
444	 7.08683625569053E-02 
445	 7.04086618507405E-02 
446	 7.03339152003803E-02 
447	 7.06910984413999E-02 
448	 7.11177731944065E-02 
449	 7.10626309243165E-02 
450	 7.10428272113754E-02 
451	 7.12391023980433E-02 
452	 7.15060289979535E-02 
453	 7.17449641511451E-02 
454	 7.17170014835677E-02 
455	 7.14266586574895E-02 
456	 7.14892491317955E-02 
457	 7.16251461646113E-02 
458	 7.17020152663967E-02 
459	 7.16621824568927E-02 
460	 0.071565417786382 
461	 7.14162740035264E-02 
462	 7.13755602704407E-02 
463	 7.18379928874937E-02 
464	 7.20278177857187E-02 
465	 7.20416995368327E-02 
466	 7.21440529887758E-02 
467	 7.22034764538681E-02 
468	 7.21390919430192E-02 
469	 7.19824882250276E-02 
470	 7.18695814605696E-02 
471	 7.20997473907522E-02 
472	 7.23829032427739E-02 
473	 7.24505600749622E-02 
474	 7.22971805186293E-02 
475	 7.22567294132803E-02 
476	 7.22859443652344E-02 
477	 7.22218387512085E-02 
478	 7.24315685486577E-02 
479	 7.24664488645562E-02 
480	 7.22564820800792E-02 
481	 7.23366118463284E-02 
482	 7.25809371300262E-02 
483	 0.072711348884853 
484	 7.25637213954379E-02 
485	 7.26445656592259E-02 
486	 7.25964150726676E-02 
487	 7.24774724959184E-02 
488	 7.26698526209874E-02 
489	 7.27008419671686E-02 
490	 7.26986332270295E-02 
491	 7.28064377924292E-02 
492	 7.29707105270771E-02 
493	 7.29031858079087E-02 
494	 7.27983492904526E-02 
495	 7.30123736233296E-02 
496	 7.32027039474412E-02 
497	 7.32264194981968E-02 
498	 7.31315678704784E-02 
499	 7.32100913145908E-02 
500	 7.33033745538715E-02 
501	 0.073383164987765 
502	 7.34380412255493E-02 
503	 7.33610447510722E-02 
504	 0.073368966321603 
505	 7.34657882581118E-02 
506	 7.34635228973251E-02 
507	 7.35401221909066E-02 
508	 7.36356219903396E-02 
509	 7.36534970945783E-02 
510	 7.35009900748754E-02 
511	 7.34076059761286E-02 
512	 7.34667616669335E-02 
513	 7.36571516795759E-02 
514	 7.36927230806274E-02 
515	 7.37065022537261E-02 
516	 7.37840914305641E-02 
517	 7.38461542665213E-02 
518	 7.39095212159474E-02 
519	 7.38998207457361E-02 
520	 7.37938367572732E-02 
521	 7.39786070535528E-02 
522	 7.40756581095716E-02 
523	 7.40177859336909E-02 
524	 7.41009716983995E-02 
525	 0.074221075266281 
526	 7.42705211494212E-02 
527	 7.42128151453323E-02 
528	 7.42284207036766E-02 
529	 0.074322425162697 
530	 7.44413314121768E-02 
531	 7.44994068695334E-02 
532	 7.45270721893709E-02 
533	 7.45867504349803E-02 
534	 7.46808690875375E-02 
535	 7.46653895348795E-02 
536	 7.47376942258649E-02 
537	 7.48405501020448E-02 
538	 0.074854050100322 
539	 7.49807098643685E-02 
540	 7.50398462546141E-02 
541	 7.50138704635797E-02 
542	 7.51376000768295E-02 
543	 7.52424071189816E-02 
544	 7.53342002544746E-02 
545	 7.54544684424733E-02 
546	 7.56098726321949E-02 
547	 7.56591496676783E-02 
548	 7.56759614018884E-02 
549	 7.58976851984765E-02 
550	 7.60339945827138E-02 
551	 7.60758054936923E-02 
552	 7.61061583742709E-02 
553	 7.63069569339251E-02 
554	 7.65199873815804E-02 
555	 7.66945947656206E-02 
556	 7.68403672619333E-02 
557	 0.07695951802445 
558	 0.077159636594098 
559	 7.74538800610372E-02 
560	 7.76797036295845E-02 
561	 7.78477648327165E-02 
562	 0.078036460566655 
563	 7.83206188243012E-02 
564	 7.85898837183337E-02 
565	 7.88470776582371E-02 
566	 7.90919826882904E-02 
567	 7.93146871000165E-02 
568	 7.96031202723097E-02 
569	 0.079949843672532 
570	 8.03341068310028E-02 
571	 8.07857285252908E-02 
572	 8.12590262319143E-02 
573	 8.17016245483491E-02 
574	 8.20699379169928E-02 
575	 8.24700620108483E-02 
576	 8.29577764578993E-02 
577	 8.35219205504421E-02 
578	 8.40272952481714E-02 
579	 8.45693547319792E-02 
580	 8.50548717483576E-02 
581	 8.53745867610621E-02 
582	 0.085867331418762 
583	 8.64519518701433E-02 
584	 8.70495076628107E-02 
585	 8.76407073748744E-02 
586	 8.83599729714105E-02 
587	 8.91331029310609E-02 
588	 8.98717083653125E-02 
589	 9.07402791199068E-02 
590	 9.15256191464495E-02 
591	 0.092197873685412 
592	 9.29033788069102E-02 
593	 9.35734973136053E-02 
594	 9.41895650690562E-02 
595	 9.47539014967506E-02 
596	 9.52975327919462E-02 
597	 9.58375274236649E-02 
598	 9.63947047039474E-02 
599	 9.69907705135831E-02 
600	 9.76279183907993E-02 
601	 9.82945830521132E-02 
602	 9.89567612517207E-02 
603	 9.95450541408203E-02 
604	 0.100109936125901 
605	 0.100702391227185 
606	 0.101356258251862 
607	 0.10201878722985 
608	 0.102590599475018 
609	 0.103097374136684 
610	 0.103705336069529 
611	 0.104228717513929 
612	 0.104635992435267 
613	 0.104963314062686 
614	 0.105336255767987 
615	 0.105685623182945 
616	 0.106020579633266 
617	 0.1063960078819 
618	 0.106746677756851 
619	 0.107044891933842 
620	 0.107295550395749 
621	 0.107556501999652 
622	 0.107803679785509 
623	 0.108025763906411 
624	 0.10822342144181 
625	 0.108438132562035 
626	 0.108705266302483 
627	 0.108990100166907 
628	 0.109168430373757 
629	 0.109348113540593 
630	 0.109564001845023 
631	 0.109806662727562 
632	 0.109972109971493 
633	 0.110170019683101 
634	 0.110391404783295 
635	 0.110537059984689 
636	 0.110743322205224 
637	 0.110955053380715 
638	 0.111121779147394 
639	 0.111283140071304 
640	 0.111467232246684 
641	 0.111672679403769 
642	 0.111881994513756 
643	 0.112090882444292 
644	 0.112314769913904 
645	 0.11254127883 
646	 0.11271315573779 
647	 0.112922261479518 
648	 0.113150161069964 
649	 0.113358364077839 
650	 0.11357039563199 
651	 0.113797212052652 
652	 0.114038723119647 
653	 0.114283955040142 
654	 0.114497380230819 
655	 0.114687717055064 
656	 0.114884627265631 
657	 0.115145395279431 
658	 0.11543504765549 
659	 0.115722543639139 
660	 0.115982013155301 
661	 0.116214992768635 
662	 0.116516746589291 
663	 0.116873411806093 
664	 0.117100181706466 
665	 0.117404183740186 
666	 0.117732182019732 
667	 0.118004529481185 
668	 0.118360421952087 
669	 0.118700422195333 
670	 0.119037201775369 
671	 0.119464934012188 
672	 0.119753075295276 
673	 0.120043476172714 
674	 0.120439651681264 
675	 0.120798639063518 
676	 0.121176367766354 
677	 0.12155861927217 
678	 0.121915739386413 
679	 0.122305137123001 
680	 0.122754752722799 
681	 0.123227122942391 
682	 0.12360577950771 
683	 0.124015035009693 
684	 0.124444225620945 
685	 0.124867395581511 
686	 0.125341414750115 
687	 0.12581069678705 
688	 0.126259066828083 
689	 0.126703337621536 
690	 0.127185728439289 
691	 0.127676785388293 
692	 0.128164334577413 
693	 0.128701391093904 
694	 0.129178712838583 
695	 0.129641296438629 
696	 0.130168061268574 
697	 0.13067923835113 
698	 0.13119438372963 
699	 0.131720563736062 
700	 0.132246087289121 
701	 0.132801443825347 
702	 0.133363995668662 
703	 0.133905150351353 
704	 0.134406541818087 
705	 0.134945989969241 
706	 0.135506809630591 
707	 0.136029501923162 
708	 0.136559389330483 
709	 0.13713239554197 
710	 0.137718374843817 
711	 0.138193900070048 
712	 0.138751882466682 
713	 0.139315342249845 
714	 0.139794959628115 
715	 0.140357622615769 
716	 0.1409092026761 
717	 0.141415475211722 
718	 0.141896166885596 
719	 0.142414374260942 
720	 0.142907046629105 
721	 0.143356145446404 
722	 0.143874645186016 
723	 0.144338105716531 
724	 0.14474961219118 
725	 0.145156877183702 
726	 0.145591578030038 
727	 0.145980936516061 
728	 0.146330344550175 
729	 0.146717861425312 
730	 0.147094436883309 
731	 0.147438078325485 
732	 0.147742518342638 
733	 0.148021986040786 
734	 0.148320958540665 
735	 0.14858733872634 
736	 0.148757738413618 
737	 0.148969441228983 
738	 0.149177407630502 
739	 0.149369266547143 
740	 0.149579363259466 
741	 0.149681792666699 
742	 0.149740646175921 
743	 0.14982535398426 
744	 0.149904714608165 
745	 0.149951259557723 
746	 0.149969799970918 
747	 0.149979999235284 
748	 0.149977285474575 
749	 0.149938960891339 
750	 0.149866570705937 
751	 0.149791763542573 
752	 0.149679904822044 
753	 0.149532217282231 
754	 0.149371510975902 
755	 0.149259603268032 
756	 0.149137927247536 
757	 0.148964301641334 
758	 0.148725646262426 
759	 0.148537258068909 
760	 0.148356017575345 
761	 0.148144626951143 
762	 0.147894288107412 
763	 0.147612821695177 
764	 0.147342895259469 
765	 0.147101014110567 
766	 0.146801126350817 
767	 0.146514265754313 
768	 0.146247621330184 
769	 0.145971223931576 
770	 0.145650418980818 
771	 0.145305162803458 
772	 0.144964851177297 
773	 0.144660429521798 
774	 0.144309062926717 
775	 0.143962334579203 
776	 0.14365848607342 
777	 0.143312983171502 
778	 0.142971379950113 
779	 0.142644915242002 
780	 0.142323889281297 
781	 0.141973676033494 
782	 0.141613238990487 
783	 0.141258804040581 
784	 0.140919107745841 
785	 0.140589209730574 
786	 0.140263709295052 
787	 0.139935977974826 
788	 0.139590275458715 
789	 0.13931073843801 
790	 0.139002669872546 
791	 0.1385680001873 
792	 0.138264838485343 
793	 0.137968746209309 
794	 0.137642377199863 
795	 0.137337016324569 
796	 0.137001053732798 
797	 0.136692566236997 
798	 0.136423751262153 
799	 0.136091352180314 
800	 0.135821466774714 
801	 0.135563761367361 
802	 0.135249424404653 
803	 0.134958982983428 
804	 0.134676963695353 
805	 0.134386744018376 
806	 0.134082392743175 
807	 0.133842794185846 
808	 0.133608386299305 
809	 0.133347185512336 
810	 0.13308367584373 
811	 0.132841355040232 
812	 0.132599798218118 
813	 0.132345226484606 
814	 0.132107215331212 
815	 0.131919857411641 
816	 0.131745973804097 
817	 0.131525795177182 
818	 0.131255074111353 
819	 0.131046130569844 
820	 0.130892148460235 
821	 0.130689419916557 
822	 0.130539564408596 
823	 0.130352526380546 
824	 0.130107648665491 
825	 0.129939000664318 
826	 0.129816854611983 
827	 0.129685158722149 
828	 0.129512379128131 
829	 0.129378989932954 
830	 0.12920239861196 
831	 0.129014623919581 
832	 0.128894351006346 
833	 0.128838529769781 
834	 0.12872414474552 
835	 0.128550011461687 
836	 0.128433099056633 
837	 0.128352378882672 
838	 0.128264658062549 
839	 0.128150006677726 
840	 0.128036203651377 
841	 0.127935805115058 
842	 0.127842814167214 
843	 0.127754215389521 
844	 0.127695786952825 
845	 0.12767597865667 
846	 0.1276265618908 
847	 0.127491611476128 
848	 0.127492500946394 
849	 0.127465595315054 
850	 0.127375239198723 
851	 0.127312091991989 
852	 0.127254706032242 
853	 0.127222564758914 
854	 0.127225348731244 
855	 0.127252228900637 
856	 0.127275217298537 
857	 0.127272274945935 
858	 0.127255732720757 
859	 0.127323504332262 
860	 0.127329346158926 
861	 0.12729996092685 
862	 0.12730838225537 
863	 0.127324816056231 
864	 0.127367854840043 
865	 0.127435427112239 
866	 0.127503599003157 
867	 0.127498941112149 
868	 0.127519176553568 
869	 0.127591860646189 
870	 0.127658092418385 
871	 0.127722627921506 
872	 0.12783734120254 
873	 0.127982324819519 
874	 0.128015473599089 
875	 0.128088689097683 
876	 0.128188646835104 
877	 0.128265888145247 
878	 0.128271171812881 
879	 0.12845961777552 
880	 0.128676393309021 
881	 0.128722948702948 
882	 0.128874195736884 
883	 0.129061063381959 
884	 0.12922444406128 
885	 0.129332893604064 
886	 0.12946131826426 
887	 0.129624833445979 
888	 0.129800612656213 
889	 0.129944039618742 
890	 0.130089993070125 
891	 0.130240556644663 
892	 0.130417564528487 
893	 0.130664046070975 
894	 0.130873685245999 
895	 0.131078371785566 
896	 0.131298261920322 
897	 0.131481531321112 
898	 0.131721427500714 
899	 0.131969679639868 
900	 0.132169329601238 
901	 0.132335033956344 
902	 0.132593183186146 
903	 0.132886653636176 
904	 0.133124357739222 
905	 0.133353360142172 
906	 0.133666235972278 
907	 0.133985207506653 
908	 0.134207477404436 
909	 0.134564238237755 
910	 0.134853987264208 
911	 0.135082159676539 
912	 0.135380591544482 
913	 0.135628118914166 
914	 0.135957094437111 
915	 0.136366967874006 
916	 0.136727281200415 
917	 0.13701854923236 
918	 0.13737666297925 
919	 0.13780195899837 
920	 0.138129446801659 
921	 0.138479220085851 
922	 0.138842340333874 
923	 0.139207641997223 
924	 0.139591040348549 
925	 0.139945025076625 
926	 0.14036844264503 
927	 0.140863117694299 
928	 0.141205338357991 
929	 0.141664383297817 
930	 0.142135303390124 
931	 0.142527383710022 
932	 0.143008059276852 
933	 0.143502094937214 
934	 0.144000907040023 
935	 0.144506330274309 
936	 0.14500291929872 
937	 0.145434880065476 
938	 0.145849794842363 
939	 0.14632419864074 
940	 0.146897061457729 
941	 0.147468096755947 
942	 0.148017154271066 
943	 0.14856171636293 
944	 0.149109754446823 
945	 0.14966870917485 
946	 0.1502626692601 
947	 0.150885504760782 
948	 0.151380442127802 
949	 0.151892029055417 
950	 0.152515890523734 
951	 0.153250357357685 
952	 0.153830323605508 
953	 0.15439834778571 
954	 0.155035949529736 
955	 0.155745713096832 
956	 0.156392952300361 
957	 0.157088973290612 
958	 0.157786946876209 
959	 0.158380797729249 
960	 0.159033237156218 
961	 0.15982987278532 
962	 0.160629894003933 
963	 0.161218319130812 
964	 0.161812278481917 
965	 0.162632567072113 
966	 0.163517664213869 
967	 0.164145904037378 
968	 0.164869225807791 
969	 0.165628090387392 
970	 0.166371037899186 
971	 0.167083786438988 
972	 0.167825157993482 
973	 0.168693856682535 
974	 0.169572066703871 
975	 0.170271397402238 
976	 0.171086554845679 
977	 0.171917948702379 
978	 0.172724204085034 
979	 0.173531950993304 
980	 0.174422482064247 
981	 0.175253361514844 
982	 0.17601599271621 
983	 0.176795554069311 
984	 0.177604329251388 
985	 0.178589244355097 
986	 0.179584184705192 
987	 0.180335855934199 
988	 0.181103534859465 
989	 0.181894822476083 
990	 0.182733278278325 
991	 0.183641166477707 
992	 0.184604630878252 
993	 0.185505974100633 
994	 0.186332569674177 
995	 0.187126267112625 
996	 0.187892200313296 
997	 0.188812381492841 
998	 0.189765759330164 
999	 0.190611346352899 
1000	 0.191600709123417 
1001	 0.189864089376963 
1002	 0.190661405030714 
1003	 0.191426114097218 
1004	 0.192231548715863 
1005	 0.193023039249973 
1006	 0.193805218521868 
1007	 0.194597512465934 
1008	 0.195444588489663 
1009	 0.196200254270017 
1010	 0.196963492208464 
1011	 0.197774259519302 
1012	 0.198515656251251 
1013	 0.199277107382942 
1014	 0.200046380704786 
1015	 0.200747360806381 
1016	 0.201513171583237 
1017	 0.202274146327565 
1018	 0.203031748097981 
1019	 0.203773186080935 
1020	 0.204560265088074 
1021	 0.205314423942044 
1022	 0.206012737612519 
1023	 0.206703626368899 
1024	 0.207392663976016 
1025	 0.208043277613442 
1026	 0.208746403158067 
1027	 0.209431959956867 
1028	 0.210094992243078 
1029	 0.210803781277923 
1030	 0.211434555840517 
1031	 0.212066320781808 
1032	 0.21269443549719 
1033	 0.213353769573684 
1034	 0.213970335464279 
1035	 0.214592222851728 
1036	 0.215235849762287 
1037	 0.215872202665283 
1038	 0.216502909075342 
1039	 0.2171700125857 
1040	 0.217807565561219 
1041	 0.218418239890311 
1042	 0.219065608118656 
1043	 0.219642056766026 
1044	 0.220231669390664 
1045	 0.220811996887783 
1046	 0.22146825561786 
1047	 0.222086608032868 
1048	 0.222739676524665 
1049	 0.223438803120886 
1050	 0.224058703238706 
1051	 0.224662083348809 
1052	 0.225249068347874 
1053	 0.225815907499801 
1054	 0.226431710459217 
1055	 0.227021698033918 
1056	 0.227637444235076 
1057	 0.228276444351534 
1058	 0.228956042629759 
1059	 0.229588255094484 
1060	 0.230233539012469 
1061	 0.230842715056883 
1062	 0.231395908530619 
1063	 0.231969560670028 
1064	 0.232559092460719 
1065	 0.233177450625401 
1066	 0.233831281063261 
1067	 0.234431170684784 
1068	 0.234980419857311 
1069	 0.235539078720268 
1070	 0.236114879517204 
1071	 0.236664224930632 
1072	 0.237250739118691 
1073	 0.237903922581593 
1074	 0.238494103951881 
1075	 0.239036965924508 
1076	 0.239634217198678 
1077	 0.240217955795975 
1078	 0.240735526542908 
1079	 0.241318801354384 
1080	 0.241911936408138 
1081	 0.242438688844428 
1082	 0.242981759478295 
1083	 0.243540848276572 
1084	 0.244074065879657 
1085	 0.244627795553311 
1086	 0.245236300317461 
1087	 0.245807461721193 
1088	 0.246344439762126 
1089	 0.246921561348139 
1090	 0.247503752928448 
1091	 0.247991002997825 
1092	 0.248512436762771 
1093	 0.249023769551303 
1094	 0.249528899629826 
1095	 0.250108745712484 
1096	 0.250694147265605 
1097	 0.25125097796454 
1098	 0.251800345897722 
1099	 0.252330360673069 
1100	 0.252871887357677 
1101	 0.25339814553319 
1102	 0.253942037176105 
1103	 0.254494793206422 
1104	 0.255060139897136 
1105	 0.255618835424375 
1106	 0.256215280742823 
1107	 0.256799685792316 
1108	 0.257364264952451 
1109	 0.257928526238386 
1110	 0.258461715211784 
1111	 0.259017244462113 
1112	 0.259590342648923 
1113	 0.26013521956201 
1114	 0.260658562013169 
1115	 0.261214083291823 
1116	 0.261766632363831 
1117	 0.26232390249503 
1118	 0.26289686970401 
1119	 0.263479480661452 
1120	 0.264071479220185 
1121	 0.264651357535265 
1122	 0.265227368492319 
1123	 0.26581187148435 
1124	 0.266397046445653 
1125	 0.266969149051149 
1126	 0.267550576661568 
1127	 0.268147845521832 
1128	 0.268739102566771 
1129	 0.26932050995193 
1130	 0.269907599303066 
1131	 0.270514653618104 
1132	 0.271092276391325 
1133	 0.271650746664877 
1134	 0.272213554969531 
1135	 0.272758375707666 
1136	 0.273317861590243 
1137	 0.273877158916608 
1138	 0.274427831886616 
1139	 0.274978618666341 
1140	 0.275526892314876 
1141	 0.276064987991537 
1142	 0.276599290964171 
1143	 0.277137839980304 
1144	 0.2776664937913 
1145	 0.278195078172439 
1146	 0.278721088525702 
1147	 0.279257274393769 
1148	 0.279811190733149 
1149	 0.280337924905499 
1150	 0.280859072879643 
1151	 0.281379522102139 
1152	 0.281878234081894 
1153	 0.282380571943843 
1154	 0.28287867640479 
1155	 0.283385031812279 
1156	 0.283880772871613 
1157	 0.284354579817946 
1158	 0.28484980699158 
1159	 0.285364765790151 
1160	 0.285865335563554 
1161	 0.286371283011933 
1162	 0.286864908140401 
1163	 0.287345345340242 
1164	 0.28782531592711 
1165	 0.288291716638863 
1166	 0.288776090299489 
1167	 0.289257660306826 
1168	 0.289740277996284 
1169	 0.290203348112863 
1170	 0.290661539160264 
1171	 0.291110358205111 
1172	 0.291542980848295 
1173	 0.291973367522171 
1174	 0.29239713730732 
1175	 0.292825915122087 
1176	 0.293251747689101 
1177	 0.293673399243124 
1178	 0.294113591786178 
1179	 0.294521999152009 
1180	 0.29488469416779 
1181	 0.295283428543204 
1182	 0.295684719062508 
1183	 0.29609483314677 
1184	 0.296498995599142 
1185	 0.296937951331538 
1186	 0.29732019114136 
1187	 0.297663391099773 
1188	 0.298025813179699 
1189	 0.298378677235667 
1190	 0.298729723139321 
1191	 0.299085435593801 
1192	 0.299432732684942 
1193	 0.299763906584711 
1194	 0.300103124451146 
1195	 0.30045880082591 
1196	 0.300791829137768 
1197	 0.301118793727087 
1198	 0.301435359640235 
1199	 0.30173985197975 
1200	 0.302017431285948 
1201	 0.302321037673142 
1202	 0.302623141322232 
1203	 0.30293615030261 
1204	 0.303275902342711 
1205	 0.303581707504063 
1206	 0.303881140654361 
1207	 0.304170293530967 
1208	 0.304436944888151 
1209	 0.304708900239196 
1210	 0.30498617869309 
1211	 0.305247881377445 
1212	 0.305488669481303 
1213	 0.305742702185271 
1214	 0.30600316319642 
1215	 0.306250422657315 
1216	 0.306494440557949 
1217	 0.306750906825524 
1218	 0.306976216538523 
1219	 0.307170318815913 
1220	 0.307388566268123 
1221	 0.307602924940077 
1222	 0.307822973624568 
1223	 0.308052853840087 
1224	 0.308281389200743 
1225	 0.308530908248048 
1226	 0.308739033412708 
1227	 0.308928814723502 
1228	 0.309118341853643 
1229	 0.309271455128894 
1230	 0.309439106817456 
1231	 0.309625375612275 
1232	 0.309799010444714 
1233	 0.30996700404774 
1234	 0.310122639533371 
1235	 0.310294278568999 
1236	 0.310469928896966 
1237	 0.310640211800589 
1238	 0.310821327806931 
1239	 0.310987145124443 
1240	 0.311138016957734 
1241	 0.31129471188257 
1242	 0.311449577679361 
1243	 0.311605084140817 
1244	 0.311766634969153 
1245	 0.311917529638812 
1246	 0.312058691920779 
1247	 0.312204973550814 
1248	 0.312345249080721 
1249	 0.312491672099581 
1250	 0.312633355901884 
1251	 0.312774531142942 
1252	 0.312915855220942 
1253	 0.313055192501097 
1254	 0.313186282619016 
1255	 0.313327516257891 
1256	 0.313439429129942 
1257	 0.313523660246021 
1258	 0.313618555773155 
1259	 0.31369083896121 
1260	 0.313790242777195 
1261	 0.313908795418273 
1262	 0.314019347689564 
1263	 0.314155486856724 
1264	 0.314261963780402 
1265	 0.314337186974437 
1266	 0.314429625721343 
1267	 0.314528395192029 
1268	 0.31460284412745 
1269	 0.314688403017669 
1270	 0.314779683883827 
1271	 0.314880521687578 
1272	 0.314973420914976 
1273	 0.315086604547376 
1274	 0.315223338264828 
1275	 0.315352824842535 
1276	 0.315491103809051 
1277	 0.315619970357653 
1278	 0.315741200778935 
1279	 0.315875575955319 
1280	 0.315997723171327 
1281	 0.316144706292344 
1282	 0.316333432160628 
1283	 0.316494549238411 
1284	 0.316654367535328 
1285	 0.316810190573098 
1286	 0.316953955606056 
1287	 0.317077573612754 
1288	 0.317232326226719 
1289	 0.317418344200311 
1290	 0.31755591025034 
1291	 0.317683141684282 
1292	 0.317809472948395 
1293	 0.317903630679119 
1294	 0.318010338497996 
1295	 0.318150066391301 
1296	 0.318241072723118 
1297	 0.318297236448912 
1298	 0.318360027857075 
1299	 0.318390676348909 
1300	 0.318443744028929 
1301	 0.318512494895505 
1302	 0.318569225771992 
1303	 0.318640910042652 
1304	 0.318688223482323 
1305	 0.318698966052647 
1306	 0.318719222309805 
1307	 0.318722610497335 
1308	 0.318709386549213 
1309	 0.318706450859379 
1310	 0.318709164395248 
1311	 0.318700639155152 
1312	 0.31868624825274 
1313	 0.318674804455895 
1314	 0.318668438730191 
1315	 0.318645246532898 
1316	 0.31860583113054 
1317	 0.318579016710034 
1318	 0.318555254505371 
1319	 0.318515050422475 
1320	 0.318476338341763 
1321	 0.318437382942333 
1322	 0.31838433902817 
1323	 0.318325900991853 
1324	 0.318287955848233 
1325	 0.318238326778282 
1326	 0.31819088375409 
1327	 0.318146658148938 
1328	 0.318096349949761 
1329	 0.318052718327409 
1330	 0.318007031919142 
1331	 0.317964828836596 
1332	 0.317906161165347 
1333	 0.31783623174899 
1334	 0.317777643168492 
1335	 0.317706906689589 
1336	 0.317652052516339 
1337	 0.317619677136659 
1338	 0.317573233733406 
1339	 0.31752015785001 
1340	 0.317470147054445 
1341	 0.317414206785379 
1342	 0.317371877212671 
1343	 0.317343987082885 
1344	 0.317305913431927 
1345	 0.317267225824312 
1346	 0.317220636484583 
1347	 0.317172863402898 
1348	 0.31713128905232 
1349	 0.317092170637757 
1350	 0.31705297266196 
1351	 0.317011594635354 
1352	 0.316968657499079 
1353	 0.316918534292236 
1354	 0.316864116299459 
1355	 0.316812663822052 
1356	 0.316751791413831 
1357	 0.316701285815222 
1358	 0.316655685980698 
1359	 0.316614352957391 
1360	 0.316580172385391 
1361	 0.31654361583982 
1362	 0.316515195597017 
1363	 0.316480132195157 
1364	 0.316431531834885 
1365	 0.316395506120045 
1366	 0.316369625861799 
1367	 0.316336428290209 
1368	 0.316306550145957 
1369	 0.316269844167378 
1370	 0.31618874431838 
1371	 0.316099033008377 
1372	 0.315997301946962 
1373	 0.315881978333827 
1374	 0.315764205197951 
1375	 0.315659285726336 
1376	 0.315499397530744 
1377	 0.31531510183616 
1378	 0.315110685357786 
1379	 0.314863581466797 
1380	 0.314618277505417 
1381	 0.314368504791708 
1382	 0.314091530510489 
1383	 0.313810983534563 
1384	 0.313486464770703 
1385	 0.313146953957448 
1386	 0.31276140660156 
1387	 0.312322524728818 
1388	 0.311868356303846 
1389	 0.311401143740402 
1390	 0.310875207248091 
1391	 0.310316138663971 
1392	 0.309734018790106 
1393	 0.309080900007203 
1394	 0.308404515913036 
1395	 0.307695278450533 
1396	 0.306966791623653 
1397	 0.306235330983185 
1398	 0.305485462631631 
1399	 0.304728512000989 
1400	 0.303963253388938 
1401	 0.303190613493534 
1402	 0.302387486838269 
1403	 0.301626564997465 
1404	 0.300862918121668 
1405	 0.300138093788115 
1406	 0.29945066020768 
1407	 0.298765035867646 
1408	 0.298081660440583 
1409	 0.297442117476236 
1410	 0.296793920257721 
1411	 0.296233413522142 
1412	 0.295726111316682 
1413	 0.295273400784744 
1414	 0.294900561352463 
1415	 0.294552527724364 
1416	 0.294241927592981 
1417	 0.29397043058036 
1418	 0.293720835028054 
1419	 0.293507721195362 
1420	 0.293326352785938 
1421	 0.293161047490704 
1422	 0.292991962311912 
1423	 0.292814982142893 
1424	 0.292630951098645 
1425	 0.292426043572942 
1426	 0.292246534472102 
1427	 0.292059548678467 
1428	 0.291906785160659 
1429	 0.291773342049927 
1430	 0.291655850042374 
1431	 0.29157582480901 
1432	 0.291479696759745 
1433	 0.291381520117807 
1434	 0.291298097459815 
1435	 0.291202979601384 
1436	 0.291143707448654 
1437	 0.291119972309278 
1438	 0.291090865714526 
1439	 0.291079397328541 
1440	 0.291068230094052 
1441	 0.291048205626013 
1442	 0.291030112214924 
1443	 0.291005589380898 
1444	 0.290987557610837 
1445	 0.290990243452824 
1446	 0.29100412686596 
1447	 0.291033609962036 
1448	 0.29105923534913 
1449	 0.291062324032304 
1450	 0.291078577492953 
1451	 0.291104063028505 
1452	 0.291133080495879 
1453	 0.291168357775595 
1454	 0.291218433079606 
1455	 0.291257596324793 
1456	 0.291290676224589 
1457	 0.291332152584922 
1458	 0.291379543073667 
1459	 0.291425536920605 
1460	 0.291462300351086 
1461	 0.291524592804914 
1462	 0.291599493318238 
1463	 0.291674124269002 
1464	 0.291777187506162 
1465	 0.291860172301305 
1466	 0.291916124350703 
1467	 0.292002287393216 
1468	 0.29206863769651 
1469	 0.292187142676968 
1470	 0.292344872476775 
1471	 0.292529408061089 
1472	 0.292719408829817 
1473	 0.29292381017315 
1474	 0.293120412334469 
1475	 0.293306469319723 
1476	 0.293487772853843 
1477	 0.293689030087464 
1478	 0.293890232931786 
1479	 0.294082365806409 
1480	 0.294281213366197 
1481	 0.294484378370995 
1482	 0.294697168627565 
1483	 0.294912335044044 
1484	 0.295126443773338 
1485	 0.295353746772366 
1486	 0.295573479659654 
1487	 0.295778611597088 
1488	 0.296002985163274 
1489	 0.296248291727319 
1490	 0.296475142287678 
1491	 0.296707481054043 
1492	 0.296919588838022 
1493	 0.29710722157699 
1494	 0.297307927228448 
1495	 0.29750539277423 
1496	 0.297702291897945 
1497	 0.297903887910305 
1498	 0.298100553711702 
1499	 0.298302361853701 
1500	 0.298485330633553 
1501	 0.298655987375201 
1502	 0.298829375340564 
1503	 0.298989581218514 
1504	 0.299142881822935 
1505	 0.29932643369064 
1506	 0.299508320081972 
1507	 0.299688457950667 
1508	 0.299867974572544 
1509	 0.300024777194989 
1510	 0.300179146645556 
1511	 0.300339791252764 
1512	 0.300493048932469 
1513	 0.300651569589305 
1514	 0.300818144006952 
1515	 0.30096706739453 
1516	 0.301119676618156 
1517	 0.301279698225675 
1518	 0.301449775205065 
1519	 0.30159640415843 
1520	 0.301732032509361 
1521	 0.301884719704987 
1522	 0.302028789632312 
1523	 0.30217916511394 
1524	 0.302357055501324 
1525	 0.302507704863642 
1526	 0.302641778277244 
1527	 0.302772166029438 
1528	 0.302889041038 
1529	 0.303016950580885 
1530	 0.303141135562945 
1531	 0.303270367112523 
1532	 0.303422940428127 
1533	 0.303541114895456 
1534	 0.303641193698744 
1535	 0.303737170945989 
1536	 0.303799183720418 
1537	 0.303890627656211 
1538	 0.303999956877435 
1539	 0.304100489779587 
1540	 0.304203763599833 
1541	 0.30431169195584 
1542	 0.304417696318676 
1543	 0.304523844720474 
1544	 0.304647784154251 
1545	 0.304755750395896 
1546	 0.304862001270246 
1547	 0.304947135222756 
1548	 0.305012341217261 
1549	 0.305062215169067 
1550	 0.305122259105687 
1551	 0.305195554045027 
1552	 0.305267847668328 
1553	 0.305363989795878 
1554	 0.30546711820819 
1555	 0.305554180535427 
1556	 0.305642487418628 
1557	 0.30572670217221 
1558	 0.305797085171817 
1559	 0.305857455517464 
1560	 0.305935446868337 
1561	 0.306023503627166 
1562	 0.306113349551481 
1563	 0.306217465504332 
1564	 0.306303183982898 
1565	 0.306389307065771 
1566	 0.306459572272826 
1567	 0.306508573190709 
1568	 0.306569997317457 
1569	 0.306635373004145 
1570	 0.306686998173317 
1571	 0.306735824374735 
1572	 0.30678024507216 
1573	 0.30680165093238 
1574	 0.306848103772231 
1575	 0.306908926215168 
1576	 0.306962725577591 
1577	 0.307021767629274 
1578	 0.307082743572528 
1579	 0.307137851248952 
1580	 0.307204236871156 
1581	 0.307287380427893 
1582	 0.307356517820201 
1583	 0.307427956509027 
1584	 0.307490740359596 
1585	 0.307548615772847 
1586	 0.307592007777134 
1587	 0.307627519708079 
1588	 0.307654258377065 
1589	 0.30765893605307 
1590	 0.307674645287738 
1591	 0.307684743220593 
1592	 0.307703462200463 
1593	 0.307726202485036 
1594	 0.307755990059576 
1595	 0.30779828398404 
1596	 0.307832574529368 
1597	 0.307864593767754 
1598	 0.307902004008245 
1599	 0.307949735109299 
1600	 0.307980346972605 
1601	 0.30800552220732 
1602	 0.308033133111085 
1603	 0.308032130772634 
1604	 0.308056333469321 
1605	 0.308099886035136 
1606	 0.30814344212724 
1607	 0.308200237987381 
1608	 0.308262111618804 
1609	 0.308300610233012 
1610	 0.30833844024725 
1611	 0.308367373513412 
1612	 0.308389838343179 
1613	 0.308411217550123 
1614	 0.308431854016285 
1615	 0.308446039996043 
1616	 0.308446003960995 
1617	 0.308457327440854 
1618	 0.308477496822813 
1619	 0.308493445807493 
1620	 0.308515256853488 
1621	 0.308523963216256 
1622	 0.308529613305698 
1623	 0.308526214422118 
1624	 0.308509936442596 
1625	 0.308503816859215 
1626	 0.308488860548318 
1627	 0.308497625431301 
1628	 0.308516767021393 
1629	 0.308541926015396 
1630	 0.308588123676259 
1631	 0.308618307157279 
1632	 0.308642442029551 
1633	 0.30867771348174 
1634	 0.308721616545189 
1635	 0.308743813930215 
1636	 0.308770074934585 
1637	 0.308777545142934 
1638	 0.308746552840586 
1639	 0.308758104656044 
1640	 0.308779594584028 
1641	 0.30880932108732 
1642	 0.30886851767811 
1643	 0.308900934857464 
1644	 0.308926942339345 
1645	 0.308949475202634 
1646	 0.308960980537785 
1647	 0.308977239179938 
1648	 0.309004434374838 
1649	 0.309001237103557 
1650	 0.308980376162905 
1651	 0.308964976614286 
1652	 0.308927230461138 
1653	 0.308907328219302 
1654	 0.308899716551226 
1655	 0.308889243008981 
1656	 0.308886372039277 
1657	 0.308866361135201 
1658	 0.308839965055873 
1659	 0.308815323359893 
1660	 0.308782072447252 
1661	 0.308744656402771 
1662	 0.3087004448409 
1663	 0.308674211187919 
1664	 0.30864318493869 
1665	 0.308625170173386 
1666	 0.308628056209005 
1667	 0.308631138148783 
1668	 0.308636674237858 
1669	 0.30864336454933 
1670	 0.308681770480032 
1671	 0.308667727287792 
1672	 0.308610722678577 
1673	 0.308587995890339 
1674	 0.308546573802086 
1675	 0.308529268629625 
1676	 0.308554113482661 
1677	 0.308549386011831 
1678	 0.308530073991178 
1679	 0.308518174662331 
1680	 0.308501064344904 
1681	 0.308492355201836 
1682	 0.308489041874488 
1683	 0.308486178675402 
1684	 0.308499566868424 
1685	 0.308485270794669 
1686	 0.308456061249995 
1687	 0.308430873727019 
1688	 0.308381713360046 
1689	 0.308355905563702 
1690	 0.308351235317876 
1691	 0.30833216313304 
1692	 0.308312243773641 
1693	 0.308294429771197 
1694	 0.30827324477687 
1695	 0.308249094461572 
1696	 0.308222102264375 
1697	 0.308206985957689 
1698	 0.30819317164325 
1699	 0.308179789759927 
1700	 0.308182374247259 
1701	 0.308167861030822 
1702	 0.308142510619893 
1703	 0.308117583914344 
1704	 0.308087373299705 
1705	 0.308059159334918 
1706	 0.308034646908786 
1707	 0.307996309897631 
1708	 0.307942472245312 
1709	 0.307909252751122 
1710	 0.307883256473726 
1711	 0.307844417361269 
1712	 0.30783249842691 
1713	 0.307766783357332 
1714	 0.307639305487086 
1715	 0.30756160880756 
1716	 0.307483124865308 
1717	 0.30741552759286 
1718	 0.307377327358102 
1719	 0.307330563484702 
1720	 0.307270798828741 
1721	 0.307225188206182 
1722	 0.307206681918393 
1723	 0.307162431070949 
1724	 0.307111459482914 
1725	 0.30704889022569 
1726	 0.306962306869412 
1727	 0.306898844659448 
1728	 0.306844798791557 
1729	 0.306775961034045 
1730	 0.306714166662667 
1731	 0.306638696085769 
1732	 0.306535674760936 
1733	 0.306461442871795 
1734	 0.306412574076465 
1735	 0.306320698508549 
1736	 0.306215342444784 
1737	 0.306121437983597 
1738	 0.305995059698292 
1739	 0.305910503976052 
1740	 0.305868235021809 
1741	 0.305786963401202 
1742	 0.305701332804623 
1743	 0.305610336999674 
1744	 0.305503485774423 
1745	 0.30539895509569 
1746	 0.305288546873823 
1747	 0.305178832335503 
1748	 0.305089184173694 
1749	 0.305012411076089 
1750	 0.304953131179594 
1751	 0.304889908417651 
1752	 0.30479354092501 
1753	 0.304682846929549 
1754	 0.304563676257295 
1755	 0.304456717785572 
1756	 0.304359515286804 
1757	 0.304238295416415 
1758	 0.304105750514647 
1759	 0.303963346849125 
1760	 0.303837924790788 
1761	 0.303747852339669 
1762	 0.303665089372801 
1763	 0.303584129776491 
1764	 0.303488931778357 
1765	 0.303397377332386 
1766	 0.303320672052496 
1767	 0.303235487940948 
1768	 0.303148359996811 
1769	 0.303057067654397 
1770	 0.302963472717308 
1771	 0.302895823668979 
1772	 0.302836520126385 
1773	 0.302743942377778 
1774	 0.302667878045815 
1775	 0.3026047961439 
1776	 0.302498010351569 
1777	 0.302442270376564 
1778	 0.302398472046445 
1779	 0.302287238898085 
1780	 0.302225313152625 
1781	 0.302166654106073 
1782	 0.302089169168302 
1783	 0.302069350448495 
1784	 0.302038851306154 
1785	 0.302026743907417 
1786	 0.301996539867234 
1787	 0.30196024807962 
1788	 0.301913984833496 
1789	 0.301859977180348 
1790	 0.301783952057265 
1791	 0.301675961345499 
1792	 0.301600549655391 
1793	 0.301494177863192 
1794	 0.301457693761694 
1795	 0.301486975385885 
1796	 0.30149809651619 
1797	 0.301553633885058 
1798	 0.301560961968591 
1799	 0.301545635066389 
1800	 0.301525787220611 
1801	 0.300733228830896 
1802	 0.300914646702534 
1803	 0.301104396261363 
1804	 0.30130840931068 
1805	 0.301498895117719 
1806	 0.301685472216546 
1807	 0.301879689630217 
1808	 0.302039192786357 
1809	 0.302205501528992 
1810	 0.302323749220102 
1811	 0.302398681352142 
1812	 0.302464527908789 
1813	 0.302543199251573 
1814	 0.302563318296437 
1815	 0.302564272316232 
1816	 0.302563050834655 
1817	 0.302560599585016 
1818	 0.302515206154001 
1819	 0.302514404261783 
1820	 0.302540474628028 
1821	 0.302563619050274 
1822	 0.302584671824175 
1823	 0.302604585950563 
1824	 0.302614228804996 
1825	 0.302608538465239 
1826	 0.30263306960852 
1827	 0.302652194929557 
1828	 0.302632238180339 
1829	 0.302614687313493 
1830	 0.302566290831753 
1831	 0.302468683066732 
1832	 0.302356595572676 
1833	 0.302281619434392 
1834	 0.302215144050268 
1835	 0.302167129044425 
1836	 0.302150857236133 
1837	 0.302146206628948 
1838	 0.302132702680061 
1839	 0.302118345337941 
1840	 0.302118009421021 
1841	 0.302090636460759 
1842	 0.302020906767453 
1843	 0.301970706954112 
1844	 0.301920190544808 
1845	 0.301842214369141 
1846	 0.301779926327667 
1847	 0.301708897830843 
1848	 0.301602095015883 
1849	 0.301495722257922 
1850	 0.301389897644023 
1851	 0.301281742351825 
1852	 0.301177279312265 
1853	 0.301071162539481 
1854	 0.300929302395448 
1855	 0.300773911367543 
1856	 0.300583096772535 
1857	 0.300351010600564 
1858	 0.300134381314747 
1859	 0.299915312749865 
1860	 0.299647749008506 
1861	 0.299355690163647 
1862	 0.299040736037689 
1863	 0.298667398554821 
1864	 0.298222231692853 
1865	 0.29777511215823 
1866	 0.297284426823289 
1867	 0.296736244480174 
1868	 0.296176557763733 
1869	 0.295558510302354 
1870	 0.294906022501838 
1871	 0.294218856272296 
1872	 0.293509802153404 
1873	 0.292755379625167 
1874	 0.29195774015678 
1875	 0.291093418560162 
1876	 0.290192772194991 
1877	 0.289220051920969 
1878	 0.288138128126745 
1879	 0.28701178738166 
1880	 0.285783156279215 
1881	 0.284449504324696 
1882	 0.283037102888949 
1883	 0.281561943650585 
1884	 0.279934262449919 
1885	 0.278251102098555 
1886	 0.276513370734284 
1887	 0.274646696507886 
1888	 0.272740634779869 
1889	 0.270723247176995 
1890	 0.268620308156448 
1891	 0.266521391097434 
1892	 0.264356170852882 
1893	 0.262185791546248 
1894	 0.259998616056851 
1895	 0.257807869624432 
1896	 0.255532824011515 
1897	 0.253352155762204 
1898	 0.251170837488782 
1899	 0.248974971345748 
1900	 0.246908256465108 
1901	 0.244883432118168 
1902	 0.242950508567117 
1903	 0.241122451231858 
1904	 0.239363082570754 
1905	 0.237667230986269 
1906	 0.236066869340917 
1907	 0.234560063030284 
1908	 0.233111615790539 
1909	 0.231758083181399 
1910	 0.230473766842215 
1911	 0.229272194084381 
1912	 0.228165074345782 
1913	 0.227116261778389 
1914	 0.226157755874405 
1915	 0.225245200016818 
1916	 0.224390949862184 
1917	 0.223579492522726 
1918	 0.222869694083229 
1919	 0.222213080875785 
1920	 0.221629439992718 
1921	 0.221121986225922 
1922	 0.22064894263508 
1923	 0.220221921739313 
1924	 0.219841953661607 
1925	 0.219505415800777 
1926	 0.219229507107004 
1927	 0.219003326958685 
1928	 0.218827911502263 
1929	 0.218714758118121 
1930	 0.218641497890442 
1931	 0.218605777717596 
1932	 0.218601238876491 
1933	 0.218624174840586 
1934	 0.218671824875039 
1935	 0.218732809287582 
1936	 0.218803244804038 
1937	 0.218910774943383 
1938	 0.219040691619945 
1939	 0.219198301835456 
1940	 0.219383746131638 
1941	 0.219600414567185 
1942	 0.219855658903031 
1943	 0.220121333891573 
1944	 0.220397955880504 
1945	 0.220699827170982 
1946	 0.221002624239723 
1947	 0.22129251324669 
1948	 0.221622552728247 
1949	 0.221983569702821 
1950	 0.222350554357319 
1951	 0.222732582703662 
1952	 0.223137294355407 
1953	 0.223554600253166 
1954	 0.223975787620085 
1955	 0.224407956816299 
1956	 0.224838392464492 
1957	 0.225277532632251 
1958	 0.225711733450952 
1959	 0.226170143143353 
1960	 0.22665057589669 
1961	 0.227124292907313 
1962	 0.227606695664276 
1963	 0.228093967448307 
1964	 0.228562914149411 
1965	 0.229070240824343 
1966	 0.229612485587956 
1967	 0.23015791868343 
1968	 0.230712087826658 
1969	 0.231295504433392 
1970	 0.231866026493613 
1971	 0.232435890912811 
1972	 0.233004652919912 
1973	 0.233584770041633 
1974	 0.23414716482789 
1975	 0.234694684214715 
1976	 0.235256412883598 
1977	 0.235794233372321 
1978	 0.236315719702404 
1979	 0.236848929763156 
1980	 0.237381783981129 
1981	 0.237932751865017 
1982	 0.238505239251835 
1983	 0.239069293260934 
1984	 0.239643154618257 
1985	 0.240210607937633 
1986	 0.240779483297632 
1987	 0.241339869836536 
1988	 0.241895112897717 
1989	 0.242452912445741 
1990	 0.243002840008665 
1991	 0.243533563555208 
1992	 0.244077127647373 
1993	 0.244620302602651 
1994	 0.245168673765976 
1995	 0.245728656579381 
1996	 0.246273632623802 
1997	 0.246817977961973 
1998	 0.247356822819802 
1999	 0.24787782488275 
2000	 0.248409027159805 
2001	 0.248967381581966 
2002	 0.249479775488181 
2003	 0.249986274845034 
2004	 0.250511449604868 
2005	 0.251014569610353 
2006	 0.251492984942981 
2007	 0.25199594052478 
2008	 0.252498917050884 
2009	 0.253008221462618 
2010	 0.25352838877673 
2011	 0.254046052610683 
2012	 0.254586384119531 
2013	 0.255092589452361 
2014	 0.255581723712484 
2015	 0.256075151853568 
2016	 0.25652890204041 
2017	 0.256975027161229 
2018	 0.257438299375642 
2019	 0.257909471890558 
2020	 0.25836924623042 
2021	 0.258833285897556 
2022	 0.259293728249799 
2023	 0.25972579594048 
2024	 0.260194207143219 
2025	 0.260696291316629 
2026	 0.261174597164044 
2027	 0.261660909044039 
2028	 0.262153698854129 
2029	 0.262607587441644 
2030	 0.263032644677544 
2031	 0.263464867108646 
2032	 0.263877750298978 
2033	 0.264294685943367 
2034	 0.264707564021007 
2035	 0.265120338989858 
2036	 0.265550895168039 
2037	 0.26594582209062 
2038	 0.266321561022025 
2039	 0.266690438562458 
2040	 0.267047084767506 
2041	 0.26736433137063 
2042	 0.267691635805293 
2043	 0.268046777492331 
2044	 0.268388319173116 
2045	 0.268719327261905 
2046	 0.269069582417923 
2047	 0.269445294208947 
2048	 0.269787615895886 
2049	 0.270131277941949 
2050	 0.270455871824308 
2051	 0.270736072410436 
2052	 0.271043655644319 
2053	 0.271374108570363 
2054	 0.271676853138312 
2055	 0.271965061853779 
2056	 0.272267596368625 
2057	 0.272552699726244 
2058	 0.272801601919991 
2059	 0.273092185593543 
2060	 0.27340944003402 
2061	 0.273703239472342 
2062	 0.274002766934545 
2063	 0.274294906585703 
2064	 0.274574277699717 
2065	 0.274850090282233 
2066	 0.275123981134198 
2067	 0.275398127381811 
2068	 0.275643819330584 
2069	 0.275931862027428 
2070	 0.276204661682274 
2071	 0.276480619496132 
2072	 0.276757747893695 
2073	 0.277042528226126 
2074	 0.27730926439939 
2075	 0.277574729483412 
2076	 0.277831718168102 
2077	 0.278074058457929 
2078	 0.278317781127521 
2079	 0.27855775700933 
2080	 0.278796722012417 
2081	 0.279026056919436 
2082	 0.279261227172625 
2083	 0.27949762467496 
2084	 0.279740612720109 
2085	 0.279974585632788 
2086	 0.280206926417586 
2087	 0.280440631904814 
2088	 0.280658952927687 
2089	 0.28090657606365 
2090	 0.281169208176469 
2091	 0.281433974519475 
2092	 0.281723112579317 
2093	 0.281995417126442 
2094	 0.282272948546735 
2095	 0.282532262357448 
2096	 0.282780087229109 
2097	 0.283022382555766 
2098	 0.283262115911927 
2099	 0.283474490616348 
2100	 0.283692156758635 
2101	 0.283898121633265 
2102	 0.28411914457899 
2103	 0.284329413339212 
2104	 0.28457041611701 
2105	 0.284836866885907 
2106	 0.285092963238801 
2107	 0.285371655547463 
2108	 0.285625294702122 
2109	 0.285837757835855 
2110	 0.286101670771428 
2111	 0.286387301810001 
2112	 0.286668693270497 
2113	 0.286997562994672 
2114	 0.287310943343802 
2115	 0.287561590721784 
2116	 0.287766976347305 
2117	 0.287987952598616 
2118	 0.288162883030538 
2119	 0.288375488657009 
2120	 0.288611060218245 
2121	 0.288833809540971 
2122	 0.289050984211128 
2123	 0.289273922981151 
2124	 0.289521814663534 
2125	 0.289728306080237 
2126	 0.289917782061548 
2127	 0.290102521238753 
2128	 0.290248675131606 
2129	 0.29040814229101 
2130	 0.290581847780188 
2131	 0.290751070388641 
2132	 0.29088213198216 
2133	 0.291003661110926 
2134	 0.291090264377828 
2135	 0.291128985222412 
2136	 0.291183918082726 
2137	 0.29122438866954 
2138	 0.291264703470794 
2139	 0.291308239631618 
2140	 0.291334219394376 
2141	 0.291345526828431 
2142	 0.291353681941378 
2143	 0.291371239697414 
2144	 0.291350569258251 
2145	 0.291300991481665 
2146	 0.291252571643987 
2147	 0.291181956081929 
2148	 0.291090782876703 
2149	 0.291015838193531 
2150	 0.290947956158661 
2151	 0.29087615456188 
2152	 0.290801243124596 
2153	 0.290726850714911 
2154	 0.290676783952586 
2155	 0.290574630072223 
2156	 0.290466424664234 
2157	 0.290314428127584 
2158	 0.290106772504748 
2159	 0.289902945615662 
2160	 0.289672556265816 
2161	 0.289436668799385 
2162	 0.289173684231785 
2163	 0.288930146020971 
2164	 0.288669697437024 
2165	 0.288442058576099 
2166	 0.288217719508163 
2167	 0.288021918608239 
2168	 0.2877949235921 
2169	 0.28756369903211 
2170	 0.287328440196369 
2171	 0.287071996345849 
2172	 0.286839282566985 
2173	 0.286621966583766 
2174	 0.286393570990793 
2175	 0.286192112902821 
2176	 0.285941306574706 
2177	 0.285647051074906 
2178	 0.285371710621526 
2179	 0.285083784427228 
2180	 0.284786440298605 
2181	 0.284486889241273 
2182	 0.28419673511292 
2183	 0.283888132172999 
2184	 0.283587456832087 
2185	 0.283307533179551 
2186	 0.28305107181309 
2187	 0.282792638476624 
2188	 0.282550547323539 
2189	 0.282289298721977 
2190	 0.282017424739819 
2191	 0.281767862281462 
2192	 0.281502457915089 
2193	 0.281274024454993 
2194	 0.281078937420383 
2195	 0.280889584205611 
2196	 0.280721960504181 
2197	 0.280554533879036 
2198	 0.280377372962682 
2199	 0.280242124494213 
2200	 0.280120185866013 
2201	 0.280028306111834 
2202	 0.279997027108265 
2203	 0.279959359944205 
2204	 0.279913693217658 
2205	 0.279865393758338 
2206	 0.27984762239646 
2207	 0.279820493394692 
2208	 0.279845389071146 
2209	 0.279915025725544 
2210	 0.279991038581877 
2211	 0.280106259983738 
2212	 0.280201489835555 
2213	 0.280291834967311 
2214	 0.280410813337966 
2215	 0.280561993885887 
2216	 0.280670688903683 
2217	 0.280786639613257 
2218	 0.280891828139469 
2219	 0.280953044723742 
2220	 0.281028333426558 
2221	 0.28113253236106 
2222	 0.281205939195749 
2223	 0.281258044231223 
2224	 0.281294771863331 
2225	 0.281337061416129 
2226	 0.281368540632305 
2227	 0.281401126176069 
2228	 0.281440763301821 
2229	 0.281460130709362 
2230	 0.281466274309142 
2231	 0.281465482660957 
2232	 0.281442082136769 
2233	 0.28144187027306 
2234	 0.281445724039817 
2235	 0.281449644459229 
2236	 0.281479337434935 
2237	 0.281476152668222 
2238	 0.281457909614597 
2239	 0.2814288848956 
2240	 0.281363918288398 
2241	 0.281326956673089 
2242	 0.281313236564122 
2243	 0.281264511232094 
2244	 0.281189664962862 
2245	 0.281153078225819 
2246	 0.281067978163863 
2247	 0.281022092993516 
2248	 0.280961656031816 
2249	 0.280917970776134 
2250	 0.280862543118253 
2251	 0.280784698696284 
2252	 0.28073262248631 
2253	 0.280706542854809 
2254	 0.280656329439843 
2255	 0.280604437427702 
2256	 0.280544093459831 
2257	 0.280454435319204 
2258	 0.280411417747497 
2259	 0.28037575258805 
2260	 0.280362190990737 
2261	 0.28039518253059 
2262	 0.280407601179719 
2263	 0.280444910450164 
2264	 0.280444866176564 
2265	 0.280423347993853 
2266	 0.280389568107312 
2267	 0.280295712403417 
2268	 0.280252023055618 
2269	 0.280208717401442 
2270	 0.280221142302146 
2271	 0.280253411322398 
2272	 0.28026283431855 
2273	 0.280250080376441 
2274	 0.280256066361603 
2275	 0.28023319162848 
2276	 0.280185014688706 
2277	 0.280160812733186 
2278	 0.280108300798575 
2279	 0.280106475868062 
2280	 0.280151487193303 
2281	 0.280169335517676 
2282	 0.280231758393796 
2283	 0.280237652998521 
2284	 0.280195640246642 
2285	 0.280159805070827 
2286	 0.280089273934992 
2287	 0.280040966803038 
2288	 0.280018832438714 
2289	 0.279973493567114 
2290	 0.279904744510904 
2291	 0.279854069782431 
2292	 0.279820903258111 
2293	 0.279745862531777 
2294	 0.27966127166986 
2295	 0.279583119291288 
2296	 0.279468928282494 
2297	 0.27935456676787 
2298	 0.279287964427232 
2299	 0.279225316057711 
2300	 0.279178478255313 
2301	 0.279131474632471 
2302	 0.279082156785739 
2303	 0.279007344276742 
2304	 0.278910949042751 
2305	 0.278822919121386 
2306	 0.278712405867656 
2307	 0.278577576725988 
2308	 0.278467153708985 
2309	 0.27835269370497 
2310	 0.278234722100469 
2311	 0.278131026156102 
2312	 0.27802369559872 
2313	 0.277917239999825 
2314	 0.277787138080986 
2315	 0.277653884045149 
2316	 0.277506369096895 
2317	 0.277307053602846 
2318	 0.27715856479444 
2319	 0.277042088435583 
2320	 0.276898173247481 
2321	 0.276774918660734 
2322	 0.276628685004744 
2323	 0.276439599102338 
2324	 0.276288517819947 
2325	 0.276139812061746 
2326	 0.276003634657402 
2327	 0.275898593941248 
2328	 0.275771909586838 
2329	 0.275642668018273 
2330	 0.275587060180427 
2331	 0.275453728068306 
2332	 0.275295700244518 
2333	 0.275177664129536 
2334	 0.274993198418486 
2335	 0.274889711371942 
2336	 0.274832628176361 
2337	 0.274698819048289 
2338	 0.274601395994465 
2339	 0.27444155692766 
2340	 0.2742190707076 
2341	 0.274073367289018 
2342	 0.273889950884871 
2343	 0.273669226486355 
2344	 0.273509071634535 
2345	 0.273322699221357 
2346	 0.273115756534707 
2347	 0.272889012670217 
2348	 0.272653885494692 
2349	 0.272428643403936 
2350	 0.272193073967151 
2351	 0.271948208196438 
2352	 0.271699871503386 
2353	 0.271465700067685 
2354	 0.271204809865187 
2355	 0.270977225412301 
2356	 0.270811887464509 
2357	 0.270610113577602 
2358	 0.270369421365155 
2359	 0.27015977421474 
2360	 0.269986463685319 
2361	 0.269769809388575 
2362	 0.269576769301138 
2363	 0.269339926681219 
2364	 0.268990062266951 
2365	 0.268720786812995 
2366	 0.26850541490245 
2367	 0.268245589954311 
2368	 0.267987488182332 
2369	 0.267747053857495 
2370	 0.267489928964168 
2371	 0.267248531934526 
2372	 0.266953410150828 
2373	 0.266659229172143 
2374	 0.266402971440794 
2375	 0.266003493354579 
2376	 0.265627196074997 
2377	 0.265363542443028 
2378	 0.265076435085806 
2379	 0.264832560706109 
2380	 0.264630524374809 
2381	 0.264387493719878 
2382	 0.264063375012155 
2383	 0.263653137790434 
2384	 0.263284014458331 
2385	 0.262996251918131 
2386	 0.262642549837438 
2387	 0.26229289188673 
2388	 0.262000377916169 
2389	 0.261664884930976 
2390	 0.261390614410811 
2391	 0.261164515172199 
2392	 0.260843829887324 
2393	 0.260520462577489 
2394	 0.260169870452636 
2395	 0.259807588107554 
2396	 0.25947889836478 
2397	 0.259091824871146 
2398	 0.258716247377529 
2399	 0.258309582236154 
2400	 0.257898158723272 
2401	 0.257502308120711 
2402	 0.257068067227622 
2403	 0.256731111696996 
2404	 0.256375359591721 
2405	 0.255953680073494 
2406	 0.255638770442707 
2407	 0.255332509882246 
2408	 0.254971472806462 
2409	 0.254607259911854 
2410	 0.254211424193211 
2411	 0.253774759652805 
2412	 0.253352521162419 
2413	 0.252971025751389 
2414	 0.252471162562485 
2415	 0.251987886626519 
2416	 0.251587927845709 
2417	 0.25118001200493 
2418	 0.250818760537831 
2419	 0.250642606972973 
2420	 0.250246127020676 
2421	 0.249745527363323 
2422	 0.249344850166036 
2423	 0.24889316387321 
2424	 0.248449750733364 
2425	 0.248083973416153 
2426	 0.247594114848537 
2427	 0.246959352638359 
2428	 0.24646924062683 
2429	 0.246055757674006 
2430	 0.245588052903016 
2431	 0.245168944021493 
2432	 0.244727780642761 
2433	 0.244131290680469 
2434	 0.24367474606337 
2435	 0.243349679773825 
2436	 0.242955809846181 
2437	 0.242672886320261 
2438	 0.242292180006007 
2439	 0.241748473235395 
2440	 0.241310128245911 
2441	 0.240868806390496 
2442	 0.240499577845596 
2443	 0.240318084880189 
2444	 0.239944989040966 
2445	 0.239454141416767 
2446	 0.238946166328789 
2447	 0.238280244851824 
2448	 0.237789461677743 
2449	 0.237435711161189 
2450	 0.237075992353082 
2451	 0.236790192336255 
2452	 0.236419361395149 
2453	 0.23596258223466 
2454	 0.235559736210852 
2455	 0.235221282316242 
2456	 0.234846698596755 
2457	 0.23451892750058 
2458	 0.234084704828876 
2459	 0.233449117750729 
2460	 0.232939962726166 
2461	 0.232509890209419 
2462	 0.232084949798324 
2463	 0.231763836088277 
2464	 0.231266749649759 
2465	 0.230513659339229 
2466	 0.230085183807887 
2467	 0.229825098101068 
2468	 0.229525083697 
2469	 0.229443620861559 
2470	 0.229004419849315 
2471	 0.22856128900154 
2472	 0.228254749327171 
2473	 0.228087641997737 
2474	 0.227823604434672 
2475	 0.227249705254833 
2476	 0.226540615678862 
2477	 0.225895578158666 
2478	 0.225389739097934 
2479	 0.225020134469385 
2480	 0.224770918690025 
2481	 0.224453201170626 
2482	 0.224048564653691 
2483	 0.223812534693471 
2484	 0.223699243728551 
2485	 0.223418470380425 
2486	 0.223071492384807 
2487	 0.222780845055151 
2488	 0.222206904942362 
2489	 0.221778175029701 
2490	 0.221720350866356 
2491	 0.221413831552401 
2492	 0.221073895178953 
2493	 0.220778768431006 
2494	 0.220384908103782 
2495	 0.220010830379145 
2496	 0.219743741790596 
2497	 0.219646709419141 
2498	 0.219338802228151 
2499	 0.218960924684956 
2500	 0.218722160824536 
