Wavelength	mm1400000.asd
350	 6.23003148245065E-02 
351	 6.39989476016249E-02 
352	 5.64855919733035E-02 
353	 4.72147017926154E-02 
354	 5.17871426635228E-02 
355	 5.10096301197435E-02 
356	 4.84390193558687E-02 
357	 5.08604403787925E-02 
358	 5.35951118329583E-02 
359	 5.66795713302551E-02 
360	 5.82287184733285E-02 
361	 5.55684561924052E-02 
362	 5.13239761883117E-02 
363	 4.92204216612585E-02 
364	 5.03343697089397E-02 
365	 5.16824049308697E-02 
366	 5.59024455019331E-02 
367	 5.56760284897082E-02 
368	 4.75148230149606E-02 
369	 5.25616469215153E-02 
370	 5.29084536371478E-02 
371	 4.90714968095818E-02 
372	 5.35315395420534E-02 
373	 5.51656413203203E-02 
374	 5.57148342417262E-02 
375	 5.68940486029615E-02 
376	 0.057676191232215 
377	 5.39766072516854E-02 
378	 5.29010581589689E-02 
379	 5.97861575579039E-02 
380	 5.79031720469382E-02 
381	 5.55372991577645E-02 
382	 5.64988081053347E-02 
383	 5.99670638953937E-02 
384	 6.06369698458872E-02 
385	 0.058468311783135 
386	 5.59677143921705E-02 
387	 5.88996067400382E-02 
388	 6.07558187614286E-02 
389	 6.16184626196852E-02 
390	 6.29243499426112E-02 
391	 0.06174022715661 
392	 6.15875205809837E-02 
393	 6.24320762199827E-02 
394	 6.13741185549294E-02 
395	 6.34377941862425E-02 
396	 6.57004689648084E-02 
397	 6.58623185053395E-02 
398	 0.065772953768973 
399	 6.43773122071281E-02 
400	 6.39045945545049E-02 
401	 6.64037859005423E-02 
402	 6.64004933603682E-02 
403	 6.63210418268623E-02 
404	 6.69997733066267E-02 
405	 0.067197561062299 
406	 6.69930146877458E-02 
407	 6.77916923227842E-02 
408	 6.95035908316579E-02 
409	 6.74449990198129E-02 
410	 6.57898827684357E-02 
411	 6.60733321540235E-02 
412	 6.79729215913058E-02 
413	 6.80432406538098E-02 
414	 6.81144046679236E-02 
415	 6.88260904349469E-02 
416	 6.86825959776749E-02 
417	 6.85698716737377E-02 
418	 6.84322921253221E-02 
419	 0.068277164992111 
420	 6.92568342004349E-02 
421	 0.069149266107526 
422	 6.84389450846058E-02 
423	 6.91410969106645E-02 
424	 6.94242294978421E-02 
425	 6.94154819002032E-02 
426	 6.92975436066718E-02 
427	 6.88215846781626E-02 
428	 6.86219699019511E-02 
429	 6.86798691719925E-02 
430	 6.87079814315165E-02 
431	 6.82772816713134E-02 
432	 6.80250057940393E-02 
433	 6.81617063727134E-02 
434	 6.84380151607998E-02 
435	 6.86889629699221E-02 
436	 6.88335016668499E-02 
437	 0.068822894049324 
438	 6.85546989711066E-02 
439	 6.84860511855104E-02 
440	 6.87176932015083E-02 
441	 6.91079290819163E-02 
442	 6.92365538703742E-02 
443	 6.94245659798121E-02 
444	 6.96728574113322E-02 
445	 6.93755924045171E-02 
446	 6.92030844195161E-02 
447	 6.92566213461037E-02 
448	 6.94449497277861E-02 
449	 6.96626538136725E-02 
450	 6.97630639299561E-02 
451	 6.98428885457672E-02 
452	 7.01640139772875E-02 
453	 7.00914012706655E-02 
454	 6.99627397964467E-02 
455	 7.00820427248368E-02 
456	 7.02589734954298E-02 
457	 7.04143796363236E-02 
458	 7.04553176996955E-02 
459	 7.03601935115537E-02 
460	 7.06249836266621E-02 
461	 0.070666221461974 
462	 7.03944230717183E-02 
463	 7.05397923916231E-02 
464	 7.04763991256894E-02 
465	 7.04443057402191E-02 
466	 7.07338912665862E-02 
467	 0.070893920171967 
468	 7.09134615988161E-02 
469	 7.08476453925068E-02 
470	 7.08025323308031E-02 
471	 0.070917914700821 
472	 0.070979284460162 
473	 0.070875193659696 
474	 0.070874074167745 
475	 7.08948394380454E-02 
476	 7.09353500876312E-02 
477	 7.09968641851029E-02 
478	 7.08765710159735E-02 
479	 7.09066022667839E-02 
480	 7.11128247461144E-02 
481	 7.10380949748873E-02 
482	 7.11421299027242E-02 
483	 7.13023055526762E-02 
484	 7.13248902531992E-02 
485	 7.14232106452455E-02 
486	 7.14169059294694E-02 
487	 7.12933469886982E-02 
488	 7.11896098052705E-02 
489	 7.11894556159176E-02 
490	 7.12838783807851E-02 
491	 7.14440532230367E-02 
492	 7.16951003258099E-02 
493	 7.16189782232259E-02 
494	 7.14054741499298E-02 
495	 7.14945548590801E-02 
496	 7.17652750958314E-02 
497	 7.19581476161229E-02 
498	 7.19451271536776E-02 
499	 7.17974344822568E-02 
500	 7.17877026018585E-02 
501	 0.07183661361734 
502	 7.18102481706898E-02 
503	 7.18720878088348E-02 
504	 7.19165076428753E-02 
505	 7.19259537000563E-02 
506	 0.071971670982972 
507	 7.21335230358804E-02 
508	 7.22393061147149E-02 
509	 7.21814462864183E-02 
510	 7.21471692339304E-02 
511	 7.20985225846486E-02 
512	 0.072084403381599 
513	 7.21695156205371E-02 
514	 7.21470699408489E-02 
515	 7.21732460274677E-02 
516	 7.23025475230733E-02 
517	 7.23494454507019E-02 
518	 0.072399521736215 
519	 7.24393286551839E-02 
520	 7.24484521232334E-02 
521	 7.25197998600402E-02 
522	 7.26219853982954E-02 
523	 7.27183460994771E-02 
524	 7.27755105483128E-02 
525	 7.27436884813613E-02 
526	 7.27061250348534E-02 
527	 7.27523242299817E-02 
528	 7.29187872623346E-02 
529	 7.29281367899418E-02 
530	 7.28832005223998E-02 
531	 0.073091175352755 
532	 7.30570424368756E-02 
533	 7.30942593169947E-02 
534	 0.073347102077171 
535	 7.33773173168484E-02 
536	 0.073329384338321 
537	 0.073329242049463 
538	 0.07345910401919 
539	 7.34771780316494E-02 
540	 7.35250661226291E-02 
541	 7.36505599111087E-02 
542	 7.37388012169247E-02 
543	 0.073790953482222 
544	 7.38915325049322E-02 
545	 7.40814528976952E-02 
546	 7.41268635305753E-02 
547	 7.41792423590808E-02 
548	 7.42909632497456E-02 
549	 7.44195030772082E-02 
550	 7.45462066190687E-02 
551	 7.46412918183183E-02 
552	 7.47273365357636E-02 
553	 0.074987564749446 
554	 7.50944903816937E-02 
555	 7.51093973301692E-02 
556	 7.52829223005736E-02 
557	 7.55443957093014E-02 
558	 7.57702376024093E-02 
559	 7.59436536808512E-02 
560	 7.62545018549994E-02 
561	 7.64609721492726E-02 
562	 7.66098052072988E-02 
563	 7.68366713639986E-02 
564	 7.71780073435782E-02 
565	 7.74273169170397E-02 
566	 7.75870419403926E-02 
567	 7.79027295719388E-02 
568	 7.81818738980271E-02 
569	 7.84978253110078E-02 
570	 7.89309499314938E-02 
571	 7.93833420011926E-02 
572	 7.98421525789191E-02 
573	 8.02961134077542E-02 
574	 8.07317482716577E-02 
575	 8.10522716596206E-02 
576	 8.14988404665126E-02 
577	 8.21538762840359E-02 
578	 8.26399311794162E-02 
579	 8.31428410773736E-02 
580	 8.36461416147824E-02 
581	 8.40829749466115E-02 
582	 8.46037796926014E-02 
583	 8.51619787679054E-02 
584	 8.57326741018159E-02 
585	 8.63487514915538E-02 
586	 8.70498582376652E-02 
587	 8.78266713592769E-02 
588	 8.86406958122021E-02 
589	 8.94214500161155E-02 
590	 9.01772474694003E-02 
591	 9.09297478432851E-02 
592	 9.17047510753152E-02 
593	 9.23325055621284E-02 
594	 9.29222823223865E-02 
595	 9.35519049272444E-02 
596	 9.40546611402586E-02 
597	 9.45720715765479E-02 
598	 9.51283990253812E-02 
599	 9.56966078483757E-02 
600	 9.63887030420416E-02 
601	 9.70679443841926E-02 
602	 9.76647067679095E-02 
603	 9.82824888801275E-02 
604	 9.88755508043161E-02 
605	 9.94581981494643E-02 
606	 0.100063240296683 
607	 0.100717384383872 
608	 0.101323094915743 
609	 0.10187166849402 
610	 0.102461901319341 
611	 0.102945779157222 
612	 0.103360798164988 
613	 0.103759979600005 
614	 0.104086989203376 
615	 0.104391026568746 
616	 0.104707691512735 
617	 0.105056005675416 
618	 0.105418580326546 
619	 0.105725956785256 
620	 0.105959078797726 
621	 0.106212949630064 
622	 0.106498726869317 
623	 0.106769627302441 
624	 0.106971843331977 
625	 0.107203780770438 
626	 0.107422301446287 
627	 0.107618543110234 
628	 0.107842968865005 
629	 0.108049046475628 
630	 0.108259328905936 
631	 0.108490641053698 
632	 0.108658370535874 
633	 0.108841949345847 
634	 0.109044793429062 
635	 0.109210454871581 
636	 0.109405618354894 
637	 0.10961192618343 
638	 0.109800709548429 
639	 0.109946109379774 
640	 0.110154895896158 
641	 0.110396695225389 
642	 0.110587812868221 
643	 0.110789406328243 
644	 0.111011865467603 
645	 0.11123147389533 
646	 0.111379824534623 
647	 0.11157341924498 
648	 0.111787319913839 
649	 0.111980478598015 
650	 0.112237068755833 
651	 0.112478237941548 
652	 0.112691421022971 
653	 0.112925425749003 
654	 0.113188352844377 
655	 0.113407264694912 
656	 0.113569898897015 
657	 0.113853277877512 
658	 0.114138423558055 
659	 0.114406048431258 
660	 0.114677132245871 
661	 0.114905054261744 
662	 0.115173813841578 
663	 0.115506015204153 
664	 0.11581999857614 
665	 0.116113189820193 
666	 0.116391327028903 
667	 0.116675742249952 
668	 0.117028849383589 
669	 0.11736889167888 
670	 0.117701330740814 
671	 0.118096390792278 
672	 0.118399198221526 
673	 0.11871239694694 
674	 0.119113876306001 
675	 0.119527084697273 
676	 0.119875493967019 
677	 0.120201824238023 
678	 0.120595146167096 
679	 0.121027002647166 
680	 0.121461668054582 
681	 0.121881824936807 
682	 0.122295806231804 
683	 0.122691562825906 
684	 0.123126430348048 
685	 0.123628643392425 
686	 0.124064524208516 
687	 0.12448945295627 
688	 0.124929657407362 
689	 0.125388675844885 
690	 0.125886355289209 
691	 0.126381901075308 
692	 0.126861622984318 
693	 0.127388633223784 
694	 0.127877155941268 
695	 0.128366307411861 
696	 0.128914326540322 
697	 0.129412904004524 
698	 0.129919357258448 
699	 0.130446465442351 
700	 0.130952453093579 
701	 0.131532141755578 
702	 0.132129472301966 
703	 0.132678476572458 
704	 0.133177165406267 
705	 0.133666609163855 
706	 0.134192533370679 
707	 0.13478367010675 
708	 0.135331212039348 
709	 0.135900643497365 
710	 0.136496203022512 
711	 0.137008572072864 
712	 0.137531295520766 
713	 0.138046722933894 
714	 0.138537080113937 
715	 0.139106338060128 
716	 0.139639622067249 
717	 0.140127785129881 
718	 0.140640261307 
719	 0.141160848011928 
720	 0.141660402527151 
721	 0.142130636230396 
722	 0.142611084574937 
723	 0.143071183491177 
724	 0.143513211159628 
725	 0.143944990630963 
726	 0.14434007313778 
727	 0.14473825838239 
728	 0.145146038256693 
729	 0.145535730858273 
730	 0.145896350051298 
731	 0.146219102512013 
732	 0.14650834353853 
733	 0.14678964909416 
734	 0.147113156151467 
735	 0.147403257783596 
736	 0.14756945153078 
737	 0.14778331153591 
738	 0.147993949188537 
739	 0.148187001500751 
740	 0.148401635316727 
741	 0.148496132440465 
742	 0.148545075807817 
743	 0.14862605942347 
744	 0.148692997678389 
745	 0.148728313262472 
746	 0.148751512894855 
747	 0.148790972262665 
748	 0.148799876569785 
749	 0.148743584137808 
750	 0.148652054737666 
751	 0.148626669965886 
752	 0.148507356096626 
753	 0.148337750633562 
754	 0.148191742116362 
755	 0.148088906618152 
756	 0.147958668995283 
757	 0.147773962954444 
758	 0.147544413779535 
759	 0.147345376969006 
760	 0.147142312141321 
761	 0.146917317717096 
762	 0.146687178760213 
763	 0.146429088116893 
764	 0.146149379051536 
765	 0.145862933272198 
766	 0.145585724049862 
767	 0.145305050001356 
768	 0.145024829540548 
769	 0.14474994750167 
770	 0.144432280660388 
771	 0.144111458413464 
772	 0.143783941285961 
773	 0.143388692304852 
774	 0.14303371053828 
775	 0.142721050540036 
776	 0.142419717593292 
777	 0.142081680776938 
778	 0.141739565590221 
779	 0.141420473095483 
780	 0.141127857519735 
781	 0.140735838928275 
782	 0.140371463076526 
783	 0.14005485316022 
784	 0.139679577730867 
785	 0.139354937861108 
786	 0.139025876073126 
787	 0.138656365180099 
788	 0.138331020040589 
789	 0.138022672632027 
790	 0.137673432478636 
791	 0.137258303526537 
792	 0.136984484426143 
793	 0.136698541446986 
794	 0.136366346003792 
795	 0.136067062812107 
796	 0.135717349233197 
797	 0.135394657683886 
798	 0.135130018490599 
799	 0.134826752688831 
800	 0.13452814633046 
801	 0.134235926497385 
802	 0.13394229425394 
803	 0.133647873060131 
804	 0.133359669953761 
805	 0.133080895100952 
806	 0.132811725448856 
807	 0.132547472703505 
808	 0.132301621990538 
809	 0.132060753620671 
810	 0.131776487901204 
811	 0.131535644265788 
812	 0.131291498162416 
813	 0.131016257938972 
814	 0.130817148406866 
815	 0.13064466114849 
816	 0.1304468643919 
817	 0.130189825261498 
818	 0.12993360245016 
819	 0.129751414061809 
820	 0.129604194061057 
821	 0.12937207205482 
822	 0.129176935613502 
823	 0.128993813634105 
824	 0.128798057218837 
825	 0.128599401953099 
826	 0.128476920238638 
827	 0.128376515831511 
828	 0.128233801018631 
829	 0.128084367524785 
830	 0.127888022338826 
831	 0.127683789465539 
832	 0.127544378606914 
833	 0.127498882206403 
834	 0.127386762369426 
835	 0.127210311758878 
836	 0.127126331279231 
837	 0.127038780586207 
838	 0.126943075930292 
839	 0.126845439308494 
840	 0.126747405333389 
841	 0.126620261236938 
842	 0.126506860607597 
843	 0.12644199701839 
844	 0.126370873909083 
845	 0.126329599297928 
846	 0.126273482423467 
847	 0.126159428070715 
848	 0.12617257629664 
849	 0.126159819075579 
850	 0.126084978376343 
851	 0.126027009123373 
852	 0.125959519908064 
853	 0.125934354184953 
854	 0.125956306441742 
855	 0.125951048797384 
856	 0.125936294698672 
857	 0.125932142413654 
858	 0.125951646217043 
859	 0.125990626184346 
860	 0.125991395197423 
861	 0.125978413811751 
862	 0.12599480379197 
863	 0.126015043117878 
864	 0.126043010799556 
865	 0.126093774279336 
866	 0.1261755433548 
867	 0.126209073412735 
868	 0.126222214926442 
869	 0.126247848643682 
870	 0.12630946265692 
871	 0.126388937963945 
872	 0.126501016910329 
873	 0.126627961808463 
874	 0.126695619320443 
875	 0.126774471134976 
876	 0.126854744033892 
877	 0.126921624957233 
878	 0.126990992850985 
879	 0.12716027362003 
880	 0.127339905993574 
881	 0.127434428778145 
882	 0.127628170723458 
883	 0.127785865271789 
884	 0.127891764984121 
885	 0.128002303885605 
886	 0.128132819691821 
887	 0.12829102101396 
888	 0.128454366255093 
889	 0.128587394616581 
890	 0.128774881690849 
891	 0.128963775983104 
892	 0.12915754400023 
893	 0.129439056458004 
894	 0.129587466265416 
895	 0.129727419564522 
896	 0.129960573040524 
897	 0.130220842953574 
898	 0.130448648075834 
899	 0.130656576521845 
900	 0.130871015256995 
901	 0.131089030567335 
902	 0.131342156910075 
903	 0.131604525170949 
904	 0.13184660653917 
905	 0.13210627832422 
906	 0.132393020377202 
907	 0.132678584581016 
908	 0.132940654402529 
909	 0.133289271266681 
910	 0.13358493790911 
911	 0.133826534678343 
912	 0.134104843038961 
913	 0.134391127178613 
914	 0.134723701436091 
915	 0.135090995836536 
916	 0.135435065552041 
917	 0.135724514551676 
918	 0.136058669125041 
919	 0.136462397911961 
920	 0.136855971706485 
921	 0.137245471475288 
922	 0.137629014220354 
923	 0.138002880477836 
924	 0.138363903658894 
925	 0.138785276339397 
926	 0.139231515217916 
927	 0.139649505250025 
928	 0.140002782547373 
929	 0.14041147622315 
930	 0.140900901581236 
931	 0.141425187485295 
932	 0.141852609226399 
933	 0.142242177717026 
934	 0.142711810900458 
935	 0.143289957416383 
936	 0.143699623087707 
937	 0.144203238779709 
938	 0.144723138479652 
939	 0.145158073524197 
940	 0.145734731586177 
941	 0.146286109121216 
942	 0.146867281431836 
943	 0.147536030747915 
944	 0.147996650583471 
945	 0.148520619027958 
946	 0.149125110687967 
947	 0.149702645554632 
948	 0.150194544534857 
949	 0.150766859923347 
950	 0.151439900601235 
951	 0.152136961916219 
952	 0.152761676667918 
953	 0.153418590805695 
954	 0.154048083144597 
955	 0.154560639152602 
956	 0.155231965480412 
957	 0.155979982304659 
958	 0.15671018501013 
959	 0.157358107575996 
960	 0.157978454948011 
961	 0.158674224144403 
962	 0.159423465431732 
963	 0.160123732605399 
964	 0.160739926970601 
965	 0.161505677795838 
966	 0.16239221207449 
967	 0.163186526697709 
968	 0.163807303773232 
969	 0.164518134551027 
970	 0.165314018228032 
971	 0.166027400442647 
972	 0.166836958571176 
973	 0.167696165274973 
974	 0.168537672567065 
975	 0.16932014930641 
976	 0.170170116335326 
977	 0.170966351977835 
978	 0.171713729569445 
979	 0.172516135836595 
980	 0.173471908812668 
981	 0.174336736598313 
982	 0.175136165717115 
983	 0.176018502481128 
984	 0.176723499123448 
985	 0.177519676901789 
986	 0.178449143631427 
987	 0.179390138329299 
988	 0.180249848339493 
989	 0.181054165701677 
990	 0.181862746376181 
991	 0.182731699915417 
992	 0.183632087700338 
993	 0.184512729193659 
994	 0.185425295126109 
995	 0.186393282280341 
996	 0.187138312147225 
997	 0.18801143806086 
998	 0.188911753991474 
999	 0.189705374634216 
1000	 0.190846866529475 
1001	 0.188964779448825 
1002	 0.189754246809222 
1003	 0.190520922662815 
1004	 0.191338149097905 
1005	 0.19215734620451 
1006	 0.192974668049051 
1007	 0.193837347084917 
1008	 0.194689510127244 
1009	 0.195441905255216 
1010	 0.196176437793265 
1011	 0.196907064008537 
1012	 0.197619103063227 
1013	 0.198348013966219 
1014	 0.199074359813641 
1015	 0.199864675492177 
1016	 0.200671552533515 
1017	 0.201439800052069 
1018	 0.202200430761032 
1019	 0.203008312300151 
1020	 0.203758612488383 
1021	 0.204490732312488 
1022	 0.205225805559547 
1023	 0.205890263234018 
1024	 0.206600750958529 
1025	 0.207263642349598 
1026	 0.207919486127917 
1027	 0.20864405515128 
1028	 0.209300548112729 
1029	 0.209935546204138 
1030	 0.21063193921543 
1031	 0.211319789032207 
1032	 0.212014931215234 
1033	 0.212659478863973 
1034	 0.213313477197919 
1035	 0.213944917933851 
1036	 0.21452041940869 
1037	 0.215127218017065 
1038	 0.215774362496741 
1039	 0.216422395845213 
1040	 0.217023570518387 
1041	 0.217620367756177 
1042	 0.218239538039159 
1043	 0.218849312447446 
1044	 0.219470088002384 
1045	 0.220125284290502 
1046	 0.220774585367459 
1047	 0.221421833350231 
1048	 0.222088478318319 
1049	 0.222727461846367 
1050	 0.22333867979123 
1051	 0.223942656116311 
1052	 0.224532359530224 
1053	 0.225129631706302 
1054	 0.225780450004924 
1055	 0.22643589554143 
1056	 0.2270625711355 
1057	 0.227674369847362 
1058	 0.228267585991528 
1059	 0.228874740253612 
1060	 0.229467713514906 
1061	 0.230070646599864 
1062	 0.230668411552793 
1063	 0.23129609944712 
1064	 0.231908192539452 
1065	 0.23246120457561 
1066	 0.233078393924149 
1067	 0.233711155157448 
1068	 0.234305992592507 
1069	 0.234919603172078 
1070	 0.235503165199548 
1071	 0.236023390002286 
1072	 0.236603415807155 
1073	 0.237207325688586 
1074	 0.237790526302024 
1075	 0.238389800268664 
1076	 0.238979574962401 
1077	 0.23951942540742 
1078	 0.240055600994587 
1079	 0.240609799348895 
1080	 0.241131016001156 
1081	 0.241676726984886 
1082	 0.242299402041017 
1083	 0.242878475890939 
1084	 0.243466420109184 
1085	 0.244024575984233 
1086	 0.244529695772183 
1087	 0.245069586198529 
1088	 0.245590517270899 
1089	 0.24617883528628 
1090	 0.246783046783284 
1091	 0.247379622095967 
1092	 0.24791954706194 
1093	 0.248432329432606 
1094	 0.248976850304611 
1095	 0.249505956928695 
1096	 0.250041699026007 
1097	 0.250619529938608 
1098	 0.251170897839423 
1099	 0.251687560651328 
1100	 0.252226520662677 
1101	 0.252792420634533 
1102	 0.253333232250054 
1103	 0.253857858478917 
1104	 0.254386312548858 
1105	 0.254939876007013 
1106	 0.255494611411495 
1107	 0.25606233815642 
1108	 0.256670750585399 
1109	 0.257252889230338 
1110	 0.25778836992118 
1111	 0.258350582928511 
1112	 0.258904960974614 
1113	 0.259474317546384 
1114	 0.260072512180634 
1115	 0.260642856717343 
1116	 0.261204983489128 
1117	 0.261764441738999 
1118	 0.262295467260569 
1119	 0.262850963076554 
1120	 0.263450420070166 
1121	 0.264024220595176 
1122	 0.264598360449799 
1123	 0.265191985861191 
1124	 0.26578222033846 
1125	 0.266369512190787 
1126	 0.26694855079706 
1127	 0.267523795313821 
1128	 0.268109272311778 
1129	 0.268690678512349 
1130	 0.269268419149692 
1131	 0.269871289399703 
1132	 0.270449106391342 
1133	 0.270991112864946 
1134	 0.271553955761043 
1135	 0.27212556975052 
1136	 0.272693731702954 
1137	 0.273250130946394 
1138	 0.27377773088652 
1139	 0.274330395395297 
1140	 0.274871281406782 
1141	 0.275428040649124 
1142	 0.276018233398863 
1143	 0.276581972319814 
1144	 0.277136349272129 
1145	 0.277675862654058 
1146	 0.278199777791942 
1147	 0.278729248429887 
1148	 0.279253893633801 
1149	 0.279773766355201 
1150	 0.28028902294398 
1151	 0.280812206329185 
1152	 0.281334921021796 
1153	 0.281847119063147 
1154	 0.282347106619771 
1155	 0.28284298427403 
1156	 0.283341079500211 
1157	 0.283824725010472 
1158	 0.284310074092841 
1159	 0.284808912970778 
1160	 0.285295813554963 
1161	 0.285761491342814 
1162	 0.286240371975532 
1163	 0.286740002575308 
1164	 0.287216097278756 
1165	 0.287671992290858 
1166	 0.288147280878857 
1167	 0.288615518748224 
1168	 0.289064548513888 
1169	 0.289522297405181 
1170	 0.289984654414601 
1171	 0.290443872772491 
1172	 0.29091023614478 
1173	 0.291351378737596 
1174	 0.291789967592111 
1175	 0.292213674244094 
1176	 0.292604461815671 
1177	 0.29301114490144 
1178	 0.293416297264531 
1179	 0.293826022403226 
1180	 0.294249234123299 
1181	 0.294660014732422 
1182	 0.295068460852103 
1183	 0.295475604625964 
1184	 0.295866966943989 
1185	 0.296243363648743 
1186	 0.296621644265061 
1187	 0.296992831108236 
1188	 0.297363891014386 
1189	 0.2977399603263 
1190	 0.298098562246161 
1191	 0.298444558177224 
1192	 0.298792386668873 
1193	 0.299132104793863 
1194	 0.299469681779201 
1195	 0.299812706245681 
1196	 0.300143383718583 
1197	 0.300460691153199 
1198	 0.3007785715657 
1199	 0.301093043962883 
1200	 0.301402728633142 
1201	 0.301710632745729 
1202	 0.302019037819498 
1203	 0.302318709859175 
1204	 0.302610178858965 
1205	 0.302904367502703 
1206	 0.303198638869659 
1207	 0.303484939827792 
1208	 0.303773322621754 
1209	 0.304049553923621 
1210	 0.304316985315595 
1211	 0.304577067969655 
1212	 0.3048277745214 
1213	 0.305074953490193 
1214	 0.305305633815989 
1215	 0.305546379659695 
1216	 0.305789540463274 
1217	 0.306046046390148 
1218	 0.306263815237836 
1219	 0.30646480354939 
1220	 0.306679322112191 
1221	 0.306869321084246 
1222	 0.307079171968245 
1223	 0.307316564920074 
1224	 0.307536138837993 
1225	 0.307748398276903 
1226	 0.307956548626572 
1227	 0.308162447515572 
1228	 0.308367842870139 
1229	 0.308579943800592 
1230	 0.308768790078694 
1231	 0.308954040656895 
1232	 0.309123412925602 
1233	 0.309276778847021 
1234	 0.309391335639916 
1235	 0.309551805879439 
1236	 0.309722615548887 
1237	 0.309888032259518 
1238	 0.310080642366635 
1239	 0.31024020688599 
1240	 0.310368811634764 
1241	 0.310521657294513 
1242	 0.310681091850992 
1243	 0.310832282796779 
1244	 0.310987591979444 
1245	 0.311142222329314 
1246	 0.311283704865125 
1247	 0.311433140719908 
1248	 0.31159117607358 
1249	 0.311757113214375 
1250	 0.311893636362633 
1251	 0.31203869430098 
1252	 0.312178291355906 
1253	 0.312312406140556 
1254	 0.312437438310267 
1255	 0.312561250025769 
1256	 0.312680483411706 
1257	 0.312799348980304 
1258	 0.312890184832186 
1259	 0.312950024016749 
1260	 0.313042932226713 
1261	 0.313123831324557 
1262	 0.313219369744259 
1263	 0.313364271967023 
1264	 0.313472894347139 
1265	 0.313550467308315 
1266	 0.313642844518138 
1267	 0.313726835074154 
1268	 0.313825873718283 
1269	 0.313917173437906 
1270	 0.314010432730089 
1271	 0.314111826018195 
1272	 0.314212422999292 
1273	 0.314314679192152 
1274	 0.314426083455597 
1275	 0.314540134960902 
1276	 0.31464016524452 
1277	 0.314767956545379 
1278	 0.314922223635338 
1279	 0.315067135401825 
1280	 0.315218266268471 
1281	 0.315375259356432 
1282	 0.315534016388491 
1283	 0.315693111968488 
1284	 0.315861705293284 
1285	 0.316033130643541 
1286	 0.316171554593447 
1287	 0.316321665759278 
1288	 0.316475627881267 
1289	 0.316630512902701 
1290	 0.316771562246044 
1291	 0.316921692955755 
1292	 0.317052756948856 
1293	 0.317159673211353 
1294	 0.317268399726226 
1295	 0.317383167686614 
1296	 0.317471976633226 
1297	 0.31753776669979 
1298	 0.317613752966206 
1299	 0.317677689246544 
1300	 0.317744317173065 
1301	 0.317820843636019 
1302	 0.317879156388234 
1303	 0.317928792025265 
1304	 0.317973312974857 
1305	 0.317992597286665 
1306	 0.318012254870163 
1307	 0.318009277605875 
1308	 0.318008232987982 
1309	 0.318010909387324 
1310	 0.318010920730026 
1311	 0.318013255362232 
1312	 0.318027139690898 
1313	 0.318017734759362 
1314	 0.31800489679483 
1315	 0.317980730960838 
1316	 0.3179386449852 
1317	 0.317898048187674 
1318	 0.317834034503669 
1319	 0.317797548045113 
1320	 0.317777751488268 
1321	 0.31774925189784 
1322	 0.317736994914022 
1323	 0.317717412884381 
1324	 0.317673609603589 
1325	 0.317619111138285 
1326	 0.317573466176585 
1327	 0.317526009451756 
1328	 0.317471327281626 
1329	 0.317420339594599 
1330	 0.317365406531008 
1331	 0.31730209373348 
1332	 0.317243040407301 
1333	 0.317185972596219 
1334	 0.317132911015269 
1335	 0.31707003411456 
1336	 0.317029163912861 
1337	 0.317010792746863 
1338	 0.316973855320865 
1339	 0.316940579480721 
1340	 0.316904330122082 
1341	 0.316862329351696 
1342	 0.316814238065969 
1343	 0.316759101868467 
1344	 0.31671041860054 
1345	 0.316674817013867 
1346	 0.316636069154787 
1347	 0.316595998415609 
1348	 0.316561672755101 
1349	 0.316494394647798 
1350	 0.316427657746211 
1351	 0.316382826465802 
1352	 0.316356395972003 
1353	 0.316312751411741 
1354	 0.316279615003443 
1355	 0.316232998814227 
1356	 0.316154960367526 
1357	 0.31611268991108 
1358	 0.316088676617698 
1359	 0.316056746425294 
1360	 0.31604053978186 
1361	 0.31601814606625 
1362	 0.315995021148469 
1363	 0.315962106236913 
1364	 0.315930804079535 
1365	 0.315889202301907 
1366	 0.315837621471481 
1367	 0.315768824119432 
1368	 0.315721428581964 
1369	 0.315672466121616 
1370	 0.315589962551521 
1371	 0.315518817965411 
1372	 0.31543226179341 
1373	 0.315317600360775 
1374	 0.315205866298465 
1375	 0.315102788028741 
1376	 0.314962325850554 
1377	 0.314813385090688 
1378	 0.314622559881022 
1379	 0.314395850494731 
1380	 0.314165190772127 
1381	 0.313901817452045 
1382	 0.31363322494188 
1383	 0.313374571214077 
1384	 0.313067425997564 
1385	 0.312745064050862 
1386	 0.312381931528748 
1387	 0.311976733255035 
1388	 0.31154924019455 
1389	 0.3111054719733 
1390	 0.310606170258316 
1391	 0.310072125717193 
1392	 0.309514687658892 
1393	 0.308895186390846 
1394	 0.30824764338331 
1395	 0.307555681127078 
1396	 0.306855625343388 
1397	 0.306154166316972 
1398	 0.305434015269349 
1399	 0.304707689535813 
1400	 0.303979481224315 
1401	 0.303242225234572 
1402	 0.302476219574281 
1403	 0.301743115909868 
1404	 0.301012051370092 
1405	 0.300307221602733 
1406	 0.299618745529567 
1407	 0.29894812201101 
1408	 0.298274570913944 
1409	 0.297656115147287 
1410	 0.2970484989692 
1411	 0.296515393948833 
1412	 0.296036265942375 
1413	 0.295611851963555 
1414	 0.295254108843157 
1415	 0.294914698224755 
1416	 0.294612767411435 
1417	 0.294353394740181 
1418	 0.294099432294289 
1419	 0.293888083265313 
1420	 0.29372505644739 
1421	 0.293570544781106 
1422	 0.293433403558914 
1423	 0.293295919462781 
1424	 0.293131013917509 
1425	 0.292935407109789 
1426	 0.292763216518993 
1427	 0.292570249095715 
1428	 0.292425100273857 
1429	 0.292302542084374 
1430	 0.292197175851022 
1431	 0.292138299824554 
1432	 0.29204836136534 
1433	 0.2919559522423 
1434	 0.291871929193851 
1435	 0.291761736988284 
1436	 0.291688800800599 
1437	 0.291644438206909 
1438	 0.291602328464893 
1439	 0.291572791330241 
1440	 0.291563671804864 
1441	 0.291546135544393 
1442	 0.291523065020157 
1443	 0.291508264397602 
1444	 0.291489989220483 
1445	 0.291501017062721 
1446	 0.29152608357393 
1447	 0.291549250298879 
1448	 0.291571653602995 
1449	 0.291566355997579 
1450	 0.291563648601674 
1451	 0.291579803534341 
1452	 0.291600370981232 
1453	 0.291637452023975 
1454	 0.291694993099424 
1455	 0.291744239052444 
1456	 0.291811415344755 
1457	 0.291855214404702 
1458	 0.291885219025949 
1459	 0.291925883880406 
1460	 0.291951425775619 
1461	 0.291989283483454 
1462	 0.292036349448331 
1463	 0.292092543113779 
1464	 0.292153023920288 
1465	 0.292225463866141 
1466	 0.292312749257712 
1467	 0.292399605054245 
1468	 0.292468256141712 
1469	 0.292580492822134 
1470	 0.292710737073951 
1471	 0.292873451605884 
1472	 0.293052705735395 
1473	 0.293250392892363 
1474	 0.293435951305509 
1475	 0.293606700176314 
1476	 0.293779377881871 
1477	 0.293959018476112 
1478	 0.294133997546912 
1479	 0.294320042439924 
1480	 0.294524245578352 
1481	 0.29472206334219 
1482	 0.29491821127913 
1483	 0.295118545215325 
1484	 0.295310021002424 
1485	 0.29548682376936 
1486	 0.295689051828935 
1487	 0.295902454514175 
1488	 0.296109604308962 
1489	 0.296331240428987 
1490	 0.296542029150078 
1491	 0.296746906601066 
1492	 0.296945196384215 
1493	 0.297136876504243 
1494	 0.297332414983558 
1495	 0.297520491992613 
1496	 0.297710610379213 
1497	 0.297915857812397 
1498	 0.298099266315041 
1499	 0.29826744544279 
1500	 0.29844068635877 
1501	 0.298600104821051 
1502	 0.298768316131415 
1503	 0.298947676824024 
1504	 0.299113770127204 
1505	 0.299280086508615 
1506	 0.299449630208523 
1507	 0.299601345485807 
1508	 0.299746147719108 
1509	 0.299873436762272 
1510	 0.299997072959251 
1511	 0.300141415419707 
1512	 0.30027611891294 
1513	 0.300429387128087 
1514	 0.300605143213591 
1515	 0.300745119155176 
1516	 0.300895240540457 
1517	 0.301041797687981 
1518	 0.301175249574565 
1519	 0.301314915373644 
1520	 0.301460056999255 
1521	 0.30160746026586 
1522	 0.301754516569504 
1523	 0.301898430922831 
1524	 0.302052666062602 
1525	 0.302193758273822 
1526	 0.302321887266748 
1527	 0.302454119518573 
1528	 0.302584849108283 
1529	 0.302711774022156 
1530	 0.302844406773539 
1531	 0.302961826138849 
1532	 0.303076559922716 
1533	 0.303169912805598 
1534	 0.303236922093038 
1535	 0.303310210913956 
1536	 0.303361339732854 
1537	 0.30344030810573 
1538	 0.303532524722048 
1539	 0.303627976226406 
1540	 0.303741092448241 
1541	 0.303847965587387 
1542	 0.303955152109895 
1543	 0.304061012502305 
1544	 0.304175590070283 
1545	 0.304275481429975 
1546	 0.304370753516036 
1547	 0.304457773139395 
1548	 0.304530639818958 
1549	 0.304582493763704 
1550	 0.304630783079673 
1551	 0.304695059522079 
1552	 0.304744015436289 
1553	 0.304816627108944 
1554	 0.304912472815408 
1555	 0.304974514810222 
1556	 0.305046534598451 
1557	 0.305130327326637 
1558	 0.305194166033348 
1559	 0.305264795449985 
1560	 0.305346191727017 
1561	 0.305445118404054 
1562	 0.305515823756012 
1563	 0.305578735287834 
1564	 0.305655114441813 
1565	 0.305724294081565 
1566	 0.30579065190726 
1567	 0.305871011546646 
1568	 0.305937873117437 
1569	 0.305981366427763 
1570	 0.30604521891046 
1571	 0.30612640751468 
1572	 0.306187783812821 
1573	 0.306243405756814 
1574	 0.306299317950763 
1575	 0.306346374975583 
1576	 0.306396153276318 
1577	 0.306454308090006 
1578	 0.306496709780717 
1579	 0.306521149472533 
1580	 0.306561822710109 
1581	 0.306593026158158 
1582	 0.306645728665729 
1583	 0.306727301995884 
1584	 0.306789794576071 
1585	 0.306858706386109 
1586	 0.306916581573217 
1587	 0.306964323317185 
1588	 0.307003887993812 
1589	 0.307042167454288 
1590	 0.307064698674574 
1591	 0.307061952647121 
1592	 0.307075324670868 
1593	 0.307072497353649 
1594	 0.307094302302638 
1595	 0.307151021865799 
1596	 0.307184111757896 
1597	 0.307210007816503 
1598	 0.307247638704576 
1599	 0.307291998150639 
1600	 0.307314555403072 
1601	 0.307337962149771 
1602	 0.307359141246436 
1603	 0.307335761886707 
1604	 0.307348082347147 
1605	 0.307387830965168 
1606	 0.307429543484923 
1607	 0.307496485350901 
1608	 0.307550000580388 
1609	 0.307606659056531 
1610	 0.307652907908654 
1611	 0.307675049448907 
1612	 0.307718209714934 
1613	 0.307729022797883 
1614	 0.307730147904263 
1615	 0.30774447813396 
1616	 0.307727664485077 
1617	 0.307727136334632 
1618	 0.307747780588716 
1619	 0.307760517332757 
1620	 0.30778475787767 
1621	 0.307811124343402 
1622	 0.307857433936496 
1623	 0.3078565562415 
1624	 0.307838830139688 
1625	 0.307828089355125 
1626	 0.307787179951679 
1627	 0.307774570674621 
1628	 0.30777431077041 
1629	 0.307789461427561 
1630	 0.30781325033032 
1631	 0.307841151056009 
1632	 0.307895677283028 
1633	 0.307926028572755 
1634	 0.307947300288334 
1635	 0.307962990846534 
1636	 0.307974808351451 
1637	 0.307979788027305 
1638	 0.307966162482839 
1639	 0.30797732526753 
1640	 0.307988773925341 
1641	 0.308019557168424 
1642	 0.308080722359661 
1643	 0.308111352462737 
1644	 0.308135993723019 
1645	 0.308166451280362 
1646	 0.308189928822035 
1647	 0.308209085514542 
1648	 0.308243203072606 
1649	 0.308247758372234 
1650	 0.308219869424067 
1651	 0.308213887393886 
1652	 0.30821048122035 
1653	 0.308198454511735 
1654	 0.308186577100194 
1655	 0.308177505398843 
1656	 0.308164748494488 
1657	 0.308144608756355 
1658	 0.308131822774609 
1659	 0.308104719521521 
1660	 0.308055286955722 
1661	 0.308020013841888 
1662	 0.307987257015472 
1663	 0.307955171950243 
1664	 0.30792366899425 
1665	 0.307896093500473 
1666	 0.307853605325486 
1667	 0.307854988217571 
1668	 0.307903266691195 
1669	 0.307900091237792 
1670	 0.307911774790032 
1671	 0.307888740313197 
1672	 0.307794825465992 
1673	 0.307758810478357 
1674	 0.307743176461593 
1675	 0.307726659591738 
1676	 0.307727249276228 
1677	 0.307724613698791 
1678	 0.3077262525194 
1679	 0.307721053002549 
1680	 0.30772745341934 
1681	 0.30770881700931 
1682	 0.307661064193604 
1683	 0.307639015085461 
1684	 0.307603921648243 
1685	 0.307599593887488 
1686	 0.307649095120439 
1687	 0.30763860687834 
1688	 0.307612914665002 
1689	 0.307583991915091 
1690	 0.307506248689201 
1691	 0.307470662884757 
1692	 0.307464461426821 
1693	 0.307443644570098 
1694	 0.307428629991171 
1695	 0.307407307676119 
1696	 0.307368790760595 
1697	 0.30735659379519 
1698	 0.307367249379072 
1699	 0.307357926862872 
1700	 0.307359619591597 
1701	 0.307339633252691 
1702	 0.307289416073736 
1703	 0.307254250478414 
1704	 0.307219440107429 
1705	 0.307188932702805 
1706	 0.307169911744094 
1707	 0.307132714117424 
1708	 0.307087005616641 
1709	 0.307043102844325 
1710	 0.306992915302457 
1711	 0.3069351143424 
1712	 0.306865640448646 
1713	 0.306817705113137 
1714	 0.306775844075059 
1715	 0.306727528857288 
1716	 0.306695855861503 
1717	 0.306648758717493 
1718	 0.306573606023267 
1719	 0.306522647154653 
1720	 0.306491058819964 
1721	 0.306450635669143 
1722	 0.306415057995692 
1723	 0.306374213128283 
1724	 0.306328921438562 
1725	 0.306269952077202 
1726	 0.306208238359417 
1727	 0.306131029278159 
1728	 0.30603099047481 
1729	 0.305960126397629 
1730	 0.305898044596788 
1731	 0.305824961438275 
1732	 0.305763345128691 
1733	 0.305680527353154 
1734	 0.305575576299928 
1735	 0.305481402913737 
1736	 0.305393869586184 
1737	 0.305286732728556 
1738	 0.305151004026947 
1739	 0.305067704857404 
1740	 0.304991963509593 
1741	 0.304935650296887 
1742	 0.304942341509469 
1743	 0.30487765287346 
1744	 0.304791866432564 
1745	 0.304683347546425 
1746	 0.304526841376643 
1747	 0.304417491962449 
1748	 0.30431238406125 
1749	 0.304249282903026 
1750	 0.304175227991441 
1751	 0.304097469743783 
1752	 0.304021440843638 
1753	 0.303912477246164 
1754	 0.303802303576931 
1755	 0.303680339989968 
1756	 0.303561797831411 
1757	 0.303458341126783 
1758	 0.303362981052926 
1759	 0.303292975457523 
1760	 0.303220728911947 
1761	 0.303140296092402 
1762	 0.303086179244851 
1763	 0.303000112960378 
1764	 0.302879621971626 
1765	 0.302794030228994 
1766	 0.302679370388041 
1767	 0.302560613513018 
1768	 0.302468781983725 
1769	 0.302338592943738 
1770	 0.302261938575822 
1771	 0.302233532439952 
1772	 0.302174000257952 
1773	 0.302119008099677 
1774	 0.302048245009304 
1775	 0.301958020377461 
1776	 0.3018777643735 
1777	 0.301824087826382 
1778	 0.30175986002203 
1779	 0.301642758026856 
1780	 0.30155377593584 
1781	 0.301506885393404 
1782	 0.301447563478345 
1783	 0.301429363050891 
1784	 0.301403310634214 
1785	 0.301369764960787 
1786	 0.301336903433505 
1787	 0.301325425587642 
1788	 0.301277762452782 
1789	 0.301195764291861 
1790	 0.301132966397071 
1791	 0.301052984093604 
1792	 0.300995538333311 
1793	 0.300952942729213 
1794	 0.300920083881304 
1795	 0.300891739795353 
1796	 0.300884334784893 
1797	 0.300918255394803 
1798	 0.300914493523651 
1799	 0.300910705114783 
1800	 0.300906198359659 
1801	 0.300218784247586 
1802	 0.300389431218638 
1803	 0.300562454622652 
1804	 0.300725602774476 
1805	 0.300921462917231 
1806	 0.301141981665399 
1807	 0.301327940021549 
1808	 0.301482483164377 
1809	 0.301625562656562 
1810	 0.301728927792897 
1811	 0.301778666739415 
1812	 0.301850170042974 
1813	 0.30190572386829 
1814	 0.30193036313406 
1815	 0.301938904011275 
1816	 0.301920913444308 
1817	 0.301905681318814 
1818	 0.301835333869521 
1819	 0.301837450041082 
1820	 0.301867783249324 
1821	 0.301914688860252 
1822	 0.301970207868745 
1823	 0.302012074714212 
1824	 0.302019530448122 
1825	 0.30200326037327 
1826	 0.301998902607237 
1827	 0.3020075423297 
1828	 0.301985483522678 
1829	 0.301966102247897 
1830	 0.301916158534232 
1831	 0.30183047405451 
1832	 0.301724821629936 
1833	 0.301661997400507 
1834	 0.301608161024565 
1835	 0.301575319079688 
1836	 0.301560169199822 
1837	 0.301537121413148 
1838	 0.301510368355191 
1839	 0.301486724902139 
1840	 0.301475997242622 
1841	 0.301448020803078 
1842	 0.301395217582003 
1843	 0.301347746162493 
1844	 0.301277654252746 
1845	 0.301212677160591 
1846	 0.301157800417733 
1847	 0.301090521038927 
1848	 0.301013549226087 
1849	 0.300933244795578 
1850	 0.300844333749107 
1851	 0.300767186303376 
1852	 0.300625292035703 
1853	 0.300471517632979 
1854	 0.300337778837982 
1855	 0.300142322411633 
1856	 0.29997756983999 
1857	 0.299832330053549 
1858	 0.299631120368603 
1859	 0.299426402714274 
1860	 0.29918130004819 
1861	 0.298914943592753 
1862	 0.298591842022845 
1863	 0.298236830993826 
1864	 0.297832760581439 
1865	 0.297400836260629 
1866	 0.296949958895237 
1867	 0.296477532814396 
1868	 0.295971879568593 
1869	 0.295426110290788 
1870	 0.294858038402466 
1871	 0.294237035821932 
1872	 0.293571731365693 
1873	 0.292867734756717 
1874	 0.292128078138177 
1875	 0.291321477867209 
1876	 0.290480219053559 
1877	 0.289604593647343 
1878	 0.28862314340528 
1879	 0.287556401047008 
1880	 0.286407868322286 
1881	 0.285150525420567 
1882	 0.283830006255198 
1883	 0.282445747821751 
1884	 0.280959096562558 
1885	 0.27941164496156 
1886	 0.277776522142809 
1887	 0.27599871022255 
1888	 0.274151176950117 
1889	 0.27221848396835 
1890	 0.270217985996611 
1891	 0.26821754536724 
1892	 0.266180422460427 
1893	 0.264130701137248 
1894	 0.262056091678223 
1895	 0.259962084843497 
1896	 0.257838897370733 
1897	 0.255753450440639 
1898	 0.253654387896482 
1899	 0.251541776864678 
1900	 0.249528862793758 
1901	 0.247591663576153 
1902	 0.245733685571336 
1903	 0.243995819359846 
1904	 0.24230700933316 
1905	 0.240677122987852 
1906	 0.239108064812341 
1907	 0.23763899799193 
1908	 0.236241891806797 
1909	 0.234954788059499 
1910	 0.233715019908399 
1911	 0.232550483790765 
1912	 0.231474086016747 
1913	 0.230443198581384 
1914	 0.229464629774988 
1915	 0.22856843954289 
1916	 0.227748111233943 
1917	 0.226965737026166 
1918	 0.226256663749353 
1919	 0.225601245145509 
1920	 0.224999427193573 
1921	 0.224441664264329 
1922	 0.223937702444991 
1923	 0.223516362690698 
1924	 0.223138514001296 
1925	 0.222822051516592 
1926	 0.222542854925444 
1927	 0.222316596388543 
1928	 0.22212576349706 
1929	 0.221988951096775 
1930	 0.221896178067279 
1931	 0.221839617405209 
1932	 0.2218151776236 
1933	 0.221809993887919 
1934	 0.221830846520664 
1935	 0.221874840162422 
1936	 0.221939568719747 
1937	 0.222040043587577 
1938	 0.222174644745791 
1939	 0.22232594910494 
1940	 0.222506143100637 
1941	 0.222717606843006 
1942	 0.22293791100763 
1943	 0.223155872738535 
1944	 0.223398826338621 
1945	 0.22367439962432 
1946	 0.223953615421191 
1947	 0.224240164183386 
1948	 0.224554367082076 
1949	 0.224889883836425 
1950	 0.225230351092254 
1951	 0.225584524621771 
1952	 0.225972477130053 
1953	 0.226344778068191 
1954	 0.226731576943302 
1955	 0.227114855309241 
1956	 0.227493758611672 
1957	 0.227893175108204 
1958	 0.228284344802708 
1959	 0.228711787482403 
1960	 0.229186332594076 
1961	 0.229635278704999 
1962	 0.230081468258534 
1963	 0.230553439866045 
1964	 0.231026184573317 
1965	 0.231499605776385 
1966	 0.232032609116215 
1967	 0.232579536325016 
1968	 0.233105404937759 
1969	 0.23363469726413 
1970	 0.234163764510412 
1971	 0.234682495096368 
1972	 0.235207421098466 
1973	 0.235754453823431 
1974	 0.236274899693347 
1975	 0.236782707752143 
1976	 0.237272381259368 
1977	 0.237784600515596 
1978	 0.238312350848589 
1979	 0.238835559976522 
1980	 0.239390282703394 
1981	 0.239916107791604 
1982	 0.240411155603079 
1983	 0.240934425271528 
1984	 0.241466145676517 
1985	 0.241994716466529 
1986	 0.242537469450778 
1987	 0.243072222832863 
1988	 0.243602097454897 
1989	 0.244136322946972 
1990	 0.244657174176035 
1991	 0.245173855205714 
1992	 0.245686354448047 
1993	 0.246180516517735 
1994	 0.246695588635949 
1995	 0.247216719586661 
1996	 0.247739772541984 
1997	 0.248279150487412 
1998	 0.248804814120502 
1999	 0.249326214233317 
2000	 0.249848104106213 
2001	 0.250368052736881 
2002	 0.250880378477066 
2003	 0.251407037935279 
2004	 0.251919923523928 
2005	 0.252419463270877 
2006	 0.25291159957297 
2007	 0.25339687915865 
2008	 0.253852899278556 
2009	 0.254334366863852 
2010	 0.254827972408761 
2011	 0.255313365873677 
2012	 0.255818678142794 
2013	 0.256297756975706 
2014	 0.256761931482075 
2015	 0.257218291299683 
2016	 0.257650981508529 
2017	 0.258075973825887 
2018	 0.258519478842193 
2019	 0.258966365725137 
2020	 0.259409992570921 
2021	 0.259868307120586 
2022	 0.260314139920155 
2023	 0.260746865468447 
2024	 0.261185047238182 
2025	 0.261627301858468 
2026	 0.262066017658136 
2027	 0.262513670467849 
2028	 0.262933022889918 
2029	 0.263364821235799 
2030	 0.263800547808519 
2031	 0.264221426745145 
2032	 0.264639768348459 
2033	 0.26504979768118 
2034	 0.265453858626693 
2035	 0.265841833497957 
2036	 0.26622052842406 
2037	 0.266589763690589 
2038	 0.266942325725735 
2039	 0.267288145598242 
2040	 0.267630040639619 
2041	 0.267953503198554 
2042	 0.268262485621616 
2043	 0.268592967921852 
2044	 0.26893609409589 
2045	 0.269297957445614 
2046	 0.269644524441482 
2047	 0.27001685301978 
2048	 0.270345820130357 
2049	 0.270650058164531 
2050	 0.270948308273161 
2051	 0.271215611774838 
2052	 0.271496169542949 
2053	 0.271768785990926 
2054	 0.272046594913508 
2055	 0.272324695964349 
2056	 0.272609287189427 
2057	 0.272903941089419 
2058	 0.273217255438529 
2059	 0.273501210876586 
2060	 0.273783031497296 
2061	 0.274059908343839 
2062	 0.274310509319687 
2063	 0.274577902480505 
2064	 0.274863545975664 
2065	 0.275132771928843 
2066	 0.275391495891364 
2067	 0.275651626157994 
2068	 0.275895220377444 
2069	 0.276157716343164 
2070	 0.276425407844942 
2071	 0.276712767365748 
2072	 0.276963489220913 
2073	 0.277200640870074 
2074	 0.277452768320116 
2075	 0.27770020600883 
2076	 0.27792892678884 
2077	 0.27815575030323 
2078	 0.278391365938318 
2079	 0.278602203766373 
2080	 0.278826159328397 
2081	 0.279086886866402 
2082	 0.279321537295862 
2083	 0.279524161615365 
2084	 0.279746774566736 
2085	 0.279969051821037 
2086	 0.280194187486229 
2087	 0.280416093236839 
2088	 0.280627081154197 
2089	 0.280870687303599 
2090	 0.281125371252048 
2091	 0.281383675578515 
2092	 0.281687355914154 
2093	 0.28194907571533 
2094	 0.282191554957486 
2095	 0.282428206997863 
2096	 0.28264507753415 
2097	 0.282864795410901 
2098	 0.283069038378735 
2099	 0.283290364716504 
2100	 0.283504953459428 
2101	 0.283720434962208 
2102	 0.28393175696794 
2103	 0.284137552868406 
2104	 0.284353156362052 
2105	 0.284553618163805 
2106	 0.284790575120747 
2107	 0.285056263455222 
2108	 0.285314645837353 
2109	 0.285596034934033 
2110	 0.285867945304477 
2111	 0.286132217007716 
2112	 0.286399716944088 
2113	 0.286674143035817 
2114	 0.286948700719237 
2115	 0.287202829183526 
2116	 0.287444939949762 
2117	 0.287692700405122 
2118	 0.287935786027654 
2119	 0.28816385413038 
2120	 0.288394762124332 
2121	 0.288608804452024 
2122	 0.288792140068453 
2123	 0.288989688485322 
2124	 0.289184957938938 
2125	 0.28938404424207 
2126	 0.289593981709488 
2127	 0.28978845128832 
2128	 0.290002374324611 
2129	 0.290172881116779 
2130	 0.290312515103466 
2131	 0.290436474799537 
2132	 0.290549715058212 
2133	 0.290634162357411 
2134	 0.290718513907163 
2135	 0.2907958789493 
2136	 0.290865435830243 
2137	 0.290919440869481 
2138	 0.290968932440536 
2139	 0.291030027596641 
2140	 0.291054699054356 
2141	 0.291046540150622 
2142	 0.291043087704967 
2143	 0.291026058613331 
2144	 0.290996098255308 
2145	 0.290970365460832 
2146	 0.290921874659642 
2147	 0.290842858679918 
2148	 0.290759876276101 
2149	 0.290673477755328 
2150	 0.290571306768818 
2151	 0.290481472886767 
2152	 0.290401800676743 
2153	 0.290297978882482 
2154	 0.29020079013104 
2155	 0.290067226165347 
2156	 0.289902616610772 
2157	 0.289735848467644 
2158	 0.289551852286586 
2159	 0.289356588462758 
2160	 0.289148452922438 
2161	 0.288932534956421 
2162	 0.288684977425632 
2163	 0.288458500336017 
2164	 0.288240887991677 
2165	 0.288021977589262 
2166	 0.287797910374993 
2167	 0.287587985779069 
2168	 0.28734803560599 
2169	 0.287074501685194 
2170	 0.28684024692777 
2171	 0.28661680081514 
2172	 0.286380632572763 
2173	 0.286158630175391 
2174	 0.285929341380045 
2175	 0.285691124709461 
2176	 0.285443083128829 
2177	 0.285216412533265 
2178	 0.28494702356316 
2179	 0.284623301020948 
2180	 0.28432184090956 
2181	 0.284015967088097 
2182	 0.283702703601893 
2183	 0.283361798466995 
2184	 0.283071840619777 
2185	 0.282786925505108 
2186	 0.282497993174139 
2187	 0.282229400623047 
2188	 0.282004321155462 
2189	 0.281752486814039 
2190	 0.281488631887289 
2191	 0.28123744704318 
2192	 0.280979610741358 
2193	 0.280748415567634 
2194	 0.280527038203981 
2195	 0.280321358938132 
2196	 0.280145025595152 
2197	 0.279967310258171 
2198	 0.279770264045701 
2199	 0.279624679094465 
2200	 0.279504545793779 
2201	 0.279408427811281 
2202	 0.279356350929297 
2203	 0.279326787084586 
2204	 0.27929800529421 
2205	 0.279282700821773 
2206	 0.279275039754244 
2207	 0.279267648311666 
2208	 0.279298974726483 
2209	 0.279339284408049 
2210	 0.279421183005761 
2211	 0.279554784064272 
2212	 0.279683798148458 
2213	 0.279846783319793 
2214	 0.279997667448597 
2215	 0.280174880790052 
2216	 0.280308705334809 
2217	 0.280434945707574 
2218	 0.280529149360235 
2219	 0.280558799327468 
2220	 0.280621910382396 
2221	 0.280680684410263 
2222	 0.280754753364809 
2223	 0.28080999981904 
2224	 0.280858098649981 
2225	 0.28089171723249 
2226	 0.280888721070815 
2227	 0.280911943493069 
2228	 0.28093672671044 
2229	 0.280977968701522 
2230	 0.28105207568355 
2231	 0.281060932860655 
2232	 0.281042622212153 
2233	 0.281046448564189 
2234	 0.281015866321592 
2235	 0.281002251304411 
2236	 0.281035055280224 
2237	 0.281029867459881 
2238	 0.280984284758317 
2239	 0.280951057193987 
2240	 0.280913663164616 
2241	 0.280882495747378 
2242	 0.280848361680026 
2243	 0.280824024095185 
2244	 0.280817033050371 
2245	 0.280805126922926 
2246	 0.280767710824813 
2247	 0.280731361453263 
2248	 0.280686880110697 
2249	 0.280621597641744 
2250	 0.280563682543172 
2251	 0.280509825251194 
2252	 0.280448448462193 
2253	 0.280373933601134 
2254	 0.280310914455906 
2255	 0.280243539927706 
2256	 0.280200350361732 
2257	 0.280159451756685 
2258	 0.280146768775524 
2259	 0.28015921046177 
2260	 0.28018254336363 
2261	 0.280259755145064 
2262	 0.28027972014376 
2263	 0.280307162649171 
2264	 0.280287865373813 
2265	 0.280165802340442 
2266	 0.280120038328719 
2267	 0.280096592396196 
2268	 0.280071005430044 
2269	 0.280066059072854 
2270	 0.280100766161944 
2271	 0.280109006236685 
2272	 0.280070016032085 
2273	 0.280082839350402 
2274	 0.280054698916043 
2275	 0.280019217509565 
2276	 0.279961991332254 
2277	 0.279938336274789 
2278	 0.279900532094746 
2279	 0.279895164798291 
2280	 0.279936574806258 
2281	 0.279933077634445 
2282	 0.279922160149056 
2283	 0.279908338398808 
2284	 0.279880044231436 
2285	 0.279855201235859 
2286	 0.279828993135369 
2287	 0.279803206829798 
2288	 0.279772121670057 
2289	 0.279735250870108 
2290	 0.279715844580121 
2291	 0.279665300296291 
2292	 0.279592264868094 
2293	 0.279514962574659 
2294	 0.279391665525716 
2295	 0.27930424657961 
2296	 0.279214841335828 
2297	 0.279169573028887 
2298	 0.279134640161247 
2299	 0.279100316275298 
2300	 0.279102243023636 
2301	 0.279078624964124 
2302	 0.278994934417827 
2303	 0.278928962130193 
2304	 0.278848434950056 
2305	 0.278716346130459 
2306	 0.278604792617835 
2307	 0.278517477347347 
2308	 0.278397314826077 
2309	 0.278246722420138 
2310	 0.278107721692382 
2311	 0.277965631882405 
2312	 0.277819000743383 
2313	 0.277661507652468 
2314	 0.277525475230061 
2315	 0.277397375985922 
2316	 0.277273386929413 
2317	 0.277172335432006 
2318	 0.277029860719499 
2319	 0.276857923789174 
2320	 0.276707454728432 
2321	 0.276542150453065 
2322	 0.276403333074337 
2323	 0.276313345293732 
2324	 0.276183068704997 
2325	 0.276018969028005 
2326	 0.275884830318251 
2327	 0.275761578202521 
2328	 0.275608027336155 
2329	 0.275498612124907 
2330	 0.275378695769282 
2331	 0.27525663991225 
2332	 0.275194720589614 
2333	 0.275092144734546 
2334	 0.27499474555516 
2335	 0.274874596906574 
2336	 0.274656824524447 
2337	 0.274511443161731 
2338	 0.274398331037054 
2339	 0.27426935468165 
2340	 0.274190061775207 
2341	 0.274084057382356 
2342	 0.273964508652795 
2343	 0.27381949713175 
2344	 0.273659707973046 
2345	 0.273475618731675 
2346	 0.273222686777653 
2347	 0.273024583210266 
2348	 0.272845387795181 
2349	 0.272657968980907 
2350	 0.272525555108023 
2351	 0.272293343100596 
2352	 0.27199591193685 
2353	 0.271723402838131 
2354	 0.271360512975348 
2355	 0.271119696772896 
2356	 0.270963344287534 
2357	 0.270770301006552 
2358	 0.270631264946105 
2359	 0.270440608104894 
2360	 0.270212348411682 
2361	 0.270004816823974 
2362	 0.269778939592926 
2363	 0.269574916272032 
2364	 0.269404468714461 
2365	 0.269197285317889 
2366	 0.268985190264339 
2367	 0.26876915290549 
2368	 0.268525758115832 
2369	 0.268281536460853 
2370	 0.268035675597829 
2371	 0.267801360897716 
2372	 0.267514180744404 
2373	 0.26719743063152 
2374	 0.266907324437436 
2375	 0.266527359977989 
2376	 0.266131736772129 
2377	 0.265841314863967 
2378	 0.265556707417008 
2379	 0.265339316844929 
2380	 0.265181278858147 
2381	 0.264961895339358 
2382	 0.264686748344861 
2383	 0.264346772945592 
2384	 0.263964927094635 
2385	 0.263608457946821 
2386	 0.263234649651569 
2387	 0.262844509244035 
2388	 0.262581702990661 
2389	 0.262400706096141 
2390	 0.262093128561798 
2391	 0.261732702669593 
2392	 0.261423233390593 
2393	 0.261024060376172 
2394	 0.260628095211622 
2395	 0.260371039676478 
2396	 0.260055009650937 
2397	 0.25966693739875 
2398	 0.259308135198123 
2399	 0.258949430529367 
2400	 0.258581681522112 
2401	 0.258190918149604 
2402	 0.257798932192955 
2403	 0.257472879660617 
2404	 0.257216797476362 
2405	 0.256878184197091 
2406	 0.256543946457034 
2407	 0.256260956924626 
2408	 0.255807638581332 
2409	 0.255341814216766 
2410	 0.254981424640639 
2411	 0.254567333349914 
2412	 0.254109779780212 
2413	 0.253689346348971 
2414	 0.253236451003612 
2415	 0.252737108073482 
2416	 0.252288729435867 
2417	 0.251865562043516 
2418	 0.251502552747713 
2419	 0.251212101586187 
2420	 0.250869462072028 
2421	 0.250606087827885 
2422	 0.250248066582262 
2423	 0.249794246924297 
2424	 0.249341819902455 
2425	 0.248865625293878 
2426	 0.248359044603356 
2427	 0.247767129077106 
2428	 0.247282548734366 
2429	 0.246850834643084 
2430	 0.24640661434054 
2431	 0.246026306448961 
2432	 0.245617738076045 
2433	 0.245133468966622 
2434	 0.2447077155152 
2435	 0.244345387237279 
2436	 0.24396108127221 
2437	 0.243589721114214 
2438	 0.24323571649199 
2439	 0.242935676695698 
2440	 0.242504661694427 
2441	 0.241947375495791 
2442	 0.24154480322226 
2443	 0.241159892803904 
2444	 0.240754056455655 
2445	 0.240485520162408 
2446	 0.240100997263005 
2447	 0.23953463287299 
2448	 0.239180120625248 
2449	 0.238946455976189 
2450	 0.23860569446582 
2451	 0.238350597252278 
2452	 0.237946098559106 
2453	 0.237361959701186 
2454	 0.236928856843173 
2455	 0.236574534924312 
2456	 0.236101965393661 
2457	 0.235556944551869 
2458	 0.235165655338011 
2459	 0.234713533952676 
2460	 0.234339570317137 
2461	 0.234238067013061 
2462	 0.233870817343804 
2463	 0.233351485758941 
2464	 0.23293451751686 
2465	 0.232467705705992 
2466	 0.232027698827876 
2467	 0.231638539897422 
2468	 0.23121877979278 
2469	 0.230728007811299 
2470	 0.230359531076812 
2471	 0.230005965295128 
2472	 0.229546756796428 
2473	 0.229286718569846 
2474	 0.228844946630795 
2475	 0.228329833593133 
2476	 0.228263016732516 
2477	 0.227926953269213 
2478	 0.227511553631996 
2479	 0.227323468465526 
2480	 0.226861414268405 
2481	 0.226477044140269 
2482	 0.226126904450588 
2483	 0.225664645072251 
2484	 0.2252503756674 
2485	 0.22476301256467 
2486	 0.224490377917201 
2487	 0.224435049883868 
2488	 0.224297859529188 
2489	 0.224102032536302 
2490	 0.223973705614446 
2491	 0.223677760393027 
2492	 0.223254352838017 
2493	 0.222907417343275 
2494	 0.222322867051331 
2495	 0.221947307820858 
2496	 0.22190120722494 
2497	 0.221742994754355 
2498	 0.221652150190737 
2499	 0.22140226250596 
2500	 0.220852983435502 
