Wavelength	mm1400002.asd
350	 4.53245846542176E-02 
351	 0.053741971673653 
352	 5.63420398900837E-02 
353	 5.07785382294787E-02 
354	 5.62890864114812E-02 
355	 5.60377982381932E-02 
356	 5.17613697815596E-02 
357	 4.97103575531267E-02 
358	 5.42977516390862E-02 
359	 5.57549345435754E-02 
360	 5.22076706149854E-02 
361	 4.77986612065469E-02 
362	 4.97748299012025E-02 
363	 5.12206346349993E-02 
364	 5.01768257607483E-02 
365	 5.56510032044542E-02 
366	 5.35675974133808E-02 
367	 5.03618210934219E-02 
368	 5.39440563163483E-02 
369	 5.52183782692624E-02 
370	 5.30480117970592E-02 
371	 5.04024524050248E-02 
372	 5.21985848184475E-02 
373	 5.31270489973324E-02 
374	 5.44585430886063E-02 
375	 0.056770120024147 
376	 5.81599608885733E-02 
377	 5.59395928793984E-02 
378	 5.48194306866818E-02 
379	 5.88125952270383E-02 
380	 5.91743957567425E-02 
381	 5.84156754985588E-02 
382	 5.78987904061106E-02 
383	 5.78314650607628E-02 
384	 5.92577357848195E-02 
385	 5.89195825923907E-02 
386	 5.68026338739185E-02 
387	 0.060441759133689 
388	 6.19076614556561E-02 
389	 5.97769734651589E-02 
390	 5.59126058194844E-02 
391	 5.62550454991147E-02 
392	 5.85505366723018E-02 
393	 6.15008211452158E-02 
394	 6.47969820960778E-02 
395	 6.47442843772443E-02 
396	 0.063926364167347 
397	 6.43574966771806E-02 
398	 0.064517147272288 
399	 6.50142716396289E-02 
400	 0.066130161145337 
401	 6.77218186795075E-02 
402	 6.82065426445977E-02 
403	 6.77229776839533E-02 
404	 6.70381609977772E-02 
405	 6.73267708750883E-02 
406	 6.79173619299593E-02 
407	 0.068229272249759 
408	 6.78836224895791E-02 
409	 6.67281281361151E-02 
410	 6.64027747931831E-02 
411	 6.73018065227455E-02 
412	 6.88876240251642E-02 
413	 6.90585862966619E-02 
414	 6.92190552102388E-02 
415	 6.95764188543335E-02 
416	 0.068385632980908 
417	 6.78508521481752E-02 
418	 0.068501827542868 
419	 6.98725942290788E-02 
420	 6.98496329431465E-02 
421	 6.99152497262261E-02 
422	 6.99841415237368E-02 
423	 6.91287187816605E-02 
424	 6.93731301110929E-02 
425	 6.93051841619722E-02 
426	 6.85650991409787E-02 
427	 6.96371990626972E-02 
428	 6.93019421682958E-02 
429	 6.85140677298434E-02 
430	 6.89814721154091E-02 
431	 6.89863042534967E-02 
432	 6.89708704361908E-02 
433	 6.91489021003527E-02 
434	 6.93990919547212E-02 
435	 6.90748077964888E-02 
436	 6.88663680982366E-02 
437	 6.91417909174493E-02 
438	 0.068612698885385 
439	 6.90003930517185E-02 
440	 6.99096317796536E-02 
441	 7.00096563710957E-02 
442	 6.97591630572049E-02 
443	 0.06974027654028 
444	 7.00574255910212E-02 
445	 7.01021056695945E-02 
446	 7.01055165189191E-02 
447	 0.070088033017677 
448	 7.00550291527887E-02 
449	 7.01477196183431E-02 
450	 7.03322513477523E-02 
451	 7.05790618065844E-02 
452	 7.08554858735062E-02 
453	 7.08999230096962E-02 
454	 0.070806437388957 
455	 7.07493039737029E-02 
456	 7.09604684987433E-02 
457	 7.09841459060627E-02 
458	 7.08311726022311E-02 
459	 7.07611479133851E-02 
460	 7.11199331301144E-02 
461	 7.12729177354168E-02 
462	 7.10683158272362E-02 
463	 7.11414744238163E-02 
464	 7.12130970182395E-02 
465	 0.071198831704728 
466	 7.11359173755635E-02 
467	 0.071362286283115 
468	 7.15400126797437E-02 
469	 7.15293513625716E-02 
470	 7.13893891110619E-02 
471	 7.14292931345698E-02 
472	 0.071567119250127 
473	 7.16402172637148E-02 
474	 7.14313100719382E-02 
475	 7.14464530021158E-02 
476	 7.16344207830153E-02 
477	 7.17301135031714E-02 
478	 7.19552916650886E-02 
479	 7.19745733168324E-02 
480	 7.17210242629117E-02 
481	 7.15414534391435E-02 
482	 7.16087996074357E-02 
483	 0.071902750883024 
484	 7.22445859688728E-02 
485	 7.21461129194288E-02 
486	 7.20671971226316E-02 
487	 0.072100348235335 
488	 7.20246002889114E-02 
489	 7.20382562990339E-02 
490	 7.20795426365307E-02 
491	 7.20964193609902E-02 
492	 7.21847842306559E-02 
493	 0.072186448869246 
494	 7.21656389911623E-02 
495	 7.22729752604702E-02 
496	 7.24716938347856E-02 
497	 7.24336303498845E-02 
498	 7.22250369952059E-02 
499	 7.25379239091762E-02 
500	 7.26121548151542E-02 
501	 7.25755848055042E-02 
502	 7.27088400116763E-02 
503	 7.27683604664792E-02 
504	 7.26394061825579E-02 
505	 0.072508427021235 
506	 7.27885172522396E-02 
507	 7.28168682748051E-02 
508	 7.27520263671837E-02 
509	 7.28061856370849E-02 
510	 7.28914223979662E-02 
511	 7.29802325872646E-02 
512	 0.073004336070945 
513	 7.29044569601907E-02 
514	 7.28670679720573E-02 
515	 7.28732977213758E-02 
516	 7.29260770863393E-02 
517	 0.073130648094909 
518	 7.31669778134417E-02 
519	 7.31067122336968E-02 
520	 7.31327109751842E-02 
521	 7.32476124154347E-02 
522	 0.073334894071454 
523	 7.33598120093142E-02 
524	 7.33807281110555E-02 
525	 7.34434233928465E-02 
526	 7.34526254849864E-02 
527	 7.33865884549065E-02 
528	 7.35724447811316E-02 
529	 7.36899690481387E-02 
530	 0.073706604796349 
531	 7.37758544524769E-02 
532	 7.38203044618617E-02 
533	 7.38954675448871E-02 
534	 7.40096574925438E-02 
535	 7.40326185985189E-02 
536	 7.40910483162065E-02 
537	 7.41258768660331E-02 
538	 7.40590221213771E-02 
539	 7.41938363770634E-02 
540	 7.43345329365365E-02 
541	 7.43982852636743E-02 
542	 7.45033976733754E-02 
543	 7.46169007671833E-02 
544	 7.47107854877343E-02 
545	 7.47717741575808E-02 
546	 7.48370662928353E-02 
547	 0.074966137301455 
548	 7.51248724937103E-02 
549	 0.07520638116356 
550	 7.52809386700005E-02 
551	 7.53799727958966E-02 
552	 0.075514967285182 
553	 7.56708088735824E-02 
554	 7.58095293606438E-02 
555	 7.59415113249006E-02 
556	 7.61044250085142E-02 
557	 7.63221395936965E-02 
558	 7.65181627384478E-02 
559	 7.66955794105947E-02 
560	 7.70308025445883E-02 
561	 7.72123450678721E-02 
562	 7.73311082957007E-02 
563	 7.75868774521486E-02 
564	 7.79423204405852E-02 
565	 7.82276398029821E-02 
566	 7.84088699242196E-02 
567	 7.86118491692992E-02 
568	 7.88722308953634E-02 
569	 7.92214184540017E-02 
570	 7.96629440439403E-02 
571	 8.01530024308328E-02 
572	 8.05716255795217E-02 
573	 8.09302371020497E-02 
574	 8.13329997117434E-02 
575	 0.081744532240869 
576	 0.082250511393393 
577	 0.082856811123348 
578	 8.33570139269163E-02 
579	 8.38847350988068E-02 
580	 8.43849460990854E-02 
581	 8.47695987295829E-02 
582	 0.085281829624181 
583	 8.58121403643598E-02 
584	 8.63337698607878E-02 
585	 8.69835315863075E-02 
586	 8.77332835430799E-02 
587	 8.85201751309896E-02 
588	 8.92905528353641E-02 
589	 0.090104672576969 
590	 9.08956258530552E-02 
591	 0.09163126385382 
592	 9.23198828899719E-02 
593	 9.29887851834821E-02 
594	 9.36475414599482E-02 
595	 9.42715049615662E-02 
596	 9.47461068349495E-02 
597	 9.52490853193198E-02 
598	 9.58081504872208E-02 
599	 9.63755502202631E-02 
600	 9.70124124193546E-02 
601	 9.76702825043106E-02 
602	 9.83023228799916E-02 
603	 9.88840915755279E-02 
604	 9.95069898910185E-02 
605	 0.100156542005533 
606	 0.100783056930349 
607	 0.101384414176274 
608	 0.101932938261025 
609	 0.102464596625304 
610	 0.103085246044327 
611	 0.103613790800603 
612	 0.104042469451047 
613	 0.104400039702013 
614	 0.104665177138378 
615	 0.10500005401747 
616	 0.105403333815732 
617	 0.105757429313977 
618	 0.106084348091125 
619	 0.106386763725019 
620	 0.10667013702991 
621	 0.10694830908699 
622	 0.107194903486921 
623	 0.10740721487683 
624	 0.107602439397527 
625	 0.107846400299853 
626	 0.108103417793896 
627	 0.108349794261563 
628	 0.108589468235231 
629	 0.1087959085598 
630	 0.108970030094306 
631	 0.109134276749018 
632	 0.109356788591961 
633	 0.109568942684792 
634	 0.109752353218665 
635	 0.109932113177727 
636	 0.110088078159491 
637	 0.11027829241217 
638	 0.110518974706503 
639	 0.110696037668611 
640	 0.11085505141492 
641	 0.111032135878985 
642	 0.111251585548145 
643	 0.111464091558368 
644	 0.111671812725515 
645	 0.111874765251857 
646	 0.11206158998942 
647	 0.112244295503781 
648	 0.112457742010032 
649	 0.112716532414577 
650	 0.112926689800871 
651	 0.113142712383952 
652	 0.113376062491257 
653	 0.113598563116997 
654	 0.113820183294496 
655	 0.114033067674369 
656	 0.114256836561498 
657	 0.114600073976508 
658	 0.114872535966622 
659	 0.115083753311097 
660	 0.115333051764894 
661	 0.115587254975463 
662	 0.115870821476973 
663	 0.11619048778585 
664	 0.116522392980919 
665	 0.116843168503599 
666	 0.117137681690167 
667	 0.117413538230321 
668	 0.117748298431689 
669	 0.118092272163969 
670	 0.118432961204692 
671	 0.118787587890382 
672	 0.119089205462891 
673	 0.119417856399459 
674	 0.119819179589386 
675	 0.120200112831768 
676	 0.120586778547672 
677	 0.120951743555794 
678	 0.121271974633172 
679	 0.121698239596044 
680	 0.122130791391443 
681	 0.122539845535844 
682	 0.123015365005086 
683	 0.123434200237093 
684	 0.12383859021471 
685	 0.124285832792302 
686	 0.124722434305948 
687	 0.125167251479312 
688	 0.125626571171724 
689	 0.126096228411475 
690	 0.126573479355676 
691	 0.127052108617822 
692	 0.127539693337053 
693	 0.128079170872147 
694	 0.128575367471548 
695	 0.129055525819653 
696	 0.129574739019296 
697	 0.130063813209312 
698	 0.130561913916168 
699	 0.131088826760993 
700	 0.131635936260933 
701	 0.132183324519105 
702	 0.132745847549528 
703	 0.133320070240359 
704	 0.133826472615545 
705	 0.134336025103236 
706	 0.134877700487473 
707	 0.135448551239509 
708	 0.135990692539068 
709	 0.136549776983703 
710	 0.137128694477053 
711	 0.137654060446229 
712	 0.138195906024198 
713	 0.138714912439905 
714	 0.139187595677749 
715	 0.139769502441669 
716	 0.140312486792529 
717	 0.140792759669983 
718	 0.141284645329292 
719	 0.141820291140705 
720	 0.142342766444513 
721	 0.142822767242041 
722	 0.143318725839145 
723	 0.143736199900912 
724	 0.144139891285332 
725	 0.144609923236338 
726	 0.145009875467208 
727	 0.145388295609044 
728	 0.145778723378791 
729	 0.146188518473789 
730	 0.146566271565606 
731	 0.146891915528386 
732	 0.147169674666403 
733	 0.147436940346194 
734	 0.147735265820314 
735	 0.148008637576658 
736	 0.148188300188568 
737	 0.148405927467238 
738	 0.148635548722877 
739	 0.148847099189142 
740	 0.149019398961877 
741	 0.149123575744552 
742	 0.149200972086811 
743	 0.14928520629818 
744	 0.149346452503106 
745	 0.149377335180733 
746	 0.149403614656144 
747	 0.149450811229636 
748	 0.149424504606965 
749	 0.149358575204791 
750	 0.14928454023972 
751	 0.149215240038103 
752	 0.149128888986769 
753	 0.149007122423073 
754	 0.148852523214904 
755	 0.148722296258784 
756	 0.148602106184575 
757	 0.148445204469491 
758	 0.148209089234521 
759	 0.148009334287228 
760	 0.14781269000879 
761	 0.147590682080376 
762	 0.147340011377314 
763	 0.14707302612596 
764	 0.146797337365659 
765	 0.146515121371034 
766	 0.14620999976151 
767	 0.145943625522627 
768	 0.145684781314109 
769	 0.145368123972659 
770	 0.14505915016075 
771	 0.14475143931555 
772	 0.144425902510323 
773	 0.144058529340115 
774	 0.143734933511208 
775	 0.143412979216612 
776	 0.143056533652182 
777	 0.142730010558931 
778	 0.142396544677955 
779	 0.142064772987329 
780	 0.141748493495824 
781	 0.141354311875222 
782	 0.141004718907807 
783	 0.14071254610879 
784	 0.140363330352613 
785	 0.140025087532122 
786	 0.139667677355523 
787	 0.139291121088512 
788	 0.139015820496772 
789	 0.13871775141228 
790	 0.13836229078414 
791	 0.137972031290292 
792	 0.137659907294078 
793	 0.137362732173584 
794	 0.137052428174797 
795	 0.136739648719104 
796	 0.136404117636772 
797	 0.13610856608542 
798	 0.135857904613983 
799	 0.135529152588184 
800	 0.13523574972461 
801	 0.134955260288959 
802	 0.134644910783592 
803	 0.134350182760646 
804	 0.134070169545501 
805	 0.133790856228943 
806	 0.133498170003702 
807	 0.13324570989191 
808	 0.133002186247737 
809	 0.132751703713767 
810	 0.132509944863585 
811	 0.132246936295064 
812	 0.131976536792343 
813	 0.131726797000553 
814	 0.131539884747255 
815	 0.131338699043478 
816	 0.131112639768914 
817	 0.130882294823267 
818	 0.130659128591605 
819	 0.130454107480327 
820	 0.130264823581834 
821	 0.130076753680392 
822	 0.129869801171899 
823	 0.129659987751696 
824	 0.129470416045875 
825	 0.129324231302958 
826	 0.129191105756662 
827	 0.129046686045779 
828	 0.128884910135487 
829	 0.128755125207955 
830	 0.128558088776094 
831	 0.128350756488534 
832	 0.128246797732506 
833	 0.128201742440688 
834	 0.128086624049014 
835	 0.127921441538203 
836	 0.127857153150331 
837	 0.127759557138675 
838	 0.127634399421962 
839	 0.127510458288901 
840	 0.127415942778412 
841	 0.127310709563707 
842	 0.127216153905976 
843	 0.127148125089624 
844	 0.127045047286297 
845	 0.127007249812618 
846	 0.12698465635084 
847	 0.126891948984248 
848	 0.126885306007908 
849	 0.126830056952697 
850	 0.126733443988871 
851	 0.126722431825597 
852	 0.126685286635896 
853	 0.126655843884244 
854	 0.126653792542149 
855	 0.12664989720486 
856	 0.126639593192071 
857	 0.126630871352831 
858	 0.12663573463119 
859	 0.126671532710272 
860	 0.126666664028694 
861	 0.126656891745451 
862	 0.126694749694249 
863	 0.12671860439874 
864	 0.126755932497577 
865	 0.126806345867701 
866	 0.126853541885823 
867	 0.126912555921257 
868	 0.126950055502923 
869	 0.126967381715202 
870	 0.127004759357174 
871	 0.127073352473548 
872	 0.127197724923747 
873	 0.127345298896831 
874	 0.127396821512409 
875	 0.127496654121204 
876	 0.127567006866892 
877	 0.127566301809076 
878	 0.127688227083908 
879	 0.12786879594688 
880	 0.128039408671897 
881	 0.128156587453853 
882	 0.128300458157892 
883	 0.128438038560007 
884	 0.128570411764578 
885	 0.128716103539522 
886	 0.128873496145729 
887	 0.129008036342562 
888	 0.12913135118055 
889	 0.129291059641213 
890	 0.129468474049419 
891	 0.129612638913408 
892	 0.129758960925558 
893	 0.130039317723492 
894	 0.130267584535058 
895	 0.13047652042141 
896	 0.130692334646352 
897	 0.130849920492909 
898	 0.131089428555684 
899	 0.131344232683488 
900	 0.131535329335035 
901	 0.131696857862969 
902	 0.131926865097741 
903	 0.132209934239604 
904	 0.132495527691775 
905	 0.132783655227359 
906	 0.133084577615154 
907	 0.133356708956739 
908	 0.133575872696103 
909	 0.13393284681369 
910	 0.134221624409513 
911	 0.134448061813615 
912	 0.13475271038999 
913	 0.135061800955296 
914	 0.135413078202212 
915	 0.135786334278517 
916	 0.13611117964259 
917	 0.136398697635523 
918	 0.136737742259442 
919	 0.137125649028868 
920	 0.13745468110427 
921	 0.137848416552398 
922	 0.13822628833915 
923	 0.138568527755967 
924	 0.138987077031193 
925	 0.13933969849478 
926	 0.139764876464369 
927	 0.140291334231669 
928	 0.140648139029122 
929	 0.141069508667042 
930	 0.141538216425749 
931	 0.141996235207742 
932	 0.14244852497728 
933	 0.142878018786354 
934	 0.14335340762783 
935	 0.14390655993833 
936	 0.144394994450115 
937	 0.144903421063767 
938	 0.145383764218986 
939	 0.145805319144029 
940	 0.146335200232587 
941	 0.146903464576425 
942	 0.147495549518699 
943	 0.148100389604298 
944	 0.148639897984664 
945	 0.149142228663415 
946	 0.149677695325568 
947	 0.150290455679676 
948	 0.150841100391995 
949	 0.151399925203498 
950	 0.152004631338891 
951	 0.152663133863893 
952	 0.153359430236139 
953	 0.153985209136346 
954	 0.154585629997952 
955	 0.155268230960845 
956	 0.155954569876316 
957	 0.156608093981949 
958	 0.157233134496059 
959	 0.157860419338074 
960	 0.15849919253402 
961	 0.159206112111914 
962	 0.159972915310593 
963	 0.160731757974634 
964	 0.161358684471222 
965	 0.162119343311064 
966	 0.162973222479069 
967	 0.163703819662337 
968	 0.164495387058321 
969	 0.165203823979339 
970	 0.165899548775805 
971	 0.166752945409353 
972	 0.167562402138652 
973	 0.16826965420924 
974	 0.168993286561377 
975	 0.169896798509959 
976	 0.170734547584464 
977	 0.171542968763198 
978	 0.172308080266598 
979	 0.173004392562027 
980	 0.173763635773315 
981	 0.174680106097715 
982	 0.175642659348523 
983	 0.176460466186208 
984	 0.177209466579437 
985	 0.178138546986443 
986	 0.179096762541002 
987	 0.17983469692754 
988	 0.180876566013279 
989	 0.181668653962129 
990	 0.182341317446504 
991	 0.183277079830847 
992	 0.184134392325819 
993	 0.185016538414175 
994	 0.185960406793207 
995	 0.186901601309939 
996	 0.187532631505261 
997	 0.188404861971614 
998	 0.189402252577627 
999	 0.190257742580847 
1000	 0.191255376215124 
1001	 0.189364998475719 
1002	 0.190210657917315 
1003	 0.19103255471439 
1004	 0.191850744644397 
1005	 0.192692108875355 
1006	 0.193514941243948 
1007	 0.194330740888169 
1008	 0.195131576435029 
1009	 0.195894174883272 
1010	 0.19661856878652 
1011	 0.197317106940402 
1012	 0.198039700642337 
1013	 0.198805010110333 
1014	 0.199590560932498 
1015	 0.200439867370765 
1016	 0.201262028711567 
1017	 0.202016859621695 
1018	 0.202706561927555 
1019	 0.203415100253998 
1020	 0.204126493621784 
1021	 0.204823208137367 
1022	 0.205567026182548 
1023	 0.206363669181945 
1024	 0.207048164257186 
1025	 0.207685857313429 
1026	 0.208415474183682 
1027	 0.209083536172077 
1028	 0.209759595751003 
1029	 0.210512185432554 
1030	 0.211184798987567 
1031	 0.211833716163798 
1032	 0.212440828813593 
1033	 0.213108238123031 
1034	 0.213727374675984 
1035	 0.214309016058206 
1036	 0.214975691196262 
1037	 0.215612067158734 
1038	 0.21619875578361 
1039	 0.216856434117405 
1040	 0.217466617698172 
1041	 0.218027699863013 
1042	 0.218688976908257 
1043	 0.21935149903981 
1044	 0.219978056239245 
1045	 0.220579576898659 
1046	 0.221246520794087 
1047	 0.221897942550206 
1048	 0.222502427865086 
1049	 0.223125090855781 
1050	 0.223745673387138 
1051	 0.224345223317093 
1052	 0.224949833415852 
1053	 0.225597428649273 
1054	 0.22623027838804 
1055	 0.226868260430412 
1056	 0.22753237897539 
1057	 0.228150348966327 
1058	 0.228747465015971 
1059	 0.229356442437803 
1060	 0.229941745865491 
1061	 0.230518201049195 
1062	 0.231122119588173 
1063	 0.231698567497549 
1064	 0.23233135931853 
1065	 0.232923154322065 
1066	 0.233460699522801 
1067	 0.234091649388886 
1068	 0.234681368928962 
1069	 0.235237213693807 
1070	 0.235850136484682 
1071	 0.236554908683835 
1072	 0.237149972090621 
1073	 0.23770115811945 
1074	 0.238263879625309 
1075	 0.238767686972031 
1076	 0.239320836838774 
1077	 0.239895140791223 
1078	 0.240454423727488 
1079	 0.241014090335427 
1080	 0.241534476149784 
1081	 0.242073281683388 
1082	 0.242683629113171 
1083	 0.243253521699923 
1084	 0.243827022287873 
1085	 0.244384640062645 
1086	 0.244908694677124 
1087	 0.245450341419095 
1088	 0.245971681047627 
1089	 0.246568797619985 
1090	 0.247182475690544 
1091	 0.247755703773416 
1092	 0.248331732652626 
1093	 0.248864379234542 
1094	 0.249358193972492 
1095	 0.249861550287758 
1096	 0.250384196307487 
1097	 0.250932436358218 
1098	 0.25147833012294 
1099	 0.252035063280086 
1100	 0.25259024671355 
1101	 0.25314860573972 
1102	 0.253703703061449 
1103	 0.25426148418839 
1104	 0.254810435525931 
1105	 0.255374064748424 
1106	 0.255966521690961 
1107	 0.25652307872323 
1108	 0.257075485450363 
1109	 0.257646168314965 
1110	 0.258187627560749 
1111	 0.25874536386585 
1112	 0.259313050914111 
1113	 0.259902449299446 
1114	 0.260513180739215 
1115	 0.261091357236819 
1116	 0.261686396375517 
1117	 0.262257059933968 
1118	 0.262777329419329 
1119	 0.263324772097774 
1120	 0.263904758523537 
1121	 0.264484954632625 
1122	 0.265067816971015 
1123	 0.265642533084703 
1124	 0.266213639596348 
1125	 0.266764779247699 
1126	 0.267340761442914 
1127	 0.267932073261373 
1128	 0.268508858595779 
1129	 0.269086243785914 
1130	 0.269671802461455 
1131	 0.270266260211471 
1132	 0.270834541626758 
1133	 0.271387027554814 
1134	 0.271952491903499 
1135	 0.272503059046657 
1136	 0.273062358143679 
1137	 0.273638568380875 
1138	 0.274213785560419 
1139	 0.274759756713416 
1140	 0.275265631044595 
1141	 0.275817205203841 
1142	 0.276382676749926 
1143	 0.276929285735622 
1144	 0.277504766385672 
1145	 0.278038266506119 
1146	 0.278522765217883 
1147	 0.279033287211305 
1148	 0.279538223122729 
1149	 0.280054897691915 
1150	 0.280586661983652 
1151	 0.281113500303399 
1152	 0.281643357347303 
1153	 0.282152698440366 
1154	 0.282665558273875 
1155	 0.283170506792422 
1156	 0.283675105572642 
1157	 0.284184064723636 
1158	 0.284682150992862 
1159	 0.285176026740441 
1160	 0.285668102697633 
1161	 0.286157570957882 
1162	 0.286631602654071 
1163	 0.287088733285848 
1164	 0.287557116405082 
1165	 0.288001326092607 
1166	 0.28849028135686 
1167	 0.288979036162773 
1168	 0.289463243113884 
1169	 0.289945158755383 
1170	 0.29043533294779 
1171	 0.290896494913693 
1172	 0.291358627950257 
1173	 0.291787591293183 
1174	 0.292174179677466 
1175	 0.292583588949825 
1176	 0.292979639026015 
1177	 0.293387668372003 
1178	 0.293809362769873 
1179	 0.294227044772346 
1180	 0.294655797660183 
1181	 0.295065293447331 
1182	 0.295456364167815 
1183	 0.295866659606516 
1184	 0.296260612676811 
1185	 0.296642596024509 
1186	 0.297019368434073 
1187	 0.297397356426241 
1188	 0.297762267255929 
1189	 0.298108216792468 
1190	 0.298464171684736 
1191	 0.29882768316861 
1192	 0.299174224676963 
1193	 0.2995108647912 
1194	 0.29984955548834 
1195	 0.300176770877969 
1196	 0.300506597180356 
1197	 0.300848463039633 
1198	 0.301176727598698 
1199	 0.30149790759028 
1200	 0.301812555497788 
1201	 0.302121888320511 
1202	 0.302417449993306 
1203	 0.302725026379384 
1204	 0.30304407122009 
1205	 0.303336549666272 
1206	 0.303615135684913 
1207	 0.303904863432538 
1208	 0.304195302266047 
1209	 0.304463777308486 
1210	 0.304732889088579 
1211	 0.304994343207122 
1212	 0.30521308512435 
1213	 0.305459387349395 
1214	 0.305735597612534 
1215	 0.305993851879279 
1216	 0.306248354910477 
1217	 0.306514637489962 
1218	 0.306741841969867 
1219	 0.306938195380588 
1220	 0.307154093403898 
1221	 0.307347288757143 
1222	 0.307569083403825 
1223	 0.307828979576156 
1224	 0.308049211884202 
1225	 0.308262334295034 
1226	 0.308467768797049 
1227	 0.308651386011214 
1228	 0.308835887922569 
1229	 0.309018327890065 
1230	 0.309199160917847 
1231	 0.309374847078092 
1232	 0.309544896002965 
1233	 0.309711865391827 
1234	 0.309878347468565 
1235	 0.310042493243302 
1236	 0.310197279573246 
1237	 0.31036047174496 
1238	 0.310538793542531 
1239	 0.310690575578508 
1240	 0.310822869246764 
1241	 0.310971752419737 
1242	 0.311110763242225 
1243	 0.311259261573056 
1244	 0.311428000596445 
1245	 0.311587492383123 
1246	 0.311746724469221 
1247	 0.311897208585817 
1248	 0.31204107045826 
1249	 0.312187535580078 
1250	 0.312334736911384 
1251	 0.31247210387127 
1252	 0.312607775364662 
1253	 0.312745086196759 
1254	 0.312878430575058 
1255	 0.313007300344348 
1256	 0.313128169755761 
1257	 0.313250614754833 
1258	 0.313360985712185 
1259	 0.313455569893815 
1260	 0.313550347517017 
1261	 0.313635237421058 
1262	 0.313728256154335 
1263	 0.313824804440769 
1264	 0.313915000828791 
1265	 0.314002048772406 
1266	 0.314095244289721 
1267	 0.314191475353287 
1268	 0.314272735930883 
1269	 0.314372676537581 
1270	 0.31448352101617 
1271	 0.314594816168294 
1272	 0.314714757006104 
1273	 0.314827413427051 
1274	 0.314941621068898 
1275	 0.315054535469497 
1276	 0.31515382114953 
1277	 0.315277280780378 
1278	 0.315414429266721 
1279	 0.315548027716004 
1280	 0.315683977105891 
1281	 0.315832981802195 
1282	 0.315999864138465 
1283	 0.316153471656073 
1284	 0.316312133324901 
1285	 0.316465806753949 
1286	 0.316638934027777 
1287	 0.316790757949302 
1288	 0.316941306793871 
1289	 0.317107094586231 
1290	 0.317257671498039 
1291	 0.317386479211342 
1292	 0.317519070093646 
1293	 0.317668872224794 
1294	 0.317782013684696 
1295	 0.317870745336547 
1296	 0.317951755815786 
1297	 0.318005088949277 
1298	 0.318072532148324 
1299	 0.318143269995168 
1300	 0.318200130475763 
1301	 0.318252763221595 
1302	 0.318302382944554 
1303	 0.318342388356745 
1304	 0.318376661823435 
1305	 0.318404282872808 
1306	 0.31842291201146 
1307	 0.318431659438117 
1308	 0.318443000454816 
1309	 0.318447567584182 
1310	 0.318456618576511 
1311	 0.31845123356465 
1312	 0.318430557042473 
1313	 0.318410826004133 
1314	 0.318386593200902 
1315	 0.318361959882876 
1316	 0.318337200751043 
1317	 0.318304399833503 
1318	 0.318264439825974 
1319	 0.318227440393002 
1320	 0.318183578419582 
1321	 0.318142516121441 
1322	 0.318099696561209 
1323	 0.318068016637764 
1324	 0.318032034193031 
1325	 0.318001384424621 
1326	 0.317982059977686 
1327	 0.317942531375939 
1328	 0.317879578121069 
1329	 0.317835784333649 
1330	 0.317782745666331 
1331	 0.317716985817551 
1332	 0.317661408447691 
1333	 0.317617230598306 
1334	 0.3175564882903 
1335	 0.317482433390932 
1336	 0.317426124901629 
1337	 0.317369756819079 
1338	 0.317318100010373 
1339	 0.317278200898655 
1340	 0.317236743658953 
1341	 0.317193457796942 
1342	 0.31715387309134 
1343	 0.317118089561031 
1344	 0.317088416586994 
1345	 0.317059370788519 
1346	 0.317023038210179 
1347	 0.31697825990434 
1348	 0.316929544507582 
1349	 0.31686380806965 
1350	 0.316787605951712 
1351	 0.316734115232912 
1352	 0.316684720556024 
1353	 0.316641227885426 
1354	 0.316621309322024 
1355	 0.31658063145813 
1356	 0.316526086178078 
1357	 0.316485219049863 
1358	 0.316445013128727 
1359	 0.316408731339224 
1360	 0.316380612743321 
1361	 0.316349477268548 
1362	 0.316331296115772 
1363	 0.316285152472778 
1364	 0.316215973463748 
1365	 0.316163868877431 
1366	 0.316101595302955 
1367	 0.316045530276037 
1368	 0.316014201621424 
1369	 0.31596691924235 
1370	 0.315885988963026 
1371	 0.315816843997173 
1372	 0.315745936317916 
1373	 0.315663081111003 
1374	 0.315563283593907 
1375	 0.315480101384027 
1376	 0.315325141193022 
1377	 0.315116777415439 
1378	 0.314912627122568 
1379	 0.314675850133038 
1380	 0.314435912138108 
1381	 0.314200056825095 
1382	 0.313928031637414 
1383	 0.313633532011816 
1384	 0.313316962822685 
1385	 0.312993199441919 
1386	 0.312620780843908 
1387	 0.312217313260942 
1388	 0.311780357672547 
1389	 0.311301362381411 
1390	 0.310796991702721 
1391	 0.310270322341413 
1392	 0.309708462743911 
1393	 0.309074596688321 
1394	 0.30841686879951 
1395	 0.307709204720052 
1396	 0.306978741215464 
1397	 0.306262480155734 
1398	 0.305542851567126 
1399	 0.304801059531749 
1400	 0.304052801451 
1401	 0.303295489806919 
1402	 0.302505696095911 
1403	 0.301749205676936 
1404	 0.300981092694748 
1405	 0.300267443416771 
1406	 0.299585662940334 
1407	 0.298913209751334 
1408	 0.298261919387024 
1409	 0.297647081063595 
1410	 0.297025980988699 
1411	 0.296477252039433 
1412	 0.295977607574943 
1413	 0.295531463734051 
1414	 0.295139273692463 
1415	 0.294783542604501 
1416	 0.294470165877073 
1417	 0.294208428110984 
1418	 0.293967470199022 
1419	 0.293736884457906 
1420	 0.293556534822962 
1421	 0.293388307327038 
1422	 0.293234301006598 
1423	 0.29311849159563 
1424	 0.292955572959388 
1425	 0.292765416497599 
1426	 0.29259950951479 
1427	 0.292403546135596 
1428	 0.292258267002682 
1429	 0.292157320850782 
1430	 0.292042602230719 
1431	 0.291945293642418 
1432	 0.291843384535465 
1433	 0.291731737039998 
1434	 0.291639308118991 
1435	 0.291545451352931 
1436	 0.291479193650448 
1437	 0.291436943586604 
1438	 0.291398959229539 
1439	 0.29138322386722 
1440	 0.291370083914116 
1441	 0.291335643832393 
1442	 0.291313392589515 
1443	 0.291309099043447 
1444	 0.291306792137527 
1445	 0.291332789756289 
1446	 0.291367900496087 
1447	 0.291389520458299 
1448	 0.29142095107277 
1449	 0.291433636291442 
1450	 0.291429520008654 
1451	 0.291437820763185 
1452	 0.291434234563128 
1453	 0.291454098194777 
1454	 0.291485434194186 
1455	 0.291525477214353 
1456	 0.291581667829127 
1457	 0.291630560406801 
1458	 0.291697599916735 
1459	 0.291743334110394 
1460	 0.291762030921464 
1461	 0.291807587312294 
1462	 0.291846755376654 
1463	 0.291909778766494 
1464	 0.292013525302389 
1465	 0.292094559378538 
1466	 0.292166510154914 
1467	 0.29224925582723 
1468	 0.292299686372822 
1469	 0.292409531729609 
1470	 0.292556783920457 
1471	 0.292721820426805 
1472	 0.292917145458072 
1473	 0.293114562187288 
1474	 0.293298286791555 
1475	 0.293496760712548 
1476	 0.29367630968118 
1477	 0.293863872489544 
1478	 0.294052287504968 
1479	 0.294227305090015 
1480	 0.294431068020002 
1481	 0.294641545124615 
1482	 0.294851438686002 
1483	 0.295073430637916 
1484	 0.295285972860241 
1485	 0.295490766164975 
1486	 0.295707788434073 
1487	 0.295929699885306 
1488	 0.296147307216491 
1489	 0.296369992910834 
1490	 0.296590329065283 
1491	 0.296815912969314 
1492	 0.297022972309265 
1493	 0.297219734967098 
1494	 0.297420603670314 
1495	 0.297611370060495 
1496	 0.297798086448215 
1497	 0.297984235683272 
1498	 0.298176296533046 
1499	 0.298372504405188 
1500	 0.29855041821599 
1501	 0.29872908014038 
1502	 0.298898849319788 
1503	 0.299039809502971 
1504	 0.299189495743332 
1505	 0.299372450925111 
1506	 0.299552302459182 
1507	 0.299736382499726 
1508	 0.29991031475342 
1509	 0.300060572491126 
1510	 0.300212122355032 
1511	 0.300359061872325 
1512	 0.30050230313079 
1513	 0.300653465075052 
1514	 0.300807256711289 
1515	 0.300968457223707 
1516	 0.30113023056163 
1517	 0.30127307604808 
1518	 0.301403735962204 
1519	 0.301542205261386 
1520	 0.30166835370303 
1521	 0.301801672771441 
1522	 0.301946839792241 
1523	 0.302083120147904 
1524	 0.302204506426611 
1525	 0.302347604738864 
1526	 0.30250779003752 
1527	 0.302651343134504 
1528	 0.302805960684783 
1529	 0.302938429027261 
1530	 0.303052244164078 
1531	 0.303163827287186 
1532	 0.303265770240089 
1533	 0.30336025735587 
1534	 0.303437969415905 
1535	 0.303530398488682 
1536	 0.30361590824952 
1537	 0.303718350175955 
1538	 0.303847044898127 
1539	 0.303954616692605 
1540	 0.304050967997247 
1541	 0.304162893587852 
1542	 0.304277119525881 
1543	 0.304385213735242 
1544	 0.304517957991532 
1545	 0.304624340148189 
1546	 0.304711921002807 
1547	 0.304784039009599 
1548	 0.304859138245779 
1549	 0.304917772541295 
1550	 0.304969624054047 
1551	 0.305045690703785 
1552	 0.30511251730416 
1553	 0.305173466335543 
1554	 0.305268381019315 
1555	 0.305348866004884 
1556	 0.305412846398349 
1557	 0.305495679503488 
1558	 0.305565530009035 
1559	 0.305630205258499 
1560	 0.305712925474111 
1561	 0.305823681491187 
1562	 0.305905374015853 
1563	 0.305975200128465 
1564	 0.306057061676695 
1565	 0.306134621045243 
1566	 0.306211038248524 
1567	 0.306306089653494 
1568	 0.306368428204619 
1569	 0.306405306165827 
1570	 0.306459421122299 
1571	 0.306505352219549 
1572	 0.306551822471109 
1573	 0.306601617122628 
1574	 0.306660063238682 
1575	 0.306720835007457 
1576	 0.306775410695145 
1577	 0.306846651835799 
1578	 0.306891051570083 
1579	 0.306892517898943 
1580	 0.306943094394997 
1581	 0.307008421053095 
1582	 0.307077344739996 
1583	 0.307191684454046 
1584	 0.307263852165207 
1585	 0.307318230967452 
1586	 0.30736335431037 
1587	 0.307387122841554 
1588	 0.307414213089871 
1589	 0.307426199436582 
1590	 0.30745023006374 
1591	 0.307483683635576 
1592	 0.30750368045189 
1593	 0.307516378056565 
1594	 0.307540048144446 
1595	 0.307553869799115 
1596	 0.307582015362227 
1597	 0.307637674309421 
1598	 0.307674867395387 
1599	 0.307707937821597 
1600	 0.307740412723201 
1601	 0.3077654350704 
1602	 0.307788929740007 
1603	 0.307797715400443 
1604	 0.307826829632252 
1605	 0.307862729354216 
1606	 0.307904915572715 
1607	 0.307964395192609 
1608	 0.308032550008323 
1609	 0.308098523733432 
1610	 0.308137684119204 
1611	 0.308164836301182 
1612	 0.308203660153239 
1613	 0.30819806011941 
1614	 0.308172872603536 
1615	 0.308152240144275 
1616	 0.30812429030393 
1617	 0.30813268837813 
1618	 0.308166887819191 
1619	 0.308219109897574 
1620	 0.308276022428775 
1621	 0.308309594472876 
1622	 0.308348102700311 
1623	 0.308347922359411 
1624	 0.308313334270684 
1625	 0.308296658416221 
1626	 0.308259993119029 
1627	 0.30824872506363 
1628	 0.30824585778458 
1629	 0.308259662987195 
1630	 0.308290426440037 
1631	 0.30831097139189 
1632	 0.30834582295188 
1633	 0.308368664124232 
1634	 0.308378474869211 
1635	 0.308399484486931 
1636	 0.308432110357293 
1637	 0.308443755214129 
1638	 0.30844592758803 
1639	 0.308450663370651 
1640	 0.308438676588591 
1641	 0.308450289794637 
1642	 0.308472494459168 
1643	 0.308498975330291 
1644	 0.308538759099299 
1645	 0.308571658397914 
1646	 0.308618719620975 
1647	 0.308632582185752 
1648	 0.308629833386961 
1649	 0.308628171138424 
1650	 0.30860326463075 
1651	 0.308592189773116 
1652	 0.30858806463591 
1653	 0.308581918249967 
1654	 0.308572332746727 
1655	 0.308567396287132 
1656	 0.308578555642049 
1657	 0.308560378254836 
1658	 0.308519762254117 
1659	 0.308501554331672 
1660	 0.308482858354884 
1661	 0.308453957960738 
1662	 0.30843317882826 
1663	 0.308411027406233 
1664	 0.308361853337456 
1665	 0.308344839630956 
1666	 0.308352693516055 
1667	 0.308359153869402 
1668	 0.308383826043784 
1669	 0.308386235009691 
1670	 0.308398244421145 
1671	 0.308377364434371 
1672	 0.308314538487065 
1673	 0.308283175522664 
1674	 0.308241603233979 
1675	 0.30822168289174 
1676	 0.30823200687452 
1677	 0.308224739620806 
1678	 0.308214806787252 
1679	 0.308208661634339 
1680	 0.30820553186701 
1681	 0.308194331593577 
1682	 0.308182726787951 
1683	 0.308168718512674 
1684	 0.308141869366076 
1685	 0.308126241079663 
1686	 0.308122483295566 
1687	 0.308107103746693 
1688	 0.308088386740176 
1689	 0.308069260434975 
1690	 0.308048921721715 
1691	 0.308017527139574 
1692	 0.307981029194813 
1693	 0.307945337017052 
1694	 0.307890047428264 
1695	 0.307859182277893 
1696	 0.307834808763755 
1697	 0.307827528497342 
1698	 0.30785573023847 
1699	 0.30784831901448 
1700	 0.307841073358395 
1701	 0.307818174105017 
1702	 0.307755300237394 
1703	 0.307726436890187 
1704	 0.307721355277088 
1705	 0.30768860199816 
1706	 0.307657829154022 
1707	 0.307614364305775 
1708	 0.307533132536047 
1709	 0.307490065102297 
1710	 0.307471464139774 
1711	 0.30743299302198 
1712	 0.307407985764821 
1713	 0.307359982628305 
1714	 0.307280688445396 
1715	 0.307222468115779 
1716	 0.307161811313912 
1717	 0.30711498698609 
1718	 0.307088588832926 
1719	 0.307046488266543 
1720	 0.307004638957795 
1721	 0.306956918980121 
1722	 0.30689397793802 
1723	 0.306847741841923 
1724	 0.306814441921846 
1725	 0.306762035419577 
1726	 0.306709429047276 
1727	 0.306649049792691 
1728	 0.306575244152486 
1729	 0.306505881624034 
1730	 0.306447042114296 
1731	 0.306358061866229 
1732	 0.306245123722156 
1733	 0.306142817667747 
1734	 0.306026353815653 
1735	 0.305917421056268 
1736	 0.305812967935502 
1737	 0.305721687742233 
1738	 0.305628378125021 
1739	 0.305553129440164 
1740	 0.305500649486308 
1741	 0.305440464378389 
1742	 0.30539587166793 
1743	 0.305316986704551 
1744	 0.305235632420624 
1745	 0.305116242984493 
1746	 0.304946347190549 
1747	 0.304815963228085 
1748	 0.304695144320296 
1749	 0.304618556720821 
1750	 0.304547476158169 
1751	 0.304455876231273 
1752	 0.304367450059742 
1753	 0.304292411509606 
1754	 0.304209244664296 
1755	 0.304104908560402 
1756	 0.304012441835402 
1757	 0.303909391137945 
1758	 0.303802841200162 
1759	 0.303720348650863 
1760	 0.303653296896256 
1761	 0.303589646851995 
1762	 0.303505657601293 
1763	 0.303431250229989 
1764	 0.303344935076582 
1765	 0.303210759525466 
1766	 0.303081315911682 
1767	 0.302959784451883 
1768	 0.302850655498647 
1769	 0.3027742607613 
1770	 0.302723329591413 
1771	 0.302675590455261 
1772	 0.302607087460971 
1773	 0.302539855085055 
1774	 0.302462545823882 
1775	 0.302382388486256 
1776	 0.302320036414656 
1777	 0.302240788213587 
1778	 0.302160074089537 
1779	 0.302063173373982 
1780	 0.301957330583885 
1781	 0.301898805467087 
1782	 0.30186867765817 
1783	 0.301890057832482 
1784	 0.301885093747903 
1785	 0.30190179029479 
1786	 0.301871537416304 
1787	 0.301803237836876 
1788	 0.301740298170507 
1789	 0.301636847492392 
1790	 0.301558875385085 
1791	 0.301500660005094 
1792	 0.301432236257413 
1793	 0.30134313035391 
1794	 0.301312954163106 
1795	 0.301303249859628 
1796	 0.301296910781845 
1797	 0.301357285797513 
1798	 0.3013600272119 
1799	 0.301336394177887 
1800	 0.301320588456151 
1801	 0.300592165508672 
1802	 0.3007689058658 
1803	 0.300967154507349 
1804	 0.301142921761472 
1805	 0.301331932207181 
1806	 0.301519726345841 
1807	 0.301659064938477 
1808	 0.301797494973785 
1809	 0.301952619428445 
1810	 0.302055079214064 
1811	 0.302112045535902 
1812	 0.302184485395941 
1813	 0.302232836077723 
1814	 0.302243802439593 
1815	 0.302240888670279 
1816	 0.302250563190321 
1817	 0.302248036357904 
1818	 0.302208678419941 
1819	 0.302211567065956 
1820	 0.302232179062771 
1821	 0.302252592586779 
1822	 0.302285987161045 
1823	 0.30230974152642 
1824	 0.302324669370444 
1825	 0.302340497653051 
1826	 0.302366206420141 
1827	 0.302392850181726 
1828	 0.302389528503826 
1829	 0.302390792666147 
1830	 0.302353242407193 
1831	 0.302276611743778 
1832	 0.302170294517446 
1833	 0.302105962035991 
1834	 0.302044571435571 
1835	 0.301981944103589 
1836	 0.301954418654125 
1837	 0.301921015318903 
1838	 0.301873257665549 
1839	 0.301839458350407 
1840	 0.301816001630992 
1841	 0.301806867011006 
1842	 0.301763940745022 
1843	 0.30170784909126 
1844	 0.301630045632115 
1845	 0.301513719452016 
1846	 0.301433294347628 
1847	 0.301363542732939 
1848	 0.301296897351799 
1849	 0.301250878492868 
1850	 0.301169620691295 
1851	 0.301077704281547 
1852	 0.30095244464144 
1853	 0.300817566923431 
1854	 0.300662919744149 
1855	 0.300502972070586 
1856	 0.300326384173388 
1857	 0.300114512850203 
1858	 0.299887387115004 
1859	 0.299654120607977 
1860	 0.299392070505401 
1861	 0.299120034472925 
1862	 0.298805325060925 
1863	 0.298453193368669 
1864	 0.298067280262796 
1865	 0.29763896012643 
1866	 0.297179646767696 
1867	 0.296693667112666 
1868	 0.29614826173608 
1869	 0.295570717725341 
1870	 0.294984417714162 
1871	 0.294329132595499 
1872	 0.293627706653111 
1873	 0.292889553073199 
1874	 0.292095012022389 
1875	 0.291231736043165 
1876	 0.29036192879767 
1877	 0.289454104944453 
1878	 0.288434669191203 
1879	 0.287334037106219 
1880	 0.286141972895293 
1881	 0.284822425023334 
1882	 0.283450437629413 
1883	 0.282014603214102 
1884	 0.280488125506362 
1885	 0.278878670704563 
1886	 0.277192687895639 
1887	 0.275404797398065 
1888	 0.273541149999797 
1889	 0.271571245975991 
1890	 0.269529167057008 
1891	 0.267490011939061 
1892	 0.265386510288498 
1893	 0.263271979487683 
1894	 0.261134211096828 
1895	 0.259009994203875 
1896	 0.256816666518711 
1897	 0.254649900194923 
1898	 0.252498745531724 
1899	 0.250354490272991 
1900	 0.24830420923287 
1901	 0.246302121378346 
1902	 0.24439444936655 
1903	 0.242597987890282 
1904	 0.24086092387681 
1905	 0.2391824328247 
1906	 0.237595254823137 
1907	 0.236112244716062 
1908	 0.234699872088814 
1909	 0.233386393195596 
1910	 0.232161463388913 
1911	 0.230998465638224 
1912	 0.229904593411141 
1913	 0.228865397807415 
1914	 0.227879594971464 
1915	 0.226968698693494 
1916	 0.22611957844856 
1917	 0.225334824084518 
1918	 0.224645885003441 
1919	 0.22400527198374 
1920	 0.223422420357594 
1921	 0.222885100022233 
1922	 0.222384704865797 
1923	 0.221941242990501 
1924	 0.221554104826824 
1925	 0.221229503021435 
1926	 0.220951948317738 
1927	 0.220730190681301 
1928	 0.220549902109358 
1929	 0.220415760384177 
1930	 0.220309101772521 
1931	 0.220234874461754 
1932	 0.220216321221475 
1933	 0.22022629820539 
1934	 0.22025409182775 
1935	 0.220312271235525 
1936	 0.220397837809276 
1937	 0.220504869152794 
1938	 0.220637056102058 
1939	 0.220801375171642 
1940	 0.220994488739436 
1941	 0.221210596896434 
1942	 0.221458718709179 
1943	 0.221711777135916 
1944	 0.22197671594385 
1945	 0.222253307054043 
1946	 0.222541981313538 
1947	 0.222833090852047 
1948	 0.223158986857585 
1949	 0.223512531280965 
1950	 0.223866575500721 
1951	 0.224247432342025 
1952	 0.224625681390263 
1953	 0.224979789219798 
1954	 0.225376451335135 
1955	 0.225792826503707 
1956	 0.226228728865218 
1957	 0.226667819237731 
1958	 0.227132552623714 
1959	 0.227585202275734 
1960	 0.228035395764595 
1961	 0.228491983267776 
1962	 0.228952779490533 
1963	 0.22942963239794 
1964	 0.22991138532785 
1965	 0.230388052830795 
1966	 0.230916691886726 
1967	 0.23146801990671 
1968	 0.232017179792414 
1969	 0.232602833196258 
1970	 0.2331594651203 
1971	 0.233701060633546 
1972	 0.234250711212331 
1973	 0.234818056217385 
1974	 0.235354076785042 
1975	 0.235875173451737 
1976	 0.236389353670896 
1977	 0.236911915781262 
1978	 0.237410354452085 
1979	 0.237929600312347 
1980	 0.238478990531019 
1981	 0.239002695631302 
1982	 0.239505052872288 
1983	 0.240031018328401 
1984	 0.240553844353796 
1985	 0.24109232067703 
1986	 0.241653276927383 
1987	 0.242205981347821 
1988	 0.24276625327753 
1989	 0.243334028899179 
1990	 0.243866006379285 
1991	 0.244395631278282 
1992	 0.244929971714281 
1993	 0.245452985840163 
1994	 0.245978908539114 
1995	 0.246513536943921 
1996	 0.247041635921433 
1997	 0.247549620156695 
1998	 0.248083267434834 
1999	 0.248651804347346 
2000	 0.249186274612912 
2001	 0.249721329428354 
2002	 0.250239644649465 
2003	 0.250740242011976 
2004	 0.251224421189532 
2005	 0.251715660847187 
2006	 0.252208601566251 
2007	 0.252697880479318 
2008	 0.253170768380063 
2009	 0.253667685505726 
2010	 0.254177492898499 
2011	 0.254685825074417 
2012	 0.255230788721342 
2013	 0.255728852690841 
2014	 0.256193812316099 
2015	 0.256675418633346 
2016	 0.257121428917151 
2017	 0.257551016970086 
2018	 0.258006760510119 
2019	 0.258471686340206 
2020	 0.258936965064221 
2021	 0.259424461298614 
2022	 0.2598879417432 
2023	 0.260340752750906 
2024	 0.260795641128792 
2025	 0.261244778422938 
2026	 0.261685966331434 
2027	 0.262123865412777 
2028	 0.262561286177389 
2029	 0.262994330940311 
2030	 0.263413111741998 
2031	 0.2638401373211 
2032	 0.264279670328178 
2033	 0.264700010959866 
2034	 0.265123251329709 
2035	 0.265518854105379 
2036	 0.265892810408794 
2037	 0.266261423901471 
2038	 0.26659641141493 
2039	 0.26695074984417 
2040	 0.267315269242496 
2041	 0.267674023091512 
2042	 0.268016290690685 
2043	 0.268336921388278 
2044	 0.268686001307859 
2045	 0.269027633024925 
2046	 0.269379934845911 
2047	 0.26976791908293 
2048	 0.27012729545938 
2049	 0.270482879574513 
2050	 0.270810097898378 
2051	 0.271127709859733 
2052	 0.271427741102862 
2053	 0.271680348044162 
2054	 0.271952160906484 
2055	 0.272228548316526 
2056	 0.272495082091458 
2057	 0.272762544435827 
2058	 0.273027256160855 
2059	 0.273305988158872 
2060	 0.273591345224356 
2061	 0.273864613248258 
2062	 0.274152394962636 
2063	 0.274419612404583 
2064	 0.274652271874339 
2065	 0.274912574223029 
2066	 0.275178044162048 
2067	 0.275448594303492 
2068	 0.275727730551196 
2069	 0.276017755725841 
2070	 0.276304068267777 
2071	 0.276596848381919 
2072	 0.276875272552331 
2073	 0.277157946611873 
2074	 0.277421122951788 
2075	 0.27766659139409 
2076	 0.277914207982197 
2077	 0.278155099193475 
2078	 0.278389407395367 
2079	 0.278617288707416 
2080	 0.278841961131921 
2081	 0.279055863005109 
2082	 0.27927399551314 
2083	 0.279488136975399 
2084	 0.279702248763593 
2085	 0.279935312892588 
2086	 0.280185767449817 
2087	 0.28041288070627 
2088	 0.280629143635149 
2089	 0.280879605346013 
2090	 0.28113571220063 
2091	 0.281384911769006 
2092	 0.281672686643934 
2093	 0.281929704817742 
2094	 0.282158067930682 
2095	 0.282386921120218 
2096	 0.282606072528 
2097	 0.282833924259657 
2098	 0.283048427948031 
2099	 0.283277294304886 
2100	 0.283508398234351 
2101	 0.28375348157558 
2102	 0.283991942057952 
2103	 0.284235928615539 
2104	 0.284464666403075 
2105	 0.284677103955895 
2106	 0.284916274060052 
2107	 0.285156702124712 
2108	 0.285400227315732 
2109	 0.28566318702864 
2110	 0.285925396101687 
2111	 0.286184644312429 
2112	 0.286443902038642 
2113	 0.286710019700078 
2114	 0.28698650124872 
2115	 0.287243313397955 
2116	 0.287490344755808 
2117	 0.28773222817241 
2118	 0.287961725328276 
2119	 0.288201029643029 
2120	 0.288438474188863 
2121	 0.288674174423183 
2122	 0.288917950413314 
2123	 0.289151266267229 
2124	 0.289382799251962 
2125	 0.289599632455692 
2126	 0.289822499132109 
2127	 0.290013544064052 
2128	 0.290167043556293 
2129	 0.290327760895365 
2130	 0.290477625970585 
2131	 0.290622817787 
2132	 0.290742220073496 
2133	 0.29085914522315 
2134	 0.290952598356707 
2135	 0.291009865084241 
2136	 0.291073592668535 
2137	 0.291134243220416 
2138	 0.291181867594114 
2139	 0.291224827574648 
2140	 0.291244749964891 
2141	 0.291244595834953 
2142	 0.291240018729431 
2143	 0.291229637913693 
2144	 0.291189735967716 
2145	 0.291123061600135 
2146	 0.291063294949644 
2147	 0.290967238165364 
2148	 0.290889954233489 
2149	 0.290822881286716 
2150	 0.290782685198524 
2151	 0.290705831573437 
2152	 0.29062326636441 
2153	 0.290530894392633 
2154	 0.290433909878814 
2155	 0.290304946785118 
2156	 0.290161776557823 
2157	 0.290003358028761 
2158	 0.289822950470013 
2159	 0.289615445081393 
2160	 0.289380615639296 
2161	 0.289147919628363 
2162	 0.288856397522386 
2163	 0.288611393719917 
2164	 0.288394364732855 
2165	 0.288195656440631 
2166	 0.287968471345583 
2167	 0.287753830236116 
2168	 0.287516307216037 
2169	 0.287242832032826 
2170	 0.286997413851755 
2171	 0.286748778738847 
2172	 0.286529439403997 
2173	 0.286336796769065 
2174	 0.286128088192791 
2175	 0.285950064726639 
2176	 0.285733037190804 
2177	 0.285504367489677 
2178	 0.285242324534358 
2179	 0.284935985241846 
2180	 0.284643632560018 
2181	 0.284319704872101 
2182	 0.284012601854765 
2183	 0.283702466528767 
2184	 0.283426829521171 
2185	 0.283152766781521 
2186	 0.282882196865529 
2187	 0.282629574687131 
2188	 0.28241292767282 
2189	 0.282159319359612 
2190	 0.281890728837949 
2191	 0.281638805189027 
2192	 0.28136087378088 
2193	 0.281127150313563 
2194	 0.280923777302567 
2195	 0.280728643408546 
2196	 0.280556903227315 
2197	 0.280390561145739 
2198	 0.28022337578022 
2199	 0.280089174112727 
2200	 0.279971568459641 
2201	 0.279876286771301 
2202	 0.279808108720745 
2203	 0.279771201879664 
2204	 0.279730350801989 
2205	 0.27969540410169 
2206	 0.279692698656502 
2207	 0.279708625448003 
2208	 0.279734196719477 
2209	 0.279781915191031 
2210	 0.279851291870773 
2211	 0.279940576264977 
2212	 0.280029766901757 
2213	 0.280144168606009 
2214	 0.280257802442161 
2215	 0.280380668409041 
2216	 0.28048591002915 
2217	 0.280605118296579 
2218	 0.280701249287883 
2219	 0.280763813290991 
2220	 0.280836161020197 
2221	 0.280912070463017 
2222	 0.280973978022346 
2223	 0.281037013422549 
2224	 0.281096544181299 
2225	 0.281149802772625 
2226	 0.281207247371401 
2227	 0.281232175276545 
2228	 0.281229619835991 
2229	 0.2812463955559 
2230	 0.281246571818944 
2231	 0.281258616453728 
2232	 0.281291652892022 
2233	 0.281310065173141 
2234	 0.281316833001682 
2235	 0.281326488833981 
2236	 0.28135654276464 
2237	 0.281348606435371 
2238	 0.281305281044066 
2239	 0.281282964086286 
2240	 0.281256872164546 
2241	 0.281218924554457 
2242	 0.281183775824334 
2243	 0.281148436636259 
2244	 0.281113370588446 
2245	 0.281036423243499 
2246	 0.280992488097699 
2247	 0.280978826274517 
2248	 0.280937136408187 
2249	 0.280899858750628 
2250	 0.280835121539379 
2251	 0.280738183808084 
2252	 0.280673647419251 
2253	 0.280589885757059 
2254	 0.280543887737141 
2255	 0.280545733787652 
2256	 0.280515159572929 
2257	 0.280474302404237 
2258	 0.280454000592081 
2259	 0.280438370267941 
2260	 0.280425073867619 
2261	 0.280427934590729 
2262	 0.28042918114834 
2263	 0.280432586610079 
2264	 0.28042003919434 
2265	 0.280409944493097 
2266	 0.280393166295116 
2267	 0.280341165912262 
2268	 0.280321252973741 
2269	 0.280310228676252 
2270	 0.280319247237756 
2271	 0.280357410225819 
2272	 0.280383909746455 
2273	 0.280388484541261 
2274	 0.280374057374087 
2275	 0.280320967378231 
2276	 0.280206005094631 
2277	 0.280141351587985 
2278	 0.280046249814575 
2279	 0.280023951394365 
2280	 0.280054691842368 
2281	 0.280077601824237 
2282	 0.280155577703767 
2283	 0.280177979702785 
2284	 0.280192268682603 
2285	 0.28018610806858 
2286	 0.280144360784788 
2287	 0.280101353379477 
2288	 0.280035285031226 
2289	 0.279980414399731 
2290	 0.279936734925375 
2291	 0.279875383757946 
2292	 0.279804244455514 
2293	 0.279730811844846 
2294	 0.279629074074804 
2295	 0.279545228577853 
2296	 0.27946631516404 
2297	 0.279412924174645 
2298	 0.279347850853304 
2299	 0.279261557810358 
2300	 0.279194167770996 
2301	 0.279146948312971 
2302	 0.279059913755891 
2303	 0.278944462210739 
2304	 0.278824084409844 
2305	 0.278700237469852 
2306	 0.278582060466475 
2307	 0.278481532488159 
2308	 0.278374908549263 
2309	 0.278245309114579 
2310	 0.27814375727469 
2311	 0.27806932770398 
2312	 0.277987376519332 
2313	 0.277927532898593 
2314	 0.277838219706568 
2315	 0.277749039410323 
2316	 0.277622435697265 
2317	 0.277457044646865 
2318	 0.277292201130777 
2319	 0.277093144187473 
2320	 0.276918934769159 
2321	 0.276731121360179 
2322	 0.276579752151121 
2323	 0.276474517259845 
2324	 0.276343837704839 
2325	 0.276224458469798 
2326	 0.276107250338381 
2327	 0.276007976501124 
2328	 0.275829734914409 
2329	 0.275674906104236 
2330	 0.275520529262508 
2331	 0.275375849637773 
2332	 0.27526593365934 
2333	 0.275188422426839 
2334	 0.275132488094827 
2335	 0.275050937224544 
2336	 0.274930326346036 
2337	 0.27473070215949 
2338	 0.274507288709904 
2339	 0.274298489977812 
2340	 0.274113280057389 
2341	 0.274014704276454 
2342	 0.273918190932789 
2343	 0.27375150510322 
2344	 0.273579461466483 
2345	 0.273400866906382 
2346	 0.273183263654634 
2347	 0.272975629892335 
2348	 0.272785955852408 
2349	 0.272564408277861 
2350	 0.272315531878742 
2351	 0.272078039417904 
2352	 0.271827456571592 
2353	 0.271577357128598 
2354	 0.271302598382552 
2355	 0.271072926642964 
2356	 0.270898942056164 
2357	 0.270672990771338 
2358	 0.270438453934279 
2359	 0.270232537960909 
2360	 0.269982763012929 
2361	 0.269771459512413 
2362	 0.26962262137451 
2363	 0.269433877067044 
2364	 0.269247202545913 
2365	 0.269041489988583 
2366	 0.268825442835027 
2367	 0.268602940112104 
2368	 0.268347084485113 
2369	 0.268102542436822 
2370	 0.267855907718541 
2371	 0.267644039000066 
2372	 0.267362068875968 
2373	 0.267038357750826 
2374	 0.266738340225706 
2375	 0.2663588853538 
2376	 0.266024640862554 
2377	 0.265798039070935 
2378	 0.265575560561055 
2379	 0.265345120204757 
2380	 0.2650481582067 
2381	 0.264679160032876 
2382	 0.264281163497433 
2383	 0.263882759643593 
2384	 0.263516181649144 
2385	 0.263188418162835 
2386	 0.262826401677016 
2387	 0.262410637464585 
2388	 0.262124918768306 
2389	 0.261921118990275 
2390	 0.261683899190553 
2391	 0.261503973093014 
2392	 0.261287080713923 
2393	 0.260959400909935 
2394	 0.26063708967274 
2395	 0.260286495903827 
2396	 0.259897617485888 
2397	 0.259546380519973 
2398	 0.259136605736925 
2399	 0.258713082883599 
2400	 0.25836962962158 
2401	 0.257962967543073 
2402	 0.257545232648494 
2403	 0.257248233968711 
2404	 0.256955196260378 
2405	 0.256629947070483 
2406	 0.256327956330495 
2407	 0.256000784626882 
2408	 0.255533239534143 
2409	 0.255013824278303 
2410	 0.254553362346376 
2411	 0.254127540300471 
2412	 0.253814542568252 
2413	 0.253514963628626 
2414	 0.253132661687784 
2415	 0.252814093286575 
2416	 0.252428648746596 
2417	 0.251916272278806 
2418	 0.251483948048933 
2419	 0.251092424166648 
2420	 0.250664371394806 
2421	 0.250272191952391 
2422	 0.249896665079724 
2423	 0.249519624773439 
2424	 0.249078160564465 
2425	 0.248594575105396 
2426	 0.248068202350111 
2427	 0.247493121602467 
2428	 0.246978014089374 
2429	 0.24645127459882 
2430	 0.245996595137752 
2431	 0.245556905417768 
2432	 0.245153209100814 
2433	 0.244823896961887 
2434	 0.24448024767968 
2435	 0.244224343274617 
2436	 0.243838519837014 
2437	 0.24337312660301 
2438	 0.242937768580475 
2439	 0.242405372901292 
2440	 0.241970090701418 
2441	 0.241643674937529 
2442	 0.24123583586817 
2443	 0.240858205391752 
2444	 0.240368614458747 
2445	 0.239729205135318 
2446	 0.239197492411324 
2447	 0.238636043637081 
2448	 0.238220899554058 
2449	 0.237918947073533 
2450	 0.237558234984681 
2451	 0.237266392920725 
2452	 0.236839581227119 
2453	 0.236384719938047 
2454	 0.235950737720641 
2455	 0.235419045541569 
2456	 0.235007351843017 
2457	 0.234689795144485 
2458	 0.234260649362932 
2459	 0.233827507832011 
2460	 0.23339549132405 
2461	 0.232874748177862 
2462	 0.232405328778503 
2463	 0.231991233963886 
2464	 0.231571764789773 
2465	 0.231048330155933 
2466	 0.230679093540904 
2467	 0.230539208480898 
2468	 0.230141886943201 
2469	 0.229740329518891 
2470	 0.229283942972425 
2471	 0.228746092831474 
2472	 0.228482545704353 
2473	 0.228006609785375 
2474	 0.22757029951289 
2475	 0.227320506008766 
2476	 0.227051832985043 
2477	 0.226936869219631 
2478	 0.226652930144071 
2479	 0.226342390488258 
2480	 0.226108941218208 
2481	 0.225583719811 
2482	 0.225209008930611 
2483	 0.224888658205922 
2484	 0.224295279418212 
2485	 0.224031855554704 
2486	 0.224030576402379 
2487	 0.223856182500004 
2488	 0.223805349704055 
2489	 0.223659721748396 
2490	 0.223226904148157 
2491	 0.222885092617217 
2492	 0.222389119503795 
2493	 0.221801023090288 
2494	 0.221511112252176 
2495	 0.221331846578802 
2496	 0.22111483878978 
2497	 0.220961690431659 
2498	 0.220829321031684 
2499	 0.220403263990405 
2500	 0.219881093416086 
