Wavelength	mm1400006.asd
350	 5.99104919405813E-02 
351	 5.51556952584089E-02 
352	 5.28231994304296E-02 
353	 5.24503316624119E-02 
354	 5.45647581897786E-02 
355	 5.68372020744316E-02 
356	 5.80534112065312E-02 
357	 5.74909061583428E-02 
358	 0.053359037000361 
359	 5.39714488274832E-02 
360	 5.70848264307636E-02 
361	 5.44371173610835E-02 
362	 5.11284471703835E-02 
363	 5.04456378083241E-02 
364	 5.22833059556982E-02 
365	 5.17097919318219E-02 
366	 5.40853855011494E-02 
367	 5.56607008169899E-02 
368	 5.34512492523682E-02 
369	 5.77772937578757E-02 
370	 5.62577487782524E-02 
371	 5.08787123176158E-02 
372	 5.29701175816239E-02 
373	 5.76148764852655E-02 
374	 5.93931256578453E-02 
375	 5.77345657873878E-02 
376	 6.06376866060635E-02 
377	 5.77291876874136E-02 
378	 5.39946649298931E-02 
379	 5.62363595548364E-02 
380	 5.85473803053176E-02 
381	 5.84778269165113E-02 
382	 5.82997321245433E-02 
383	 0.06283329968229 
384	 6.33084012440744E-02 
385	 6.22229097635974E-02 
386	 6.20445862077658E-02 
387	 6.19432020473857E-02 
388	 6.17261155307449E-02 
389	 6.15792305998459E-02 
390	 6.17848028371383E-02 
391	 6.23016732801106E-02 
392	 6.34129589404997E-02 
393	 6.47665689634051E-02 
394	 6.55202749548568E-02 
395	 6.61982805435295E-02 
396	 6.57956686809806E-02 
397	 6.45556581329336E-02 
398	 6.59288411076208E-02 
399	 6.74415522591622E-02 
400	 6.78094871023364E-02 
401	 6.69008548468991E-02 
402	 6.82461958984879E-02 
403	 6.90174645037544E-02 
404	 6.84507718240752E-02 
405	 6.82286841690457E-02 
406	 6.86172246863363E-02 
407	 6.95912452812644E-02 
408	 7.06007723686869E-02 
409	 7.00296521463027E-02 
410	 6.89186409112113E-02 
411	 6.83988607244632E-02 
412	 6.92927701280847E-02 
413	 7.02622675021481E-02 
414	 7.03569346136456E-02 
415	 0.069857932619271 
416	 7.05079984435913E-02 
417	 0.070046236311114 
418	 6.96409098287587E-02 
419	 7.03990821395671E-02 
420	 7.03993770594365E-02 
421	 7.01142924396854E-02 
422	 6.99745988455871E-02 
423	 7.02698144491223E-02 
424	 7.02918542609995E-02 
425	 7.03632056674863E-02 
426	 7.06252544726586E-02 
427	 7.06565730145208E-02 
428	 7.06248813810141E-02 
429	 7.04986494442233E-02 
430	 7.02587342307671E-02 
431	 0.07023171801985 
432	 7.00887560864343E-02 
433	 6.99064961423058E-02 
434	 7.01483266522662E-02 
435	 7.04516306843916E-02 
436	 7.04314672995556E-02 
437	 7.00362552289587E-02 
438	 7.00260714237031E-02 
439	 0.07021510876284 
440	 7.05050485666581E-02 
441	 7.07869515427149E-02 
442	 7.05504533023948E-02 
443	 7.06934157990188E-02 
444	 7.12655419331667E-02 
445	 7.08345070171493E-02 
446	 7.09464253476204E-02 
447	 7.11218412495586E-02 
448	 7.07115139173998E-02 
449	 7.08785679000777E-02 
450	 7.13448254433841E-02 
451	 7.17943713032112E-02 
452	 7.19445270572327E-02 
453	 7.19847848390687E-02 
454	 7.18230334641812E-02 
455	 7.15713402285979E-02 
456	 7.20033559598086E-02 
457	 7.21889937413388E-02 
458	 7.20775181362325E-02 
459	 7.20317504620146E-02 
460	 7.22222025066866E-02 
461	 0.072278176870706 
462	 7.21340761381567E-02 
463	 7.22109150978565E-02 
464	 7.24853148619483E-02 
465	 7.26430351515298E-02 
466	 7.24654534095556E-02 
467	 7.24612089872478E-02 
468	 7.24692487928349E-02 
469	 7.24337448660892E-02 
470	 7.24018158329767E-02 
471	 7.24718733618928E-02 
472	 7.25942224242753E-02 
473	 0.072695732756492 
474	 7.27139546909087E-02 
475	 7.26627278930684E-02 
476	 7.27143454959352E-02 
477	 0.07300514828642 
478	 7.28918709793083E-02 
479	 0.072762694289889 
480	 7.27751166118651E-02 
481	 7.26325263442935E-02 
482	 7.28560888620321E-02 
483	 7.31408227130729E-02 
484	 7.30999416275376E-02 
485	 7.29931465018075E-02 
486	 7.29065529866467E-02 
487	 7.29272190939265E-02 
488	 7.31133831972069E-02 
489	 7.29754104351164E-02 
490	 7.30276571573167E-02 
491	 7.34950264926309E-02 
492	 7.34723022018672E-02 
493	 7.33437153050061E-02 
494	 0.073330362847942 
495	 7.35261421523578E-02 
496	 7.35752693679714E-02 
497	 7.34657867001537E-02 
498	 7.33517972704214E-02 
499	 7.35800774284481E-02 
500	 7.37799503772361E-02 
501	 7.37705336240969E-02 
502	 7.35534624788359E-02 
503	 7.36233346065981E-02 
504	 7.37097436326993E-02 
505	 7.37304646417172E-02 
506	 7.37968723616394E-02 
507	 7.38748396927193E-02 
508	 7.39067198717863E-02 
509	 0.073886954849709 
510	 7.39820071331717E-02 
511	 7.38976002355215E-02 
512	 7.37362772067885E-02 
513	 7.37847122716656E-02 
514	 7.39080551610073E-02 
515	 7.39828571006456E-02 
516	 7.39924527755145E-02 
517	 7.40995865282549E-02 
518	 7.41754729699027E-02 
519	 7.41881232082536E-02 
520	 0.074171183175463 
521	 7.43312388691451E-02 
522	 7.43972239217981E-02 
523	 0.074334263136103 
524	 7.43763796985699E-02 
525	 7.44318338335093E-02 
526	 7.44867404211392E-02 
527	 7.45482131647276E-02 
528	 7.46523044462704E-02 
529	 7.47082833821406E-02 
530	 7.47213564399311E-02 
531	 7.47566317361297E-02 
532	 7.47536134343466E-02 
533	 7.48678946648708E-02 
534	 7.51048074305101E-02 
535	 7.50936616628356E-02 
536	 7.50784478615953E-02 
537	 7.51421661978563E-02 
538	 7.52750797967442E-02 
539	 7.52580812610368E-02 
540	 7.53256820930789E-02 
541	 7.55033462632647E-02 
542	 7.54936364717175E-02 
543	 7.55425803480619E-02 
544	 7.56650529116768E-02 
545	 7.58047797980551E-02 
546	 7.58894486852748E-02 
547	 7.59741551693534E-02 
548	 7.60731700092767E-02 
549	 7.61646321263294E-02 
550	 7.62817060318271E-02 
551	 7.64189161184437E-02 
552	 7.65672638377803E-02 
553	 7.67397053491859E-02 
554	 7.68287388990358E-02 
555	 7.69126290267434E-02 
556	 7.71381229080867E-02 
557	 7.72929968653792E-02 
558	 7.74450050569148E-02 
559	 7.76569329424618E-02 
560	 7.79375265968722E-02 
561	 7.81175909293008E-02 
562	 7.83036466522172E-02 
563	 7.86437542675151E-02 
564	 7.89421963686308E-02 
565	 7.91769773324577E-02 
566	 7.93760452991505E-02 
567	 7.96098128151046E-02 
568	 0.07987391267292 
569	 8.01994766685635E-02 
570	 8.06164496228383E-02 
571	 8.11601947146595E-02 
572	 8.15880579288567E-02 
573	 8.19173215055178E-02 
574	 0.082341178031614 
575	 8.27041852014802E-02 
576	 0.083161286388085 
577	 8.37727326125724E-02 
578	 8.43027972462716E-02 
579	 0.084762498757246 
580	 8.52140685417715E-02 
581	 8.57347527776007E-02 
582	 8.62556156716433E-02 
583	 0.086773671542321 
584	 8.73252056491751E-02 
585	 8.79973426896934E-02 
586	 0.088717750817479 
587	 0.089448787567907 
588	 9.01789002868774E-02 
589	 9.09735308499147E-02 
590	 9.17512936309635E-02 
591	 9.24770160242448E-02 
592	 9.31663801273678E-02 
593	 0.093830707286823 
594	 0.094468990468916 
595	 9.50672331842833E-02 
596	 9.55750034724659E-02 
597	 9.61209744816225E-02 
598	 9.66965434748082E-02 
599	 9.72342119725973E-02 
600	 9.78584805160624E-02 
601	 9.85118667870027E-02 
602	 9.91367973957881E-02 
603	 9.97145575301156E-02 
604	 0.100285362720605 
605	 0.100899522766403 
606	 0.101586296758182 
607	 0.102259347814099 
608	 0.102852157932054 
609	 0.103383935789479 
610	 0.103966524327021 
611	 0.104421558177129 
612	 0.10482759138766 
613	 0.105258182761576 
614	 0.105539089594127 
615	 0.105890994725785 
616	 0.106306708796052 
617	 0.106624609292521 
618	 0.10693247684158 
619	 0.107224463524918 
620	 0.107498999909314 
621	 0.107792937276094 
622	 0.108065202061027 
623	 0.10828486925554 
624	 0.108451204228788 
625	 0.108722201587766 
626	 0.108989487644614 
627	 0.109198763881114 
628	 0.109394761701175 
629	 0.109602383138122 
630	 0.109830381271776 
631	 0.110068238399579 
632	 0.110259671552383 
633	 0.110437054481245 
634	 0.110607564856241 
635	 0.110761193321438 
636	 0.110976812685128 
637	 0.111202376937528 
638	 0.111385274425831 
639	 0.11152055919381 
640	 0.111711731143382 
641	 0.111932103008602 
642	 0.112105432206723 
643	 0.112305581574918 
644	 0.112521053688221 
645	 0.112733280588027 
646	 0.112924059981576 
647	 0.113134064080396 
648	 0.113354278046452 
649	 0.113575199269607 
650	 0.113864987497454 
651	 0.114066041997941 
652	 0.114207238202814 
653	 0.114473520880025 
654	 0.114747629710144 
655	 0.114963922878628 
656	 0.115134889788541 
657	 0.1154509374701 
658	 0.115724023885848 
659	 0.115955239616623 
660	 0.116229077682853 
661	 0.116526429194448 
662	 0.116822976216123 
663	 0.11710053967672 
664	 0.117348924716259 
665	 0.117657624616259 
666	 0.117956771825375 
667	 0.118189966270434 
668	 0.118556932564935 
669	 0.11895595298023 
670	 0.119321019718804 
671	 0.119628110505146 
672	 0.119919149737092 
673	 0.120255442223386 
674	 0.12065414417801 
675	 0.121027150453079 
676	 0.121399797024835 
677	 0.121777001779445 
678	 0.122156782182899 
679	 0.122529069324872 
680	 0.122938183394976 
681	 0.123390181795038 
682	 0.123836794530216 
683	 0.124274531446806 
684	 0.124701998569766 
685	 0.125123144299281 
686	 0.125547731141842 
687	 0.126012000438876 
688	 0.126498066496586 
689	 0.126953862529857 
690	 0.127422422759605 
691	 0.127911895734023 
692	 0.128414671829219 
693	 0.128904676669753 
694	 0.12937621640968 
695	 0.129864393202928 
696	 0.130399563815705 
697	 0.130889933688678 
698	 0.131401920540432 
699	 0.131949980027257 
700	 0.132484993995026 
701	 0.133033286482459 
702	 0.133591809548687 
703	 0.134141959788525 
704	 0.134633969579062 
705	 0.135136930598222 
706	 0.135681184285571 
707	 0.136263830262911 
708	 0.136810089273733 
709	 0.137376314045574 
710	 0.137955117145699 
711	 0.138427122723007 
712	 0.138941949910689 
713	 0.139482547679223 
714	 0.140006722795986 
715	 0.140572208442981 
716	 0.141090555187058 
717	 0.141568427101538 
718	 0.142080751349449 
719	 0.142606957820696 
720	 0.143107316483928 
721	 0.143567469889288 
722	 0.144030025983771 
723	 0.144475218986653 
724	 0.1448985734795 
725	 0.145305609653058 
726	 0.145727086032761 
727	 0.146117227383005 
728	 0.146485755067022 
729	 0.146892362559956 
730	 0.147282384176463 
731	 0.147632679596786 
732	 0.147935922232189 
733	 0.148198715804777 
734	 0.148496304538051 
735	 0.148777357671796 
736	 0.148962332387232 
737	 0.149158524540693 
738	 0.149364892966544 
739	 0.149566498680513 
740	 0.149741521068965 
741	 0.149840728712356 
742	 0.14992784269959 
743	 0.150038453789604 
744	 0.150057918472577 
745	 0.150087521587759 
746	 0.150128030319687 
747	 0.150137502676979 
748	 0.150148195688927 
749	 0.150108589929446 
750	 0.150025418734527 
751	 0.14998076506774 
752	 0.149859992066343 
753	 0.149702923144967 
754	 0.149567327280587 
755	 0.149457063779294 
756	 0.149322602898662 
757	 0.149151015834215 
758	 0.14895067179995 
759	 0.148713966017244 
760	 0.148507250555845 
761	 0.148328872947974 
762	 0.148086952037817 
763	 0.147829820372959 
764	 0.147563823726105 
765	 0.147285177541494 
766	 0.146981368142822 
767	 0.146699548361473 
768	 0.146426184972145 
769	 0.146122007346995 
770	 0.145812082083124 
771	 0.14550437227676 
772	 0.145186044995258 
773	 0.144823573656458 
774	 0.144481275219519 
775	 0.1441594342071 
776	 0.143839201797224 
777	 0.143490284138413 
778	 0.143165455719239 
779	 0.142858243446815 
780	 0.142534599717948 
781	 0.14218206131755 
782	 0.141827947670449 
783	 0.141481568790368 
784	 0.141131066531476 
785	 0.140790673168761 
786	 0.140443133009065 
787	 0.140088577961804 
788	 0.139783136379874 
789	 0.139502247562573 
790	 0.139166078474911 
791	 0.138730298872018 
792	 0.138435730035127 
793	 0.138154554473652 
794	 0.137846902652837 
795	 0.137560726645418 
796	 0.137222009910504 
797	 0.136904540740359 
798	 0.136637202321454 
799	 0.136324314572212 
800	 0.136060947052443 
801	 0.135788606455831 
802	 0.135446616659883 
803	 0.13514844582937 
804	 0.134877726031824 
805	 0.134609290065947 
806	 0.134320825373668 
807	 0.134054452152998 
808	 0.133800701071123 
809	 0.133555310885078 
810	 0.133326826992307 
811	 0.133063693958304 
812	 0.132793869432517 
813	 0.132555368669634 
814	 0.1323621310099 
815	 0.132185308564866 
816	 0.131988240226423 
817	 0.131741219831361 
818	 0.131449404953257 
819	 0.131251798478323 
820	 0.131123970770552 
821	 0.130910043698782 
822	 0.130718919913013 
823	 0.130532540567303 
824	 0.130340550213014 
825	 0.130173232782023 
826	 0.130023008615469 
827	 0.129880030559816 
828	 0.129733032684181 
829	 0.129572235801519 
830	 0.129380598960606 
831	 0.129206266756048 
832	 0.129112224290093 
833	 0.129056168036626 
834	 0.128933060049115 
835	 0.128759779664354 
836	 0.128663051537295 
837	 0.12858760064363 
838	 0.128467651340862 
839	 0.128303399359374 
840	 0.128207728974474 
841	 0.128142468784618 
842	 0.128078199375238 
843	 0.127995812666825 
844	 0.12790129924226 
845	 0.127865472439643 
846	 0.127824306567916 
847	 0.127697543962182 
848	 0.127704969996035 
849	 0.127667343493451 
850	 0.127565345397377 
851	 0.127527854599495 
852	 0.127500705572349 
853	 0.127494390395218 
854	 0.127515445775264 
855	 0.127553580020427 
856	 0.127534183676158 
857	 0.127507991215458 
858	 0.127523028138459 
859	 0.127540667822992 
860	 0.127545625455625 
861	 0.127537705645181 
862	 0.127526586796092 
863	 0.127522045322608 
864	 0.127568266690474 
865	 0.127634224450639 
866	 0.127657430530816 
867	 0.127717385123709 
868	 0.127751485313338 
869	 0.127763479006098 
870	 0.127831339291319 
871	 0.127931841453144 
872	 0.128009048776984 
873	 0.128072339309181 
874	 0.128240775516442 
875	 0.128332988414696 
876	 0.128372553896576 
877	 0.128424413381313 
878	 0.128509158162064 
879	 0.128674154191284 
880	 0.128834757145044 
881	 0.128914957308969 
882	 0.129080457234302 
883	 0.129253172816291 
884	 0.129390181373682 
885	 0.129491798494696 
886	 0.12966264060364 
887	 0.129840958395958 
888	 0.129998716311017 
889	 0.130150691764208 
890	 0.130322168079915 
891	 0.13046608658184 
892	 0.130616274525173 
893	 0.130899715630736 
894	 0.131043830752515 
895	 0.131209471355319 
896	 0.131483460272391 
897	 0.131666971969342 
898	 0.13190379297547 
899	 0.132139319790698 
900	 0.132322374081872 
901	 0.132544478353201 
902	 0.132796233494379 
903	 0.133044835542392 
904	 0.133274554986537 
905	 0.133575570516568 
906	 0.133855599167762 
907	 0.134120233981993 
908	 0.134416605280262 
909	 0.134736874650624 
910	 0.135007122752252 
911	 0.135245830471869 
912	 0.135529316910361 
913	 0.13585219269104 
914	 0.13621535573586 
915	 0.136581986271707 
916	 0.1368947218939 
917	 0.137191292422785 
918	 0.137582676152893 
919	 0.138032047091943 
920	 0.138344685116331 
921	 0.138683834465695 
922	 0.139051969665098 
923	 0.139427617443385 
924	 0.139796554219282 
925	 0.140171666179266 
926	 0.140567685747353 
927	 0.140971108466854 
928	 0.141318079789246 
929	 0.141756476509697 
930	 0.142250655117075 
931	 0.142736931917829 
932	 0.143211817353227 
933	 0.143653086724891 
934	 0.144127051450954 
935	 0.144674066769174 
936	 0.145194739355908 
937	 0.14562575090233 
938	 0.146037358176827 
939	 0.146526318703103 
940	 0.147097825871562 
941	 0.147662785727782 
942	 0.148217277381423 
943	 0.148783006445532 
944	 0.149323756559911 
945	 0.149843120555663 
946	 0.150393184091046 
947	 0.15100642750518 
948	 0.151540791473851 
949	 0.152100548727319 
950	 0.152705501215194 
951	 0.153322202027927 
952	 0.153916438355493 
953	 0.154515938644294 
954	 0.155156212099206 
955	 0.155855351615397 
956	 0.156543807393977 
957	 0.157199801526783 
958	 0.157857974404447 
959	 0.158561016691685 
960	 0.159195540039182 
961	 0.159888194114268 
962	 0.160638227333301 
963	 0.161350902526354 
964	 0.161969718638745 
965	 0.162765800500802 
966	 0.163616693901474 
967	 0.164222945781659 
968	 0.164997011504399 
969	 0.165730345455978 
970	 0.166430475464648 
971	 0.167248878702014 
972	 0.168114617653763 
973	 0.168898891068602 
974	 0.169611751080444 
975	 0.17036631179092 
976	 0.171246485036559 
977	 0.172111433490841 
978	 0.172892329902367 
979	 0.173619874048435 
980	 0.174492237408488 
981	 0.175319116707006 
982	 0.176133547356759 
983	 0.177050633904735 
984	 0.177739086381768 
985	 0.178592756076545 
986	 0.179571452509073 
987	 0.180418393957232 
988	 0.181279091139532 
989	 0.182157885837366 
990	 0.182988640583517 
991	 0.183752951965458 
992	 0.184783098311191 
993	 0.185718341181486 
994	 0.186536870211169 
995	 0.187349310241521 
996	 0.188030673357064 
997	 0.188916345333494 
998	 0.189865679241542 
999	 0.190692721028424 
1000	 0.191813017898109 
1001	 0.189757903642696 
1002	 0.190569131838575 
1003	 0.191406044942117 
1004	 0.192231911756954 
1005	 0.193035193965769 
1006	 0.193861457290413 
1007	 0.194725939994482 
1008	 0.195543913706935 
1009	 0.196282544780298 
1010	 0.197014201359382 
1011	 0.197732875875963 
1012	 0.198431139720174 
1013	 0.199197512394104 
1014	 0.199977524378012 
1015	 0.200726720016662 
1016	 0.201507678437731 
1017	 0.20226310792787 
1018	 0.20300501807983 
1019	 0.20372300168181 
1020	 0.204446969659949 
1021	 0.20513943216933 
1022	 0.205871797510851 
1023	 0.206594267559681 
1024	 0.20724700988986 
1025	 0.207947493492496 
1026	 0.208646364073871 
1027	 0.209298496303698 
1028	 0.210035051325642 
1029	 0.210769616928562 
1030	 0.211409332975068 
1031	 0.212041959441056 
1032	 0.212665695438147 
1033	 0.213257105646292 
1034	 0.213839660982095 
1035	 0.214473318661497 
1036	 0.215139074958889 
1037	 0.215840616743351 
1038	 0.216532075712957 
1039	 0.217194542866678 
1040	 0.217848165227576 
1041	 0.218440296425922 
1042	 0.219046651009135 
1043	 0.219674096305712 
1044	 0.220277431166695 
1045	 0.220852299921028 
1046	 0.221508341559336 
1047	 0.222148503032999 
1048	 0.222731822355721 
1049	 0.22336122822397 
1050	 0.223962249886001 
1051	 0.224538620200438 
1052	 0.225123516288872 
1053	 0.225724341151701 
1054	 0.226363212340224 
1055	 0.226995866279251 
1056	 0.227621229067472 
1057	 0.228255982424824 
1058	 0.228900586960818 
1059	 0.229521360950766 
1060	 0.230130398784186 
1061	 0.230769917110952 
1062	 0.231334866160312 
1063	 0.23187444536233 
1064	 0.232470115821449 
1065	 0.233053507084554 
1066	 0.233666118255701 
1067	 0.234301099056459 
1068	 0.234876264225301 
1069	 0.235457854514383 
1070	 0.236050818813919 
1071	 0.236646757545987 
1072	 0.237247883257192 
1073	 0.237858682540289 
1074	 0.238446339920814 
1075	 0.239021731176063 
1076	 0.239617431847423 
1077	 0.240169339922949 
1078	 0.240677992323066 
1079	 0.241203788427948 
1080	 0.241752897890895 
1081	 0.2422960107719 
1082	 0.242920871211887 
1083	 0.24350955586674 
1084	 0.244091508157949 
1085	 0.244649569130199 
1086	 0.245191503223751 
1087	 0.245736486208278 
1088	 0.246251148159602 
1089	 0.246831199562452 
1090	 0.247399029432523 
1091	 0.247935255570185 
1092	 0.248469369198358 
1093	 0.248977888024584 
1094	 0.249523292042443 
1095	 0.250089625763564 
1096	 0.250654987452436 
1097	 0.251261206268815 
1098	 0.251814891205604 
1099	 0.252310951942579 
1100	 0.25285486154396 
1101	 0.253403408603602 
1102	 0.253945992986789 
1103	 0.254503980324471 
1104	 0.25507199296528 
1105	 0.255604758083552 
1106	 0.256149876153804 
1107	 0.256689830393402 
1108	 0.257238859463161 
1109	 0.257806907131502 
1110	 0.25838350985273 
1111	 0.258954802192971 
1112	 0.259543905809333 
1113	 0.260103647581397 
1114	 0.260644521124711 
1115	 0.261189885157284 
1116	 0.261716716977168 
1117	 0.262273195581447 
1118	 0.262841161435556 
1119	 0.263409615840944 
1120	 0.264013710774362 
1121	 0.26458780051011 
1122	 0.265144701254528 
1123	 0.265709888917926 
1124	 0.266285712535129 
1125	 0.26685012786683 
1126	 0.267437390859232 
1127	 0.26805112516419 
1128	 0.268652060022676 
1129	 0.269264602066603 
1130	 0.269853874273097 
1131	 0.270439170973846 
1132	 0.271008877232843 
1133	 0.271543998595582 
1134	 0.272100944948043 
1135	 0.272646361895762 
1136	 0.273230279181294 
1137	 0.273809160693181 
1138	 0.274364567195427 
1139	 0.274911627351198 
1140	 0.27543939646578 
1141	 0.275972065513141 
1142	 0.276487835044193 
1143	 0.277028725499609 
1144	 0.277590306084043 
1145	 0.278131283879618 
1146	 0.278682859198802 
1147	 0.279215805011556 
1148	 0.279719352345772 
1149	 0.280236200540514 
1150	 0.280761685163973 
1151	 0.281270615265093 
1152	 0.281773405356188 
1153	 0.282290097917725 
1154	 0.282809018852317 
1155	 0.283332412664301 
1156	 0.283841600927341 
1157	 0.284353417289146 
1158	 0.284860891152304 
1159	 0.285365294349731 
1160	 0.285852231275313 
1161	 0.286333897098666 
1162	 0.286815319844722 
1163	 0.28727611023342 
1164	 0.287742366229001 
1165	 0.288217364374182 
1166	 0.288688407806604 
1167	 0.289155135651339 
1168	 0.289632902095871 
1169	 0.290097978366673 
1170	 0.290570356429081 
1171	 0.291026014641939 
1172	 0.291475012670381 
1173	 0.291904504264396 
1174	 0.292312790550202 
1175	 0.292736650156954 
1176	 0.293151633842196 
1177	 0.293568073169566 
1178	 0.29400337111031 
1179	 0.294421697050596 
1180	 0.294819833445844 
1181	 0.295225128350329 
1182	 0.295637848175639 
1183	 0.296038034430946 
1184	 0.296435039396009 
1185	 0.296833131712716 
1186	 0.297222365499146 
1187	 0.297611734707123 
1188	 0.297976421208639 
1189	 0.298324211961053 
1190	 0.29867217737518 
1191	 0.299004863195253 
1192	 0.299334949781018 
1193	 0.299653616935882 
1194	 0.299989121681979 
1195	 0.300329175141684 
1196	 0.300660822036537 
1197	 0.301002428706323 
1198	 0.301341024600381 
1199	 0.301674730511427 
1200	 0.301995853548418 
1201	 0.302317452809763 
1202	 0.302649352011967 
1203	 0.302957893579351 
1204	 0.303246312283777 
1205	 0.303542352475478 
1206	 0.303831953776763 
1207	 0.304122604519849 
1208	 0.304431493726157 
1209	 0.304703759823607 
1210	 0.30494235070693 
1211	 0.305202557758638 
1212	 0.305447801770018 
1213	 0.305701734477747 
1214	 0.305996107938136 
1215	 0.30625580508188 
1216	 0.306499569509204 
1217	 0.306725638280531 
1218	 0.306948833290493 
1219	 0.307144021505373 
1220	 0.307366527589428 
1221	 0.307598534371911 
1222	 0.307823941121299 
1223	 0.308061638869829 
1224	 0.308284222427766 
1225	 0.308504914722079 
1226	 0.308708072044451 
1227	 0.308893760402869 
1228	 0.309084562807616 
1229	 0.309264414285273 
1230	 0.309443505417127 
1231	 0.309633175435602 
1232	 0.309808721739498 
1233	 0.309975610527417 
1234	 0.310123170985951 
1235	 0.310296893747847 
1236	 0.310480113975521 
1237	 0.310646965882949 
1238	 0.31082441608653 
1239	 0.31098481723012 
1240	 0.311117901781787 
1241	 0.311269164643294 
1242	 0.311430050312066 
1243	 0.311582273952855 
1244	 0.311730826415828 
1245	 0.311881580245323 
1246	 0.312026182538309 
1247	 0.312178406164684 
1248	 0.312335133251139 
1249	 0.312499181436546 
1250	 0.312662280979415 
1251	 0.31281028370461 
1252	 0.312955649979162 
1253	 0.313097681980349 
1254	 0.313224710049323 
1255	 0.313345216257542 
1256	 0.313453805715586 
1257	 0.313541374947854 
1258	 0.313637746407787 
1259	 0.313723511455451 
1260	 0.313819915576359 
1261	 0.313924057736065 
1262	 0.314024091188963 
1263	 0.314136318104454 
1264	 0.314231666535064 
1265	 0.314312340110049 
1266	 0.314398582046651 
1267	 0.314479976910654 
1268	 0.314551651274168 
1269	 0.314641429360905 
1270	 0.314740517546222 
1271	 0.314837741406335 
1272	 0.314937409029715 
1273	 0.315048376234369 
1274	 0.315161857030035 
1275	 0.315286124241558 
1276	 0.3154221971987 
1277	 0.315563196207056 
1278	 0.315711711580184 
1279	 0.315862965269366 
1280	 0.316036287416469 
1281	 0.316187807366615 
1282	 0.316323285946144 
1283	 0.316470762406821 
1284	 0.316621941226162 
1285	 0.316754045479143 
1286	 0.316902190971497 
1287	 0.3170578013954 
1288	 0.317214001505448 
1289	 0.317378576212527 
1290	 0.317516569795019 
1291	 0.317650915790624 
1292	 0.317779897704412 
1293	 0.317887519998812 
1294	 0.317994706342411 
1295	 0.318113632132526 
1296	 0.318206435622771 
1297	 0.318270721223967 
1298	 0.318345496929667 
1299	 0.318418061759561 
1300	 0.318480251240146 
1301	 0.31854043341774 
1302	 0.31859161691622 
1303	 0.318629966892606 
1304	 0.318665150257427 
1305	 0.31870887533563 
1306	 0.3187311439552 
1307	 0.318734513978174 
1308	 0.318743615781633 
1309	 0.318735559082811 
1310	 0.318705046321943 
1311	 0.318681267616326 
1312	 0.318648049692108 
1313	 0.31862884094304 
1314	 0.318621568207414 
1315	 0.318596077241587 
1316	 0.318569005763521 
1317	 0.318543223623593 
1318	 0.318495506983239 
1319	 0.318463057950555 
1320	 0.318453084329853 
1321	 0.318427153143384 
1322	 0.318393423205227 
1323	 0.318365265547365 
1324	 0.318334119689803 
1325	 0.318290229035874 
1326	 0.318216518571249 
1327	 0.318152993355627 
1328	 0.318097502134365 
1329	 0.318035565105312 
1330	 0.317984357877623 
1331	 0.317960771621747 
1332	 0.317907169460005 
1333	 0.317837473084232 
1334	 0.317771605224539 
1335	 0.31769243405684 
1336	 0.317631348617992 
1337	 0.317570851568606 
1338	 0.317524239421134 
1339	 0.317498388975572 
1340	 0.31745827569396 
1341	 0.317425225940577 
1342	 0.317384939457179 
1343	 0.317330441314752 
1344	 0.317281848018405 
1345	 0.317259085910354 
1346	 0.317221869029578 
1347	 0.317173543611519 
1348	 0.317128406670984 
1349	 0.31705959642747 
1350	 0.317005520546454 
1351	 0.316960697118959 
1352	 0.316937839084522 
1353	 0.316892536073652 
1354	 0.316842606196537 
1355	 0.316790459977036 
1356	 0.316727425317367 
1357	 0.316668354883897 
1358	 0.316606751212004 
1359	 0.316555319057986 
1360	 0.316506181447138 
1361	 0.31646280859095 
1362	 0.316437038833951 
1363	 0.316396413592335 
1364	 0.316346140248679 
1365	 0.316300698890725 
1366	 0.316255511912546 
1367	 0.316208172489657 
1368	 0.316151362580328 
1369	 0.316099789246647 
1370	 0.316033163743112 
1371	 0.315955724171355 
1372	 0.315868851076976 
1373	 0.315766434444604 
1374	 0.315649483580019 
1375	 0.315515683697437 
1376	 0.315360497984081 
1377	 0.315206793581398 
1378	 0.314996096793429 
1379	 0.314742094115142 
1380	 0.314485204759328 
1381	 0.31419045851398 
1382	 0.313889996484256 
1383	 0.313600019917953 
1384	 0.313261842037894 
1385	 0.312900793993023 
1386	 0.312506771374195 
1387	 0.312079968982361 
1388	 0.311621205873556 
1389	 0.311139992593667 
1390	 0.310614485401709 
1391	 0.310048955141185 
1392	 0.309449900381879 
1393	 0.308789582452658 
1394	 0.308092910932967 
1395	 0.307356477317065 
1396	 0.306592532786772 
1397	 0.305837546121807 
1398	 0.305069614815108 
1399	 0.304292995588162 
1400	 0.303516714629941 
1401	 0.302723689969686 
1402	 0.301891305857516 
1403	 0.301106878932542 
1404	 0.300309139751305 
1405	 0.299576059544748 
1406	 0.298902018536487 
1407	 0.298214198576716 
1408	 0.297542061674635 
1409	 0.29689959204787 
1410	 0.29622328076741 
1411	 0.29564850436748 
1412	 0.295131927303246 
1413	 0.29467108002173 
1414	 0.294289727203303 
1415	 0.293967842385462 
1416	 0.293672491929984 
1417	 0.29340210710482 
1418	 0.293134248108963 
1419	 0.292885119036505 
1420	 0.292685030623537 
1421	 0.292500170162994 
1422	 0.292343956627109 
1423	 0.292194137885268 
1424	 0.292017514381747 
1425	 0.291822204120736 
1426	 0.291645277041107 
1427	 0.291446169483756 
1428	 0.291287988889705 
1429	 0.291153285056101 
1430	 0.291023864973516 
1431	 0.290914334688091 
1432	 0.290810851367709 
1433	 0.290716205701877 
1434	 0.290633265268618 
1435	 0.290558075491984 
1436	 0.290497358552381 
1437	 0.290452785411027 
1438	 0.290410928545188 
1439	 0.290382641404956 
1440	 0.290356226723158 
1441	 0.29032027582968 
1442	 0.290294250262481 
1443	 0.290291715945557 
1444	 0.290303523368132 
1445	 0.290329528441041 
1446	 0.290368289222254 
1447	 0.290392334218392 
1448	 0.290402157723543 
1449	 0.290425433554843 
1450	 0.290444097429509 
1451	 0.29045979447572 
1452	 0.290470195184555 
1453	 0.290496793972359 
1454	 0.290522655568197 
1455	 0.290557945019793 
1456	 0.290612591722885 
1457	 0.290653951848418 
1458	 0.290686161529879 
1459	 0.290734589857066 
1460	 0.290779832213288 
1461	 0.290843245020505 
1462	 0.290931303794004 
1463	 0.291009745302155 
1464	 0.291091848920857 
1465	 0.291176764975406 
1466	 0.291248135970051 
1467	 0.291345523427875 
1468	 0.291443860579198 
1469	 0.291577814467422 
1470	 0.291747692794478 
1471	 0.291916674330812 
1472	 0.292114708690537 
1473	 0.292332980812388 
1474	 0.292528640740894 
1475	 0.292733910639941 
1476	 0.292927349795599 
1477	 0.293115501559669 
1478	 0.293312129027741 
1479	 0.29350906643281 
1480	 0.293722610025639 
1481	 0.293936905386433 
1482	 0.294151381241137 
1483	 0.294375260268441 
1484	 0.294589402766502 
1485	 0.294788016681036 
1486	 0.295014859069067 
1487	 0.295251079086532 
1488	 0.295490697493777 
1489	 0.295761621377426 
1490	 0.295997112447541 
1491	 0.296220558055299 
1492	 0.296437106198464 
1493	 0.29663264418029 
1494	 0.29683735326431 
1495	 0.297036087127522 
1496	 0.297239047663025 
1497	 0.297448734427692 
1498	 0.297650449732335 
1499	 0.297864097310335 
1500	 0.298053057522949 
1501	 0.298213249521593 
1502	 0.298391118812822 
1503	 0.298569528716872 
1504	 0.298731123930934 
1505	 0.298912916692778 
1506	 0.299103690599358 
1507	 0.299288218718886 
1508	 0.299470963945768 
1509	 0.299641864001701 
1510	 0.299813110369464 
1511	 0.299978499542521 
1512	 0.300142739183799 
1513	 0.300317259665962 
1514	 0.300486470401153 
1515	 0.300646702683262 
1516	 0.30080752860601 
1517	 0.300970086527218 
1518	 0.301140277230952 
1519	 0.301290504358742 
1520	 0.301430497312494 
1521	 0.301573532092318 
1522	 0.301695675837254 
1523	 0.301843391416799 
1524	 0.302008333560462 
1525	 0.302171762511237 
1526	 0.302349061894233 
1527	 0.30251281188391 
1528	 0.302684516899057 
1529	 0.302826535117979 
1530	 0.302942445641975 
1531	 0.303070730676 
1532	 0.303191632084069 
1533	 0.303303407208498 
1534	 0.303414524206942 
1535	 0.303526673399852 
1536	 0.303624261360304 
1537	 0.303723012726513 
1538	 0.303828560992431 
1539	 0.303934986874684 
1540	 0.304032415282433 
1541	 0.304141452215655 
1542	 0.304265356353746 
1543	 0.304375102251228 
1544	 0.304488426144681 
1545	 0.304589124185227 
1546	 0.304678262538829 
1547	 0.304764618832523 
1548	 0.304849901357437 
1549	 0.304911743867104 
1550	 0.304964841780767 
1551	 0.305038929581939 
1552	 0.305114452404214 
1553	 0.305193884388505 
1554	 0.305286216848922 
1555	 0.305366780592514 
1556	 0.305431319824117 
1557	 0.305514946681955 
1558	 0.305618836264208 
1559	 0.305708907341932 
1560	 0.3057965880727 
1561	 0.305896860816198 
1562	 0.305970886475504 
1563	 0.306012788586786 
1564	 0.306093398584865 
1565	 0.306185734251914 
1566	 0.306270727761099 
1567	 0.306374962425063 
1568	 0.306456861008367 
1569	 0.306522453318952 
1570	 0.306588030344448 
1571	 0.306657343866316 
1572	 0.30670393749443 
1573	 0.306725266052242 
1574	 0.306769511509052 
1575	 0.306803863867197 
1576	 0.306852286629529 
1577	 0.30692419443596 
1578	 0.30698268453209 
1579	 0.30703563872417 
1580	 0.307096056332724 
1581	 0.307146595001038 
1582	 0.307223190378708 
1583	 0.3073300119375 
1584	 0.30741000013937 
1585	 0.307512382009314 
1586	 0.307573194767788 
1587	 0.307585779966228 
1588	 0.307615339953089 
1589	 0.307631809423843 
1590	 0.307654786819083 
1591	 0.307689103033644 
1592	 0.30771210716895 
1593	 0.307722328003545 
1594	 0.307743082339989 
1595	 0.307762854866455 
1596	 0.307785523675858 
1597	 0.307810470986472 
1598	 0.307844031576428 
1599	 0.307893144890821 
1600	 0.307926591004047 
1601	 0.307957478707249 
1602	 0.307990289211883 
1603	 0.307999858451619 
1604	 0.30803238892421 
1605	 0.308096612361906 
1606	 0.308140835400966 
1607	 0.308182996070884 
1608	 0.308222575483248 
1609	 0.308266378082622 
1610	 0.308294768990335 
1611	 0.308308677548093 
1612	 0.308332373389751 
1613	 0.308344682861912 
1614	 0.308348130441653 
1615	 0.308376284030949 
1616	 0.308393823054415 
1617	 0.308405971871322 
1618	 0.308436793988926 
1619	 0.3084448559371 
1620	 0.308461268153301 
1621	 0.308481834758761 
1622	 0.308502956262064 
1623	 0.308502976401892 
1624	 0.308505970880157 
1625	 0.308503281898677 
1626	 0.308470727918448 
1627	 0.308468175516911 
1628	 0.308480310574632 
1629	 0.308498613340735 
1630	 0.308521462323565 
1631	 0.308555970065416 
1632	 0.308609014107146 
1633	 0.308652844683629 
1634	 0.30871086206148 
1635	 0.308732857965591 
1636	 0.308740837652816 
1637	 0.308743723923471 
1638	 0.308714449769732 
1639	 0.308713333548114 
1640	 0.30871424331549 
1641	 0.308738593480078 
1642	 0.308789779771341 
1643	 0.308810775293056 
1644	 0.308830136531291 
1645	 0.308861319982088 
1646	 0.308886475295198 
1647	 0.308902247809547 
1648	 0.3089411350305 
1649	 0.308943894211352 
1650	 0.308897879953291 
1651	 0.30889187905658 
1652	 0.30889910446779 
1653	 0.308895257037624 
1654	 0.308901040260507 
1655	 0.308895973289163 
1656	 0.308878960222955 
1657	 0.308863859187861 
1658	 0.308849811477954 
1659	 0.308831597781412 
1660	 0.30880973858588 
1661	 0.30878168709802 
1662	 0.308747556089924 
1663	 0.308717260473654 
1664	 0.308676423596078 
1665	 0.308651036321628 
1666	 0.308627986991365 
1667	 0.308624459050469 
1668	 0.308644760169549 
1669	 0.308647141783927 
1670	 0.30866055199087 
1671	 0.308660063757611 
1672	 0.308644925389668 
1673	 0.308627476525775 
1674	 0.308606142655255 
1675	 0.308585029037961 
1676	 0.308548062399749 
1677	 0.308530550719027 
1678	 0.308537883967224 
1679	 0.308512632082679 
1680	 0.30846601427462 
1681	 0.308448575253651 
1682	 0.308417974284803 
1683	 0.308413159815879 
1684	 0.308455596349556 
1685	 0.308464827667403 
1686	 0.308477103830315 
1687	 0.308459301886499 
1688	 0.308406834970988 
1689	 0.308381107436168 
1690	 0.308347706512229 
1691	 0.30831741135217 
1692	 0.308302304802358 
1693	 0.308286754659304 
1694	 0.308258277826596 
1695	 0.308245630030626 
1696	 0.308266155692212 
1697	 0.308248345936459 
1698	 0.308210917371396 
1699	 0.308180101080103 
1700	 0.30812859919568 
1701	 0.308096029603113 
1702	 0.308076637860057 
1703	 0.308054758926655 
1704	 0.308041702453106 
1705	 0.308014589340132 
1706	 0.30798924024749 
1707	 0.307950817169048 
1708	 0.307889532163168 
1709	 0.307844901321807 
1710	 0.307805667552349 
1711	 0.307758940745643 
1712	 0.307716005380123 
1713	 0.307669072116718 
1714	 0.307614559816346 
1715	 0.307553664659908 
1716	 0.30748529200788 
1717	 0.307433399075207 
1718	 0.307376677500815 
1719	 0.307334209588954 
1720	 0.307323111006041 
1721	 0.307276165394283 
1722	 0.30721535542756 
1723	 0.307162593983343 
1724	 0.307097420719257 
1725	 0.307033077701699 
1726	 0.306978821567202 
1727	 0.306907318387958 
1728	 0.306814767239164 
1729	 0.306739873124103 
1730	 0.306670181356103 
1731	 0.306597559216975 
1732	 0.306539462785057 
1733	 0.306457635116725 
1734	 0.306356794279245 
1735	 0.306258834159981 
1736	 0.306145756710949 
1737	 0.306049246833746 
1738	 0.305965446973108 
1739	 0.305878722370417 
1740	 0.30578849766488 
1741	 0.305711816709031 
1742	 0.305644910763461 
1743	 0.305560950017833 
1744	 0.305491819781332 
1745	 0.305385522853627 
1746	 0.305243230251173 
1747	 0.305114860846955 
1748	 0.305005573420112 
1749	 0.304923938313083 
1750	 0.304852502392033 
1751	 0.304790409219699 
1752	 0.304715753696957 
1753	 0.30463729250336 
1754	 0.304538816852306 
1755	 0.30442187494713 
1756	 0.304309993674248 
1757	 0.304195744425339 
1758	 0.304082956378979 
1759	 0.303957614231522 
1760	 0.303848392851287 
1761	 0.303753178183372 
1762	 0.303650532319087 
1763	 0.303563042268539 
1764	 0.303453314865896 
1765	 0.303333359057775 
1766	 0.303234062027164 
1767	 0.303137673705107 
1768	 0.303065859872381 
1769	 0.302995588487125 
1770	 0.302909571235852 
1771	 0.302827898609486 
1772	 0.302751754759657 
1773	 0.302676076719597 
1774	 0.302604144224633 
1775	 0.302579115016771 
1776	 0.302523665524717 
1777	 0.302418255759442 
1778	 0.302330582358966 
1779	 0.302197906539127 
1780	 0.302091785839052 
1781	 0.302046468220624 
1782	 0.301989209732222 
1783	 0.301933551876816 
1784	 0.301899866177319 
1785	 0.301888686313659 
1786	 0.301867558024979 
1787	 0.301887849170943 
1788	 0.301853712799376 
1789	 0.301774488462942 
1790	 0.301706924264966 
1791	 0.301604127422057 
1792	 0.301525891223483 
1793	 0.30143930966215 
1794	 0.301401585528571 
1795	 0.301399027031133 
1796	 0.301400764492925 
1797	 0.301464975720382 
1798	 0.301477479898447 
1799	 0.301465690001922 
1800	 0.301461085440663 
1801	 0.300624795638166 
1802	 0.300817262205424 
1803	 0.301028923805087 
1804	 0.30124275912363 
1805	 0.301457794779003 
1806	 0.301667724596045 
1807	 0.30186905430403 
1808	 0.302022312012271 
1809	 0.302152405506493 
1810	 0.302261407093913 
1811	 0.302340648727391 
1812	 0.302380378645493 
1813	 0.302425867104811 
1814	 0.302449175717516 
1815	 0.302439864214927 
1816	 0.302450942915407 
1817	 0.30245887624424 
1818	 0.302463124734276 
1819	 0.302459091630464 
1820	 0.302457203832431 
1821	 0.302440350861614 
1822	 0.302436094811598 
1823	 0.302442401471529 
1824	 0.302453128683437 
1825	 0.302469513030997 
1826	 0.302491729507953 
1827	 0.302517107652456 
1828	 0.302506698824197 
1829	 0.302489314033489 
1830	 0.302449844379744 
1831	 0.302369569697806 
1832	 0.302284284165907 
1833	 0.302242040477267 
1834	 0.302216722292338 
1835	 0.302181832681529 
1836	 0.302149861434688 
1837	 0.30212166284345 
1838	 0.302082507960445 
1839	 0.302049323796932 
1840	 0.302032047573119 
1841	 0.302018519391121 
1842	 0.301971834804626 
1843	 0.301916928623616 
1844	 0.301854253008162 
1845	 0.301750490691167 
1846	 0.301633028956648 
1847	 0.301528550326982 
1848	 0.301433523612181 
1849	 0.301337228776138 
1850	 0.301228267801543 
1851	 0.301122269525138 
1852	 0.300999543802018 
1853	 0.300856693734461 
1854	 0.300697310610583 
1855	 0.300513374736926 
1856	 0.300315179054977 
1857	 0.300100861199136 
1858	 0.299852396916241 
1859	 0.299608052542834 
1860	 0.299323310140801 
1861	 0.299014599352124 
1862	 0.2986424529593 
1863	 0.29826143574113 
1864	 0.297847856726143 
1865	 0.297393337441537 
1866	 0.296917732428707 
1867	 0.296392160678288 
1868	 0.295791906488631 
1869	 0.295169132424384 
1870	 0.294534870733486 
1871	 0.293832463221912 
1872	 0.293088336637362 
1873	 0.292318156692117 
1874	 0.291486878505988 
1875	 0.290553446960163 
1876	 0.289575422395669 
1877	 0.288549847080359 
1878	 0.287426643429931 
1879	 0.286243927382236 
1880	 0.284960474706267 
1881	 0.283580252134077 
1882	 0.282119948534635 
1883	 0.280575742148927 
1884	 0.278924437133616 
1885	 0.277210238597418 
1886	 0.275434543949578 
1887	 0.273553720735677 
1888	 0.271577811170514 
1889	 0.269501879784588 
1890	 0.267346292507724 
1891	 0.265178906475099 
1892	 0.26291897869716 
1893	 0.260685600035089 
1894	 0.25842989346748 
1895	 0.256192910157323 
1896	 0.253918843685968 
1897	 0.251677484282761 
1898	 0.249457534392798 
1899	 0.247272701255337 
1900	 0.245168127138157 
1901	 0.243119917582169 
1902	 0.241164119546833 
1903	 0.239295834057828 
1904	 0.237501906071546 
1905	 0.235769919829347 
1906	 0.234166115050227 
1907	 0.232649971371617 
1908	 0.231209158933529 
1909	 0.22986912992412 
1910	 0.22859769527036 
1911	 0.227392289880484 
1912	 0.22626656152629 
1913	 0.225213575737122 
1914	 0.224240007868939 
1915	 0.223329736290852 
1916	 0.222489034962879 
1917	 0.221721230490251 
1918	 0.221016105933934 
1919	 0.220346745514705 
1920	 0.219747935988668 
1921	 0.219197382027038 
1922	 0.218724647704678 
1923	 0.218339161157595 
1924	 0.217979438227441 
1925	 0.217686434457568 
1926	 0.217426488228186 
1927	 0.217204364383328 
1928	 0.217009640637285 
1929	 0.216878787174336 
1930	 0.216781957822831 
1931	 0.216735003574556 
1932	 0.216732786221618 
1933	 0.216750701216534 
1934	 0.216793177606805 
1935	 0.216857953758689 
1936	 0.216922323111263 
1937	 0.217043778226232 
1938	 0.217217407519538 
1939	 0.217404966290498 
1940	 0.217628374787282 
1941	 0.217873649767171 
1942	 0.218138411893953 
1943	 0.218403061338937 
1944	 0.218686586716794 
1945	 0.21899356629186 
1946	 0.219318282377653 
1947	 0.219658830889915 
1948	 0.220017439395245 
1949	 0.220407439390461 
1950	 0.220793000211064 
1951	 0.221181166029874 
1952	 0.22159134057436 
1953	 0.222003168102428 
1954	 0.222427004349915 
1955	 0.222871727640674 
1956	 0.223307839571592 
1957	 0.223765967376678 
1958	 0.224249396882376 
1959	 0.224714551305033 
1960	 0.225178084492432 
1961	 0.225658000985415 
1962	 0.226122431540284 
1963	 0.22661838511491 
1964	 0.22714786393695 
1965	 0.227677332959237 
1966	 0.228201292715898 
1967	 0.228754163696793 
1968	 0.229309054812495 
1969	 0.229872526411728 
1970	 0.230433568744681 
1971	 0.231014247751769 
1972	 0.231576627378791 
1973	 0.232133327407044 
1974	 0.232684205185665 
1975	 0.233219695734418 
1976	 0.23376685459675 
1977	 0.234328787197591 
1978	 0.234879522708947 
1979	 0.235452611711906 
1980	 0.236018548749672 
1981	 0.236577551436246 
1982	 0.237118873942813 
1983	 0.237683542480749 
1984	 0.238244586777464 
1985	 0.238825977511796 
1986	 0.239446803816096 
1987	 0.240032235234748 
1988	 0.240607791481826 
1989	 0.241193243299618 
1990	 0.241761990775766 
1991	 0.242313304179844 
1992	 0.24287910952736 
1993	 0.243458087127327 
1994	 0.244026165463495 
1995	 0.244597073788417 
1996	 0.245151450668099 
1997	 0.245689352799733 
1998	 0.246240238984265 
1999	 0.246788134227375 
2000	 0.247333910742799 
2001	 0.247888562545476 
2002	 0.248445686679027 
2003	 0.248991812152621 
2004	 0.249484554950279 
2005	 0.249998050991467 
2006	 0.250500118710713 
2007	 0.251012001628175 
2008	 0.251515369798731 
2009	 0.252045045682356 
2010	 0.252605567844782 
2011	 0.253134971776545 
2012	 0.25368073937285 
2013	 0.254195953572585 
2014	 0.254672997779976 
2015	 0.255154149329199 
2016	 0.25562441255802 
2017	 0.256090785205943 
2018	 0.256561706254754 
2019	 0.257023538915936 
2020	 0.257501160764568 
2021	 0.257995498970254 
2022	 0.258474498584044 
2023	 0.258970300071237 
2024	 0.259438262012024 
2025	 0.259865568688192 
2026	 0.260321163890574 
2027	 0.260788429058948 
2028	 0.261236393484796 
2029	 0.261692199502888 
2030	 0.262173358078117 
2031	 0.262618365091565 
2032	 0.263037849171272 
2033	 0.263464297007948 
2034	 0.263891412098123 
2035	 0.264297422731221 
2036	 0.264697116441201 
2037	 0.265083791323987 
2038	 0.26543915127772 
2039	 0.265806125594274 
2040	 0.266178571585259 
2041	 0.266537092106723 
2042	 0.266881245084031 
2043	 0.26722459157651 
2044	 0.267576434491257 
2045	 0.267919113531997 
2046	 0.268270400023796 
2047	 0.268636913894123 
2048	 0.268996642190141 
2049	 0.269371817088272 
2050	 0.269708777913983 
2051	 0.270023515294833 
2052	 0.270346360654736 
2053	 0.270646522960709 
2054	 0.270942242527487 
2055	 0.271236505144486 
2056	 0.271546296408422 
2057	 0.271839460663998 
2058	 0.272106202634929 
2059	 0.272402196782097 
2060	 0.27271607323076 
2061	 0.273017000839789 
2062	 0.273322825813785 
2063	 0.273619931454018 
2064	 0.273905167227855 
2065	 0.274197121229772 
2066	 0.274510798394647 
2067	 0.274791252676331 
2068	 0.275050465430111 
2069	 0.275306594987642 
2070	 0.275575685402089 
2071	 0.275821338081955 
2072	 0.276096386922947 
2073	 0.276406320811735 
2074	 0.276694178566824 
2075	 0.276986010859594 
2076	 0.277257128406383 
2077	 0.277527035745143 
2078	 0.277774983281681 
2079	 0.277973892960264 
2080	 0.278213636507359 
2081	 0.278470131400229 
2082	 0.278715488839603 
2083	 0.278975196502202 
2084	 0.279232543408477 
2085	 0.279483808332062 
2086	 0.279713395456043 
2087	 0.27996586266542 
2088	 0.280229473667059 
2089	 0.280495729603451 
2090	 0.280773772038104 
2091	 0.281035563245703 
2092	 0.281303239784309 
2093	 0.281557757482283 
2094	 0.281801327394002 
2095	 0.28203623429492 
2096	 0.282250651256417 
2097	 0.282478363683266 
2098	 0.282690843806993 
2099	 0.282924029679146 
2100	 0.283166816633165 
2101	 0.283437866920883 
2102	 0.283677300639755 
2103	 0.283898106655247 
2104	 0.284154246087994 
2105	 0.284420648952036 
2106	 0.284675479966833 
2107	 0.284957783275183 
2108	 0.285218097553709 
2109	 0.285435675846885 
2110	 0.285687930686869 
2111	 0.28596357308829 
2112	 0.286232139725816 
2113	 0.286516726009501 
2114	 0.286785552246627 
2115	 0.287056393818764 
2116	 0.287328804749945 
2117	 0.287581163986578 
2118	 0.287822225510054 
2119	 0.288065281402558 
2120	 0.288293430695273 
2121	 0.288528446402943 
2122	 0.288777701974182 
2123	 0.2890051382099 
2124	 0.289220652766495 
2125	 0.289429955178423 
2126	 0.289630652646629 
2127	 0.289821641447716 
2128	 0.290012342809541 
2129	 0.290182310814172 
2130	 0.290334547658607 
2131	 0.290481430296225 
2132	 0.290599677207479 
2133	 0.290701442084186 
2134	 0.290775452590782 
2135	 0.29080133061473 
2136	 0.290865155101948 
2137	 0.290934632461446 
2138	 0.290979275530103 
2139	 0.291044955404846 
2140	 0.291069780047297 
2141	 0.291042496327112 
2142	 0.291027079437031 
2143	 0.291002636432322 
2144	 0.290975691718629 
2145	 0.290954940710709 
2146	 0.290912105782339 
2147	 0.290851047639489 
2148	 0.290782681104172 
2149	 0.290723896427158 
2150	 0.290652880131142 
2151	 0.290584572226188 
2152	 0.290538066538412 
2153	 0.290457224757785 
2154	 0.290360503753718 
2155	 0.290250118548674 
2156	 0.290139831474816 
2157	 0.289987373181497 
2158	 0.28980758184596 
2159	 0.28960481407202 
2160	 0.289348669865342 
2161	 0.289109272507222 
2162	 0.288846778918588 
2163	 0.288602662834471 
2164	 0.288365991863858 
2165	 0.288135947586386 
2166	 0.287914922582345 
2167	 0.28771096187208 
2168	 0.287491320148459 
2169	 0.287271444748334 
2170	 0.287051365394907 
2171	 0.286826934533613 
2172	 0.286601698953504 
2173	 0.286373076812199 
2174	 0.28615603360022 
2175	 0.285951756523203 
2176	 0.285725242048035 
2177	 0.285519261128306 
2178	 0.285268913184295 
2179	 0.284954715148063 
2180	 0.284675044588915 
2181	 0.284403073296676 
2182	 0.284113425242384 
2183	 0.283811790992026 
2184	 0.283542211524786 
2185	 0.283255435618187 
2186	 0.2829404608636 
2187	 0.282656586330348 
2188	 0.282388738981275 
2189	 0.282129295479082 
2190	 0.281875194724582 
2191	 0.281630591873396 
2192	 0.281405756879378 
2193	 0.281178840862697 
2194	 0.280946811764049 
2195	 0.280733874435479 
2196	 0.280517140772592 
2197	 0.280338983113983 
2198	 0.280182574584892 
2199	 0.280050141396863 
2200	 0.279971467159048 
2201	 0.279878525867082 
2202	 0.279796719659463 
2203	 0.279705621073158 
2204	 0.27964901881352 
2205	 0.27958429250918 
2206	 0.279581616653828 
2207	 0.279642564788924 
2208	 0.279674234034541 
2209	 0.279719092699566 
2210	 0.2797817210115 
2211	 0.279843551684636 
2212	 0.279918955061333 
2213	 0.280018429444283 
2214	 0.280131113144119 
2215	 0.280265595598358 
2216	 0.280378125112856 
2217	 0.280510012502589 
2218	 0.280622818031566 
2219	 0.280691996497613 
2220	 0.280788519564887 
2221	 0.280909171365799 
2222	 0.281021449078877 
2223	 0.281098299034448 
2224	 0.281162709325156 
2225	 0.281217431914919 
2226	 0.281237230562144 
2227	 0.281268284908477 
2228	 0.281305147015621 
2229	 0.281327616163823 
2230	 0.281334126938239 
2231	 0.28133659658668 
2232	 0.281339797719971 
2233	 0.281334664918146 
2234	 0.28131579174909 
2235	 0.281292934349977 
2236	 0.281276343719087 
2237	 0.281231572931227 
2238	 0.281138665565871 
2239	 0.281094263079435 
2240	 0.281056323682894 
2241	 0.281022970354508 
2242	 0.281033630098856 
2243	 0.281022710130256 
2244	 0.281012050512399 
2245	 0.280971038185997 
2246	 0.28092492916064 
2247	 0.280875513672808 
2248	 0.280827891904379 
2249	 0.280771810175697 
2250	 0.280714323976008 
2251	 0.280659022826409 
2252	 0.280601828333582 
2253	 0.280513073217867 
2254	 0.280478830556893 
2255	 0.280494653186309 
2256	 0.280464487071415 
2257	 0.280432191910183 
2258	 0.280411177547752 
2259	 0.280369705186919 
2260	 0.280335717395855 
2261	 0.280327784336025 
2262	 0.280310995855472 
2263	 0.280279975185069 
2264	 0.28025163324431 
2265	 0.280225428625075 
2266	 0.280205264889932 
2267	 0.28017941054927 
2268	 0.280159172675384 
2269	 0.280130213086766 
2270	 0.280154861047756 
2271	 0.280172258969435 
2272	 0.280158778755965 
2273	 0.28011782121976 
2274	 0.280055954260625 
2275	 0.280012167874648 
2276	 0.279929508638709 
2277	 0.279904412233836 
2278	 0.279932685648576 
2279	 0.27991875632621 
2280	 0.279915564237282 
2281	 0.279881117601831 
2282	 0.27981302161346 
2283	 0.279771318617638 
2284	 0.279717284709345 
2285	 0.279675001874129 
2286	 0.279663051228311 
2287	 0.279616795337873 
2288	 0.279547807262078 
2289	 0.279496630677094 
2290	 0.279444630873197 
2291	 0.279385329840658 
2292	 0.279343190585322 
2293	 0.279278018868053 
2294	 0.27916742295425 
2295	 0.279094592082886 
2296	 0.279031030619573 
2297	 0.27897353084795 
2298	 0.278946927219095 
2299	 0.278899149290513 
2300	 0.278850018032202 
2301	 0.278780880525182 
2302	 0.278708609721553 
2303	 0.278654403808713 
2304	 0.278586107153475 
2305	 0.278527649677416 
2306	 0.278425593122483 
2307	 0.278286043895389 
2308	 0.278173894268654 
2309	 0.278045860210583 
2310	 0.277916846803492 
2311	 0.277816121155915 
2312	 0.277681872182061 
2313	 0.277502718245341 
2314	 0.277367623537832 
2315	 0.277245994094789 
2316	 0.277118653156037 
2317	 0.277002101854205 
2318	 0.276881475679897 
2319	 0.276759644364691 
2320	 0.276637801397666 
2321	 0.276565947382242 
2322	 0.276403048843415 
2323	 0.27614574982329 
2324	 0.275958200649155 
2325	 0.27573076431243 
2326	 0.275551755535422 
2327	 0.275432088962681 
2328	 0.275336308297978 
2329	 0.275236675557502 
2330	 0.275139167574962 
2331	 0.275067837270736 
2332	 0.274951940487062 
2333	 0.274790821810394 
2334	 0.274631319665668 
2335	 0.274496962227015 
2336	 0.274360321380569 
2337	 0.274162965987547 
2338	 0.273999114004247 
2339	 0.273810197168973 
2340	 0.273584879300501 
2341	 0.27347808516555 
2342	 0.273358263172523 
2343	 0.273203724678391 
2344	 0.273085802305044 
2345	 0.272921830207745 
2346	 0.272727930257791 
2347	 0.272538982185469 
2348	 0.272330621153901 
2349	 0.272107614557221 
2350	 0.271881360410819 
2351	 0.271623922266977 
2352	 0.27133565475421 
2353	 0.271065140458492 
2354	 0.270765410017546 
2355	 0.27050317456759 
2356	 0.270264067463775 
2357	 0.270014692594114 
2358	 0.269776173739327 
2359	 0.269547822266459 
2360	 0.269313229701443 
2361	 0.269090959246501 
2362	 0.268908970781834 
2363	 0.268704374759448 
2364	 0.268489253312003 
2365	 0.268269026643465 
2366	 0.268017784688629 
2367	 0.267800545058884 
2368	 0.267630366894361 
2369	 0.267405434943004 
2370	 0.26718471040386 
2371	 0.266937809360166 
2372	 0.266619873598679 
2373	 0.26625222188888 
2374	 0.265936374929663 
2375	 0.265631271337228 
2376	 0.265283001818376 
2377	 0.264983230501175 
2378	 0.264710571430668 
2379	 0.264427438017755 
2380	 0.264136662704978 
2381	 0.263839170780762 
2382	 0.263479036778074 
2383	 0.263069615966285 
2384	 0.262745775109796 
2385	 0.262415053902525 
2386	 0.262063653250848 
2387	 0.261742172475781 
2388	 0.261359319104307 
2389	 0.261030316160662 
2390	 0.260760445343935 
2391	 0.26041571835964 
2392	 0.260063427621717 
2393	 0.259749199843544 
2394	 0.259422390429304 
2395	 0.259097096515453 
2396	 0.258825370481619 
2397	 0.25852366382836 
2398	 0.25820503482407 
2399	 0.257846890842521 
2400	 0.257420311834077 
2401	 0.257007269041113 
2402	 0.256557212569629 
2403	 0.256176264103239 
2404	 0.255778778318272 
2405	 0.255318372367124 
2406	 0.254958970148546 
2407	 0.254582958128484 
2408	 0.254259065496183 
2409	 0.253988655184314 
2410	 0.253599060100359 
2411	 0.253158762053587 
2412	 0.252743720054368 
2413	 0.25233485671113 
2414	 0.251929456825505 
2415	 0.251613839799118 
2416	 0.251249741033058 
2417	 0.25086056974532 
2418	 0.250473632718549 
2419	 0.250083102705109 
2420	 0.24962366252791 
2421	 0.249143097823657 
2422	 0.248672918789424 
2423	 0.248150792189712 
2424	 0.247699888395338 
2425	 0.247304067990109 
2426	 0.246854572543464 
2427	 0.246380962332226 
2428	 0.245902194364697 
2429	 0.24540707645514 
2430	 0.244925093037496 
2431	 0.244451936402053 
2432	 0.244017921698223 
2433	 0.243578823464013 
2434	 0.243159241408799 
2435	 0.242790154741225 
2436	 0.242391160153368 
2437	 0.242024337232785 
2438	 0.241665659832619 
2439	 0.241262769518604 
2440	 0.2408723417974 
2441	 0.240549965437743 
2442	 0.240097841575638 
2443	 0.239578573010408 
2444	 0.239060317986294 
2445	 0.238408958202584 
2446	 0.237857424197554 
2447	 0.237396066276239 
2448	 0.236939612076629 
2449	 0.23647089809871 
2450	 0.236076357790924 
2451	 0.23577071300429 
2452	 0.235346296622732 
2453	 0.23494362811914 
2454	 0.234539922092775 
2455	 0.234016334596778 
2456	 0.233534506499342 
2457	 0.233121590574148 
2458	 0.232695447602854 
2459	 0.232252835293512 
2460	 0.231837276722149 
2461	 0.231429342604851 
2462	 0.231057691251434 
2463	 0.230697407419907 
2464	 0.23029727284851 
2465	 0.229936339555452 
2466	 0.229554279372584 
2467	 0.22912238437201 
2468	 0.228771282818888 
2469	 0.228464642272951 
2470	 0.228147368900873 
2471	 0.227791900147961 
2472	 0.227364693575621 
2473	 0.226875274934828 
2474	 0.226346468347961 
2475	 0.225946373871402 
2476	 0.22556819498383 
2477	 0.225285224474692 
2478	 0.225064843538091 
2479	 0.224856093267999 
2480	 0.224637800647865 
2481	 0.224279685686732 
2482	 0.223904435388718 
2483	 0.223406343411686 
2484	 0.222966183084735 
2485	 0.222621915373443 
2486	 0.222264160567842 
2487	 0.22203140691851 
2488	 0.221697749044358 
2489	 0.221312105764473 
2490	 0.220986132526154 
2491	 0.220699914996887 
2492	 0.220455631309671 
2493	 0.220114351762745 
2494	 0.21966657089957 
2495	 0.219222048067546 
2496	 0.218927840256344 
2497	 0.218738379047193 
2498	 0.218485655272765 
2499	 0.218274733584267 
2500	 0.217975382152792 
