Wavelength	mm1500006.asd
350	 8.13699721913457E-02 
351	 7.69620419764017E-02 
352	 7.28534934783143E-02 
353	 7.01643254951946E-02 
354	 7.05425048092715E-02 
355	 7.71393764027833E-02 
356	 7.85891297125434E-02 
357	 6.92245870321437E-02 
358	 7.77560127065828E-02 
359	 7.79082521241863E-02 
360	 7.11195899550726E-02 
361	 0.075342420692672 
362	 7.30469335356313E-02 
363	 7.05253954708566E-02 
364	 7.05320319980476E-02 
365	 6.52787715517659E-02 
366	 6.71513889171724E-02 
367	 7.29393730776617E-02 
368	 7.65915870639817E-02 
369	 7.99577791827497E-02 
370	 8.04876897931061E-02 
371	 7.91156912558662E-02 
372	 7.90692988665859E-02 
373	 8.04192661464707E-02 
374	 8.05254436831773E-02 
375	 7.84870225313653E-02 
376	 7.69070212241409E-02 
377	 7.45050403151855E-02 
378	 7.55599530802763E-02 
379	 8.25295633565509E-02 
380	 8.42431827850655E-02 
381	 8.37428968584169E-02 
382	 8.34518950483685E-02 
383	 8.45978253839152E-02 
384	 8.40480613623544E-02 
385	 0.084198207146352 
386	 8.63697571205949E-02 
387	 0.088489775903695 
388	 9.01157648367739E-02 
389	 9.03130326715729E-02 
390	 8.89457208514814E-02 
391	 8.97562423456692E-02 
392	 9.01265937431116E-02 
393	 9.06081052477433E-02 
394	 9.42269042060383E-02 
395	 9.57033778180601E-02 
396	 9.72736146036516E-02 
397	 0.100038506292873 
398	 9.98213719266076E-02 
399	 0.100324733377538 
400	 0.101927167293245 
401	 0.103507087513581 
402	 0.103071665708374 
403	 0.102704873826596 
404	 0.103289974537917 
405	 0.104223964560997 
406	 0.105045290867727 
407	 0.106199267525014 
408	 0.107493889012866 
409	 0.106288461469764 
410	 0.106847719866678 
411	 0.10886038355565 
412	 0.110000004137806 
413	 0.110738814724279 
414	 0.11079263725103 
415	 0.110460150284408 
416	 0.110796973052454 
417	 0.111378375283983 
418	 0.111907364220135 
419	 0.11216541938283 
420	 0.11211043217318 
421	 0.111833016591029 
422	 0.111783259901029 
423	 0.112447042988094 
424	 0.112064600448687 
425	 0.111856423246824 
426	 0.112308614181235 
427	 0.111874544793546 
428	 0.111676070867751 
429	 0.111570508243613 
430	 0.111226403651634 
431	 0.111518560137581 
432	 0.111272568534594 
433	 0.11055615873562 
434	 0.110647919478291 
435	 0.111013313347617 
436	 0.111231986139188 
437	 0.111101954739047 
438	 0.110801656757631 
439	 0.111366419899806 
440	 0.112276678794305 
441	 0.112407431912354 
442	 0.112747082788666 
443	 0.11331780565454 
444	 0.113969003256178 
445	 0.114450794730074 
446	 0.114825624551954 
447	 0.115268333954717 
448	 0.115872519982254 
449	 0.116237500241191 
450	 0.116605549366319 
451	 0.117117714057194 
452	 0.117791950505831 
453	 0.118368778058743 
454	 0.118618397218146 
455	 0.118634423950592 
456	 0.119287243413182 
457	 0.119718817870061 
458	 0.119865128143639 
459	 0.120035268601999 
460	 0.120376322804408 
461	 0.120786155498928 
462	 0.121219737620049 
463	 0.12176595135824 
464	 0.121725013719843 
465	 0.121693535543358 
466	 0.122233398128387 
467	 0.122208286837528 
468	 0.122323400584062 
469	 0.122671360411218 
470	 0.122836331261843 
471	 0.123037552300859 
472	 0.123350478393292 
473	 0.123671616783676 
474	 0.123474109867756 
475	 0.123581189496756 
476	 0.123821621839021 
477	 0.123729491045317 
478	 0.1241927259286 
479	 0.124515217267301 
480	 0.124484389894776 
481	 0.124731154358377 
482	 0.12511493925259 
483	 0.125414007423381 
484	 0.125466250728658 
485	 0.125462941504904 
486	 0.125570547060252 
487	 0.125786911412441 
488	 0.125977415362148 
489	 0.126275045057678 
490	 0.126535648866176 
491	 0.126656663164769 
492	 0.126735963725644 
493	 0.12681506953383 
494	 0.126950092542834 
495	 0.127179070167982 
496	 0.127403954872665 
497	 0.127542082167955 
498	 0.127643831957511 
499	 0.127960464593756 
500	 0.128036372134232 
501	 0.12804879055551 
502	 0.12826243830793 
503	 0.128442062914951 
504	 0.128620241463366 
505	 0.128834388949194 
506	 0.129109589417015 
507	 0.129252011503114 
508	 0.129322069180816 
509	 0.129399434771816 
510	 0.129466205998783 
511	 0.12953534946965 
512	 0.129611784868436 
513	 0.129709717382545 
514	 0.129975956988345 
515	 0.130233691368767 
516	 0.130380818143893 
517	 0.130487130200042 
518	 0.130750004340357 
519	 0.130958331678991 
520	 0.130895253788398 
521	 0.131065162095311 
522	 0.131294252836069 
523	 0.131472492142293 
524	 0.131598970982346 
525	 0.131687825467468 
526	 0.131758176770842 
527	 0.131839616779554 
528	 0.131995329497587 
529	 0.13214715909019 
530	 0.132279444435173 
531	 0.132421108146031 
532	 0.13259365334825 
533	 0.132817195822961 
534	 0.133043791678035 
535	 0.133068402137023 
536	 0.133146954158268 
537	 0.133313590527196 
538	 0.133509163306196 
539	 0.133705062722426 
540	 0.133842282675494 
541	 0.13393506460559 
542	 0.13409413139622 
543	 0.134182107397473 
544	 0.134352992468289 
545	 0.134721453142004 
546	 0.134938879295062 
547	 0.135111877511049 
548	 0.135285808038836 
549	 0.135445202321814 
550	 0.135621033218397 
551	 0.135858382422086 
552	 0.136153734497223 
553	 0.13637820596785 
554	 0.136591212569704 
555	 0.136830338119915 
556	 0.137118474879572 
557	 0.137436253229744 
558	 0.13776382349557 
559	 0.138096261289414 
560	 0.138457349764473 
561	 0.13878379277152 
562	 0.139124108841323 
563	 0.13954043514103 
564	 0.139943983795682 
565	 0.140328059195047 
566	 0.140674661463276 
567	 0.14095056645122 
568	 0.14134630766427 
569	 0.141871036072186 
570	 0.142477279006523 
571	 0.143126957420271 
572	 0.143666831291126 
573	 0.144143566277817 
574	 0.144734843338022 
575	 0.145300806454188 
576	 0.145945809485446 
577	 0.14670920816843 
578	 0.147421853259506 
579	 0.148067484130066 
580	 0.148604037341696 
581	 0.149024265591309 
582	 0.149544992643944 
583	 0.150137759700394 
584	 0.150807426923722 
585	 0.151644829134569 
586	 0.152604008259468 
587	 0.153589543860864 
588	 0.154523870517764 
589	 0.155483555921847 
590	 0.156449127443585 
591	 0.157369691615008 
592	 0.158178338610417 
593	 0.158962763977875 
594	 0.159668072636158 
595	 0.160254910783289 
596	 0.160792747728259 
597	 0.16130817439778 
598	 0.161801656647739 
599	 0.162278310744631 
600	 0.162910305353701 
601	 0.163653467471318 
602	 0.164430133982544 
603	 0.16515728254626 
604	 0.165875702526066 
605	 0.166608539769644 
606	 0.167361646748802 
607	 0.168070308199062 
608	 0.168756144551108 
609	 0.169453686697249 
610	 0.170203335079254 
611	 0.170731325755359 
612	 0.171143544720009 
613	 0.17158228831786 
614	 0.17196707423068 
615	 0.17233331534907 
616	 0.172720561279981 
617	 0.173160157130977 
618	 0.173590319908533 
619	 0.173952904398147 
620	 0.174249775203714 
621	 0.174600395188603 
622	 0.174987348586962 
623	 0.175325707654538 
624	 0.17553646008568 
625	 0.175796520335052 
626	 0.176079441115304 
627	 0.17636153026203 
628	 0.176644974782497 
629	 0.176947014632692 
630	 0.17722539763475 
631	 0.177454611465682 
632	 0.177736057169652 
633	 0.178002480873145 
634	 0.178239961181048 
635	 0.178480119510883 
636	 0.178703413701727 
637	 0.178928592524624 
638	 0.179162186991138 
639	 0.179354366886504 
640	 0.17965119242384 
641	 0.179970778704865 
642	 0.180159634582571 
643	 0.180422136160379 
644	 0.180683257534259 
645	 0.180903325745055 
646	 0.181129982204796 
647	 0.181396392286337 
648	 0.181681610102209 
649	 0.181953864870408 
650	 0.182221226240373 
651	 0.182469338926329 
652	 0.18271715749976 
653	 0.183007060068158 
654	 0.183245612940649 
655	 0.183504050239402 
656	 0.183826993605756 
657	 0.184113960769418 
658	 0.184430275867189 
659	 0.184744907471953 
660	 0.184998867989291 
661	 0.185278084511349 
662	 0.185620797372031 
663	 0.186000946079907 
664	 0.18630671310706 
665	 0.186684067267941 
666	 0.187028353321619 
667	 0.187241378829642 
668	 0.187541120809571 
669	 0.187942664133386 
670	 0.188375367307422 
671	 0.188711715568491 
672	 0.189053144241964 
673	 0.189418992031806 
674	 0.189811152214522 
675	 0.190231446649981 
676	 0.190614354016015 
677	 0.190980092650547 
678	 0.191376836212182 
679	 0.191734385474663 
680	 0.19215692400671 
681	 0.192650936493804 
682	 0.193079668823019 
683	 0.193514471383207 
684	 0.193976250435058 
685	 0.194459412579275 
686	 0.194914247349155 
687	 0.195333149852096 
688	 0.195769244157618 
689	 0.196296439560264 
690	 0.196694238629793 
691	 0.197120627988809 
692	 0.197661431217328 
693	 0.198151549645976 
694	 0.198625013818702 
695	 0.199123015678298 
696	 0.199662733104826 
697	 0.200082572590152 
698	 0.20054324335257 
699	 0.201088480609731 
700	 0.201619568549098 
701	 0.202139257368045 
702	 0.202647358869535 
703	 0.203141885637613 
704	 0.203606320303169 
705	 0.204077496286127 
706	 0.204585711658401 
707	 0.205141895824694 
708	 0.205652691116438 
709	 0.206156701788542 
710	 0.206676000127059 
711	 0.207190410057895 
712	 0.207650837350703 
713	 0.208077756336081 
714	 0.208528400971592 
715	 0.20912695818059 
716	 0.209599857954599 
717	 0.209963878675286 
718	 0.210442250383816 
719	 0.210945215452351 
720	 0.21141993185501 
721	 0.211837894992181 
722	 0.212204014595356 
723	 0.212622954602438 
724	 0.213028099907381 
725	 0.213339187035279 
726	 0.21373624852545 
727	 0.214105929199476 
728	 0.214427378507961 
729	 0.214775415856214 
730	 0.215123295648286 
731	 0.215418363030609 
732	 0.215652784774773 
733	 0.215936311512465 
734	 0.216208938147618 
735	 0.216435914829548 
736	 0.216608546454226 
737	 0.216815726395196 
738	 0.217010471994512 
739	 0.217167720014788 
740	 0.217298381281787 
741	 0.217418903510348 
742	 0.217517080695505 
743	 0.217591961193887 
744	 0.217695931993126 
745	 0.217754814085497 
746	 0.217785454052169 
747	 0.217834260212051 
748	 0.217819501179834 
749	 0.217778681194227 
750	 0.217750963911479 
751	 0.217761917977485 
752	 0.217706140851584 
753	 0.217572775517927 
754	 0.217409644001952 
755	 0.217364267680359 
756	 0.217285181750753 
757	 0.217127279289 
758	 0.216918581892868 
759	 0.216760070435821 
760	 0.216625538106346 
761	 0.216462443562861 
762	 0.216206276267492 
763	 0.215991955533259 
764	 0.21580343182428 
765	 0.215599694273331 
766	 0.215376189506445 
767	 0.215196416185195 
768	 0.214996753242498 
769	 0.214681388377592 
770	 0.214423036296431 
771	 0.21416300527296 
772	 0.213875885859095 
773	 0.21360054855224 
774	 0.213303531253259 
775	 0.213043041785859 
776	 0.212828631752756 
777	 0.212475781469646 
778	 0.212170353605841 
779	 0.211911740858372 
780	 0.211617483092118 
781	 0.211275601801601 
782	 0.211011932791382 
783	 0.210803053271085 
784	 0.210469317538988 
785	 0.210180283981073 
786	 0.209918516476807 
787	 0.209639393466076 
788	 0.209315734681205 
789	 0.209037276292097 
790	 0.208771497060729 
791	 0.208464472734314 
792	 0.208222381158995 
793	 0.207945252747877 
794	 0.207623679802698 
795	 0.207330979317491 
796	 0.207016381033224 
797	 0.206740915269607 
798	 0.206518339344482 
799	 0.20624763294327 
800	 0.205998006434908 
801	 0.205777852905766 
802	 0.20556057692703 
803	 0.205260470959105 
804	 0.204963438251204 
805	 0.204714461475142 
806	 0.204515301281536 
807	 0.204282317358728 
808	 0.204010479791036 
809	 0.203731997783674 
810	 0.203510205581314 
811	 0.203314205816921 
812	 0.203071437110731 
813	 0.202779782280882 
814	 0.202653022193113 
815	 0.202520330854702 
816	 0.202332594076055 
817	 0.202102790469681 
818	 0.201874519000641 
819	 0.201675029144888 
820	 0.201488787378318 
821	 0.201274445150981 
822	 0.201134811121682 
823	 0.200957228047088 
824	 0.200727064535604 
825	 0.200639756014354 
826	 0.200529218647837 
827	 0.200350470637898 
828	 0.200130548687186 
829	 0.200010737693441 
830	 0.199860279601011 
831	 0.199694240837719 
832	 0.199584132256081 
833	 0.199469894476818 
834	 0.19936089757133 
835	 0.199245513687323 
836	 0.199098348875496 
837	 0.199037749253219 
838	 0.198985503121822 
839	 0.198876354775485 
840	 0.19872323948891 
841	 0.198619538891617 
842	 0.198529504805936 
843	 0.198424267012643 
844	 0.198434615100841 
845	 0.198366506563096 
846	 0.19824245786164 
847	 0.198178831278329 
848	 0.198172088169279 
849	 0.198150589234037 
850	 0.198078390755979 
851	 0.197965118471641 
852	 0.197885055948099 
853	 0.197858952183722 
854	 0.197875199229494 
855	 0.197891081363302 
856	 0.197881309190341 
857	 0.197870880196875 
858	 0.19788008439774 
859	 0.197882717796201 
860	 0.19787681909724 
861	 0.197868953215946 
862	 0.197868983112194 
863	 0.197887079192897 
864	 0.197851721632743 
865	 0.197836934261479 
866	 0.197962319271999 
867	 0.197992279270093 
868	 0.198020207289523 
869	 0.198071065536395 
870	 0.198079309377211 
871	 0.198149163705929 
872	 0.198247034940617 
873	 0.198335172537044 
874	 0.198408539340226 
875	 0.198530528582372 
876	 0.198610352480547 
877	 0.198608798982326 
878	 0.198715383346294 
879	 0.198899696741556 
880	 0.199030229325975 
881	 0.1990222384288 
882	 0.199134700984536 
883	 0.19929519632751 
884	 0.199437871330787 
885	 0.199527966849475 
886	 0.199669247578779 
887	 0.199835551589215 
888	 0.199998507353454 
889	 0.200140465312365 
890	 0.200284692146569 
891	 0.200400813401044 
892	 0.200516477939133 
893	 0.200729711093383 
894	 0.200967494317117 
895	 0.201149298154511 
896	 0.201272431924519 
897	 0.201468547670867 
898	 0.20177196577337 
899	 0.20205411959272 
900	 0.202220766456266 
901	 0.202388091741276 
902	 0.202552386537875 
903	 0.202777641215213 
904	 0.203085032581103 
905	 0.203269475749886 
906	 0.203531544040348 
907	 0.203840860922796 
908	 0.204089554574242 
909	 0.204408525661027 
910	 0.20474037978237 
911	 0.205009520172301 
912	 0.205168190305642 
913	 0.2053592914296 
914	 0.205667801317236 
915	 0.206015979199353 
916	 0.206232993455016 
917	 0.206628601181924 
918	 0.207007265892747 
919	 0.207275845567654 
920	 0.207539598824373 
921	 0.207907611195629 
922	 0.208309952791659 
923	 0.208673134552387 
924	 0.208978848827644 
925	 0.209329705630394 
926	 0.209721799838004 
927	 0.21010094254951 
928	 0.210371853312251 
929	 0.210804831629837 
930	 0.211278860721072 
931	 0.2116560210605 
932	 0.212006430177729 
933	 0.212400844529195 
934	 0.212866887251872 
935	 0.213389458955255 
936	 0.213903538689418 
937	 0.214282983614995 
938	 0.214639447572138 
939	 0.215120634477042 
940	 0.215697729585927 
941	 0.216149855654687 
942	 0.21658620462291 
943	 0.217148551949336 
944	 0.217527921086458 
945	 0.217945869298139 
946	 0.218481300299979 
947	 0.219094861048579 
948	 0.21960547909613 
949	 0.220072332569055 
950	 0.22054946140452 
951	 0.221079121462262 
952	 0.221682312776883 
953	 0.222246233193071 
954	 0.222756344850698 
955	 0.223271240171369 
956	 0.223864019291809 
957	 0.224473866044898 
958	 0.225057048459818 
959	 0.225584530871787 
960	 0.225978065330285 
961	 0.226591420457403 
962	 0.22735882024668 
963	 0.227969496361759 
964	 0.22854169602557 
965	 0.229156330151194 
966	 0.229780695952618 
967	 0.230338753263981 
968	 0.230979863920251 
969	 0.231649868073132 
970	 0.232308126988247 
971	 0.232949613528949 
972	 0.233669696487541 
973	 0.234347150818515 
974	 0.234984304404794 
975	 0.235662930654154 
976	 0.23633654424856 
977	 0.237029667304007 
978	 0.237679640127604 
979	 0.238231443168416 
980	 0.238986133777901 
981	 0.239832549217589 
982	 0.240619577326529 
983	 0.241233698024815 
984	 0.241757461044125 
985	 0.24230407099743 
986	 0.242999777464867 
987	 0.243882002943589 
988	 0.244629753716838 
989	 0.245273469716435 
990	 0.245881205637828 
991	 0.246532708524015 
992	 0.247270822871903 
993	 0.248088041184877 
994	 0.248824456775633 
995	 0.249363951767473 
996	 0.250003460426867 
997	 0.250803582369391 
998	 0.251583352414117 
999	 0.252191133317109 
1000	 0.252933509469306 
1001	 0.251168780336679 
1002	 0.251826524653769 
1003	 0.252453919535198 
1004	 0.253094696444011 
1005	 0.253746639772236 
1006	 0.25435119234445 
1007	 0.254937859143051 
1008	 0.255539997357145 
1009	 0.256096549027678 
1010	 0.256644003458535 
1011	 0.257272592414016 
1012	 0.257909360901489 
1013	 0.258522142592864 
1014	 0.259124607278539 
1015	 0.259696314388163 
1016	 0.26023725146283 
1017	 0.260784446727657 
1018	 0.26132974114807 
1019	 0.261864244428223 
1020	 0.262371211450812 
1021	 0.262882327248376 
1022	 0.2633821356956 
1023	 0.263867994228907 
1024	 0.264337085064973 
1025	 0.264830346884793 
1026	 0.265381808758966 
1027	 0.265882469445725 
1028	 0.266377827103569 
1029	 0.266935361399688 
1030	 0.267409911965402 
1031	 0.267877824317359 
1032	 0.268332701600918 
1033	 0.268852483887548 
1034	 0.269304688287794 
1035	 0.269747030321624 
1036	 0.270251724693156 
1037	 0.270731128440368 
1038	 0.27117500077034 
1039	 0.271639596215767 
1040	 0.272097225150807 
1041	 0.272550719220416 
1042	 0.273044502702587 
1043	 0.273519172010678 
1044	 0.273984657601528 
1045	 0.274444135241586 
1046	 0.274924243866586 
1047	 0.275352951007296 
1048	 0.275781375006587 
1049	 0.27625717709917 
1050	 0.276696873644509 
1051	 0.277178650793203 
1052	 0.277703149246708 
1053	 0.278157238119999 
1054	 0.278602810080576 
1055	 0.279071823333239 
1056	 0.279558077086135 
1057	 0.280029301569736 
1058	 0.280532059948462 
1059	 0.281004332721916 
1060	 0.281451734022572 
1061	 0.281876628917015 
1062	 0.282334997520955 
1063	 0.282784980269273 
1064	 0.283219259544019 
1065	 0.283648536706778 
1066	 0.284029066686017 
1067	 0.284442023690458 
1068	 0.284853525344937 
1069	 0.285220102756237 
1070	 0.285632472738221 
1071	 0.286090539032503 
1072	 0.286493208586661 
1073	 0.286896453013142 
1074	 0.28729599232486 
1075	 0.287671136115306 
1076	 0.288002340950086 
1077	 0.288401907402964 
1078	 0.288767988084904 
1079	 0.289100265895358 
1080	 0.289475259496265 
1081	 0.28978326760989 
1082	 0.290092869632085 
1083	 0.290445967274721 
1084	 0.290809815626068 
1085	 0.291170692748942 
1086	 0.291583394054836 
1087	 0.291950532385751 
1088	 0.292284966917485 
1089	 0.292640294521015 
1090	 0.292974581353475 
1091	 0.293281163896181 
1092	 0.293616344090445 
1093	 0.293920184635348 
1094	 0.294229187757073 
1095	 0.294590536217518 
1096	 0.294956208248767 
1097	 0.29531792831847 
1098	 0.295652597573966 
1099	 0.295969633244803 
1100	 0.296299840498313 
1101	 0.296617621882561 
1102	 0.296937537835641 
1103	 0.297282571389726 
1104	 0.297593673674631 
1105	 0.297898277270454 
1106	 0.298193845124383 
1107	 0.298524569062236 
1108	 0.298890124381826 
1109	 0.299222232510532 
1110	 0.299573916895273 
1111	 0.299907559025342 
1112	 0.300230282843092 
1113	 0.300534335416855 
1114	 0.30081593588255 
1115	 0.301117472301463 
1116	 0.301397786160577 
1117	 0.301699433003285 
1118	 0.302010391282707 
1119	 0.302366390694047 
1120	 0.30270322107326 
1121	 0.303043579424486 
1122	 0.303380867594484 
1123	 0.303695959019062 
1124	 0.304030521638834 
1125	 0.304372834376981 
1126	 0.304687017565335 
1127	 0.304992588693138 
1128	 0.305306700344576 
1129	 0.30560069105217 
1130	 0.305897910686101 
1131	 0.306215214277313 
1132	 0.306527088469768 
1133	 0.306813788366469 
1134	 0.307118505838445 
1135	 0.30744393847195 
1136	 0.307758690043538 
1137	 0.308074290537081 
1138	 0.308386558475528 
1139	 0.308690481361237 
1140	 0.308989431708713 
1141	 0.309288561304538 
1142	 0.309589432716127 
1143	 0.309867763792149 
1144	 0.310130070982257 
1145	 0.310400045445583 
1146	 0.310666710898649 
1147	 0.310920294069392 
1148	 0.311163608956868 
1149	 0.311420706747181 
1150	 0.311663969318478 
1151	 0.311921508170245 
1152	 0.312201636838885 
1153	 0.312455568121097 
1154	 0.312716739905009 
1155	 0.312964881846115 
1156	 0.313229771361639 
1157	 0.313514305332345 
1158	 0.313779087350786 
1159	 0.314048234168764 
1160	 0.31429535255993 
1161	 0.314505049502425 
1162	 0.314747198817001 
1163	 0.315003940697362 
1164	 0.315250944830225 
1165	 0.315504681437623 
1166	 0.315764015248879 
1167	 0.316018438395769 
1168	 0.316248178363663 
1169	 0.316491052914289 
1170	 0.316753298037407 
1171	 0.316977225896923 
1172	 0.317183484274949 
1173	 0.317388951567683 
1174	 0.317564404175636 
1175	 0.31776712642743 
1176	 0.317981954184679 
1177	 0.31819157171442 
1178	 0.318409400618376 
1179	 0.318623915604656 
1180	 0.318831857145751 
1181	 0.319043169288162 
1182	 0.319250592040196 
1183	 0.31947860304443 
1184	 0.319687035668411 
1185	 0.319891167474324 
1186	 0.320097387417803 
1187	 0.320304439702503 
1188	 0.320494773065988 
1189	 0.320668964055957 
1190	 0.320866224683186 
1191	 0.321068882833527 
1192	 0.321258780520169 
1193	 0.321465838411771 
1194	 0.321655792499371 
1195	 0.321812554189896 
1196	 0.321986178067312 
1197	 0.322172704885433 
1198	 0.322351643311797 
1199	 0.322528796001358 
1200	 0.322703731383357 
1201	 0.322882828217906 
1202	 0.323064537052765 
1203	 0.323235661017645 
1204	 0.323406441010863 
1205	 0.32357401829407 
1206	 0.323725826610474 
1207	 0.323892158539501 
1208	 0.324071324434895 
1209	 0.324239640184316 
1210	 0.324416545885802 
1211	 0.324575281515563 
1212	 0.324714653425699 
1213	 0.3248609884544 
1214	 0.325001438333483 
1215	 0.325140774000956 
1216	 0.325280137387675 
1217	 0.325423700626674 
1218	 0.325563338506709 
1219	 0.325696737675998 
1220	 0.325835871429309 
1221	 0.325982098587642 
1222	 0.326118492249203 
1223	 0.326250847567574 
1224	 0.326384645864687 
1225	 0.326511890488969 
1226	 0.326644303124324 
1227	 0.326794748009795 
1228	 0.32691951012313 
1229	 0.327025678113884 
1230	 0.327140430221681 
1231	 0.327240947366947 
1232	 0.32734676236496 
1233	 0.327456961200845 
1234	 0.327579308556347 
1235	 0.327693599380488 
1236	 0.327809551690406 
1237	 0.327913430398598 
1238	 0.328006667355014 
1239	 0.32811509750351 
1240	 0.328219322532116 
1241	 0.328328588629033 
1242	 0.328462636142402 
1243	 0.328573037538546 
1244	 0.328670797906282 
1245	 0.328765964409708 
1246	 0.328848954893662 
1247	 0.328935224241352 
1248	 0.329010694211405 
1249	 0.329096792100544 
1250	 0.329202834230137 
1251	 0.329310058436398 
1252	 0.329418689306864 
1253	 0.329554858237925 
1254	 0.329646069006656 
1255	 0.329717319601619 
1256	 0.329783162028813 
1257	 0.329814208933515 
1258	 0.329874430231871 
1259	 0.3299391818002 
1260	 0.330010817408821 
1261	 0.330100089476798 
1262	 0.330177454386875 
1263	 0.330260798806855 
1264	 0.330333379852996 
1265	 0.330382459084472 
1266	 0.330453740201863 
1267	 0.330547217662889 
1268	 0.330607298005802 
1269	 0.330686603511495 
1270	 0.330776582355338 
1271	 0.330873834437147 
1272	 0.330970207398125 
1273	 0.331076536720724 
1274	 0.331206741490451 
1275	 0.331316864113769 
1276	 0.331402479237907 
1277	 0.331525544556028 
1278	 0.331658845652706 
1279	 0.331802574197132 
1280	 0.331990190911873 
1281	 0.332146638864247 
1282	 0.332290898714623 
1283	 0.332434995136136 
1284	 0.332576147750179 
1285	 0.332698061381502 
1286	 0.332830585652724 
1287	 0.332966139766705 
1288	 0.333101713703629 
1289	 0.3332474179307 
1290	 0.333364778220325 
1291	 0.333470547838704 
1292	 0.333576795897111 
1293	 0.333669324461181 
1294	 0.333755153831583 
1295	 0.333845777367509 
1296	 0.333919114810127 
1297	 0.3339713083284 
1298	 0.334022182935005 
1299	 0.334072278157646 
1300	 0.334108037214228 
1301	 0.334127982848542 
1302	 0.334146676467339 
1303	 0.334159974046504 
1304	 0.334161115586238 
1305	 0.334164438633495 
1306	 0.334162396325618 
1307	 0.334129734550526 
1308	 0.334109571459622 
1309	 0.334090221400254 
1310	 0.334066033182413 
1311	 0.334031790667443 
1312	 0.334008937564336 
1313	 0.333964527937742 
1314	 0.333894738001847 
1315	 0.333838661020748 
1316	 0.333777161065501 
1317	 0.333722674076487 
1318	 0.333666579406747 
1319	 0.333622196935892 
1320	 0.333585901823168 
1321	 0.333556007740793 
1322	 0.333541892028634 
1323	 0.333518047206913 
1324	 0.333503027526011 
1325	 0.333466890104773 
1326	 0.333414296325961 
1327	 0.333374255485651 
1328	 0.333321880317067 
1329	 0.333262935850717 
1330	 0.333196834164821 
1331	 0.333119366924544 
1332	 0.333048491197203 
1333	 0.332977327966622 
1334	 0.332901318361418 
1335	 0.332813539799733 
1336	 0.332752916937 
1337	 0.332696807116656 
1338	 0.332645257207896 
1339	 0.332633200594056 
1340	 0.332584276354876 
1341	 0.332506091431468 
1342	 0.332444377328189 
1343	 0.332365421674855 
1344	 0.33231046893001 
1345	 0.332288058183007 
1346	 0.33225515879558 
1347	 0.332215324638642 
1348	 0.332160537899775 
1349	 0.332086609201441 
1350	 0.331999207627203 
1351	 0.331928756843355 
1352	 0.331869428475397 
1353	 0.331802212352915 
1354	 0.331741813650712 
1355	 0.331665496065914 
1356	 0.331576068985948 
1357	 0.33148881252455 
1358	 0.33137969534832 
1359	 0.331302098423803 
1360	 0.331239237942443 
1361	 0.331176368024363 
1362	 0.331136605766705 
1363	 0.331087460561433 
1364	 0.331036729138963 
1365	 0.330985064746989 
1366	 0.330934517756084 
1367	 0.33087325081416 
1368	 0.330830194968034 
1369	 0.330771703827358 
1370	 0.330695993227323 
1371	 0.330620782679501 
1372	 0.330523841006896 
1373	 0.330403736385465 
1374	 0.330281512443384 
1375	 0.330169263608693 
1376	 0.330002394073924 
1377	 0.329819813926071 
1378	 0.329589333750122 
1379	 0.329286705980657 
1380	 0.32902279199288 
1381	 0.328761606824617 
1382	 0.328463071453538 
1383	 0.328184337152169 
1384	 0.327841049999148 
1385	 0.327449780979189 
1386	 0.327024722541328 
1387	 0.326564907450038 
1388	 0.326078381041241 
1389	 0.325561020506553 
1390	 0.324999792588882 
1391	 0.324420179299304 
1392	 0.323787883830292 
1393	 0.323094010371589 
1394	 0.322377169694377 
1395	 0.32161119011577 
1396	 0.32083361020253 
1397	 0.320072276522434 
1398	 0.319299134169725 
1399	 0.318539581281906 
1400	 0.31778943758317 
1401	 0.317046462206161 
1402	 0.316289414623526 
1403	 0.31557975901259 
1404	 0.314881580952345 
1405	 0.314232232767218 
1406	 0.313619187205955 
1407	 0.31303890893048 
1408	 0.312481266071823 
1409	 0.311981229009201 
1410	 0.311491806223048 
1411	 0.311104170868824 
1412	 0.310778891081558 
1413	 0.310527874853432 
1414	 0.310395881070704 
1415	 0.31033157407047 
1416	 0.310335239022711 
1417	 0.310399992306936 
1418	 0.310473282900462 
1419	 0.310556545353165 
1420	 0.310661157615158 
1421	 0.310745242344582 
1422	 0.310811664404913 
1423	 0.310871522205716 
1424	 0.310895188740836 
1425	 0.310877232904821 
1426	 0.31087808052614 
1427	 0.310855807285105 
1428	 0.310849072893121 
1429	 0.310857379296239 
1430	 0.310846513203556 
1431	 0.310838011745769 
1432	 0.31081168009727 
1433	 0.310756080916596 
1434	 0.310725729960052 
1435	 0.310682822273997 
1436	 0.310667383665594 
1437	 0.310680578240257 
1438	 0.310690440207908 
1439	 0.310713177092101 
1440	 0.310738904694045 
1441	 0.310747920299003 
1442	 0.310750925160102 
1443	 0.310744950318761 
1444	 0.310742608844962 
1445	 0.310759181893235 
1446	 0.310787468464458 
1447	 0.310827129940223 
1448	 0.310851047789731 
1449	 0.310859584148262 
1450	 0.310862443437956 
1451	 0.310877573221672 
1452	 0.310887756255997 
1453	 0.310916562158219 
1454	 0.310965593179302 
1455	 0.311002646946916 
1456	 0.311043744041951 
1457	 0.311073735605479 
1458	 0.311087280871602 
1459	 0.311122561866303 
1460	 0.311154171939666 
1461	 0.311208936630736 
1462	 0.311284806971615 
1463	 0.311369127194407 
1464	 0.311472331476862 
1465	 0.311569655567658 
1466	 0.311664093287803 
1467	 0.311781076300479 
1468	 0.311894413018252 
1469	 0.312037800143817 
1470	 0.312218535428874 
1471	 0.312391167637143 
1472	 0.312587053333396 
1473	 0.312809300698129 
1474	 0.313004644145028 
1475	 0.313225807109443 
1476	 0.313437530445642 
1477	 0.31362699582545 
1478	 0.313838832287478 
1479	 0.314048382769531 
1480	 0.314273690715822 
1481	 0.314504929566601 
1482	 0.314722718410988 
1483	 0.314947263809061 
1484	 0.315156427538883 
1485	 0.315339259115506 
1486	 0.315543633958538 
1487	 0.315744250631523 
1488	 0.315965801392949 
1489	 0.316213508924744 
1490	 0.316442860772031 
1491	 0.316688050323233 
1492	 0.316903153783622 
1493	 0.31709078602926 
1494	 0.317290008699963 
1495	 0.317472898320399 
1496	 0.317669360098608 
1497	 0.31788014290541 
1498	 0.318080394114301 
1499	 0.318298150977821 
1500	 0.31848455881918 
1501	 0.318639035753627 
1502	 0.318805760959048 
1503	 0.318959223184044 
1504	 0.319110653871477 
1505	 0.319291683887983 
1506	 0.319485073334545 
1507	 0.319652957330561 
1508	 0.319823540080973 
1509	 0.31999294972694 
1510	 0.320142742629887 
1511	 0.320288370711966 
1512	 0.320436341165468 
1513	 0.320578473508214 
1514	 0.320722815539068 
1515	 0.320878487483572 
1516	 0.321041297687681 
1517	 0.32119643761798 
1518	 0.321346068596432 
1519	 0.321494795888015 
1520	 0.321640484083332 
1521	 0.321796977004089 
1522	 0.32196196793602 
1523	 0.322110969434276 
1524	 0.322260524324218 
1525	 0.322403592626552 
1526	 0.3225226007329 
1527	 0.322665241378273 
1528	 0.322835785838455 
1529	 0.322971892396717 
1530	 0.323094951827754 
1531	 0.323223595859053 
1532	 0.323333983743547 
1533	 0.323448273138664 
1534	 0.323579709111424 
1535	 0.32369204100949 
1536	 0.323776719805225 
1537	 0.323885031379263 
1538	 0.323999515529559 
1539	 0.324108904682182 
1540	 0.324227918771101 
1541	 0.324347561716726 
1542	 0.324467254770826 
1543	 0.324581041908644 
1544	 0.324707811131255 
1545	 0.324811120060943 
1546	 0.32489616569337 
1547	 0.324973907838712 
1548	 0.325037576836278 
1549	 0.325092170247422 
1550	 0.325151934906222 
1551	 0.32521630961602 
1552	 0.325310273300541 
1553	 0.325417296603354 
1554	 0.32552852296868 
1555	 0.325644558650509 
1556	 0.325718142560005 
1557	 0.325785848594492 
1558	 0.325868213944211 
1559	 0.325926676744991 
1560	 0.325997642881076 
1561	 0.326080931680738 
1562	 0.32616175856798 
1563	 0.326234684699022 
1564	 0.326318983009797 
1565	 0.326420894032736 
1566	 0.326502566835214 
1567	 0.32657846088245 
1568	 0.326651266274745 
1569	 0.326708613553139 
1570	 0.326783117411929 
1571	 0.326871779608069 
1572	 0.326936016731114 
1573	 0.327001499328542 
1574	 0.327055148697345 
1575	 0.327089412723608 
1576	 0.3271193171195 
1577	 0.327139843553387 
1578	 0.327168973695678 
1579	 0.327169818192063 
1580	 0.327216735995838 
1581	 0.32729444797937 
1582	 0.327370961224185 
1583	 0.327490075102948 
1584	 0.327568871791151 
1585	 0.327637673740113 
1586	 0.327693349533919 
1587	 0.327714727306224 
1588	 0.327754398287796 
1589	 0.327800928556878 
1590	 0.327835280363344 
1591	 0.327857885385229 
1592	 0.327897396160796 
1593	 0.327928224243308 
1594	 0.32797708330752 
1595	 0.328058650326719 
1596	 0.328124982821052 
1597	 0.328201087113643 
1598	 0.32825598200659 
1599	 0.328301753164259 
1600	 0.328333268609037 
1601	 0.328333970299511 
1602	 0.328351297596906 
1603	 0.328352858647638 
1604	 0.328379041337212 
1605	 0.328425948207339 
1606	 0.328475894201055 
1607	 0.328544423960736 
1608	 0.328614471309158 
1609	 0.328679228243685 
1610	 0.328729550419734 
1611	 0.328744738022222 
1612	 0.328757909116708 
1613	 0.328759250154194 
1614	 0.328756253204711 
1615	 0.32877122190939 
1616	 0.328788099211227 
1617	 0.328815189732054 
1618	 0.328856976030734 
1619	 0.328903944876488 
1620	 0.328943151608867 
1621	 0.328981578549411 
1622	 0.329020918846505 
1623	 0.329046109679324 
1624	 0.329062708988668 
1625	 0.32908366571671 
1626	 0.329091459386817 
1627	 0.329113190918487 
1628	 0.329142719927187 
1629	 0.329179524302752 
1630	 0.329225057565678 
1631	 0.329265019792292 
1632	 0.329308065206885 
1633	 0.329353062769503 
1634	 0.329398867076806 
1635	 0.329433827996987 
1636	 0.329478277907322 
1637	 0.329498140647662 
1638	 0.329487951771956 
1639	 0.329505617051392 
1640	 0.329516455422278 
1641	 0.329551065111757 
1642	 0.329615907549754 
1643	 0.329655442499998 
1644	 0.329703053076493 
1645	 0.329727567450037 
1646	 0.329722807071507 
1647	 0.329742903576368 
1648	 0.329772371690841 
1649	 0.329781699168685 
1650	 0.329785116186977 
1651	 0.329801473903562 
1652	 0.329804008552978 
1653	 0.329819734849584 
1654	 0.329864767221324 
1655	 0.329885135499855 
1656	 0.329892613859681 
1657	 0.329898740000418 
1658	 0.329899391123129 
1659	 0.329900414428505 
1660	 0.329896810712498 
1661	 0.329890778074269 
1662	 0.32987420860752 
1663	 0.329880090483736 
1664	 0.329897449153406 
1665	 0.329904608969781 
1666	 0.329925835714036 
1667	 0.329935214588387 
1668	 0.329928390401414 
1669	 0.329926542290943 
1670	 0.329928193343607 
1671	 0.329928774582332 
1672	 0.329922981377173 
1673	 0.329921152969063 
1674	 0.329917694770496 
1675	 0.329928478163017 
1676	 0.329948889606983 
1677	 0.329963186765425 
1678	 0.329986589556345 
1679	 0.330005377645659 
1680	 0.330010763982148 
1681	 0.330031379398408 
1682	 0.330062163367913 
1683	 0.330094924092282 
1684	 0.330130706536114 
1685	 0.330173339197843 
1686	 0.330242751519894 
1687	 0.330268194875716 
1688	 0.330278015686039 
1689	 0.330281194423271 
1690	 0.330241163643643 
1691	 0.330238177778842 
1692	 0.330247594884285 
1693	 0.330266180117734 
1694	 0.330304812292935 
1695	 0.330328040585219 
1696	 0.330354786842296 
1697	 0.330380212249298 
1698	 0.33040765762923 
1699	 0.33041529068651 
1700	 0.330424221860144 
1701	 0.330407142471406 
1702	 0.330346814954038 
1703	 0.330322406124028 
1704	 0.33030527740924 
1705	 0.33028057497337 
1706	 0.330268233062627 
1707	 0.330249312734972 
1708	 0.330213363520233 
1709	 0.330192742915913 
1710	 0.330187325322677 
1711	 0.330173415739278 
1712	 0.33015232026649 
1713	 0.330141949106782 
1714	 0.330135807842388 
1715	 0.330130497190865 
1716	 0.330141432893933 
1717	 0.330132197674522 
1718	 0.330107982325626 
1719	 0.330092644007224 
1720	 0.330062679479389 
1721	 0.330058554105516 
1722	 0.330090462171809 
1723	 0.330079228973646 
1724	 0.330062492321457 
1725	 0.330026984320936 
1726	 0.329952753303105 
1727	 0.329901755534577 
1728	 0.329858239915563 
1729	 0.329803339682823 
1730	 0.329744757554642 
1731	 0.329684269530878 
1732	 0.32961261045762 
1733	 0.32955732605979 
1734	 0.329515793160357 
1735	 0.329458979608484 
1736	 0.329410467171395 
1737	 0.329333667653123 
1738	 0.329226147507127 
1739	 0.329142231227125 
1740	 0.32904506763939 
1741	 0.328975707549056 
1742	 0.328936400630059 
1743	 0.328883731518313 
1744	 0.328841174384301 
1745	 0.328776139857087 
1746	 0.328699083380264 
1747	 0.328608580522759 
1748	 0.328532685872562 
1749	 0.328448613567888 
1750	 0.328362252324091 
1751	 0.328283475618525 
1752	 0.32817814764996 
1753	 0.328083277558966 
1754	 0.328000885678798 
1755	 0.327888051341687 
1756	 0.327789170226818 
1757	 0.327705164432445 
1758	 0.32760248646841 
1759	 0.327522503435635 
1760	 0.327477890848087 
1761	 0.327444882918359 
1762	 0.327413275749696 
1763	 0.327373318899504 
1764	 0.327298042481863 
1765	 0.32718665355843 
1766	 0.327088645387866 
1767	 0.326993968295642 
1768	 0.326908624313285 
1769	 0.326852867511506 
1770	 0.326794520119377 
1771	 0.326744949664966 
1772	 0.32671320972777 
1773	 0.326672476719544 
1774	 0.326611647975601 
1775	 0.32657103826809 
1776	 0.326523194541903 
1777	 0.326454424341441 
1778	 0.326410233463351 
1779	 0.326350770747386 
1780	 0.326300319806935 
1781	 0.326273209021317 
1782	 0.326246966129576 
1783	 0.326235666990507 
1784	 0.326221214482272 
1785	 0.326220065100769 
1786	 0.326198316949501 
1787	 0.326177015851587 
1788	 0.326136781876751 
1789	 0.326061950630616 
1790	 0.326016529660664 
1791	 0.325958069548809 
1792	 0.325919146026417 
1793	 0.325904459686671 
1794	 0.325910020298751 
1795	 0.325945453364903 
1796	 0.325967096524474 
1797	 0.326000720520675 
1798	 0.326015640713738 
1799	 0.326016276272743 
1800	 0.326018330184651 
1801	 0.325218020420234 
1802	 0.325406102730485 
1803	 0.325597968604835 
1804	 0.325801475162229 
1805	 0.326063185631313 
1806	 0.326298371216091 
1807	 0.326511347570381 
1808	 0.326699625167068 
1809	 0.326868102410736 
1810	 0.327016790961926 
1811	 0.327152917813124 
1812	 0.32726266475415 
1813	 0.327333906867765 
1814	 0.327358626015765 
1815	 0.327325548166526 
1816	 0.327301676305247 
1817	 0.327276314683211 
1818	 0.327225071163101 
1819	 0.327207349957329 
1820	 0.327214401275198 
1821	 0.327181514726369 
1822	 0.32719793088455 
1823	 0.327192007180267 
1824	 0.327132570725276 
1825	 0.327120355984312 
1826	 0.327107260522534 
1827	 0.327098045957614 
1828	 0.327079768064085 
1829	 0.327097297123943 
1830	 0.327058592389516 
1831	 0.326986653031184 
1832	 0.32689921593234 
1833	 0.326787995031325 
1834	 0.326691536859215 
1835	 0.326613455647164 
1836	 0.326538748366355 
1837	 0.326520719162071 
1838	 0.326511406125907 
1839	 0.326467236139347 
1840	 0.3264171914369 
1841	 0.326351578838169 
1842	 0.32625242332504 
1843	 0.326150590802662 
1844	 0.326065314659702 
1845	 0.326000662573897 
1846	 0.325945626103806 
1847	 0.325900404855904 
1848	 0.325855087743067 
1849	 0.325796995805234 
1850	 0.325740886247146 
1851	 0.32569375483579 
1852	 0.325622804073661 
1853	 0.32552340579414 
1854	 0.325410186120298 
1855	 0.325274046199559 
1856	 0.32511423290858 
1857	 0.32493136292324 
1858	 0.324727315945968 
1859	 0.324493639393217 
1860	 0.324211081488172 
1861	 0.323879407859003 
1862	 0.323521261427732 
1863	 0.323154948811612 
1864	 0.322739959654189 
1865	 0.322278436696286 
1866	 0.321792559028736 
1867	 0.321289879095391 
1868	 0.320716807101774 
1869	 0.320093111000346 
1870	 0.319462383727022 
1871	 0.318769738466446 
1872	 0.318012352318149 
1873	 0.317220840972404 
1874	 0.316392204730125 
1875	 0.315483572024782 
1876	 0.314517240109622 
1877	 0.313478923916737 
1878	 0.312361888190538 
1879	 0.311186323934282 
1880	 0.309894245971029 
1881	 0.308493010770657 
1882	 0.307001613783736 
1883	 0.305422952217446 
1884	 0.303708868760249 
1885	 0.301936552759027 
1886	 0.30010054850798 
1887	 0.29814002877974 
1888	 0.296097675293346 
1889	 0.29396038787847 
1890	 0.291759603682149 
1891	 0.28958258887535 
1892	 0.287354293451068 
1893	 0.285164538361912 
1894	 0.282977542215402 
1895	 0.280807777444554 
1896	 0.278633882210075 
1897	 0.27657183342373 
1898	 0.274569371873425 
1899	 0.272631254875626 
1900	 0.270828132901358 
1901	 0.269101583253887 
1902	 0.267477866780438 
1903	 0.265976109057271 
1904	 0.264559159768561 
1905	 0.263235683942117 
1906	 0.261995868790921 
1907	 0.260852834254962 
1908	 0.259792631872175 
1909	 0.258823194476234 
1910	 0.257925008829481 
1911	 0.257087897870403 
1912	 0.256306425602598 
1913	 0.255578998932749 
1914	 0.254899395227526 
1915	 0.254279904636706 
1916	 0.253731258183782 
1917	 0.253217643545949 
1918	 0.252747480013458 
1919	 0.252303874682992 
1920	 0.251896347109459 
1921	 0.251531789108485 
1922	 0.251217318447486 
1923	 0.250967312703361 
1924	 0.25075121401716 
1925	 0.250595267628063 
1926	 0.25046506521755 
1927	 0.250371943939784 
1928	 0.250295758798109 
1929	 0.250288823631784 
1930	 0.250317700185174 
1931	 0.250383291437208 
1932	 0.250504190710893 
1933	 0.250617426296786 
1934	 0.250748863852104 
1935	 0.250908111986069 
1936	 0.251072995289546 
1937	 0.251283380048436 
1938	 0.251545733086465 
1939	 0.2518045479912 
1940	 0.252080824160723 
1941	 0.252385608531695 
1942	 0.252699681883377 
1943	 0.253030943063587 
1944	 0.25336857371416 
1945	 0.253711115198939 
1946	 0.254077387411571 
1947	 0.254446256564965 
1948	 0.254838230752816 
1949	 0.25526720495671 
1950	 0.255694250763143 
1951	 0.256118944895647 
1952	 0.256571116089143 
1953	 0.25704024549835 
1954	 0.257520756949874 
1955	 0.258030533373326 
1956	 0.25853038664556 
1957	 0.259029726892712 
1958	 0.259530049520888 
1959	 0.260037405860135 
1960	 0.260541665559915 
1961	 0.261056504500928 
1962	 0.261586081583307 
1963	 0.262114131960491 
1964	 0.262638325985898 
1965	 0.263170970597225 
1966	 0.263722257548418 
1967	 0.264281310143112 
1968	 0.264851977638359 
1969	 0.265454198110631 
1970	 0.266025195264888 
1971	 0.266583726957642 
1972	 0.267154579951243 
1973	 0.267720455755346 
1974	 0.268290053430538 
1975	 0.268865101259607 
1976	 0.269456570801506 
1977	 0.270037066031029 
1978	 0.270586566843986 
1979	 0.271141827060066 
1980	 0.271688593897055 
1981	 0.272225280795504 
1982	 0.272731961488259 
1983	 0.273276034990008 
1984	 0.273824238379624 
1985	 0.27438346377789 
1986	 0.274970850615344 
1987	 0.275548113123944 
1988	 0.276123933772996 
1989	 0.276709676841161 
1990	 0.277291767058035 
1991	 0.27785822587595 
1992	 0.278410219484489 
1993	 0.278938482445588 
1994	 0.279487898527695 
1995	 0.280033539112233 
1996	 0.280576466750866 
1997	 0.281141569315706 
1998	 0.281680094627338 
1999	 0.282191718485039 
2000	 0.28271496820133 
2001	 0.28324985396036 
2002	 0.283749630853729 
2003	 0.28426682121308 
2004	 0.284785123992585 
2005	 0.285273949172654 
2006	 0.285742542879345 
2007	 0.286217325836228 
2008	 0.286655554402829 
2009	 0.287134997135683 
2010	 0.287642354807546 
2011	 0.288135403963545 
2012	 0.288655292945485 
2013	 0.289146223924673 
2014	 0.289610501021901 
2015	 0.290083890795584 
2016	 0.29056276472453 
2017	 0.291007730780824 
2018	 0.291459609822802 
2019	 0.291913533935676 
2020	 0.292359647361372 
2021	 0.292787783866644 
2022	 0.293230721889814 
2023	 0.293676372063288 
2024	 0.294120674338606 
2025	 0.294558869972555 
2026	 0.295014129639204 
2027	 0.295481618271006 
2028	 0.29595501145794 
2029	 0.296409364926633 
2030	 0.296882112166187 
2031	 0.297310510801708 
2032	 0.297698251128133 
2033	 0.298100728257452 
2034	 0.29849214736488 
2035	 0.298880499806931 
2036	 0.299289947376016 
2037	 0.299653100428462 
2038	 0.299976579165268 
2039	 0.300309325837873 
2040	 0.300613291639285 
2041	 0.300921370950233 
2042	 0.301247540791435 
2043	 0.301586297465321 
2044	 0.301907059715499 
2045	 0.302213840661494 
2046	 0.30253832562936 
2047	 0.302862205239812 
2048	 0.303193392710935 
2049	 0.303556629832383 
2050	 0.303882685885287 
2051	 0.304194490021307 
2052	 0.304497904176255 
2053	 0.304781255146092 
2054	 0.305061244870321 
2055	 0.305332995296264 
2056	 0.305603019706875 
2057	 0.305866830323541 
2058	 0.306113370063223 
2059	 0.30637525772788 
2060	 0.306650758477963 
2061	 0.306905311996125 
2062	 0.307140292015377 
2063	 0.307400915187019 
2064	 0.307656102096738 
2065	 0.30792471894698 
2066	 0.308239740071822 
2067	 0.308520384074575 
2068	 0.308793629833744 
2069	 0.309042592701302 
2070	 0.309300936836201 
2071	 0.309543429947406 
2072	 0.309794166607782 
2073	 0.310053562984297 
2074	 0.31030439453883 
2075	 0.31055488012476 
2076	 0.310792964940592 
2077	 0.311021002322436 
2078	 0.311249869996392 
2079	 0.311460514287776 
2080	 0.311686000706525 
2081	 0.311919432378546 
2082	 0.312156120564419 
2083	 0.312393430365204 
2084	 0.312643011176245 
2085	 0.312892996553175 
2086	 0.313160544404075 
2087	 0.313392231213444 
2088	 0.313608631340133 
2089	 0.313834895211203 
2090	 0.314046604229032 
2091	 0.314256775744516 
2092	 0.314470826219271 
2093	 0.314688641462551 
2094	 0.31490406810826 
2095	 0.315108464132723 
2096	 0.315316620294111 
2097	 0.315522574791375 
2098	 0.315711793012604 
2099	 0.315897907821498 
2100	 0.316097918002655 
2101	 0.316311791788295 
2102	 0.316520450177308 
2103	 0.316723611034825 
2104	 0.316943520760101 
2105	 0.317181800167607 
2106	 0.317401955514704 
2107	 0.317608164814351 
2108	 0.317843295911774 
2109	 0.318085720785426 
2110	 0.318327777070256 
2111	 0.318601578483297 
2112	 0.31885777151145 
2113	 0.319094743454652 
2114	 0.319343071061157 
2115	 0.319574030922849 
2116	 0.31979749590854 
2117	 0.320028426744779 
2118	 0.320251319640436 
2119	 0.320473780974773 
2120	 0.320717324578951 
2121	 0.320926468749603 
2122	 0.321111422295456 
2123	 0.321297955516763 
2124	 0.321460233694392 
2125	 0.321638105608026 
2126	 0.321843285692346 
2127	 0.322008110840868 
2128	 0.322164890486168 
2129	 0.322301969049067 
2130	 0.322401608310473 
2131	 0.322489679359914 
2132	 0.322587371039536 
2133	 0.322694623563535 
2134	 0.322766461213003 
2135	 0.322832741083179 
2136	 0.322869673117488 
2137	 0.322874885798539 
2138	 0.322868043187304 
2139	 0.322834523651391 
2140	 0.322806671241632 
2141	 0.322779146898988 
2142	 0.322718293540019 
2143	 0.322640220274563 
2144	 0.322554740472976 
2145	 0.322436941081117 
2146	 0.322318760240813 
2147	 0.32219836451758 
2148	 0.322076663345116 
2149	 0.321942511761988 
2150	 0.321785657508174 
2151	 0.321645098322322 
2152	 0.321511267432682 
2153	 0.321366480136087 
2154	 0.321238311215165 
2155	 0.321065486333548 
2156	 0.320888149788955 
2157	 0.320662453035938 
2158	 0.320394594736152 
2159	 0.320107223746981 
2160	 0.319757462172431 
2161	 0.319432522570736 
2162	 0.319085617109393 
2163	 0.318759831652305 
2164	 0.318443719241526 
2165	 0.318152751604736 
2166	 0.317844930253187 
2167	 0.317542969675533 
2168	 0.317229439392743 
2169	 0.316902690435535 
2170	 0.316589991452624 
2171	 0.31629068893315 
2172	 0.315968293576072 
2173	 0.315647860257349 
2174	 0.31530967978561 
2175	 0.314959026703922 
2176	 0.314583199524285 
2177	 0.314200723396943 
2178	 0.313788589631274 
2179	 0.313345410961842 
2180	 0.312883327042607 
2181	 0.312377835608373 
2182	 0.311886878116811 
2183	 0.311367258535012 
2184	 0.310869752889313 
2185	 0.310386675085818 
2186	 0.309920153030323 
2187	 0.309458106517904 
2188	 0.309006880940397 
2189	 0.308559735543847 
2190	 0.308107218624085 
2191	 0.307692576711722 
2192	 0.307277188942352 
2193	 0.306920735474444 
2194	 0.30661778770801 
2195	 0.306319453751054 
2196	 0.30605583254835 
2197	 0.305809200066485 
2198	 0.305558746288304 
2199	 0.305362398311932 
2200	 0.305218657387825 
2201	 0.305084806064696 
2202	 0.304978302732463 
2203	 0.304904208281455 
2204	 0.304851889087724 
2205	 0.304798360889588 
2206	 0.304833268510797 
2207	 0.304923746644481 
2208	 0.305043042848896 
2209	 0.305231025776461 
2210	 0.305421968330845 
2211	 0.305638532337981 
2212	 0.30587794042709 
2213	 0.306153017905481 
2214	 0.30643353839789 
2215	 0.306772308327408 
2216	 0.307047176251492 
2217	 0.30732849848085 
2218	 0.307556745758915 
2219	 0.307704850573422 
2220	 0.307873715137881 
2221	 0.308025074941843 
2222	 0.308179073711564 
2223	 0.308304427036346 
2224	 0.308439531425494 
2225	 0.308562328049937 
2226	 0.308678199706326 
2227	 0.308750920338005 
2228	 0.308811872237005 
2229	 0.308854056430117 
2230	 0.308847478348767 
2231	 0.308850961085349 
2232	 0.308854307598203 
2233	 0.308850250895285 
2234	 0.308830892460944 
2235	 0.308802059306383 
2236	 0.308777236179254 
2237	 0.308735363744454 
2238	 0.308651060986846 
2239	 0.308598618345164 
2240	 0.308576362867851 
2241	 0.308517211048306 
2242	 0.308457559017673 
2243	 0.308385624554136 
2244	 0.308289291197299 
2245	 0.308168196968522 
2246	 0.308061183684939 
2247	 0.307969615169975 
2248	 0.307890674261018 
2249	 0.307820632278024 
2250	 0.30775225870042 
2251	 0.307704167094743 
2252	 0.307638168862871 
2253	 0.307573260641531 
2254	 0.307488848797358 
2255	 0.307375071765534 
2256	 0.307305015582868 
2257	 0.307232713022185 
2258	 0.307183211799105 
2259	 0.307171514280665 
2260	 0.307153309967858 
2261	 0.307136487102137 
2262	 0.307128057346202 
2263	 0.307135671792209 
2264	 0.307147154452889 
2265	 0.307166658741531 
2266	 0.307183797226492 
2267	 0.307218105307402 
2268	 0.307231798549826 
2269	 0.307236185491659 
2270	 0.307216684523146 
2271	 0.307221199020367 
2272	 0.30726345993342 
2273	 0.307323253558965 
2274	 0.307386541815419 
2275	 0.307428610233653 
2276	 0.307457837386008 
2277	 0.307487603659744 
2278	 0.307504775256745 
2279	 0.307536132303735 
2280	 0.307578370334545 
2281	 0.307599416738559 
2282	 0.307629927547185 
2283	 0.307629699238795 
2284	 0.307577771897929 
2285	 0.307569175993739 
2286	 0.307573598721999 
2287	 0.307561343352683 
2288	 0.307561205441056 
2289	 0.307569145159986 
2290	 0.307558076035423 
2291	 0.30755928756563 
2292	 0.30757107685921 
2293	 0.307599408503868 
2294	 0.307673562822879 
2295	 0.307684485977831 
2296	 0.307667175810881 
2297	 0.307675982341111 
2298	 0.307615781636428 
2299	 0.307529852245501 
2300	 0.307548784556275 
2301	 0.307538936210903 
2302	 0.307496923263085 
2303	 0.307517457141836 
2304	 0.307508277267279 
2305	 0.307487958968367 
2306	 0.307410968795876 
2307	 0.307302671429781 
2308	 0.307187624944265 
2309	 0.306999380105465 
2310	 0.306872922859237 
2311	 0.306785689935364 
2312	 0.306676789858666 
2313	 0.306567748681772 
2314	 0.306460241976489 
2315	 0.306349275954497 
2316	 0.306247198154612 
2317	 0.306150124655142 
2318	 0.306042131642343 
2319	 0.305910115617344 
2320	 0.305823839589134 
2321	 0.305797709139173 
2322	 0.305701447265211 
2323	 0.305610389963984 
2324	 0.305502546555961 
2325	 0.305283054363697 
2326	 0.305153482479586 
2327	 0.305118587136501 
2328	 0.304983441580598 
2329	 0.30487568615792 
2330	 0.304821317764771 
2331	 0.304680540387676 
2332	 0.304584323516999 
2333	 0.304521156862382 
2334	 0.304439582342857 
2335	 0.304403322979605 
2336	 0.304377694539494 
2337	 0.304321260766359 
2338	 0.304206393405095 
2339	 0.304017967304955 
2340	 0.303834308927169 
2341	 0.303676869690272 
2342	 0.303545247977587 
2343	 0.303450272654495 
2344	 0.303347394476259 
2345	 0.303200220792559 
2346	 0.302992507493337 
2347	 0.302825971758868 
2348	 0.302671630356503 
2349	 0.302467936275011 
2350	 0.302255021111233 
2351	 0.302063002709787 
2352	 0.3018247566153 
2353	 0.301630284273729 
2354	 0.301492649959979 
2355	 0.301311502526437 
2356	 0.301092929857127 
2357	 0.300911325996744 
2358	 0.300748247386012 
2359	 0.300587984204028 
2360	 0.300448101262596 
2361	 0.300311182322723 
2362	 0.300172114326986 
2363	 0.300033510172246 
2364	 0.299913125993534 
2365	 0.299779668600338 
2366	 0.299663985469311 
2367	 0.299495059827144 
2368	 0.299289691563752 
2369	 0.299068947771575 
2370	 0.29878676074148 
2371	 0.298549384449791 
2372	 0.298332537366704 
2373	 0.298154315684161 
2374	 0.298003162237198 
2375	 0.297760432766539 
2376	 0.297465579457404 
2377	 0.297193623110287 
2378	 0.29696066783585 
2379	 0.296711590569173 
2380	 0.296429876303627 
2381	 0.296137316502378 
2382	 0.295749697318087 
2383	 0.295345856458321 
2384	 0.294995063917736 
2385	 0.294670708712277 
2386	 0.294364502514385 
2387	 0.294079625938268 
2388	 0.293832460537427 
2389	 0.293561087517755 
2390	 0.293221371996399 
2391	 0.292912497236847 
2392	 0.292660009619558 
2393	 0.292380041876566 
2394	 0.292145395169835 
2395	 0.291875110299219 
2396	 0.291494882710225 
2397	 0.291132124934495 
2398	 0.29071347369091 
2399	 0.290288035105541 
2400	 0.289929205835181 
2401	 0.289526175053099 
2402	 0.289190178835775 
2403	 0.288990156237134 
2404	 0.288737680084921 
2405	 0.288436112657312 
2406	 0.288018447699682 
2407	 0.287422862203957 
2408	 0.286974533793638 
2409	 0.286547699287781 
2410	 0.286082054037337 
2411	 0.285745394739407 
2412	 0.285330177037128 
2413	 0.284915704039984 
2414	 0.28459295834378 
2415	 0.284315682691902 
2416	 0.283989618918396 
2417	 0.283619869238268 
2418	 0.283266846995259 
2419	 0.282900722730621 
2420	 0.28248417819711 
2421	 0.282089084387047 
2422	 0.281671810427697 
2423	 0.281223477105033 
2424	 0.280784139018919 
2425	 0.28028302027637 
2426	 0.279847998273537 
2427	 0.279439866670549 
2428	 0.278992130507264 
2429	 0.278638636350071 
2430	 0.278138828772265 
2431	 0.2775018686997 
2432	 0.276933216890356 
2433	 0.276253130894015 
2434	 0.275761788249713 
2435	 0.275412503724399 
2436	 0.275024020674555 
2437	 0.274796542266044 
2438	 0.274434426129331 
2439	 0.273904059794634 
2440	 0.27348535488198 
2441	 0.273081532947353 
2442	 0.272679502963382 
2443	 0.272383068722135 
2444	 0.272003491348793 
2445	 0.271569155575905 
2446	 0.271100680581228 
2447	 0.270555744561813 
2448	 0.270122314139376 
2449	 0.269701988854178 
2450	 0.269367061774555 
2451	 0.269143342265563 
2452	 0.268791855158183 
2453	 0.268409544445835 
2454	 0.268017812607859 
2455	 0.267611983122788 
2456	 0.267198815906533 
2457	 0.266794143514328 
2458	 0.266477581336819 
2459	 0.266146449127255 
2460	 0.265814565349869 
2461	 0.26554749719669 
2462	 0.265144384162642 
2463	 0.264626061539037 
2464	 0.264234127780778 
2465	 0.263919997977742 
2466	 0.263499021299988 
2467	 0.263088108094633 
2468	 0.262602386976851 
2469	 0.261931630714033 
2470	 0.261481736742868 
2471	 0.261113892237961 
2472	 0.260964355837585 
2473	 0.260808789905516 
2474	 0.260459586591515 
2475	 0.260055093758741 
2476	 0.259495876471896 
2477	 0.259051029343632 
2478	 0.258763524310172 
2479	 0.258423782133226 
2480	 0.258110954720202 
2481	 0.257674253940367 
2482	 0.257320370535082 
2483	 0.25710931107197 
2484	 0.256795954905975 
2485	 0.256491953879491 
2486	 0.256114796204764 
2487	 0.255573558189897 
2488	 0.255194061315286 
2489	 0.255030913683609 
2490	 0.254762061765987 
2491	 0.254523497843087 
2492	 0.254388766773517 
2493	 0.254039215233839 
2494	 0.25363445763982 
2495	 0.253343671432231 
2496	 0.25296116117213 
2497	 0.252693758747897 
2498	 0.252748365425858 
2499	 0.252633584216883 
2500	 0.252301812559602 
