Wavelength	mm1500003.asd
350	 7.45693970257588E-02 
351	 8.17946835735967E-02 
352	 0.080394108734822 
353	 7.05867441319082E-02 
354	 7.61943858527965E-02 
355	 7.60309113454356E-02 
356	 7.35870575700743E-02 
357	 7.57638506273308E-02 
358	 7.71735441566466E-02 
359	 7.76727876315098E-02 
360	 7.72904830928459E-02 
361	 7.60922424431997E-02 
362	 7.34482461598393E-02 
363	 7.29770225925413E-02 
364	 7.53741976498971E-02 
365	 0.076473968722675 
366	 7.44708094793389E-02 
367	 7.35449980753125E-02 
368	 7.65217941083044E-02 
369	 7.38291241827528E-02 
370	 7.43921794717019E-02 
371	 7.87688147110796E-02 
372	 8.12386838273925E-02 
373	 7.75022568535311E-02 
374	 7.64922874485116E-02 
375	 8.11673324972686E-02 
376	 8.15407224218287E-02 
377	 8.10691336863149E-02 
378	 8.04723574932172E-02 
379	 8.04363255983052E-02 
380	 8.48510827529904E-02 
381	 8.42062066051332E-02 
382	 8.12840629828051E-02 
383	 8.68722968747825E-02 
384	 8.67834087262299E-02 
385	 0.085523665792831 
386	 8.69065611821655E-02 
387	 8.83587522736878E-02 
388	 8.81978960589947E-02 
389	 0.088586163593516 
390	 9.15605223238698E-02 
391	 9.23039595141755E-02 
392	 9.14885048790045E-02 
393	 9.19164182056464E-02 
394	 9.71569867865998E-02 
395	 9.70947293554568E-02 
396	 9.70296183380563E-02 
397	 0.100576764703028 
398	 0.102412683016341 
399	 0.103380885224272 
400	 0.1039169674193 
401	 0.104445844504972 
402	 0.105381382963558 
403	 0.105979868587635 
404	 0.106090372542975 
405	 0.106242537763925 
406	 0.107588284958867 
407	 0.108374468209574 
408	 0.107890094011329 
409	 0.109660948957467 
410	 0.11036363435031 
411	 0.110566181335748 
412	 0.112158620814075 
413	 0.112390765158778 
414	 0.112692303882988 
415	 0.113663677616161 
416	 0.114420563590312 
417	 0.114330334310991 
418	 0.114089720116578 
419	 0.114388325171153 
420	 0.114745023003654 
421	 0.11451780250908 
422	 0.114483295239277 
423	 0.11596208184855 
424	 0.115648435089559 
425	 0.115094016544998 
426	 0.11510421927465 
427	 0.113828268469111 
428	 0.113935548674964 
429	 0.114569361554937 
430	 0.11418329008524 
431	 0.113942253436882 
432	 0.113572543139712 
433	 0.113362472358734 
434	 0.114116483185406 
435	 0.114086091484803 
436	 0.11383044882505 
437	 0.113999970771255 
438	 0.114221749984932 
439	 0.114706085735984 
440	 0.115347386388929 
441	 0.115863411979217 
442	 0.115930228799289 
443	 0.115948115757074 
444	 0.116355691981971 
445	 0.117595018454523 
446	 0.118067632920585 
447	 0.11825919759665 
448	 0.118930340495622 
449	 0.119123461733088 
450	 0.119696966660833 
451	 0.120675384981448 
452	 0.121352776677939 
453	 0.12176247790878 
454	 0.122038056587186 
455	 0.122344103663916 
456	 0.122868538773967 
457	 0.123287421118985 
458	 0.123468437727903 
459	 0.123478986216611 
460	 0.124137755280332 
461	 0.124429352301341 
462	 0.124195532634604 
463	 0.124692047601105 
464	 0.125036153148601 
465	 0.125316879647603 
466	 0.125736175609478 
467	 0.125885297702279 
468	 0.125886882618313 
469	 0.125934970195775 
470	 0.126244865391088 
471	 0.1266519919948 
472	 0.126799327060935 
473	 0.126647647103327 
474	 0.126987248448249 
475	 0.127081790109435 
476	 0.127085256161329 
477	 0.127437668958751 
478	 0.127627870312159 
479	 0.127846352457851 
480	 0.128168808921561 
481	 0.128434773303047 
482	 0.128583203227196 
483	 0.128712716099018 
484	 0.128903867451618 
485	 0.128943316772382 
486	 0.129051281311414 
487	 0.129225483450065 
488	 0.129293489420107 
489	 0.129624088525662 
490	 0.12993471857893 
491	 0.130063809677286 
492	 0.130461360907169 
493	 0.130574938391555 
494	 0.130533242933236 
495	 0.130740213350099 
496	 0.13104663201701 
497	 0.131111560701858 
498	 0.131014374135869 
499	 0.131486491704381 
500	 0.131763169447907 
501	 0.131857780095973 
502	 0.131983140180752 
503	 0.132139316673943 
504	 0.132327586771655 
505	 0.132513967925293 
506	 0.13263807650761 
507	 0.13273188770311 
508	 0.132859828957712 
509	 0.133036113420556 
510	 0.133128969081551 
511	 0.133194639282534 
512	 0.133282382209598 
513	 0.133432238389249 
514	 0.133609940180891 
515	 0.133885885868136 
516	 0.134219436008201 
517	 0.134363079701879 
518	 0.134490080782718 
519	 0.134595471159368 
520	 0.134653935259828 
521	 0.134838917979534 
522	 0.134963503945575 
523	 0.134996457783211 
524	 0.135087273373452 
525	 0.135253066100989 
526	 0.135414985161042 
527	 0.135528485172168 
528	 0.135736274633964 
529	 0.135968163188003 
530	 0.136162254573453 
531	 0.136269890631412 
532	 0.13629699022796 
533	 0.136428673820721 
534	 0.136705574722133 
535	 0.136825503536509 
536	 0.136917109432235 
537	 0.137087064165473 
538	 0.137384410574848 
539	 0.137499503388527 
540	 0.137587145581346 
541	 0.13774305495102 
542	 0.137933411712538 
543	 0.138152555616759 
544	 0.138368523319447 
545	 0.138562020240931 
546	 0.138794227618941 
547	 0.13900040850769 
548	 0.139154297321238 
549	 0.139270691141868 
550	 0.139438541411377 
551	 0.139689042749733 
552	 0.140002615434609 
553	 0.140278999277678 
554	 0.1404771596139 
555	 0.140676513122945 
556	 0.141000879316766 
557	 0.141312907025831 
558	 0.14163693746248 
559	 0.142009039079405 
560	 0.142465348710254 
561	 0.142824510467599 
562	 0.143121693675557 
563	 0.14347675161134 
564	 0.144009314499623 
565	 0.144434127339283 
566	 0.144698884216154 
567	 0.145034805223093 
568	 0.145446549641138 
569	 0.145885858104043 
570	 0.146348300451223 
571	 0.147064231593593 
572	 0.147722404070255 
573	 0.148249043513214 
574	 0.148755057550695 
575	 0.149327406258233 
576	 0.15003448326482 
577	 0.15084225939439 
578	 0.151511269389131 
579	 0.152178053858747 
580	 0.152783094676065 
581	 0.153229038462253 
582	 0.153708738234643 
583	 0.15426756449356 
584	 0.154937298507816 
585	 0.155755153777483 
586	 0.156753498725971 
587	 0.157781081067912 
588	 0.158701192478984 
589	 0.159706821506136 
590	 0.160644267571147 
591	 0.161501625277325 
592	 0.162401545218974 
593	 0.163226326259366 
594	 0.163926081666467 
595	 0.164493008779885 
596	 0.164978902061738 
597	 0.165427194477616 
598	 0.165907245259308 
599	 0.166493103603445 
600	 0.167166712107997 
601	 0.167908094470408 
602	 0.168675485894764 
603	 0.169392433668828 
604	 0.170106691577906 
605	 0.170830389748866 
606	 0.171565308364855 
607	 0.172320300337253 
608	 0.173067708155 
609	 0.173770348110581 
610	 0.174385959632149 
611	 0.17496751474482 
612	 0.175491195478434 
613	 0.175933260564691 
614	 0.176337526165096 
615	 0.176692998459437 
616	 0.177044722768639 
617	 0.177466132268368 
618	 0.177914554822423 
619	 0.178288480601973 
620	 0.178568656587731 
621	 0.178930488268001 
622	 0.179242588939434 
623	 0.179515837171367 
624	 0.179810518928925 
625	 0.180115242622343 
626	 0.180409644305577 
627	 0.180689284298822 
628	 0.18097064719474 
629	 0.181290475133706 
630	 0.181610975886852 
631	 0.181876067094581 
632	 0.182028937336387 
633	 0.182264978076254 
634	 0.182595838646598 
635	 0.182877044584444 
636	 0.18307114390807 
637	 0.183263342105254 
638	 0.183509694716965 
639	 0.183733884866554 
640	 0.183992471422845 
641	 0.184268834684854 
642	 0.184516159589539 
643	 0.18473787133749 
644	 0.18496519556959 
645	 0.185208509006122 
646	 0.185442952981314 
647	 0.185695344667582 
648	 0.185972410594386 
649	 0.186262680943927 
650	 0.186509924705769 
651	 0.186737407245084 
652	 0.186992172562394 
653	 0.187331916975735 
654	 0.187672801845669 
655	 0.187954651112651 
656	 0.188177426277666 
657	 0.188467702093171 
658	 0.188796611135775 
659	 0.189109553809533 
660	 0.189358161944022 
661	 0.189667953367856 
662	 0.190015422669477 
663	 0.190346650332414 
664	 0.190582001855104 
665	 0.190933302106709 
666	 0.191312092406801 
667	 0.191601180678673 
668	 0.191948467603268 
669	 0.192346994484934 
670	 0.192755764566161 
671	 0.193112640264676 
672	 0.193455332051009 
673	 0.193796696864443 
674	 0.194151852891392 
675	 0.194555671590462 
676	 0.194943522814661 
677	 0.195318432036282 
678	 0.195711134558486 
679	 0.196103746293619 
680	 0.196553113462196 
681	 0.197049583912304 
682	 0.197492105754217 
683	 0.197885792127723 
684	 0.198290886953539 
685	 0.198762985819198 
686	 0.199293683038518 
687	 0.199746966078393 
688	 0.20016700676235 
689	 0.20070460125784 
690	 0.201128153319699 
691	 0.201532427749443 
692	 0.202006876957216 
693	 0.202542088301893 
694	 0.203054650715286 
695	 0.203542794772778 
696	 0.204033994650225 
697	 0.2045166706279 
698	 0.205006434607176 
699	 0.20550481016331 
700	 0.205998063084161 
701	 0.206545359175977 
702	 0.207101540090492 
703	 0.207615674852669 
704	 0.208081880851099 
705	 0.208553743034781 
706	 0.209055862654219 
707	 0.209587624980093 
708	 0.210101470896788 
709	 0.21061278266177 
710	 0.211131611658057 
711	 0.211653120080329 
712	 0.212110710479951 
713	 0.212533240874701 
714	 0.212982593498862 
715	 0.213538460297844 
716	 0.214010783420157 
717	 0.214406700045046 
718	 0.214878259631015 
719	 0.215424125454393 
720	 0.215922656333215 
721	 0.216313045127808 
722	 0.216681203053636 
723	 0.217079030281857 
724	 0.217476218839462 
725	 0.217832425440711 
726	 0.218239475408441 
727	 0.218581833551207 
728	 0.218872605231762 
729	 0.219244303167744 
730	 0.219604813447106 
731	 0.219913652651849 
732	 0.220164145362657 
733	 0.220399761657434 
734	 0.220655636752687 
735	 0.220898773823921 
736	 0.221084143262415 
737	 0.22129696047803 
738	 0.221505367059607 
739	 0.221676695828728 
740	 0.221790155478421 
741	 0.221932033908319 
742	 0.222042528111368 
743	 0.222084911906312 
744	 0.22217556995108 
745	 0.222232665132635 
746	 0.222263386691506 
747	 0.222308536744097 
748	 0.222334934038803 
749	 0.222278730661203 
750	 0.222192000112747 
751	 0.222260823130717 
752	 0.22217777287653 
753	 0.222013243219694 
754	 0.221895273618949 
755	 0.221853249070684 
756	 0.221753540444537 
757	 0.221597051133133 
758	 0.221452226373454 
759	 0.22130063381946 
760	 0.221145392944098 
761	 0.220967241955609 
762	 0.220719936151993 
763	 0.2205101045728 
764	 0.220314518446591 
765	 0.220096328482729 
766	 0.219869945790733 
767	 0.219702604838371 
768	 0.219514795980958 
769	 0.219191641309056 
770	 0.218944773278076 
771	 0.218688050849077 
772	 0.218388905408484 
773	 0.218110286285667 
774	 0.217845355957222 
775	 0.217596117043981 
776	 0.217336570693802 
777	 0.216948730127478 
778	 0.216646969991736 
779	 0.216421207774156 
780	 0.216158424586148 
781	 0.215831528517905 
782	 0.215566470441668 
783	 0.215346042723805 
784	 0.215000564046323 
785	 0.214685999682122 
786	 0.214400811002558 
787	 0.214120126496477 
788	 0.213838489588355 
789	 0.213573816608437 
790	 0.213298248613767 
791	 0.212985387324011 
792	 0.212708841549955 
793	 0.212427196323624 
794	 0.21213063112336 
795	 0.211840608071339 
796	 0.211539238457386 
797	 0.211259919927242 
798	 0.211015414851477 
799	 0.210769155506323 
800	 0.210517003167592 
801	 0.210277422184574 
802	 0.210052256079521 
803	 0.209745966391287 
804	 0.20946265175183 
805	 0.20923037653596 
806	 0.20901959328078 
807	 0.208794576513964 
808	 0.208547466670645 
809	 0.208280440663884 
810	 0.208003449952126 
811	 0.207810639230457 
812	 0.207591779252924 
813	 0.207299141440399 
814	 0.207190392928128 
815	 0.207043819991086 
816	 0.206841520156354 
817	 0.206637470235866 
818	 0.206369655162648 
819	 0.206157081864817 
820	 0.205995565263029 
821	 0.205780737899665 
822	 0.205643607143598 
823	 0.205468803552716 
824	 0.205231417411394 
825	 0.20510982888089 
826	 0.20501701953119 
827	 0.204873919522995 
828	 0.204657858718008 
829	 0.204521052408505 
830	 0.204334833975894 
831	 0.204148306982287 
832	 0.204071482891092 
833	 0.204022913143355 
834	 0.20392153808815 
835	 0.203772346857966 
836	 0.203657846281654 
837	 0.203554399185475 
838	 0.203442668364152 
839	 0.203327414927645 
840	 0.203254039096578 
841	 0.203183059827404 
842	 0.203097597427857 
843	 0.202996992607914 
844	 0.202907897250215 
845	 0.202834429994033 
846	 0.202756615849334 
847	 0.202667590506041 
848	 0.202705829934224 
849	 0.20269954614689 
850	 0.202602910879532 
851	 0.202498953763585 
852	 0.202425303035909 
853	 0.202414934480784 
854	 0.202434767566055 
855	 0.20236814143261 
856	 0.202410829520811 
857	 0.202458104581427 
858	 0.202420006617444 
859	 0.20243290849603 
860	 0.202415384588264 
861	 0.202398213899246 
862	 0.20242121665036 
863	 0.202385437147242 
864	 0.202382146055263 
865	 0.202437742555382 
866	 0.202519645808263 
867	 0.202529492342785 
868	 0.202541370304329 
869	 0.202577409413976 
870	 0.202595669869894 
871	 0.202667328829505 
872	 0.202778912355863 
873	 0.202894871748544 
874	 0.202971045677577 
875	 0.203087069438974 
876	 0.203178887740775 
877	 0.203204161758555 
878	 0.203263862326187 
879	 0.203397826942765 
880	 0.203504267652971 
881	 0.203517098363126 
882	 0.203743452222264 
883	 0.203930971372215 
884	 0.204020602521165 
885	 0.204088477390776 
886	 0.204241552300546 
887	 0.204396960581673 
888	 0.204530202124174 
889	 0.204680137863693 
890	 0.204864147320678 
891	 0.205012187165268 
892	 0.205132957489858 
893	 0.205338575924969 
894	 0.205559232780685 
895	 0.205724651287965 
896	 0.205843742579441 
897	 0.206061126383952 
898	 0.206311701627024 
899	 0.206564405146976 
900	 0.206801262633176 
901	 0.207024242271205 
902	 0.207188039626511 
903	 0.207338772204543 
904	 0.207541159057814 
905	 0.207798242167644 
906	 0.208065203480552 
907	 0.208324407505877 
908	 0.208589945873285 
909	 0.208952585355316 
910	 0.209284937617777 
911	 0.209532346641113 
912	 0.209721121142843 
913	 0.20997314617108 
914	 0.210331800178395 
915	 0.21069648159017 
916	 0.21089352183397 
917	 0.211200332392173 
918	 0.211568537415841 
919	 0.211900165428736 
920	 0.212116083652058 
921	 0.212495365716566 
922	 0.212902403483247 
923	 0.213234152370977 
924	 0.213549063845437 
925	 0.213927301719032 
926	 0.214290958491228 
927	 0.214612371351301 
928	 0.215016896191184 
929	 0.215444305803849 
930	 0.215906611312565 
931	 0.216371002397471 
932	 0.216670088947747 
933	 0.216994171590425 
934	 0.217457336115616 
935	 0.218046946345683 
936	 0.218490799831246 
937	 0.218850431321121 
938	 0.219196264763468 
939	 0.219636212051773 
940	 0.220392374990568 
941	 0.220892858845229 
942	 0.221239130947604 
943	 0.22171888811108 
944	 0.222135042023347 
945	 0.22262354950987 
946	 0.223184544106024 
947	 0.22375033030289 
948	 0.224284826893901 
949	 0.22479128798406 
950	 0.225272462443404 
951	 0.225748038685264 
952	 0.226308928482065 
953	 0.226882911168143 
954	 0.227406437083553 
955	 0.227876212727126 
956	 0.228523502454616 
957	 0.229124930934863 
958	 0.229645323746512 
959	 0.230171570912365 
960	 0.230637379000298 
961	 0.231275997987843 
962	 0.232078191767328 
963	 0.232838185901885 
964	 0.233328035597228 
965	 0.233823653644206 
966	 0.234441288850272 
967	 0.23513143157246 
968	 0.235772025407119 
969	 0.23637323392888 
970	 0.236988206844789 
971	 0.237675619997108 
972	 0.238417730809756 
973	 0.239081265191734 
974	 0.23968849847556 
975	 0.240359629643527 
976	 0.241086655475008 
977	 0.241766707274611 
978	 0.24239361563487 
979	 0.243042014051613 
980	 0.243813178132998 
981	 0.244531780741807 
982	 0.245181153625948 
983	 0.24585843167675 
984	 0.246613262449709 
985	 0.247308186573187 
986	 0.247944427547441 
987	 0.248619311197391 
988	 0.249433951366294 
989	 0.250187269183228 
990	 0.250788043752269 
991	 0.251296749235235 
992	 0.252057868591661 
993	 0.252754784562687 
994	 0.253436386303088 
995	 0.254236926184781 
996	 0.254875719021699 
997	 0.255553601931937 
998	 0.256236999183303 
999	 0.256866594651213 
1000	 0.257655935761122 
1001	 0.255667509594349 
1002	 0.256292458637458 
1003	 0.256930976717369 
1004	 0.25753583685789 
1005	 0.25818184323759 
1006	 0.258821341933817 
1007	 0.259440511770016 
1008	 0.259995937757985 
1009	 0.260603106904355 
1010	 0.261233781284807 
1011	 0.261832811960385 
1012	 0.262427338575614 
1013	 0.263023491540501 
1014	 0.26360374348526 
1015	 0.264146340037847 
1016	 0.264651560750614 
1017	 0.265193134855053 
1018	 0.265755932090072 
1019	 0.266268196264253 
1020	 0.266762095433456 
1021	 0.26736721423316 
1022	 0.26790659206254 
1023	 0.268362231232026 
1024	 0.268921360951854 
1025	 0.269453162218503 
1026	 0.269929030191418 
1027	 0.270490529875204 
1028	 0.270985712357914 
1029	 0.271417899361558 
1030	 0.27186802586689 
1031	 0.272313361105923 
1032	 0.272733442701365 
1033	 0.273219444983775 
1034	 0.273720942592771 
1035	 0.274182853448481 
1036	 0.27466400083101 
1037	 0.275151395710862 
1038	 0.275649812656285 
1039	 0.276151807311741 
1040	 0.276665199044246 
1041	 0.277168252357277 
1042	 0.277554544574024 
1043	 0.277924423626788 
1044	 0.278367586743141 
1045	 0.278848072712914 
1046	 0.279280326547091 
1047	 0.279744911954023 
1048	 0.280273267980004 
1049	 0.280718576470938 
1050	 0.281157346233053 
1051	 0.281666108531427 
1052	 0.282137843202624 
1053	 0.282595147698663 
1054	 0.283095589747385 
1055	 0.283556973355699 
1056	 0.283994469129529 
1057	 0.284447238677252 
1058	 0.284890512942343 
1059	 0.285324441340936 
1060	 0.285745294761588 
1061	 0.286214194566455 
1062	 0.286673980853396 
1063	 0.287146192486304 
1064	 0.287626134753124 
1065	 0.288053604824603 
1066	 0.28841005192024 
1067	 0.28877434891287 
1068	 0.28921269353856 
1069	 0.289640542995637 
1070	 0.290040045979754 
1071	 0.290452569240286 
1072	 0.290855901075189 
1073	 0.29122982372375 
1074	 0.291609570711919 
1075	 0.292021743159796 
1076	 0.292374903764325 
1077	 0.292701464604904 
1078	 0.293007739138775 
1079	 0.293337545516938 
1080	 0.293683967446561 
1081	 0.294074543546668 
1082	 0.29448740290334 
1083	 0.294844730163855 
1084	 0.295180915680873 
1085	 0.295545249442936 
1086	 0.295866398180108 
1087	 0.296204817446643 
1088	 0.296573440206805 
1089	 0.296946740261581 
1090	 0.29725446310759 
1091	 0.297573519388428 
1092	 0.297881755018813 
1093	 0.29819196835571 
1094	 0.298550643679406 
1095	 0.298924738884064 
1096	 0.299270781177088 
1097	 0.299576755318411 
1098	 0.299906110215116 
1099	 0.300232312719679 
1100	 0.300548489542045 
1101	 0.300861468495743 
1102	 0.301192011695258 
1103	 0.301541206169477 
1104	 0.301819920708684 
1105	 0.302132864862955 
1106	 0.302480155032357 
1107	 0.302796373586517 
1108	 0.303123703136702 
1109	 0.303445853656466 
1110	 0.303764989632059 
1111	 0.304092229197877 
1112	 0.304426096998387 
1113	 0.304732746940463 
1114	 0.305027416932246 
1115	 0.305345695507493 
1116	 0.305636249719346 
1117	 0.305956079710395 
1118	 0.306309728077774 
1119	 0.306669530962278 
1120	 0.307012746844331 
1121	 0.307363912257216 
1122	 0.30768761099207 
1123	 0.307990680256879 
1124	 0.308321614543189 
1125	 0.308658599201697 
1126	 0.308972010675552 
1127	 0.309298312911016 
1128	 0.309609131452566 
1129	 0.309880732859605 
1130	 0.310175254367197 
1131	 0.310489820043335 
1132	 0.310787072002851 
1133	 0.311071329605035 
1134	 0.311363690310327 
1135	 0.311634783712709 
1136	 0.311943563286556 
1137	 0.312290476652789 
1138	 0.31260781807333 
1139	 0.312920985457913 
1140	 0.313247075475671 
1141	 0.313554809429411 
1142	 0.31383268107909 
1143	 0.314130567174476 
1144	 0.314451093171187 
1145	 0.314739275098276 
1146	 0.315011974247462 
1147	 0.315283358641478 
1148	 0.315528772486892 
1149	 0.315790867025809 
1150	 0.316050143766033 
1151	 0.316333187894059 
1152	 0.316619670327519 
1153	 0.316894107367066 
1154	 0.317152703323113 
1155	 0.317394785868587 
1156	 0.317647610837788 
1157	 0.317891828657285 
1158	 0.318142004019701 
1159	 0.31840130082189 
1160	 0.318659944554585 
1161	 0.318915562095294 
1162	 0.31916811961452 
1163	 0.319430062528556 
1164	 0.319681422935345 
1165	 0.319923992929019 
1166	 0.320163645950017 
1167	 0.320405983670352 
1168	 0.32065025087183 
1169	 0.320880346498123 
1170	 0.321102149404159 
1171	 0.321331714526714 
1172	 0.321558172584768 
1173	 0.321777404373593 
1174	 0.322001799425109 
1175	 0.322216517851436 
1176	 0.322417032668783 
1177	 0.32262097816084 
1178	 0.322822777594358 
1179	 0.323028081924192 
1180	 0.323232096646959 
1181	 0.323436628668697 
1182	 0.323644956524776 
1183	 0.323853766576992 
1184	 0.32406038887809 
1185	 0.324265807204368 
1186	 0.324468545941242 
1187	 0.324675628089334 
1188	 0.324869081524461 
1189	 0.325050480114116 
1190	 0.325237959613361 
1191	 0.325415629603509 
1192	 0.325605298139467 
1193	 0.325809769867947 
1194	 0.326002747626589 
1195	 0.326196720217253 
1196	 0.326385086465855 
1197	 0.326568890373311 
1198	 0.326745803945142 
1199	 0.326917945556931 
1200	 0.327083065801846 
1201	 0.327256981706489 
1202	 0.327431469346232 
1203	 0.327598555222428 
1204	 0.327763064389674 
1205	 0.327936971712951 
1206	 0.328111099581493 
1207	 0.328278967935339 
1208	 0.328468837867775 
1209	 0.328627095095686 
1210	 0.32874993254283 
1211	 0.328891229347066 
1212	 0.329025835462991 
1213	 0.329165849770062 
1214	 0.329316598139025 
1215	 0.329465437169678 
1216	 0.329614141553991 
1217	 0.329766637126103 
1218	 0.329903259322618 
1219	 0.330034811872482 
1220	 0.33016586705914 
1221	 0.330280304701172 
1222	 0.330409772507101 
1223	 0.330553518784292 
1224	 0.330683823062998 
1225	 0.330811442790224 
1226	 0.330937123314376 
1227	 0.331050196837542 
1228	 0.33117477210776 
1229	 0.331307277141903 
1230	 0.331437049516847 
1231	 0.331580914338194 
1232	 0.331707248632877 
1233	 0.33182511223593 
1234	 0.331933380264863 
1235	 0.332043666707731 
1236	 0.332145398349514 
1237	 0.332248602368252 
1238	 0.332349144902449 
1239	 0.332454473756583 
1240	 0.33256414755466 
1241	 0.33266250273335 
1242	 0.332760014518558 
1243	 0.332857400969418 
1244	 0.332934681816824 
1245	 0.333031320106685 
1246	 0.333146382378363 
1247	 0.333252610853839 
1248	 0.333352789185011 
1249	 0.333472160646977 
1250	 0.333579160195697 
1251	 0.333692544767456 
1252	 0.333794257945396 
1253	 0.3338990744505 
1254	 0.333988284355599 
1255	 0.334060428389707 
1256	 0.33413944178972 
1257	 0.334221978141915 
1258	 0.334290043317585 
1259	 0.33434762655125 
1260	 0.334408287333362 
1261	 0.334450890328792 
1262	 0.334510480512404 
1263	 0.33458307682583 
1264	 0.334653127054901 
1265	 0.33473747136076 
1266	 0.334807652366101 
1267	 0.334867311549963 
1268	 0.334926878885531 
1269	 0.334993109024256 
1270	 0.335044666373621 
1271	 0.335132042487754 
1272	 0.335244987527903 
1273	 0.335348343994239 
1274	 0.33546247701976 
1275	 0.335581965770554 
1276	 0.335690248621224 
1277	 0.335824938851881 
1278	 0.335986441150338 
1279	 0.336142514843826 
1280	 0.336310871682914 
1281	 0.336479070642263 
1282	 0.336655278864344 
1283	 0.336819876444893 
1284	 0.336990971055075 
1285	 0.337147933660942 
1286	 0.337264901392086 
1287	 0.337400550732511 
1288	 0.337525073804087 
1289	 0.337633277005391 
1290	 0.337745947696456 
1291	 0.337860829264263 
1292	 0.337974929270808 
1293	 0.33809877518636 
1294	 0.338185502667561 
1295	 0.338259375568044 
1296	 0.33832811631566 
1297	 0.338365050704667 
1298	 0.338409366774474 
1299	 0.338464408667356 
1300	 0.33850110160932 
1301	 0.338520521497767 
1302	 0.33853697895161 
1303	 0.338548684396756 
1304	 0.33855614628118 
1305	 0.338546411363175 
1306	 0.338517749366552 
1307	 0.338487722307557 
1308	 0.338446414744214 
1309	 0.338412112273672 
1310	 0.338381783924038 
1311	 0.338341884137145 
1312	 0.338305263609537 
1313	 0.338254178798876 
1314	 0.338183011025972 
1315	 0.338128940291807 
1316	 0.338067423288522 
1317	 0.338016754940383 
1318	 0.337979791910332 
1319	 0.337941803175375 
1320	 0.337916033084524 
1321	 0.337877687218583 
1322	 0.337834579472899 
1323	 0.337793639390195 
1324	 0.337748794800605 
1325	 0.337695025888518 
1326	 0.337642108283657 
1327	 0.337599909834732 
1328	 0.337545913569723 
1329	 0.3374936827571 
1330	 0.337438968440199 
1331	 0.337380295931859 
1332	 0.33732757467408 
1333	 0.337272769933142 
1334	 0.337226413277772 
1335	 0.337193755138917 
1336	 0.337150249958658 
1337	 0.337110962524628 
1338	 0.337058727570225 
1339	 0.336982832283701 
1340	 0.33693066506834 
1341	 0.336888960540393 
1342	 0.336838969293106 
1343	 0.336788684465268 
1344	 0.336756132560273 
1345	 0.336723922818041 
1346	 0.336675598316328 
1347	 0.336638357621256 
1348	 0.336600883052666 
1349	 0.336513588119515 
1350	 0.336430538570623 
1351	 0.336368350374152 
1352	 0.336307361355164 
1353	 0.336249986608835 
1354	 0.336216086041265 
1355	 0.336164021419929 
1356	 0.336096925367068 
1357	 0.336041374548507 
1358	 0.335994206559341 
1359	 0.335941492538382 
1360	 0.33587579850216 
1361	 0.33582810459869 
1362	 0.335795812226418 
1363	 0.335751319466833 
1364	 0.335718205411474 
1365	 0.335676410934533 
1366	 0.335625619378675 
1367	 0.33555679510454 
1368	 0.335518190179352 
1369	 0.335488130628286 
1370	 0.335420234266573 
1371	 0.335351570356407 
1372	 0.335255186593603 
1373	 0.335130389650808 
1374	 0.335003545742282 
1375	 0.334872089715492 
1376	 0.334721509975009 
1377	 0.334567398866832 
1378	 0.334370620572259 
1379	 0.334144903451071 
1380	 0.333916072305886 
1381	 0.333656362630971 
1382	 0.333385393357624 
1383	 0.333133971481747 
1384	 0.332819714814994 
1385	 0.332476298257582 
1386	 0.332092011137442 
1387	 0.331660139430405 
1388	 0.331205311096335 
1389	 0.330730380393677 
1390	 0.330198622804603 
1391	 0.329633633054244 
1392	 0.329048874527454 
1393	 0.328401220066544 
1394	 0.327743760924244 
1395	 0.327067106712013 
1396	 0.326362142840067 
1397	 0.325659059257752 
1398	 0.324934107591529 
1399	 0.324225680967661 
1400	 0.323512839605502 
1401	 0.322813316165985 
1402	 0.322108358474844 
1403	 0.321451984178686 
1404	 0.320801211632671 
1405	 0.320203349400565 
1406	 0.319654987646522 
1407	 0.319118472764477 
1408	 0.318587263091107 
1409	 0.318127380348436 
1410	 0.317677983703103 
1411	 0.317329837681456 
1412	 0.317056826384592 
1413	 0.316846469145117 
1414	 0.316737728314993 
1415	 0.316682029475023 
1416	 0.316692615674697 
1417	 0.316781827312915 
1418	 0.316870910038134 
1419	 0.316968509519217 
1420	 0.317086096947389 
1421	 0.317180653032627 
1422	 0.317277086813395 
1423	 0.317375278569159 
1424	 0.317413271485559 
1425	 0.317403244627126 
1426	 0.317404264496137 
1427	 0.317363256392881 
1428	 0.317346978418067 
1429	 0.317345268925762 
1430	 0.317330020068027 
1431	 0.317309287503412 
1432	 0.317281713791185 
1433	 0.317246057664077 
1434	 0.317220938584017 
1435	 0.317175950216684 
1436	 0.317166070478011 
1437	 0.317176880655612 
1438	 0.317194911135182 
1439	 0.317246791877088 
1440	 0.317284275639268 
1441	 0.317287445192901 
1442	 0.317285247910317 
1443	 0.317276867831523 
1444	 0.317273111897228 
1445	 0.317293874651348 
1446	 0.317333286565136 
1447	 0.317361396771338 
1448	 0.317389883397707 
1449	 0.317422231654766 
1450	 0.317440953749614 
1451	 0.317462105312491 
1452	 0.31747792061215 
1453	 0.317498025090131 
1454	 0.317520179141089 
1455	 0.317543193878387 
1456	 0.317567331294167 
1457	 0.317588325049202 
1458	 0.317606361012526 
1459	 0.317629604686489 
1460	 0.317642220289674 
1461	 0.317682281906666 
1462	 0.317732859178032 
1463	 0.317796074470303 
1464	 0.317884711531408 
1465	 0.317972033891926 
1466	 0.318062770255632 
1467	 0.318162835636316 
1468	 0.318256683160795 
1469	 0.318380731399069 
1470	 0.318520080570289 
1471	 0.318685286193935 
1472	 0.318870791381624 
1473	 0.319060046504221 
1474	 0.319258589460167 
1475	 0.319457157196595 
1476	 0.319634033701951 
1477	 0.319807509428161 
1478	 0.319965915302594 
1479	 0.320125730029698 
1480	 0.320313302885027 
1481	 0.320512638136613 
1482	 0.320708502949772 
1483	 0.320913423131453 
1484	 0.321114624658315 
1485	 0.321311569645312 
1486	 0.321518309283501 
1487	 0.321739613749235 
1488	 0.321947695421783 
1489	 0.322151409971615 
1490	 0.322356437976829 
1491	 0.32256210282657 
1492	 0.322754241358224 
1493	 0.322947792367114 
1494	 0.323124297042738 
1495	 0.323270938721392 
1496	 0.323439909280613 
1497	 0.323619960303264 
1498	 0.323788479404071 
1499	 0.323965399817726 
1500	 0.324129506345721 
1501	 0.324269195475218 
1502	 0.324416470328678 
1503	 0.324564858811682 
1504	 0.324709814101541 
1505	 0.324867571279838 
1506	 0.325030714868437 
1507	 0.32519049156328 
1508	 0.325354767194927 
1509	 0.32549474507903 
1510	 0.325619935595758 
1511	 0.325736807944823 
1512	 0.325848290479358 
1513	 0.325975173966281 
1514	 0.326121348459659 
1515	 0.326270412139666 
1516	 0.326414064514601 
1517	 0.326551427887759 
1518	 0.326674093762325 
1519	 0.326808472878257 
1520	 0.326948701055329 
1521	 0.327086250341094 
1522	 0.327229280036903 
1523	 0.327360855946534 
1524	 0.327477615933613 
1525	 0.327614221575636 
1526	 0.327757990400602 
1527	 0.327891967371066 
1528	 0.328044296367967 
1529	 0.328166605670919 
1530	 0.328261865816921 
1531	 0.328369402222075 
1532	 0.328468385928649 
1533	 0.328568699865285 
1534	 0.328681962389663 
1535	 0.328777666996732 
1536	 0.328852232576832 
1537	 0.328942655403589 
1538	 0.329020066933745 
1539	 0.329115839117037 
1540	 0.329240471849889 
1541	 0.329350310972797 
1542	 0.329465522731922 
1543	 0.329571988457361 
1544	 0.329673033381721 
1545	 0.329766829348063 
1546	 0.329856075737099 
1547	 0.329936521796471 
1548	 0.330016793453806 
1549	 0.330075291320051 
1550	 0.330148893762562 
1551	 0.330244581653746 
1552	 0.330335848046561 
1553	 0.330423580510346 
1554	 0.330504700508556 
1555	 0.330583768618461 
1556	 0.330647943872691 
1557	 0.330699970999823 
1558	 0.330751029577564 
1559	 0.33077856451643 
1560	 0.330829033864226 
1561	 0.330885535527752 
1562	 0.330944080360424 
1563	 0.331008250181649 
1564	 0.331080605746562 
1565	 0.331159975090415 
1566	 0.331236410826716 
1567	 0.331327727188799 
1568	 0.331396708639368 
1569	 0.331449435923841 
1570	 0.331505883015833 
1571	 0.33155952974273 
1572	 0.331607411505044 
1573	 0.331644860990756 
1574	 0.331696588152861 
1575	 0.331750716084088 
1576	 0.331802359373432 
1577	 0.331870237415478 
1578	 0.331917609585189 
1579	 0.331940623546855 
1580	 0.331984107421796 
1581	 0.332027839418301 
1582	 0.332079726776891 
1583	 0.332152704000319 
1584	 0.332206408897086 
1585	 0.332253860594536 
1586	 0.332301081828757 
1587	 0.332343643893399 
1588	 0.332380250266026 
1589	 0.332405314687596 
1590	 0.332445573443114 
1591	 0.332494225053841 
1592	 0.332529312287319 
1593	 0.332554788867797 
1594	 0.33260238221701 
1595	 0.332643951127316 
1596	 0.332701380564338 
1597	 0.332808380473177 
1598	 0.332877641609919 
1599	 0.332951679363578 
1600	 0.332983529198465 
1601	 0.332950291064506 
1602	 0.332957227403653 
1603	 0.332941146360966 
1604	 0.332955448893228 
1605	 0.333023744116514 
1606	 0.33307383617698 
1607	 0.333124593847304 
1608	 0.333169539175682 
1609	 0.333239986501542 
1610	 0.333302998382913 
1611	 0.333341968459426 
1612	 0.333382947393699 
1613	 0.333388273856509 
1614	 0.333387070351358 
1615	 0.333405697665616 
1616	 0.333422859730219 
1617	 0.333440798343292 
1618	 0.333450800352972 
1619	 0.333486289459483 
1620	 0.333527677380713 
1621	 0.333554108206252 
1622	 0.333588735641823 
1623	 0.333611551548849 
1624	 0.333614719675453 
1625	 0.333626906830112 
1626	 0.33363927068456 
1627	 0.333663750600801 
1628	 0.333685007693047 
1629	 0.333723045990088 
1630	 0.333788139181793 
1631	 0.333824500332167 
1632	 0.333852717524885 
1633	 0.333884751919833 
1634	 0.333910989688131 
1635	 0.333930587670166 
1636	 0.333954330851021 
1637	 0.333966554070258 
1638	 0.333957466219287 
1639	 0.333969701887656 
1640	 0.33397580461845 
1641	 0.334014821746415 
1642	 0.334088770909934 
1643	 0.334127084595619 
1644	 0.334174466361693 
1645	 0.334206421562855 
1646	 0.334206273794952 
1647	 0.334225318519161 
1648	 0.33425934767582 
1649	 0.334276886066425 
1650	 0.334284743001332 
1651	 0.334293721283562 
1652	 0.334295038025618 
1653	 0.334304708416984 
1654	 0.334319537747991 
1655	 0.334327084790073 
1656	 0.334339791586443 
1657	 0.334338609882893 
1658	 0.334326235289756 
1659	 0.334313321921065 
1660	 0.334286128270391 
1661	 0.334277259736213 
1662	 0.33426392441532 
1663	 0.334275563383089 
1664	 0.334316319354158 
1665	 0.334338969753703 
1666	 0.334374909688365 
1667	 0.334391455463342 
1668	 0.334392614245502 
1669	 0.33439282601251 
1670	 0.334385278037983 
1671	 0.334378381809257 
1672	 0.334353269786691 
1673	 0.334358712633838 
1674	 0.334388928005341 
1675	 0.334395299783201 
1676	 0.334401870928578 
1677	 0.334417855996862 
1678	 0.334418655019852 
1679	 0.334434628470512 
1680	 0.334474383725812 
1681	 0.334506844528081 
1682	 0.334528172428262 
1683	 0.334567594884379 
1684	 0.334629071043778 
1685	 0.33467272016392 
1686	 0.334733398431978 
1687	 0.33475095354441 
1688	 0.334732869980082 
1689	 0.3347280974606 
1690	 0.334697825790129 
1691	 0.334685837588206 
1692	 0.334677665349541 
1693	 0.334693924055695 
1694	 0.334735123660478 
1695	 0.334748204156305 
1696	 0.334763001522039 
1697	 0.334786469633044 
1698	 0.334794606519265 
1699	 0.334811066269981 
1700	 0.334863865299712 
1701	 0.334874734565509 
1702	 0.334855453517279 
1703	 0.334837664063371 
1704	 0.334801178343915 
1705	 0.334777905104898 
1706	 0.33475710825585 
1707	 0.334729858687838 
1708	 0.334697851415074 
1709	 0.334682324670543 
1710	 0.334666931853488 
1711	 0.334656596040092 
1712	 0.334676990086845 
1713	 0.33465765360571 
1714	 0.334608056615029 
1715	 0.334584560512755 
1716	 0.334550765421349 
1717	 0.334533210449502 
1718	 0.334535688792458 
1719	 0.334534316893467 
1720	 0.334553170206949 
1721	 0.334532284852939 
1722	 0.334486077563621 
1723	 0.334468704901585 
1724	 0.33444286987155 
1725	 0.334405378938328 
1726	 0.334394212324633 
1727	 0.334352539181594 
1728	 0.334265743587199 
1729	 0.334211498418323 
1730	 0.33417548543433 
1731	 0.334120811804981 
1732	 0.334053634821284 
1733	 0.334008859493584 
1734	 0.333976486761636 
1735	 0.333919650284841 
1736	 0.33386849173992 
1737	 0.333801965178783 
1738	 0.333706445514399 
1739	 0.333623901629609 
1740	 0.333542832252053 
1741	 0.333475590947446 
1742	 0.333408490869135 
1743	 0.333347835508371 
1744	 0.333309129551194 
1745	 0.333242871084041 
1746	 0.333162682870103 
1747	 0.333085756984776 
1748	 0.333012149149872 
1749	 0.332933230548781 
1750	 0.332852938011375 
1751	 0.332767364700459 
1752	 0.332674391521806 
1753	 0.332606911126438 
1754	 0.332521500455917 
1755	 0.332430283148755 
1756	 0.332367964953328 
1757	 0.33227367953399 
1758	 0.33220500031466 
1759	 0.332155485187913 
1760	 0.332091961436677 
1761	 0.332047134474655 
1762	 0.331970018292814 
1763	 0.331888394168984 
1764	 0.331811383438602 
1765	 0.33172135688901 
1766	 0.331637724666296 
1767	 0.331523047911122 
1768	 0.331408074339715 
1769	 0.33132643277356 
1770	 0.331256438449812 
1771	 0.331222543664916 
1772	 0.33120325366007 
1773	 0.331166577031825 
1774	 0.331135374763872 
1775	 0.331110419221473 
1776	 0.331065661000432 
1777	 0.33101944993717 
1778	 0.33098372876668 
1779	 0.330935938117393 
1780	 0.330900314023086 
1781	 0.330885581237168 
1782	 0.330871432339993 
1783	 0.330859246734809 
1784	 0.330850993914736 
1785	 0.330851398129346 
1786	 0.330830482336629 
1787	 0.330813413993021 
1788	 0.330781509586292 
1789	 0.330717406978467 
1790	 0.330671579514533 
1791	 0.330613571779974 
1792	 0.330573417795475 
1793	 0.330529928621774 
1794	 0.330546913850351 
1795	 0.330618241605035 
1796	 0.330657012142938 
1797	 0.330739031024692 
1798	 0.330768007135275 
1799	 0.33075992559444 
1800	 0.330751727475564 
1801	 0.329914411280876 
1802	 0.330132980938752 
1803	 0.330364138958257 
1804	 0.330593180210422 
1805	 0.33084250270587 
1806	 0.331088022836279 
1807	 0.331298911687306 
1808	 0.331477417010865 
1809	 0.331650526062924 
1810	 0.331783890959415 
1811	 0.331857460437578 
1812	 0.331950731134745 
1813	 0.332060158547238 
1814	 0.332103576055472 
1815	 0.332102281375932 
1816	 0.332058949472685 
1817	 0.332023759193843 
1818	 0.331908382534704 
1819	 0.331885904885292 
1820	 0.331901787975438 
1821	 0.331936261546828 
1822	 0.331985178837219 
1823	 0.332024012862916 
1824	 0.332034267562374 
1825	 0.332027803070103 
1826	 0.332029267725385 
1827	 0.332024296900369 
1828	 0.33200633526525 
1829	 0.332003248760193 
1830	 0.331957987964855 
1831	 0.331869710673883 
1832	 0.331805390288485 
1833	 0.331731416457024 
1834	 0.33164389025179 
1835	 0.331597448280085 
1836	 0.331531734287932 
1837	 0.331456670366727 
1838	 0.331409577610993 
1839	 0.33135304547165 
1840	 0.331300480277543 
1841	 0.331235859379303 
1842	 0.331167727261043 
1843	 0.331099635159142 
1844	 0.331057973312071 
1845	 0.331007200209332 
1846	 0.330946902879133 
1847	 0.330907208781186 
1848	 0.330848455928771 
1849	 0.330799456222163 
1850	 0.330754499145663 
1851	 0.330730377137316 
1852	 0.330674454306466 
1853	 0.33063689678258 
1854	 0.330580727834601 
1855	 0.330483527869599 
1856	 0.330365091201367 
1857	 0.330177213921657 
1858	 0.329949619198451 
1859	 0.329719376340202 
1860	 0.329466084025032 
1861	 0.329196628555715 
1862	 0.328905587548987 
1863	 0.32857670457048 
1864	 0.328200180071451 
1865	 0.327805255379831 
1866	 0.327383056003317 
1867	 0.326924878499784 
1868	 0.326434164215426 
1869	 0.325890931196114 
1870	 0.325323248538829 
1871	 0.324709682027356 
1872	 0.32406436295402 
1873	 0.323378581051709 
1874	 0.322659166274349 
1875	 0.321857798237497 
1876	 0.321004084930984 
1877	 0.320108998402286 
1878	 0.319113346359681 
1879	 0.318046581312942 
1880	 0.316896688508681 
1881	 0.315660857520012 
1882	 0.314342729861333 
1883	 0.312955899357248 
1884	 0.311456747147844 
1885	 0.309861286780708 
1886	 0.308183560491638 
1887	 0.30638831945928 
1888	 0.304511777656185 
1889	 0.30254970664396 
1890	 0.300538140483426 
1891	 0.29855725110944 
1892	 0.296528095363454 
1893	 0.294525867269818 
1894	 0.292538359214149 
1895	 0.290574992168978 
1896	 0.288564469940469 
1897	 0.286628807900416 
1898	 0.284746314356728 
1899	 0.282917429742466 
1900	 0.281193141006471 
1901	 0.27956276664029 
1902	 0.278024367528904 
1903	 0.276595424431679 
1904	 0.275244337004315 
1905	 0.27399067960972 
1906	 0.272796257311084 
1907	 0.271693027867286 
1908	 0.270680681203497 
1909	 0.269720140537687 
1910	 0.268825335346348 
1911	 0.268002304762888 
1912	 0.267227405552232 
1913	 0.266506727880519 
1914	 0.265849659134206 
1915	 0.26523786922173 
1916	 0.264676786324066 
1917	 0.264161698687631 
1918	 0.263706157323305 
1919	 0.263294080174879 
1920	 0.262923107673559 
1921	 0.262556098469487 
1922	 0.262225776654272 
1923	 0.261953396019249 
1924	 0.261722177531287 
1925	 0.261546060100744 
1926	 0.26140720898824 
1927	 0.26131930978835 
1928	 0.261244856335773 
1929	 0.261204021659187 
1930	 0.261207088710031 
1931	 0.261243611351492 
1932	 0.261308770339247 
1933	 0.261406433249895 
1934	 0.261543507410099 
1935	 0.261686273638308 
1936	 0.261827569943742 
1937	 0.262019008162404 
1938	 0.262256585401486 
1939	 0.262492674597851 
1940	 0.262749851390928 
1941	 0.263038529746926 
1942	 0.263331806177348 
1943	 0.263625165213609 
1944	 0.263948659968119 
1945	 0.264291651729067 
1946	 0.264634079951884 
1947	 0.264977514918669 
1948	 0.26533809260426 
1949	 0.265712696044603 
1950	 0.266092992727042 
1951	 0.266483703194368 
1952	 0.266889850923478 
1953	 0.267277944864293 
1954	 0.267682925980726 
1955	 0.26812597935695 
1956	 0.268569829044488 
1957	 0.26903758959837 
1958	 0.26955729873686 
1959	 0.270042443889218 
1960	 0.270523232095252 
1961	 0.271003371522888 
1962	 0.271456534823521 
1963	 0.271945504116551 
1964	 0.2724473576033 
1965	 0.27296681825053 
1966	 0.273502865384722 
1967	 0.274054687571616 
1968	 0.274591515453213 
1969	 0.275117893990544 
1970	 0.275662369231935 
1971	 0.27621789221165 
1972	 0.276764233190063 
1973	 0.277330602527735 
1974	 0.277868213053177 
1975	 0.27839128197825 
1976	 0.278902767676223 
1977	 0.279402201936962 
1978	 0.27988953877163 
1979	 0.28039551830002 
1980	 0.280900048457874 
1981	 0.281387819379574 
1982	 0.281862528351824 
1983	 0.282358981961552 
1984	 0.282818854370393 
1985	 0.283339365913801 
1986	 0.283928992821118 
1987	 0.284478739144975 
1988	 0.285033749777051 
1989	 0.285614008835178 
1990	 0.286133887551767 
1991	 0.286623651142683 
1992	 0.287126272167859 
1993	 0.28761357763605 
1994	 0.288107144064888 
1995	 0.288599540626308 
1996	 0.289096305989758 
1997	 0.289595685407285 
1998	 0.290093397884872 
1999	 0.290589630963452 
2000	 0.291094970646677 
2001	 0.291615763911894 
2002	 0.292119106867945 
2003	 0.292608557939898 
2004	 0.293086134032275 
2005	 0.293551861405846 
2006	 0.293981804046938 
2007	 0.294435635359859 
2008	 0.294899336516889 
2009	 0.29534928981793 
2010	 0.2957912439105 
2011	 0.29623793942416 
2012	 0.296685396172795 
2013	 0.297125608065385 
2014	 0.297570782235621 
2015	 0.298006637020176 
2016	 0.298415884619648 
2017	 0.298833513149063 
2018	 0.299265182782544 
2019	 0.299707722295842 
2020	 0.300139283353007 
2021	 0.300585424198913 
2022	 0.301013820884757 
2023	 0.301413982851233 
2024	 0.301834972612774 
2025	 0.302263840512758 
2026	 0.302693201498879 
2027	 0.30312936771306 
2028	 0.303571211224233 
2029	 0.303999508615498 
2030	 0.304429120216228 
2031	 0.304837808307684 
2032	 0.305231261321006 
2033	 0.305623334819051 
2034	 0.306013880853678 
2035	 0.306379426015085 
2036	 0.306733708606807 
2037	 0.307077592294553 
2038	 0.307390395506266 
2039	 0.307708052131516 
2040	 0.308032210274848 
2041	 0.308337001059988 
2042	 0.308620911960495 
2043	 0.308905274724572 
2044	 0.309190806893475 
2045	 0.309458036468581 
2046	 0.309748703925501 
2047	 0.310060540576772 
2048	 0.310355238189313 
2049	 0.310661226508087 
2050	 0.310944666202833 
2051	 0.31119590019282 
2052	 0.31146959130351 
2053	 0.311751953080838 
2054	 0.312020817754187 
2055	 0.312289384873453 
2056	 0.312570164707831 
2057	 0.312827939279516 
2058	 0.313065326750304 
2059	 0.313303325650074 
2060	 0.313535891120011 
2061	 0.313766586741533 
2062	 0.313978046814393 
2063	 0.314210017013715 
2064	 0.314452257737876 
2065	 0.314692461245422 
2066	 0.314956479541518 
2067	 0.315193078393948 
2068	 0.315411208766524 
2069	 0.315628588614765 
2070	 0.315850730929312 
2071	 0.316054599814496 
2072	 0.316286227613328 
2073	 0.316542747535225 
2074	 0.316777796724813 
2075	 0.317021708459391 
2076	 0.317245288512577 
2077	 0.317448490252198 
2078	 0.317659036550285 
2079	 0.31784529702232 
2080	 0.318062008035831 
2081	 0.318296200893961 
2082	 0.318531067620679 
2083	 0.318779976896799 
2084	 0.31904497638729 
2085	 0.319283454253621 
2086	 0.319518441961987 
2087	 0.319733700021879 
2088	 0.319921029504977 
2089	 0.320133553248083 
2090	 0.320351840828636 
2091	 0.320553494295069 
2092	 0.320769320017522 
2093	 0.320959999817981 
2094	 0.321118537319324 
2095	 0.321284260397094 
2096	 0.321437562893985 
2097	 0.321600900977386 
2098	 0.321764628366666 
2099	 0.321922615656572 
2100	 0.322107450633402 
2101	 0.322313107328917 
2102	 0.322509199481119 
2103	 0.32271560908673 
2104	 0.322921797141617 
2105	 0.323114420954976 
2106	 0.323334057214766 
2107	 0.323583782804533 
2108	 0.323811715548482 
2109	 0.324037395072129 
2110	 0.324272010093647 
2111	 0.32449319916904 
2112	 0.324731488028347 
2113	 0.324989238930178 
2114	 0.325255389388272 
2115	 0.325503520163422 
2116	 0.325755946668489 
2117	 0.325981064703899 
2118	 0.326188338738969 
2119	 0.326391742460605 
2120	 0.326582255642167 
2121	 0.326765190057429 
2122	 0.326932745201297 
2123	 0.327108431173032 
2124	 0.327284713005141 
2125	 0.327446538318869 
2126	 0.327615111338998 
2127	 0.327764249660533 
2128	 0.327888593964407 
2129	 0.328009511030894 
2130	 0.328120658527177 
2131	 0.328229528471204 
2132	 0.328322688333543 
2133	 0.328413346808449 
2134	 0.328472857098147 
2135	 0.328505328144157 
2136	 0.32854182883425 
2137	 0.328574888253097 
2138	 0.328571225682566 
2139	 0.328559388757514 
2140	 0.328519244198598 
2141	 0.328424080158548 
2142	 0.328343722981494 
2143	 0.328269838663596 
2144	 0.328168866615845 
2145	 0.328039687553632 
2146	 0.327918672380455 
2147	 0.327785336669136 
2148	 0.327646784751414 
2149	 0.327508757500902 
2150	 0.32738547871314 
2151	 0.327231865328415 
2152	 0.327047739104567 
2153	 0.326892587813449 
2154	 0.326769988137628 
2155	 0.326577148596664 
2156	 0.326374652110648 
2157	 0.326141422100985 
2158	 0.325839492518396 
2159	 0.325547281483414 
2160	 0.325278115037331 
2161	 0.324952356639454 
2162	 0.324535715951011 
2163	 0.324182549381562 
2164	 0.323828540031886 
2165	 0.32347571046086 
2166	 0.323164372327334 
2167	 0.322933299556558 
2168	 0.322616941362103 
2169	 0.322280822773513 
2170	 0.321938933260994 
2171	 0.321558063285013 
2172	 0.321199926896318 
2173	 0.320853743263733 
2174	 0.320491091725648 
2175	 0.32014100801796 
2176	 0.319753006471934 
2177	 0.319343971589276 
2178	 0.318918433900615 
2179	 0.318447641679814 
2180	 0.317991693013744 
2181	 0.317559816319403 
2182	 0.317080929949595 
2183	 0.316561505534773 
2184	 0.316048093708937 
2185	 0.315557324601695 
2186	 0.315029652188401 
2187	 0.31455848348493 
2188	 0.314152545448437 
2189	 0.313710576226496 
2190	 0.313247053725832 
2191	 0.31282710119453 
2192	 0.312394732809203 
2193	 0.312035602732416 
2194	 0.311753940060102 
2195	 0.311445261116324 
2196	 0.311170339655901 
2197	 0.3108951937843 
2198	 0.31056574603685 
2199	 0.310321845755571 
2200	 0.310135762672714 
2201	 0.309972253312047 
2202	 0.309845317538689 
2203	 0.309771332987892 
2204	 0.309724842870036 
2205	 0.309697225286283 
2206	 0.30973315798333 
2207	 0.309822364393097 
2208	 0.309949852898693 
2209	 0.310137099943703 
2210	 0.310332320622966 
2211	 0.310564333841663 
2212	 0.310818184662223 
2213	 0.31110790655457 
2214	 0.311394035989829 
2215	 0.311737387690563 
2216	 0.312024167306798 
2217	 0.312305865547179 
2218	 0.312544150247804 
2219	 0.312725219031129 
2220	 0.312914803816583 
2221	 0.313096880885731 
2222	 0.313242044635661 
2223	 0.313377632140389 
2224	 0.313537554684064 
2225	 0.313658541502616 
2226	 0.3137574564695 
2227	 0.313835880594013 
2228	 0.313893646767307 
2229	 0.313944017109965 
2230	 0.313981462534748 
2231	 0.313990882762736 
2232	 0.313974985366841 
2233	 0.313964151362627 
2234	 0.313923031107324 
2235	 0.313894123431543 
2236	 0.313892247726931 
2237	 0.313849474457102 
2238	 0.313755477067635 
2239	 0.313706320360362 
2240	 0.313681533847017 
2241	 0.313625476684666 
2242	 0.313579113725752 
2243	 0.313521734105856 
2244	 0.31342799731408 
2245	 0.313334634083021 
2246	 0.313258137920438 
2247	 0.313196730712984 
2248	 0.313109305083258 
2249	 0.312994000582672 
2250	 0.312916819222975 
2251	 0.312846178817029 
2252	 0.312780628374326 
2253	 0.312738624508354 
2254	 0.312688376394643 
2255	 0.312640316573367 
2256	 0.312578464511534 
2257	 0.312497763657588 
2258	 0.312458094484815 
2259	 0.312416246369124 
2260	 0.312400836134504 
2261	 0.312440502781103 
2262	 0.312455721957057 
2263	 0.312488929880532 
2264	 0.312481327176873 
2265	 0.312429887313881 
2266	 0.312411092764031 
2267	 0.312356615068421 
2268	 0.312349211639208 
2269	 0.31236778894683 
2270	 0.312457980910444 
2271	 0.312507624742843 
2272	 0.312565863048954 
2273	 0.31263857739389 
2274	 0.312626908374087 
2275	 0.312647104266353 
2276	 0.312657031026658 
2277	 0.312696278493965 
2278	 0.312745235111509 
2279	 0.31279341770243 
2280	 0.312865014714921 
2281	 0.312907243440988 
2282	 0.312936298850895 
2283	 0.31296607000377 
2284	 0.312985641021964 
2285	 0.313004408302751 
2286	 0.313025415984986 
2287	 0.31303015218453 
2288	 0.313020122717813 
2289	 0.313022540667541 
2290	 0.313009660128255 
2291	 0.31300674548789 
2292	 0.313021559413897 
2293	 0.313032625799689 
2294	 0.313047790379362 
2295	 0.31305623057422 
2296	 0.313062384598936 
2297	 0.31306143987423 
2298	 0.3130774557165 
2299	 0.313089965480377 
2300	 0.313083784728467 
2301	 0.313092412620073 
2302	 0.313051157701326 
2303	 0.312998022741432 
2304	 0.312969954614823 
2305	 0.31289108646657 
2306	 0.312794333284542 
2307	 0.312659958202506 
2308	 0.312559664185312 
2309	 0.312429999193439 
2310	 0.312353601448791 
2311	 0.312325094015738 
2312	 0.312279065266512 
2313	 0.312260121579377 
2314	 0.312203234049816 
2315	 0.312146763280979 
2316	 0.312056137556917 
2317	 0.31190121321638 
2318	 0.31179857093607 
2319	 0.311718740713837 
2320	 0.311607753632482 
2321	 0.311492385021557 
2322	 0.311397393494127 
2323	 0.311270512401009 
2324	 0.311177577691364 
2325	 0.311160562360553 
2326	 0.311095250603453 
2327	 0.31104184015745 
2328	 0.310911934667624 
2329	 0.310736898153336 
2330	 0.310564982437602 
2331	 0.310454055396297 
2332	 0.31039135131144 
2333	 0.310316525736004 
2334	 0.31030684407664 
2335	 0.310275305706583 
2336	 0.310149744896631 
2337	 0.310101918142843 
2338	 0.310041459792479 
2339	 0.309899862468954 
2340	 0.309794190370147 
2341	 0.30967920723945 
2342	 0.309519022589104 
2343	 0.309353798663557 
2344	 0.309229543529571 
2345	 0.309112513243716 
2346	 0.309017255096995 
2347	 0.308883640402903 
2348	 0.308773411591632 
2349	 0.308601952866504 
2350	 0.308361340345002 
2351	 0.308169696055306 
2352	 0.307953238996555 
2353	 0.307770541521665 
2354	 0.307639815522501 
2355	 0.307459868063267 
2356	 0.307277631684614 
2357	 0.307087579339685 
2358	 0.306838043361231 
2359	 0.306656607775271 
2360	 0.306500500846846 
2361	 0.306368589036562 
2362	 0.30629572682288 
2363	 0.306203298936606 
2364	 0.306133663761156 
2365	 0.306021427763632 
2366	 0.305912025419876 
2367	 0.305757620699742 
2368	 0.305531696464562 
2369	 0.305348686421898 
2370	 0.305193735409897 
2371	 0.30494635373746 
2372	 0.304740712574937 
2373	 0.304553785210894 
2374	 0.304352388183916 
2375	 0.304162968681153 
2376	 0.303920637832183 
2377	 0.303641882140754 
2378	 0.30332913307941 
2379	 0.303013513073586 
2380	 0.302701894799441 
2381	 0.3024382527208 
2382	 0.302229815524878 
2383	 0.301985651439233 
2384	 0.301741074445144 
2385	 0.30151854692503 
2386	 0.301224027274362 
2387	 0.300899534539081 
2388	 0.300623274094879 
2389	 0.300377771361871 
2390	 0.300150429708331 
2391	 0.299910730602425 
2392	 0.299612686933635 
2393	 0.299246100004946 
2394	 0.298874483463859 
2395	 0.298496884071072 
2396	 0.29820321796072 
2397	 0.297982054163053 
2398	 0.297566764912124 
2399	 0.29719574461552 
2400	 0.296957996016741 
2401	 0.296556206400463 
2402	 0.296251217499655 
2403	 0.296070137902092 
2404	 0.295777286208143 
2405	 0.295490471774962 
2406	 0.295245757730655 
2407	 0.29483403806816 
2408	 0.294245272026733 
2409	 0.293777295339138 
2410	 0.293388119531732 
2411	 0.293035040214174 
2412	 0.292754310205481 
2413	 0.292357410600348 
2414	 0.291872101225392 
2415	 0.291429076650736 
2416	 0.291054527310327 
2417	 0.290790417305868 
2418	 0.290450211885027 
2419	 0.290172889275219 
2420	 0.289722508723932 
2421	 0.289100303606298 
2422	 0.288593209538277 
2423	 0.288013008842816 
2424	 0.287554678720075 
2425	 0.287234663382267 
2426	 0.286840073858145 
2427	 0.28650864491038 
2428	 0.286074838404419 
2429	 0.285546601897853 
2430	 0.285091275544826 
2431	 0.284586531758039 
2432	 0.28414896189926 
2433	 0.283776315474924 
2434	 0.28337768416127 
2435	 0.282983279684724 
2436	 0.282633395225652 
2437	 0.282354955450104 
2438	 0.282015270231075 
2439	 0.281661018680393 
2440	 0.281251512926481 
2441	 0.28079021168937 
2442	 0.280381894742792 
2443	 0.280002331246156 
2444	 0.279591140958209 
2445	 0.279114869621283 
2446	 0.27867110973274 
2447	 0.27821528382788 
2448	 0.277796118619013 
2449	 0.277433886592862 
2450	 0.277147143199115 
2451	 0.276932227798473 
2452	 0.276634927618528 
2453	 0.276404219596164 
2454	 0.275989931728094 
2455	 0.275388619049774 
2456	 0.274913833441521 
2457	 0.274419497209282 
2458	 0.273970261539882 
2459	 0.27357304952131 
2460	 0.273182869700398 
2461	 0.272770789443203 
2462	 0.272395945512293 
2463	 0.272077563898275 
2464	 0.271792876318159 
2465	 0.271587315964642 
2466	 0.271298082133942 
2467	 0.271090058642384 
2468	 0.270722332667507 
2469	 0.270071121590945 
2470	 0.269755708562333 
2471	 0.269257793099123 
2472	 0.268722269477049 
2473	 0.268483423389586 
2474	 0.267943563198061 
2475	 0.267389839521121 
2476	 0.267188227249891 
2477	 0.267020960263829 
2478	 0.266727842322498 
2479	 0.266477304136317 
2480	 0.266117807470147 
2481	 0.265649022921416 
2482	 0.265335915257574 
2483	 0.265007322666687 
2484	 0.26467855951344 
2485	 0.264281880712175 
2486	 0.263862439140348 
2487	 0.263591034073393 
2488	 0.263301320631353 
2489	 0.262966515415293 
2490	 0.262622172675333 
2491	 0.262396867009682 
2492	 0.262115222565074 
2493	 0.261820802276369 
2494	 0.261840904497434 
2495	 0.261724825460704 
2496	 0.261639484854406 
2497	 0.261818713910501 
2498	 0.261655684043632 
2499	 0.261276137198217 
2500	 0.260812476041279 
