Wavelength	mm1500005.asd
350	 6.53254238803407E-02 
351	 7.13131890452503E-02 
352	 7.33170197941676E-02 
353	 6.90109899630514E-02 
354	 7.01499793701964E-02 
355	 7.28382525214121E-02 
356	 7.27006968834861E-02 
357	 6.90289961052682E-02 
358	 7.60100552693795E-02 
359	 7.26910890408868E-02 
360	 6.29655172241483E-02 
361	 6.53342796075476E-02 
362	 6.66413678241898E-02 
363	 7.09945993685033E-02 
364	 7.74347941803278E-02 
365	 7.39153782639152E-02 
366	 7.34010031004174E-02 
367	 7.24246270702028E-02 
368	 0.067325280032433 
369	 7.24113173733083E-02 
370	 7.44962195104038E-02 
371	 7.20013874823931E-02 
372	 7.18023334772609E-02 
373	 7.49333406499632E-02 
374	 0.078182648064559 
375	 0.079473878720779 
376	 7.96448453905604E-02 
377	 7.90046063083818E-02 
378	 7.89303963406505E-02 
379	 8.06569256133073E-02 
380	 8.43765175445138E-02 
381	 0.083245766869245 
382	 0.079829431054994 
383	 8.28487351297897E-02 
384	 8.35541943867932E-02 
385	 8.27032620395101E-02 
386	 0.08243363252348 
387	 8.50181805088635E-02 
388	 8.57584174111337E-02 
389	 8.62690676385227E-02 
390	 8.88937394051734E-02 
391	 8.91434989754716E-02 
392	 8.95392813153989E-02 
393	 9.11205077779216E-02 
394	 9.33089400618766E-02 
395	 9.50113181595086E-02 
396	 9.64429215459318E-02 
397	 9.79478718150275E-02 
398	 9.98222612286719E-02 
399	 0.100036994462371 
400	 0.100338832246476 
401	 0.102791233605857 
402	 0.102904395501575 
403	 0.102815196244346 
404	 0.103509758692578 
405	 0.104404571849657 
406	 0.106435379298442 
407	 0.107495619119427 
408	 0.106615012408913 
409	 0.106975213166873 
410	 0.107567574413579 
411	 0.108632366481748 
412	 0.110566438010862 
413	 0.110974157346633 
414	 0.110529521724877 
415	 0.110286156698233 
416	 0.111403136484575 
417	 0.111144701698878 
418	 0.111271485693569 
419	 0.113165699087246 
420	 0.113290577914089 
421	 0.112223505180319 
422	 0.111524779442838 
423	 0.112897833058633 
424	 0.112880783127195 
425	 0.112316950335021 
426	 0.112021319708076 
427	 0.111644163660218 
428	 0.111778028462318 
429	 0.112188563392195 
430	 0.11238496023288 
431	 0.112083413136111 
432	 0.111833608121222 
433	 0.111754727868018 
434	 0.111531535398699 
435	 0.111506690068013 
436	 0.111650462124311 
437	 0.111842768034792 
438	 0.111867929603146 
439	 0.112426075887137 
440	 0.113150761878721 
441	 0.113282795279021 
442	 0.113599299446359 
443	 0.114198646380051 
444	 0.114886335913844 
445	 0.115139197013783 
446	 0.115475624778988 
447	 0.116000159473214 
448	 0.116658786541985 
449	 0.117296943919038 
450	 0.117911873486585 
451	 0.118523067576457 
452	 0.119143822140034 
453	 0.119288953820858 
454	 0.119466595507162 
455	 0.120005210419919 
456	 0.120384827262289 
457	 0.12067354086894 
458	 0.120943994375253 
459	 0.121262864031796 
460	 0.121523698933333 
461	 0.121751322354578 
462	 0.122032645850777 
463	 0.122534349792484 
464	 0.122617852991078 
465	 0.122718596176741 
466	 0.123271138380044 
467	 0.12342137003584 
468	 0.123702509238294 
469	 0.124038681038286 
470	 0.123899498888592 
471	 0.124003408468606 
472	 0.124379385776546 
473	 0.124792650981029 
474	 0.124661434706396 
475	 0.124565375852433 
476	 0.124690025486884 
477	 0.124990295185382 
478	 0.125116929907158 
479	 0.125264112734349 
480	 0.125571977862549 
481	 0.126046854781515 
482	 0.126281684694655 
483	 0.12635363567755 
484	 0.126460767376854 
485	 0.126657274437701 
486	 0.126794981086494 
487	 0.126916253292561 
488	 0.127200279011861 
489	 0.127269509718412 
490	 0.127275805856747 
491	 0.127400976077277 
492	 0.127681927773625 
493	 0.127909617006132 
494	 0.128048614226807 
495	 0.128171281950805 
496	 0.128454527306103 
497	 0.128677392594416 
498	 0.128764070666881 
499	 0.128900819758007 
500	 0.12918834765811 
501	 0.129504851891823 
502	 0.12969548877018 
503	 0.129814610581339 
504	 0.129829113157892 
505	 0.129847352167042 
506	 0.130085507132179 
507	 0.130217572195278 
508	 0.130317458247584 
509	 0.130466842450939 
510	 0.130546850614639 
511	 0.130626868706197 
512	 0.13076997516432 
513	 0.131008761695622 
514	 0.131133436160352 
515	 0.13129339741096 
516	 0.131521724486538 
517	 0.131571977461044 
518	 0.131759960358671 
519	 0.13195422281257 
520	 0.131979112180181 
521	 0.132244339267299 
522	 0.132463491307107 
523	 0.132553366312335 
524	 0.132680280593199 
525	 0.132774284503311 
526	 0.132876157965073 
527	 0.133009747889651 
528	 0.133057907246692 
529	 0.133237511745438 
530	 0.133507350223357 
531	 0.133667235683628 
532	 0.13381386795355 
533	 0.133928781347206 
534	 0.134024996166997 
535	 0.134219110948776 
536	 0.134375445095162 
537	 0.134547800475579 
538	 0.134810190701891 
539	 0.134835594319814 
540	 0.134914535309702 
541	 0.135138233290092 
542	 0.135270720490071 
543	 0.135481661805583 
544	 0.135730560545318 
545	 0.13594337447472 
546	 0.136156485082969 
547	 0.136301160045714 
548	 0.136409171069379 
549	 0.136594395876378 
550	 0.136826929234501 
551	 0.137068390682906 
552	 0.137297210455446 
553	 0.137548103111139 
554	 0.137748863456328 
555	 0.137956596532879 
556	 0.138278136119633 
557	 0.138596597595432 
558	 0.138917297847049 
559	 0.139277691709876 
560	 0.139766557543008 
561	 0.140042945033099 
562	 0.140264194460691 
563	 0.140704198477803 
564	 0.14123481796454 
565	 0.141632261100243 
566	 0.141886958889168 
567	 0.142230808662088 
568	 0.14262470168757 
569	 0.143108195907197 
570	 0.143706534159052 
571	 0.144378206336952 
572	 0.145007884587609 
573	 0.145552447867961 
574	 0.146033424010921 
575	 0.146523979647937 
576	 0.147207748212801 
577	 0.148087606061775 
578	 0.14875046340612 
579	 0.149365854713411 
580	 0.149921673406836 
581	 0.150368502109186 
582	 0.150857142402249 
583	 0.151407465695239 
584	 0.152060872854777 
585	 0.152913849352964 
586	 0.153864440078489 
587	 0.154859360534976 
588	 0.155858547927142 
589	 0.156828600086242 
590	 0.157761296597168 
591	 0.158656522390292 
592	 0.159521806873977 
593	 0.160313678553288 
594	 0.161037624427736 
595	 0.161681321940384 
596	 0.162144920961766 
597	 0.162570078135419 
598	 0.163037350299742 
599	 0.163593834460033 
600	 0.16429246303883 
601	 0.165072010415333 
602	 0.165850983979542 
603	 0.16653581649728 
604	 0.167231507885491 
605	 0.167975403939077 
606	 0.168760086060843 
607	 0.16947956520763 
608	 0.170168895424461 
609	 0.170862758004951 
610	 0.171583423426843 
611	 0.172109354177472 
612	 0.172533307850493 
613	 0.172979033947013 
614	 0.173388955484968 
615	 0.173792602456202 
616	 0.17419093070876 
617	 0.174566314342562 
618	 0.17496398830745 
619	 0.175360337553796 
620	 0.175728892825287 
621	 0.176053675806251 
622	 0.176384229073573 
623	 0.176679337765567 
624	 0.176892863831409 
625	 0.177201760661839 
626	 0.17752043864628 
627	 0.177805458824694 
628	 0.178096903105538 
629	 0.178382754576669 
630	 0.17864267499513 
631	 0.17887011676999 
632	 0.179112473288373 
633	 0.179387385641643 
634	 0.179676372294268 
635	 0.179932330252807 
636	 0.180132749833149 
637	 0.180353686795039 
638	 0.180633042056511 
639	 0.180869950539814 
640	 0.181154106678835 
641	 0.18144987902767 
642	 0.181678291207931 
643	 0.181909472503912 
644	 0.182134175619333 
645	 0.182351540425157 
646	 0.182583622682914 
647	 0.182777475637766 
648	 0.183042155342856 
649	 0.183446189893523 
650	 0.183698039443084 
651	 0.183895972500647 
652	 0.184128401058186 
653	 0.184454880217606 
654	 0.184745601725821 
655	 0.185018005504342 
656	 0.185300938656149 
657	 0.185572298606406 
658	 0.185889307187874 
659	 0.186215932246673 
660	 0.186488937813831 
661	 0.186815401730052 
662	 0.187154150082743 
663	 0.187475463105549 
664	 0.187786229983851 
665	 0.188115758301163 
666	 0.188418227713855 
667	 0.188672391497507 
668	 0.18904487800293 
669	 0.18945541688005 
670	 0.189859000441262 
671	 0.190244255645986 
672	 0.190567092994697 
673	 0.190884758622616 
674	 0.19125914044597 
675	 0.19174043164019 
676	 0.192107967299328 
677	 0.192426386271555 
678	 0.192857867479709 
679	 0.193253322579479 
680	 0.193662843897721 
681	 0.194116332495155 
682	 0.194597377826016 
683	 0.194994686704527 
684	 0.1954000617403 
685	 0.195899970640045 
686	 0.196356507774853 
687	 0.196816397985725 
688	 0.19728785572196 
689	 0.197750531577256 
690	 0.198203848752641 
691	 0.198678266729904 
692	 0.199181886224556 
693	 0.199671678961981 
694	 0.200160903127323 
695	 0.200649444102389 
696	 0.201138307245113 
697	 0.201651729436656 
698	 0.202171785171745 
699	 0.202673539041614 
700	 0.203130392919078 
701	 0.203625060204549 
702	 0.204163906128819 
703	 0.204714577067367 
704	 0.205188816135288 
705	 0.205657820339185 
706	 0.206161123577594 
707	 0.206705951109707 
708	 0.20719260343568 
709	 0.207691120743618 
710	 0.208222506118815 
711	 0.208712761699679 
712	 0.209187163917292 
713	 0.209658877249113 
714	 0.210142295051773 
715	 0.210672650215574 
716	 0.211124162174675 
717	 0.211524887029189 
718	 0.212009193493282 
719	 0.212521968281002 
720	 0.213013932061602 
721	 0.213445955306621 
722	 0.213789811959042 
723	 0.214198511335366 
724	 0.214608851152147 
725	 0.214928418884368 
726	 0.215334099749928 
727	 0.215721928965724 
728	 0.216048449431686 
729	 0.216342828583681 
730	 0.216676038616555 
731	 0.216989859739562 
732	 0.217242163349218 
733	 0.21748179000252 
734	 0.217766954353374 
735	 0.218029626845363 
736	 0.21818423525102 
737	 0.218403232018701 
738	 0.218602634227723 
739	 0.218751120250036 
740	 0.218894140109763 
741	 0.218997046585903 
742	 0.21907730373401 
743	 0.21916305725163 
744	 0.219294368334145 
745	 0.219319354622083 
746	 0.219306262056799 
747	 0.219393276708338 
748	 0.219391508422881 
749	 0.219328808655261 
750	 0.219272493397912 
751	 0.219308689052734 
752	 0.219264403921404 
753	 0.219128794208521 
754	 0.218963327147956 
755	 0.218919178132906 
756	 0.218847833133917 
757	 0.218702835024376 
758	 0.218507853226979 
759	 0.218360607803162 
760	 0.218222194800708 
761	 0.218039749250358 
762	 0.217764513599553 
763	 0.217565605642667 
764	 0.217375564192873 
765	 0.21712632286334 
766	 0.216920849730445 
767	 0.21675067063868 
768	 0.216554785037437 
769	 0.216269854439681 
770	 0.216029515880264 
771	 0.215765753829061 
772	 0.215464895486909 
773	 0.215197531488533 
774	 0.214892143494429 
775	 0.214614255212459 
776	 0.21439071699579 
777	 0.214054453616986 
778	 0.213758762683387 
779	 0.213501151355928 
780	 0.213212997406561 
781	 0.212897191450833 
782	 0.212635951758938 
783	 0.212400974141217 
784	 0.212052405365376 
785	 0.211753054429555 
786	 0.21146695601011 
787	 0.211155363462642 
788	 0.210863509178693 
789	 0.210624400305515 
790	 0.210371904704509 
791	 0.210037601453798 
792	 0.20975771132995 
793	 0.209478665044828 
794	 0.209183812345746 
795	 0.20889498407824 
796	 0.208584106228907 
797	 0.208310083463825 
798	 0.208084733483398 
799	 0.207811079821174 
800	 0.207563283651941 
801	 0.207333381605121 
802	 0.207091526398759 
803	 0.206829420770857 
804	 0.206523184361808 
805	 0.206236931909635 
806	 0.206061693761824 
807	 0.205828926596641 
808	 0.20554500298733 
809	 0.205253111969833 
810	 0.20501388343401 
811	 0.204838979535615 
812	 0.204606805948571 
813	 0.204288824160847 
814	 0.20419435788384 
815	 0.204063848075026 
816	 0.203867057202476 
817	 0.20366278483993 
818	 0.203426568893738 
819	 0.203230725017691 
820	 0.203055096879705 
821	 0.202815083721567 
822	 0.202699312721705 
823	 0.202561972685752 
824	 0.202346890717571 
825	 0.202225965102977 
826	 0.202079954039852 
827	 0.201890092044066 
828	 0.201685061420105 
829	 0.201557537636481 
830	 0.201372212147169 
831	 0.201176598450226 
832	 0.201083177328432 
833	 0.201001223072602 
834	 0.200926853697817 
835	 0.200835191067374 
836	 0.200687846088041 
837	 0.200588685903592 
838	 0.200511017173451 
839	 0.200420390938924 
840	 0.200308035192232 
841	 0.20021570692936 
842	 0.20011869196173 
843	 0.200004861753584 
844	 0.199967958026325 
845	 0.199899927121135 
846	 0.19980259866574 
847	 0.199735959647703 
848	 0.199764303347284 
849	 0.199731372739961 
850	 0.199609489675552 
851	 0.199495266002268 
852	 0.199416380256156 
853	 0.199405397285488 
854	 0.199435333602858 
855	 0.199402184735374 
856	 0.19942780233004 
857	 0.199460323689642 
858	 0.199453364700974 
859	 0.199486703841188 
860	 0.199455634457 
861	 0.199428713927931 
862	 0.199482225460064 
863	 0.199437878179215 
864	 0.199431883306152 
865	 0.199492907546961 
866	 0.199562811183322 
867	 0.199530585113177 
868	 0.199545505714013 
869	 0.199626805287339 
870	 0.199647803957072 
871	 0.199712919061942 
872	 0.199797094605327 
873	 0.199879791469771 
874	 0.199980914937848 
875	 0.200126953976499 
876	 0.200196734080519 
877	 0.200146796531671 
878	 0.200216710181631 
879	 0.200398947923343 
880	 0.200553313082933 
881	 0.200571786253409 
882	 0.200698603172278 
883	 0.200850508406305 
884	 0.200984478652388 
885	 0.201092492285302 
886	 0.201201210325198 
887	 0.201391890099296 
888	 0.20160755105619 
889	 0.201701057769862 
890	 0.201873452430536 
891	 0.202010146464204 
892	 0.202103661692254 
893	 0.202316695789009 
894	 0.20251894895902 
895	 0.202660844435414 
896	 0.202780650758074 
897	 0.203037105498578 
898	 0.203353054270675 
899	 0.203607371726673 
900	 0.203755753980909 
901	 0.203987251934641 
902	 0.20416100624068 
903	 0.204332949099823 
904	 0.204582470481315 
905	 0.204818858028461 
906	 0.205060879237017 
907	 0.205323594795333 
908	 0.205625933267468 
909	 0.206025197168922 
910	 0.206359723633226 
911	 0.206564971699313 
912	 0.206689906498774 
913	 0.206966585007197 
914	 0.207290511845646 
915	 0.207589812151008 
916	 0.207866151252652 
917	 0.208233290292761 
918	 0.208597275613328 
919	 0.208885707052591 
920	 0.209101326093097 
921	 0.209471339229239 
922	 0.209886340410013 
923	 0.210255974958829 
924	 0.21061198224851 
925	 0.2109077820976 
926	 0.211299355823087 
927	 0.211793751598267 
928	 0.212061296111016 
929	 0.212506955591705 
930	 0.212961127170402 
931	 0.213277490096972 
932	 0.213713348018541 
933	 0.214045679370138 
934	 0.214386466541478 
935	 0.214865416372991 
936	 0.215381161125232 
937	 0.215854215888648 
938	 0.216302659093544 
939	 0.216773017758252 
940	 0.217264471003763 
941	 0.217746806644606 
942	 0.218239812547012 
943	 0.218759947042518 
944	 0.219233903356432 
945	 0.219622368212767 
946	 0.220062427653057 
947	 0.220690273071339 
948	 0.221297668061487 
949	 0.221761295726258 
950	 0.222169146070799 
951	 0.222683167359745 
952	 0.223220769912887 
953	 0.223786860973144 
954	 0.224372513661587 
955	 0.224949605749126 
956	 0.225427801974506 
957	 0.226008888840151 
958	 0.226654614866456 
959	 0.227196912393851 
960	 0.227691463243028 
961	 0.228285347907762 
962	 0.228974607590499 
963	 0.229632867811791 
964	 0.23009866925515 
965	 0.230706410474608 
966	 0.231394832416615 
967	 0.231899112680258 
968	 0.232588781486975 
969	 0.233273615372124 
970	 0.233912087197035 
971	 0.234576534406064 
972	 0.2352042035421 
973	 0.23592468833513 
974	 0.236663792156618 
975	 0.237264959906556 
976	 0.237989454455641 
977	 0.238705773648029 
978	 0.239326968410599 
979	 0.239874190767273 
980	 0.240651102505065 
981	 0.241457655591924 
982	 0.242176353959816 
983	 0.242801496167732 
984	 0.243459829676783 
985	 0.244100344148229 
986	 0.244810586308843 
987	 0.245667060271317 
988	 0.246311371824699 
989	 0.246866954439955 
990	 0.247510909419571 
991	 0.248338384630489 
992	 0.249059200819384 
993	 0.249605092816278 
994	 0.250179379123248 
995	 0.250993565316414 
996	 0.251793007314588 
997	 0.252558663017068 
998	 0.253256150983969 
999	 0.253894955355132 
1000	 0.254622063926528 
1001	 0.252892361186779 
1002	 0.253528591932006 
1003	 0.254165531497133 
1004	 0.254776921857515 
1005	 0.255407400942613 
1006	 0.256036512520798 
1007	 0.256646624246522 
1008	 0.257230143894469 
1009	 0.257815810956919 
1010	 0.258429391060294 
1011	 0.259025330883997 
1012	 0.259563688499255 
1013	 0.26012817499436 
1014	 0.26077374318256 
1015	 0.261404461661802 
1016	 0.261991572988464 
1017	 0.262563869113906 
1018	 0.263147395561596 
1019	 0.26362465736793 
1020	 0.264086893873488 
1021	 0.264613094607721 
1022	 0.265104567851606 
1023	 0.26565188488395 
1024	 0.266192625305894 
1025	 0.266657181084752 
1026	 0.267183566568339 
1027	 0.267655156206122 
1028	 0.268082727325444 
1029	 0.268579799458673 
1030	 0.269018794094972 
1031	 0.269483057733077 
1032	 0.269951931567251 
1033	 0.270478731401098 
1034	 0.27094751317595 
1035	 0.271413929469849 
1036	 0.271893709234245 
1037	 0.272325519644811 
1038	 0.27278965565563 
1039	 0.273307379965944 
1040	 0.273779335607036 
1041	 0.274280355089199 
1042	 0.274796564642626 
1043	 0.275222568824207 
1044	 0.275671358379414 
1045	 0.27611786634567 
1046	 0.276573579038413 
1047	 0.277044008395054 
1048	 0.277562699534245 
1049	 0.278030225838404 
1050	 0.278511220646489 
1051	 0.278968223746983 
1052	 0.27936006899611 
1053	 0.279838360533281 
1054	 0.280340968229281 
1055	 0.280817760138049 
1056	 0.281309423153939 
1057	 0.281779690217232 
1058	 0.282240778738212 
1059	 0.282680176693918 
1060	 0.283088858824045 
1061	 0.283515778803439 
1062	 0.283939474970758 
1063	 0.284344431083893 
1064	 0.284711422852015 
1065	 0.285107655478409 
1066	 0.28554334947279 
1067	 0.285953483703681 
1068	 0.286420232345225 
1069	 0.286887338850122 
1070	 0.287309449580223 
1071	 0.287688239269075 
1072	 0.288098729849853 
1073	 0.288482432772266 
1074	 0.288888679560669 
1075	 0.289333926042404 
1076	 0.289734870721483 
1077	 0.290113162285719 
1078	 0.290480068226597 
1079	 0.290787335519468 
1080	 0.291105771897464 
1081	 0.291391106078859 
1082	 0.291694181118677 
1083	 0.292050214180303 
1084	 0.292431465529303 
1085	 0.292804661553732 
1086	 0.293261381306381 
1087	 0.293641011165811 
1088	 0.293957426881458 
1089	 0.294310039245072 
1090	 0.294722575810358 
1091	 0.295018460041057 
1092	 0.295324412216807 
1093	 0.295669059228834 
1094	 0.295990919475019 
1095	 0.296336519047941 
1096	 0.296667713721664 
1097	 0.29698251132302 
1098	 0.29730499063355 
1099	 0.297602270120952 
1100	 0.297904103405281 
1101	 0.298217958190878 
1102	 0.298539057541114 
1103	 0.298861291334615 
1104	 0.299143595837277 
1105	 0.299494455570851 
1106	 0.299843986835341 
1107	 0.300141224604367 
1108	 0.300495484373292 
1109	 0.300835408712519 
1110	 0.301162692181357 
1111	 0.301499642535325 
1112	 0.301863720927013 
1113	 0.302178217695476 
1114	 0.302462767196886 
1115	 0.302766089962347 
1116	 0.303046931665504 
1117	 0.303357605259624 
1118	 0.303694972048634 
1119	 0.304014229337186 
1120	 0.304345550349577 
1121	 0.304686411522603 
1122	 0.305007360352784 
1123	 0.305335137789393 
1124	 0.305670097389687 
1125	 0.306020163505154 
1126	 0.306325943078403 
1127	 0.306612931248212 
1128	 0.306922556146748 
1129	 0.307204800049201 
1130	 0.307511361744536 
1131	 0.307868817998093 
1132	 0.308179382879012 
1133	 0.308451174120166 
1134	 0.308749881083217 
1135	 0.309036949673614 
1136	 0.309346647588517 
1137	 0.30967597640725 
1138	 0.309990071709697 
1139	 0.310296110023437 
1140	 0.31059557511654 
1141	 0.310890497292916 
1142	 0.31117621709849 
1143	 0.311464720040358 
1144	 0.311747586364111 
1145	 0.312033041479126 
1146	 0.312342581412248 
1147	 0.312606900062358 
1148	 0.312839133392071 
1149	 0.313085687252861 
1150	 0.313299625919796 
1151	 0.313526577911126 
1152	 0.31380843062739 
1153	 0.314110787603895 
1154	 0.314382125503803 
1155	 0.314658572669096 
1156	 0.31492667681045 
1157	 0.315174224851414 
1158	 0.315424947548136 
1159	 0.315681574770539 
1160	 0.315938130549084 
1161	 0.316190077808052 
1162	 0.316434817988647 
1163	 0.316683435016792 
1164	 0.316925124266531 
1165	 0.317141793055377 
1166	 0.317383502361135 
1167	 0.317626656731711 
1168	 0.317875378974976 
1169	 0.318102971503052 
1170	 0.3183186667151 
1171	 0.318545104653036 
1172	 0.31876117104244 
1173	 0.318986099590869 
1174	 0.319232589371203 
1175	 0.319455714409449 
1176	 0.31965795218476 
1177	 0.319876230924143 
1178	 0.320103418174593 
1179	 0.320316620328702 
1180	 0.320533228728156 
1181	 0.320743774116196 
1182	 0.320939276005035 
1183	 0.321126810386134 
1184	 0.321337520322145 
1185	 0.321568229095802 
1186	 0.321771796918336 
1187	 0.321980263753487 
1188	 0.322171717837265 
1189	 0.322320144531953 
1190	 0.32251797794312 
1191	 0.322753807735432 
1192	 0.322951007595894 
1193	 0.323158558849168 
1194	 0.323346919572856 
1195	 0.323494715729612 
1196	 0.323655956612475 
1197	 0.323821210360249 
1198	 0.323987267763252 
1199	 0.324152544961156 
1200	 0.32430759372771 
1201	 0.32448354048021 
1202	 0.324668773399141 
1203	 0.32485770460701 
1204	 0.325072139944869 
1205	 0.325251606388014 
1206	 0.325413479412934 
1207	 0.325586940779735 
1208	 0.325753931535349 
1209	 0.325914038372971 
1210	 0.326085185330932 
1211	 0.326241755918851 
1212	 0.326368868247063 
1213	 0.326511975331458 
1214	 0.326664997507524 
1215	 0.32681168538331 
1216	 0.326957656248535 
1217	 0.327111197388518 
1218	 0.327245591028942 
1219	 0.327366250026835 
1220	 0.327494743250779 
1221	 0.327609969556596 
1222	 0.327744638910792 
1223	 0.327899871154292 
1224	 0.328035094216488 
1225	 0.328176778942484 
1226	 0.328301660574275 
1227	 0.328398464940096 
1228	 0.328513074001874 
1229	 0.328631173132121 
1230	 0.328746915297962 
1231	 0.328869393689108 
1232	 0.328989717674917 
1233	 0.329108193525029 
1234	 0.329223449914512 
1235	 0.329333905745273 
1236	 0.329440017033777 
1237	 0.329553439038747 
1238	 0.329672799318339 
1239	 0.329774546930204 
1240	 0.329866645265986 
1241	 0.329971883145601 
1242	 0.330071046819861 
1243	 0.330169796938716 
1244	 0.33028176323685 
1245	 0.330390576098662 
1246	 0.330483457112956 
1247	 0.330586360099889 
1248	 0.330694717978166 
1249	 0.330817155132126 
1250	 0.330935803467139 
1251	 0.331054769813552 
1252	 0.331160243371477 
1253	 0.33127102326738 
1254	 0.331353674925073 
1255	 0.331408311067303 
1256	 0.331478146907982 
1257	 0.331535077228093 
1258	 0.331602557680361 
1259	 0.331685990333765 
1260	 0.331750918099068 
1261	 0.331803602088266 
1262	 0.331864773986915 
1263	 0.331915935235629 
1264	 0.331979946795768 
1265	 0.332061792433077 
1266	 0.332134807738202 
1267	 0.332208059765809 
1268	 0.332279005108826 
1269	 0.33235072720389 
1270	 0.332408897182232 
1271	 0.332494979646506 
1272	 0.332596228935173 
1273	 0.33269619025468 
1274	 0.332796900446049 
1275	 0.332928331957232 
1276	 0.333082757420038 
1277	 0.333218893953446 
1278	 0.333374491795193 
1279	 0.333523037491408 
1280	 0.333649145513456 
1281	 0.333790598010495 
1282	 0.333945346613736 
1283	 0.334103296998171 
1284	 0.334276229862628 
1285	 0.334426665058056 
1286	 0.334570964291834 
1287	 0.334725115955953 
1288	 0.334861281236661 
1289	 0.33498049093813 
1290	 0.335094623757822 
1291	 0.335206498729034 
1292	 0.33530633311312 
1293	 0.335381466800969 
1294	 0.335470660966699 
1295	 0.335578243166403 
1296	 0.335645998467582 
1297	 0.335693193559236 
1298	 0.33574624265546 
1299	 0.33578771190307 
1300	 0.335813395519714 
1301	 0.335833175687824 
1302	 0.335848073646798 
1303	 0.335859881644374 
1304	 0.335828054152188 
1305	 0.335800794877547 
1306	 0.335789290729576 
1307	 0.335738977431345 
1308	 0.335714422312806 
1309	 0.33568463475637 
1310	 0.33566287129772 
1311	 0.335626171785829 
1312	 0.335585851963155 
1313	 0.335539721118904 
1314	 0.335480078468958 
1315	 0.335438555033254 
1316	 0.335405145367507 
1317	 0.335366343341898 
1318	 0.33532593147906 
1319	 0.335295489110085 
1320	 0.335262420541173 
1321	 0.335234153421053 
1322	 0.335214686286004 
1323	 0.335213858871326 
1324	 0.335185193710511 
1325	 0.335135397974628 
1326	 0.335081381454971 
1327	 0.335031472113455 
1328	 0.334970642671031 
1329	 0.334924466902248 
1330	 0.334869352407087 
1331	 0.334813510306176 
1332	 0.334737313082159 
1333	 0.334649922409417 
1334	 0.334572659638219 
1335	 0.334470446644 
1336	 0.334405083589077 
1337	 0.334369355627425 
1338	 0.334320910885804 
1339	 0.33428602423131 
1340	 0.334240946861403 
1341	 0.334175734099204 
1342	 0.334132471136993 
1343	 0.334099734822465 
1344	 0.334073111572656 
1345	 0.334037927487802 
1346	 0.333998761622589 
1347	 0.33394461806946 
1348	 0.333872707738577 
1349	 0.333785669909499 
1350	 0.333714550591309 
1351	 0.333654373397921 
1352	 0.333602358477167 
1353	 0.333529767012016 
1354	 0.333463336196066 
1355	 0.333390352230647 
1356	 0.333285928914794 
1357	 0.333216261889939 
1358	 0.333177370108476 
1359	 0.333118541004165 
1360	 0.333059996097684 
1361	 0.332994044249871 
1362	 0.332907800812441 
1363	 0.332845407893271 
1364	 0.332791933756851 
1365	 0.332741031288435 
1366	 0.332704698983261 
1367	 0.332670975061493 
1368	 0.332624354949743 
1369	 0.332571975290391 
1370	 0.332506635626349 
1371	 0.332425000783679 
1372	 0.332336523110979 
1373	 0.332235113109899 
1374	 0.332114081242785 
1375	 0.331990065620934 
1376	 0.331820460671033 
1377	 0.331627011603476 
1378	 0.331397876454631 
1379	 0.331114553064179 
1380	 0.330850523181029 
1381	 0.330571765509674 
1382	 0.330275364336809 
1383	 0.330001199152771 
1384	 0.329668727704158 
1385	 0.329315492150746 
1386	 0.328910744285751 
1387	 0.328452643384128 
1388	 0.327972511544289 
1389	 0.327468091128261 
1390	 0.326899991520369 
1391	 0.326314597722649 
1392	 0.325706879537932 
1393	 0.325017387362634 
1394	 0.324324108211246 
1395	 0.323598888719622 
1396	 0.322838474798832 
1397	 0.322100537238099 
1398	 0.321357201358295 
1399	 0.320609638849773 
1400	 0.319853183834303 
1401	 0.319129345690499 
1402	 0.318398196588502 
1403	 0.317706798128336 
1404	 0.317036937262951 
1405	 0.316411293760596 
1406	 0.315808864918235 
1407	 0.315245696400242 
1408	 0.314720842064375 
1409	 0.314235639195908 
1410	 0.313740829214661 
1411	 0.313364461870766 
1412	 0.313053978942605 
1413	 0.312822039800741 
1414	 0.31270066495274 
1415	 0.31262539271674 
1416	 0.312611871284797 
1417	 0.312664597642493 
1418	 0.312731841518706 
1419	 0.312830521053686 
1420	 0.312945632923024 
1421	 0.313046984072638 
1422	 0.313151323596291 
1423	 0.313229627063632 
1424	 0.313255077810125 
1425	 0.313222858769169 
1426	 0.313208990264314 
1427	 0.31314838785869 
1428	 0.313132931525674 
1429	 0.313144057222039 
1430	 0.313140801321346 
1431	 0.313152843834794 
1432	 0.313136504798206 
1433	 0.313097511467149 
1434	 0.313072339256125 
1435	 0.313022396570286 
1436	 0.313008955888859 
1437	 0.313026556636056 
1438	 0.313033464228798 
1439	 0.31305415294063 
1440	 0.313073657090153 
1441	 0.313075001420131 
1442	 0.31307221533272 
1443	 0.313048815648929 
1444	 0.313031502231059 
1445	 0.313044520161693 
1446	 0.313058949958012 
1447	 0.313099329341945 
1448	 0.313144065176104 
1449	 0.313157239388215 
1450	 0.313168841606442 
1451	 0.313186594881669 
1452	 0.313196053049063 
1453	 0.313219752497414 
1454	 0.313256640273245 
1455	 0.313291024604274 
1456	 0.313328124155348 
1457	 0.313367155901864 
1458	 0.313408381726492 
1459	 0.313447694512992 
1460	 0.313480612041557 
1461	 0.313534792932864 
1462	 0.313587924426464 
1463	 0.313665266488534 
1464	 0.313779373399666 
1465	 0.313872902748416 
1466	 0.313960306976386 
1467	 0.314065453858708 
1468	 0.314150014149752 
1469	 0.314280154205046 
1470	 0.314444530608408 
1471	 0.314627788408652 
1472	 0.31483422355946 
1473	 0.315041743722287 
1474	 0.315222485637226 
1475	 0.315412289697294 
1476	 0.315598434269388 
1477	 0.315775846915176 
1478	 0.315976292626712 
1479	 0.316198933757953 
1480	 0.316424192819777 
1481	 0.316639468025593 
1482	 0.316855005553921 
1483	 0.317072832798351 
1484	 0.317279303459145 
1485	 0.317474760291159 
1486	 0.317683122252712 
1487	 0.317880950565326 
1488	 0.318097528773946 
1489	 0.318343577991806 
1490	 0.318562291892614 
1491	 0.318787829009747 
1492	 0.318987324137607 
1493	 0.319149185474639 
1494	 0.319331991641139 
1495	 0.319507068727742 
1496	 0.319693420326203 
1497	 0.319906759547601 
1498	 0.320094533547954 
1499	 0.32027157082326 
1500	 0.320447165784885 
1501	 0.320602606329542 
1502	 0.320770539346803 
1503	 0.320942918769221 
1504	 0.321115896373147 
1505	 0.321312705132667 
1506	 0.321494292989772 
1507	 0.321663524970929 
1508	 0.321839600756304 
1509	 0.321990831504183 
1510	 0.322133666633291 
1511	 0.322269598205077 
1512	 0.322398442704734 
1513	 0.322535508293088 
1514	 0.322692331190862 
1515	 0.322866141180782 
1516	 0.323044402184985 
1517	 0.323203433375764 
1518	 0.323352951114547 
1519	 0.323494295775456 
1520	 0.323617752605852 
1521	 0.323760077540243 
1522	 0.323902718491554 
1523	 0.324052485442976 
1524	 0.324218424843403 
1525	 0.324367278140563 
1526	 0.324515556439178 
1527	 0.324654264439408 
1528	 0.324781129618784 
1529	 0.324906829315294 
1530	 0.325025850769002 
1531	 0.325147894032203 
1532	 0.32527331813808 
1533	 0.325384663500443 
1534	 0.325488417744552 
1535	 0.325590871500863 
1536	 0.325675636040597 
1537	 0.32577659445254 
1538	 0.32588983094793 
1539	 0.325995952333789 
1540	 0.326100628113036 
1541	 0.326209796473738 
1542	 0.326328087092792 
1543	 0.326429724648067 
1544	 0.326534406445332 
1545	 0.326624241618295 
1546	 0.326694609813012 
1547	 0.326758419293843 
1548	 0.3268181429332 
1549	 0.32687789022729 
1550	 0.326953148762073 
1551	 0.327044993753221 
1552	 0.327159402604897 
1553	 0.327277810639916 
1554	 0.327389174450917 
1555	 0.327480709310298 
1556	 0.327547981265674 
1557	 0.327608106031498 
1558	 0.32767235995315 
1559	 0.32773612248678 
1560	 0.327803272095874 
1561	 0.327877834455588 
1562	 0.327950560647473 
1563	 0.328017841557807 
1564	 0.328099105984916 
1565	 0.328191931139161 
1566	 0.328276830427242 
1567	 0.328369940659078 
1568	 0.328445069526591 
1569	 0.328514051613945 
1570	 0.328571246871109 
1571	 0.328614679641927 
1572	 0.328659443757634 
1573	 0.328689956130693 
1574	 0.328734040302914 
1575	 0.328777338615442 
1576	 0.328830773892806 
1577	 0.328905192478284 
1578	 0.328955866019373 
1579	 0.328990448948575 
1580	 0.329046718257529 
1581	 0.329092848814078 
1582	 0.329158222668464 
1583	 0.329268955969874 
1584	 0.329339937275904 
1585	 0.329397219363023 
1586	 0.329450574222472 
1587	 0.329481065798484 
1588	 0.329519869397433 
1589	 0.329565045955449 
1590	 0.329601047432651 
1591	 0.329624702870888 
1592	 0.329659877062301 
1593	 0.329684374379263 
1594	 0.329730379223768 
1595	 0.329803871005895 
1596	 0.329862878800764 
1597	 0.329935743438326 
1598	 0.32999275057757 
1599	 0.330038490758413 
1600	 0.330073642260856 
1601	 0.330092426662596 
1602	 0.330115114000187 
1603	 0.330120635528866 
1604	 0.330141042159956 
1605	 0.330161661655113 
1606	 0.330199595461054 
1607	 0.330245347093748 
1608	 0.33031746275886 
1609	 0.33039001564518 
1610	 0.330465207437246 
1611	 0.330532155393336 
1612	 0.330575789095523 
1613	 0.330602888121454 
1614	 0.330632081435595 
1615	 0.330646143371234 
1616	 0.330652388002124 
1617	 0.330687613702822 
1618	 0.330714680189337 
1619	 0.330733942599603 
1620	 0.330775518980145 
1621	 0.330802645748991 
1622	 0.330824483737713 
1623	 0.330832951240456 
1624	 0.330832038423937 
1625	 0.330844840652514 
1626	 0.330843196240265 
1627	 0.330865101613143 
1628	 0.330909725426774 
1629	 0.330949310707343 
1630	 0.330994254663545 
1631	 0.331033712311437 
1632	 0.331077656220183 
1633	 0.331119016660234 
1634	 0.331157743071131 
1635	 0.331187987493669 
1636	 0.331221270592447 
1637	 0.331240544004469 
1638	 0.331232643282766 
1639	 0.331261088870816 
1640	 0.331302326566899 
1641	 0.331337779845782 
1642	 0.331393004364169 
1643	 0.331429596633749 
1644	 0.331452969516494 
1645	 0.331478469134225 
1646	 0.331504515472306 
1647	 0.331524433682274 
1648	 0.331534857309754 
1649	 0.331550449919087 
1650	 0.331564376159576 
1651	 0.33158364500118 
1652	 0.331607857566252 
1653	 0.331626478053871 
1654	 0.331644898351109 
1655	 0.331664095703513 
1656	 0.331691250135706 
1657	 0.331692166660144 
1658	 0.331677957722805 
1659	 0.331672903828102 
1660	 0.331649395684254 
1661	 0.331639245217036 
1662	 0.331645068669825 
1663	 0.331644330595101 
1664	 0.331644905295841 
1665	 0.331632028204461 
1666	 0.331600668301532 
1667	 0.331604551525306 
1668	 0.331619909794471 
1669	 0.331624033857665 
1670	 0.331654112632651 
1671	 0.331664621952415 
1672	 0.331649035933652 
1673	 0.331641935794004 
1674	 0.331636774650284 
1675	 0.331641298090635 
1676	 0.331638661002098 
1677	 0.331650056361617 
1678	 0.331678152603908 
1679	 0.331709352354135 
1680	 0.331752291244106 
1681	 0.331780949904229 
1682	 0.331809931102389 
1683	 0.331841883547001 
1684	 0.331867750625991 
1685	 0.331889687218653 
1686	 0.331925896783753 
1687	 0.331938673571578 
1688	 0.331922997888125 
1689	 0.331924556827969 
1690	 0.331922172466521 
1691	 0.331928345720729 
1692	 0.331945870849475 
1693	 0.331957461009382 
1694	 0.33196034510006 
1695	 0.331984388494168 
1696	 0.332019152985482 
1697	 0.332052467014874 
1698	 0.33211657822705 
1699	 0.332139509186625 
1700	 0.332143461518483 
1701	 0.332139539344402 
1702	 0.332104610079854 
1703	 0.332086493700379 
1704	 0.332075295538818 
1705	 0.332049028783745 
1706	 0.332014660283897 
1707	 0.331987686939363 
1708	 0.331941019281568 
1709	 0.331925529415093 
1710	 0.331942441887275 
1711	 0.331938513392377 
1712	 0.331948033213954 
1713	 0.331931267702976 
1714	 0.331881148247213 
1715	 0.331855426824011 
1716	 0.331824226547002 
1717	 0.331811043029306 
1718	 0.33182585677023 
1719	 0.331819317060636 
1720	 0.331810091489784 
1721	 0.331799706533584 
1722	 0.331783550472139 
1723	 0.33176161630238 
1724	 0.331741341759294 
1725	 0.331712840545067 
1726	 0.331677944295209 
1727	 0.331625611202149 
1728	 0.331551720851054 
1729	 0.331504982674786 
1730	 0.331466728154314 
1731	 0.331401512347127 
1732	 0.33134146086275 
1733	 0.331279306203325 
1734	 0.331182172371115 
1735	 0.331118509614597 
1736	 0.33108526889717 
1737	 0.331036909341572 
1738	 0.330987063473629 
1739	 0.330917634628454 
1740	 0.330842711346126 
1741	 0.330777119889369 
1742	 0.330697635576964 
1743	 0.330630106499911 
1744	 0.330579467763257 
1745	 0.330511352604963 
1746	 0.330437504772682 
1747	 0.330352939483263 
1748	 0.330265339677432 
1749	 0.330182454825164 
1750	 0.330100631575158 
1751	 0.330051577068617 
1752	 0.330001368100465 
1753	 0.329907368638134 
1754	 0.329820160259311 
1755	 0.32973080105183 
1756	 0.32962105082521 
1757	 0.329536790596664 
1758	 0.329457898492079 
1759	 0.329364823470879 
1760	 0.329297068086814 
1761	 0.329253608116109 
1762	 0.329188686612485 
1763	 0.329117882414694 
1764	 0.329043895558097 
1765	 0.328964964219315 
1766	 0.328890825279485 
1767	 0.32878770438008 
1768	 0.328708081468929 
1769	 0.328639921601376 
1770	 0.328559747948607 
1771	 0.32852673791479 
1772	 0.328484491226282 
1773	 0.328420889009364 
1774	 0.328383043808874 
1775	 0.32833336910995 
1776	 0.328263583718265 
1777	 0.328204758415287 
1778	 0.32812423975613 
1779	 0.328037213416481 
1780	 0.327995908789767 
1781	 0.327966313855665 
1782	 0.327955770206393 
1783	 0.327975638409077 
1784	 0.327972944180125 
1785	 0.327978235802465 
1786	 0.327959904677788 
1787	 0.32792444221337 
1788	 0.327900014555508 
1789	 0.327861715574924 
1790	 0.327818338390367 
1791	 0.327768475160279 
1792	 0.327722405923731 
1793	 0.327656364569801 
1794	 0.327648751728667 
1795	 0.327665368838854 
1796	 0.327698451616664 
1797	 0.327798728558559 
1798	 0.327824051761671 
1799	 0.327843159457 
1800	 0.327843569018869 
1801	 0.326705370083547 
1802	 0.326888314225139 
1803	 0.327134549556825 
1804	 0.327415453661584 
1805	 0.327693477926192 
1806	 0.327971896233823 
1807	 0.328208324440436 
1808	 0.328408362435197 
1809	 0.328588945213665 
1810	 0.328743110446547 
1811	 0.328859973694707 
1812	 0.328959305265027 
1813	 0.329027092819862 
1814	 0.329060847521371 
1815	 0.329059650758162 
1816	 0.329034764618464 
1817	 0.329008171398618 
1818	 0.328950891957234 
1819	 0.328929520612379 
1820	 0.328906922839274 
1821	 0.328899303252153 
1822	 0.328924748402849 
1823	 0.328936514065819 
1824	 0.328960374824149 
1825	 0.328970214125734 
1826	 0.328995755966288 
1827	 0.329021367819175 
1828	 0.329001027193552 
1829	 0.328955366943612 
1830	 0.32890851548247 
1831	 0.328822683527095 
1832	 0.328739118778188 
1833	 0.328694068651723 
1834	 0.328636871874265 
1835	 0.328565862542777 
1836	 0.328511400541884 
1837	 0.32848358963763 
1838	 0.328430081252958 
1839	 0.328365861463365 
1840	 0.328303510130786 
1841	 0.328238867102814 
1842	 0.328141938936243 
1843	 0.328063695431365 
1844	 0.328016734051509 
1845	 0.327936936973071 
1846	 0.327848219262562 
1847	 0.327794904638589 
1848	 0.327741733761169 
1849	 0.327686694827847 
1850	 0.327626916954767 
1851	 0.327582628441589 
1852	 0.327499588471026 
1853	 0.327401339312082 
1854	 0.327306044421588 
1855	 0.327182616814364 
1856	 0.327028219375511 
1857	 0.326844156772479 
1858	 0.326624806818229 
1859	 0.32638429289549 
1860	 0.326106185685513 
1861	 0.325797200390883 
1862	 0.325442710488787 
1863	 0.325080207338798 
1864	 0.324693598012553 
1865	 0.324273500009696 
1866	 0.323837005689718 
1867	 0.323364017390088 
1868	 0.322840697264864 
1869	 0.322263803765634 
1870	 0.321645097220473 
1871	 0.320970253480505 
1872	 0.320243188342326 
1873	 0.319455668475123 
1874	 0.318634770277443 
1875	 0.317737681917124 
1876	 0.316763560241199 
1877	 0.315753867007222 
1878	 0.314664074539306 
1879	 0.31351369475376 
1880	 0.312260367280332 
1881	 0.310930220668128 
1882	 0.309493500624112 
1883	 0.307964493292529 
1884	 0.306300645028114 
1885	 0.304584543488687 
1886	 0.302771991359249 
1887	 0.300822619499931 
1888	 0.298838855717226 
1889	 0.296767867033007 
1890	 0.29462326625686 
1891	 0.292498429951388 
1892	 0.290318094455915 
1893	 0.288165527151149 
1894	 0.285989262323848 
1895	 0.283877620839441 
1896	 0.281772333872777 
1897	 0.279759810372015 
1898	 0.277787472526292 
1899	 0.275880139470699 
1900	 0.274090663651151 
1901	 0.272344446822814 
1902	 0.270714469848591 
1903	 0.269213489853005 
1904	 0.267780323587414 
1905	 0.266410422458147 
1906	 0.265180175745372 
1907	 0.264024933261161 
1908	 0.262962891741917 
1909	 0.262002149177312 
1910	 0.261074031776463 
1911	 0.260234669658958 
1912	 0.259471649457183 
1913	 0.258755004420233 
1914	 0.258097859225394 
1915	 0.25749958047836 
1916	 0.256976199512727 
1917	 0.256467413520761 
1918	 0.256002097870255 
1919	 0.255593238055618 
1920	 0.25522094251737 
1921	 0.254890772587076 
1922	 0.254597228253751 
1923	 0.254314090780542 
1924	 0.254081214436405 
1925	 0.253862588547092 
1926	 0.253722812001874 
1927	 0.253641295933285 
1928	 0.253610639802727 
1929	 0.253621344349436 
1930	 0.2536373448717 
1931	 0.253668685925482 
1932	 0.253735180927789 
1933	 0.25384919464663 
1934	 0.253992753340573 
1935	 0.254145739766949 
1936	 0.254320753778985 
1937	 0.25452158853059 
1938	 0.254728398046545 
1939	 0.254976286421588 
1940	 0.2552714919409 
1941	 0.255574043961683 
1942	 0.255887732231608 
1943	 0.2562091463578 
1944	 0.256514952821746 
1945	 0.256838506082849 
1946	 0.257186458364919 
1947	 0.257547665501928 
1948	 0.257931358076387 
1949	 0.258352671265162 
1950	 0.258763654274487 
1951	 0.259169906661693 
1952	 0.259611862524705 
1953	 0.260069961459775 
1954	 0.260532896497918 
1955	 0.261040710776483 
1956	 0.261544049140057 
1957	 0.262041553263257 
1958	 0.26253800594702 
1959	 0.263046256871812 
1960	 0.263549901516419 
1961	 0.264065972096508 
1962	 0.264600873537991 
1963	 0.265123519498206 
1964	 0.265630669943921 
1965	 0.266170720354726 
1966	 0.266710576217221 
1967	 0.267273936561839 
1968	 0.267845885040128 
1969	 0.268453925102579 
1970	 0.269027450627317 
1971	 0.269596527321113 
1972	 0.270164381792954 
1973	 0.270727908006196 
1974	 0.271280309173249 
1975	 0.271830257068733 
1976	 0.272370470604844 
1977	 0.272901842867136 
1978	 0.273432618683692 
1979	 0.273975380000411 
1980	 0.274524127134317 
1981	 0.275063262749495 
1982	 0.275588694501899 
1983	 0.276138654802525 
1984	 0.276696980394029 
1985	 0.277252079148843 
1986	 0.277816021156903 
1987	 0.278383779107425 
1988	 0.278947422179288 
1989	 0.279530310690959 
1990	 0.280097957689257 
1991	 0.28066241275712 
1992	 0.281213486290281 
1993	 0.281742519453752 
1994	 0.282273800938564 
1995	 0.282800454509731 
1996	 0.283329138005204 
1997	 0.283849994433281 
1998	 0.284376822967643 
1999	 0.284916357999842 
2000	 0.285442367196407 
2001	 0.285982229436339 
2002	 0.286473875614259 
2003	 0.286976820460693 
2004	 0.287475055934492 
2005	 0.287961850013964 
2006	 0.288443363309571 
2007	 0.288919570450908 
2008	 0.28936751804556 
2009	 0.289846129268023 
2010	 0.290350035684833 
2011	 0.290823535197663 
2012	 0.291308621511151 
2013	 0.29176920227995 
2014	 0.292184886625808 
2015	 0.292617298911572 
2016	 0.293057605231284 
2017	 0.293497169607594 
2018	 0.293947829797 
2019	 0.294411670546908 
2020	 0.294870396767491 
2021	 0.295345010311687 
2022	 0.295796593306799 
2023	 0.296240318994757 
2024	 0.296679992817795 
2025	 0.297084200452914 
2026	 0.297520010350236 
2027	 0.297974573855955 
2028	 0.298430069323082 
2029	 0.298878158157131 
2030	 0.299347563731952 
2031	 0.299780582267122 
2032	 0.300194666972513 
2033	 0.300596720037054 
2034	 0.300981723850778 
2035	 0.3013641747364 
2036	 0.301742921915678 
2037	 0.302098019576188 
2038	 0.30244277670649 
2039	 0.302768399221263 
2040	 0.303061695908772 
2041	 0.303352511921635 
2042	 0.30363362175566 
2043	 0.303916423793118 
2044	 0.304225976371659 
2045	 0.304542317754555 
2046	 0.304875188088175 
2047	 0.30525541042232 
2048	 0.305590426375494 
2049	 0.305923223358683 
2050	 0.306239238324278 
2051	 0.306528507084141 
2052	 0.306815119092389 
2053	 0.307086493095694 
2054	 0.307362205978263 
2055	 0.307627028320876 
2056	 0.30789816116519 
2057	 0.308171404354273 
2058	 0.308453572835025 
2059	 0.308726987202978 
2060	 0.308999087172072 
2061	 0.309265878457197 
2062	 0.309530854096771 
2063	 0.309789956209555 
2064	 0.310038433952468 
2065	 0.310294204225052 
2066	 0.310560311714021 
2067	 0.310807083804573 
2068	 0.311042440967979 
2069	 0.311280704161881 
2070	 0.311518198314435 
2071	 0.311740635654897 
2072	 0.311974743448778 
2073	 0.312215531215958 
2074	 0.312462588403762 
2075	 0.312732096788334 
2076	 0.312959494982832 
2077	 0.313170340148226 
2078	 0.313385869077128 
2079	 0.313560071233198 
2080	 0.313763093516237 
2081	 0.313981517661669 
2082	 0.314214570538806 
2083	 0.314454657732272 
2084	 0.31471228478421 
2085	 0.314967596176497 
2086	 0.315254204867929 
2087	 0.31549562366309 
2088	 0.315714944510891 
2089	 0.315941999972095 
2090	 0.316152269403089 
2091	 0.316366246994758 
2092	 0.316594924699294 
2093	 0.316800540402903 
2094	 0.316985793624062 
2095	 0.317175702924097 
2096	 0.317337733663869 
2097	 0.317531176300359 
2098	 0.317743963417596 
2099	 0.317955261571994 
2100	 0.318172450995042 
2101	 0.318414857750152 
2102	 0.318631575787673 
2103	 0.318823531356227 
2104	 0.319053412620538 
2105	 0.31929465815673 
2106	 0.319537802469559 
2107	 0.31982868369457 
2108	 0.320061687887062 
2109	 0.320244907477796 
2110	 0.320464267728831 
2111	 0.320662098092072 
2112	 0.320885623325962 
2113	 0.321132347935638 
2114	 0.321413626054629 
2115	 0.321659609282849 
2116	 0.321903441367979 
2117	 0.322131719100486 
2118	 0.322339720324535 
2119	 0.322564024020333 
2120	 0.322793995603296 
2121	 0.323008688381679 
2122	 0.323230470400472 
2123	 0.323430457378519 
2124	 0.323604719482547 
2125	 0.32378228637764 
2126	 0.32395422188471 
2127	 0.324121236913409 
2128	 0.324304525084842 
2129	 0.324447185111359 
2130	 0.324564606199148 
2131	 0.324671485384864 
2132	 0.324760599046501 
2133	 0.324820336646122 
2134	 0.324868346165026 
2135	 0.324909108291686 
2136	 0.324927570327254 
2137	 0.324913182907953 
2138	 0.324899548515983 
2139	 0.324873692909442 
2140	 0.324844655946013 
2141	 0.32481749662426 
2142	 0.324762134128839 
2143	 0.324692880497166 
2144	 0.324611155438042 
2145	 0.32451289856208 
2146	 0.324390721973134 
2147	 0.324237721240502 
2148	 0.324089883109675 
2149	 0.32394569888381 
2150	 0.323776900654584 
2151	 0.323635927211781 
2152	 0.323523739126711 
2153	 0.323388285271244 
2154	 0.323268417615025 
2155	 0.323099246641089 
2156	 0.322938004901615 
2157	 0.322704051288701 
2158	 0.322393613639047 
2159	 0.32209157546831 
2160	 0.321720217577864 
2161	 0.32139007473808 
2162	 0.321075201514944 
2163	 0.320761567219047 
2164	 0.320445385044032 
2165	 0.320164984567531 
2166	 0.319866344013969 
2167	 0.319569299792468 
2168	 0.319262037606331 
2169	 0.31896250662537 
2170	 0.3186344659731 
2171	 0.318291350174527 
2172	 0.317936224207904 
2173	 0.317559904040766 
2174	 0.317180806307253 
2175	 0.316785266386603 
2176	 0.316396867795611 
2177	 0.316027291606092 
2178	 0.315612781578521 
2179	 0.315188544404881 
2180	 0.314734854059537 
2181	 0.314215474431296 
2182	 0.313720041790819 
2183	 0.31320039814832 
2184	 0.312716500293417 
2185	 0.312235296921186 
2186	 0.311766837517827 
2187	 0.311298515022782 
2188	 0.310831363473108 
2189	 0.310386351485802 
2190	 0.309943910472744 
2191	 0.309531704324249 
2192	 0.309138549155974 
2193	 0.308773563778189 
2194	 0.308419538334267 
2195	 0.308109537835584 
2196	 0.307845931538709 
2197	 0.307596060707206 
2198	 0.30737774904857 
2199	 0.307179936689513 
2200	 0.306985289974345 
2201	 0.306838974086968 
2202	 0.306717498047158 
2203	 0.306662297160345 
2204	 0.306609550185504 
2205	 0.306578117883992 
2206	 0.306611132479318 
2207	 0.306672472534685 
2208	 0.30678602230614 
2209	 0.306974992051948 
2210	 0.30717788279219 
2211	 0.307430672202181 
2212	 0.307669771430199 
2213	 0.307929973470066 
2214	 0.308206969002196 
2215	 0.308515404349957 
2216	 0.308782819268784 
2217	 0.309071993358222 
2218	 0.309322512017835 
2219	 0.309528680822993 
2220	 0.30972056904415 
2221	 0.309889903997436 
2222	 0.310059450944297 
2223	 0.310206793159045 
2224	 0.310331191327631 
2225	 0.310444597193993 
2226	 0.310555928700079 
2227	 0.310635011923252 
2228	 0.310685862147482 
2229	 0.310722407191708 
2230	 0.310736925924889 
2231	 0.310745003271078 
2232	 0.31072636255066 
2233	 0.310718460276976 
2234	 0.310719226085194 
2235	 0.310691984149471 
2236	 0.310653932335135 
2237	 0.310601845755193 
2238	 0.310507043699782 
2239	 0.310441324030724 
2240	 0.310383029236883 
2241	 0.310325394349496 
2242	 0.310304769085737 
2243	 0.31023907397907 
2244	 0.310145039365422 
2245	 0.310046532924558 
2246	 0.309926513653295 
2247	 0.309810430307057 
2248	 0.309729133001478 
2249	 0.309679784434468 
2250	 0.309609636132445 
2251	 0.309567349719003 
2252	 0.30947185663802 
2253	 0.309327525151312 
2254	 0.309232633599352 
2255	 0.30911591275016 
2256	 0.309048256633162 
2257	 0.309032334335692 
2258	 0.309006257733149 
2259	 0.308991504029485 
2260	 0.30899151598858 
2261	 0.309014643539054 
2262	 0.30902930237712 
2263	 0.309062078615935 
2264	 0.30907130326137 
2265	 0.309066300225536 
2266	 0.309062650430373 
2267	 0.309036232505897 
2268	 0.30902652904907 
2269	 0.309024943725307 
2270	 0.309021583802115 
2271	 0.30902283324717 
2272	 0.309070581245928 
2273	 0.309131805379873 
2274	 0.3091769279434 
2275	 0.309205795028558 
2276	 0.309220037710967 
2277	 0.309252619172262 
2278	 0.309266487117839 
2279	 0.309310975416254 
2280	 0.309398155934598 
2281	 0.309446596891364 
2282	 0.309495128310756 
2283	 0.309527881046135 
2284	 0.309540164763511 
2285	 0.309550231053336 
2286	 0.309554395827605 
2287	 0.309534240709696 
2288	 0.309467805363915 
2289	 0.30945837143585 
2290	 0.309465420148601 
2291	 0.309476192882532 
2292	 0.309533226499027 
2293	 0.309564589661706 
2294	 0.309587203146637 
2295	 0.30959516605897 
2296	 0.309587682863922 
2297	 0.30957772514221 
2298	 0.309617172043428 
2299	 0.30962871311675 
2300	 0.30963418316016 
2301	 0.309623129716724 
2302	 0.309544054831721 
2303	 0.309464900983886 
2304	 0.309402709605691 
2305	 0.309327985675951 
2306	 0.309228270008904 
2307	 0.309084155350805 
2308	 0.308989033377514 
2309	 0.308913748252739 
2310	 0.308812107743631 
2311	 0.308723824153349 
2312	 0.308625890506723 
2313	 0.308479837357477 
2314	 0.308374740421782 
2315	 0.308299960899893 
2316	 0.308220023936454 
2317	 0.308164506773753 
2318	 0.308075373763325 
2319	 0.307981757521757 
2320	 0.307879560310728 
2321	 0.307745158940948 
2322	 0.307621425249106 
2323	 0.307474640108566 
2324	 0.307370265492769 
2325	 0.3072964540559 
2326	 0.307205391627713 
2327	 0.307129807975099 
2328	 0.307076027616103 
2329	 0.306966355884542 
2330	 0.306876014385265 
2331	 0.306789880800887 
2332	 0.306674587919406 
2333	 0.306558756125989 
2334	 0.306467743690935 
2335	 0.306391608812313 
2336	 0.306338312728225 
2337	 0.306229557674731 
2338	 0.306079067172912 
2339	 0.30598919729767 
2340	 0.305835520260734 
2341	 0.305713167022601 
2342	 0.305652222820721 
2343	 0.305482815702176 
2344	 0.305310071596153 
2345	 0.305143405322396 
2346	 0.304976620295101 
2347	 0.304778868611229 
2348	 0.304549612902802 
2349	 0.304366130227276 
2350	 0.304204123498328 
2351	 0.304024356628097 
2352	 0.303851894870432 
2353	 0.303679378401926 
2354	 0.303475695297888 
2355	 0.303283214469057 
2356	 0.303130538636366 
2357	 0.302955283020728 
2358	 0.302762120437491 
2359	 0.30257291955246 
2360	 0.302358167139369 
2361	 0.302197958494133 
2362	 0.302035685927532 
2363	 0.301934425539353 
2364	 0.301939428197271 
2365	 0.301863766822763 
2366	 0.301829787710376 
2367	 0.30169597390292 
2368	 0.301460188804533 
2369	 0.301229178814027 
2370	 0.30094350916077 
2371	 0.300669489254394 
2372	 0.300376597757179 
2373	 0.300104696096195 
2374	 0.299909783950199 
2375	 0.299686343174366 
2376	 0.299462081276089 
2377	 0.29930043100748 
2378	 0.299087485871325 
2379	 0.29876457619206 
2380	 0.298422344289233 
2381	 0.2980772584228 
2382	 0.297706854511883 
2383	 0.297440730903188 
2384	 0.297217704712034 
2385	 0.296954084054266 
2386	 0.29662759237521 
2387	 0.296233229219418 
2388	 0.295903602096175 
2389	 0.295686264830021 
2390	 0.295477656156936 
2391	 0.295245313401974 
2392	 0.295016269549103 
2393	 0.294645125001905 
2394	 0.294240702441939 
2395	 0.293986495050721 
2396	 0.293706714123032 
2397	 0.29340033729413 
2398	 0.293081421715064 
2399	 0.292675397723272 
2400	 0.292313599244172 
2401	 0.291958475753074 
2402	 0.291583168669538 
2403	 0.291290552481406 
2404	 0.290968795145725 
2405	 0.290598189976083 
2406	 0.290304160905513 
2407	 0.289959939518342 
2408	 0.289476468641895 
2409	 0.288991501361071 
2410	 0.288580465730999 
2411	 0.288204290261132 
2412	 0.287865893033404 
2413	 0.287618635958893 
2414	 0.287343130026249 
2415	 0.286971791113072 
2416	 0.286583390755172 
2417	 0.28618540307885 
2418	 0.285744482747053 
2419	 0.285201392453552 
2420	 0.284760398296693 
2421	 0.284382650475439 
2422	 0.283930390855241 
2423	 0.283452116886656 
2424	 0.283000328568937 
2425	 0.282510742595172 
2426	 0.282062359451254 
2427	 0.28170390381719 
2428	 0.281272971686238 
2429	 0.280828808620189 
2430	 0.280348845691224 
2431	 0.279778544906202 
2432	 0.279274480253926 
2433	 0.278737479162438 
2434	 0.27827774921199 
2435	 0.277899915326 
2436	 0.277561262089629 
2437	 0.277373955169904 
2438	 0.277019220402958 
2439	 0.276568941801367 
2440	 0.276106666202165 
2441	 0.275513586957574 
2442	 0.275053170379185 
2443	 0.274694620235914 
2444	 0.274342601560369 
2445	 0.274023623394299 
2446	 0.273620548703464 
2447	 0.273185084914166 
2448	 0.272805280416087 
2449	 0.272460279510097 
2450	 0.272089552329494 
2451	 0.271718739429527 
2452	 0.271354619273225 
2453	 0.270952430575649 
2454	 0.270541130386513 
2455	 0.270166954197181 
2456	 0.269727980547927 
2457	 0.269209296490342 
2458	 0.268763426526367 
2459	 0.268346456369924 
2460	 0.2679955308778 
2461	 0.267681744484968 
2462	 0.267373691596946 
2463	 0.267157272802167 
2464	 0.266749032919208 
2465	 0.266258086232787 
2466	 0.265780674554031 
2467	 0.265217427251092 
2468	 0.264636587729745 
2469	 0.263993812058612 
2470	 0.263544342355051 
2471	 0.263164972414114 
2472	 0.262999059366136 
2473	 0.262768270916591 
2474	 0.262363705190482 
2475	 0.261921289232147 
2476	 0.261653440856857 
2477	 0.261395210783157 
2478	 0.260885808716874 
2479	 0.260468843802357 
2480	 0.260020047945876 
2481	 0.259536045319191 
2482	 0.259420358459531 
2483	 0.259214958066211 
2484	 0.258744778172557 
2485	 0.258293994258202 
2486	 0.257704245139608 
2487	 0.257396603914473 
2488	 0.257336873383857 
2489	 0.257098873701884 
2490	 0.2569857726352 
2491	 0.25667274843285 
2492	 0.256256492254431 
2493	 0.25606008967173 
2494	 0.255912582677233 
2495	 0.255755124704106 
2496	 0.255445858479649 
2497	 0.255092205528939 
2498	 0.254790728953152 
2499	 0.254381525047092 
2500	 0.25407522152645 
