Wavelength	mm1500002.asd
350	 7.61253349246392E-02 
351	 7.98257468867188E-02 
352	 7.29944989299876E-02 
353	 6.55635204725732E-02 
354	 7.17101759229762E-02 
355	 7.43612622036202E-02 
356	 7.28983573248385E-02 
357	 7.14431358849416E-02 
358	 7.34420208203231E-02 
359	 7.46557619563991E-02 
360	 7.40980941052464E-02 
361	 7.31886198435316E-02 
362	 7.34629298750001E-02 
363	 7.44589555647798E-02 
364	 7.52204243747141E-02 
365	 7.44883018280825E-02 
366	 7.31576780714825E-02 
367	 7.37767335304996E-02 
368	 7.72894909957256E-02 
369	 7.72457611131541E-02 
370	 7.74626109271338E-02 
371	 7.84464302687197E-02 
372	 7.84130506417322E-02 
373	 7.90316283098469E-02 
374	 7.94345976785565E-02 
375	 8.00050185025496E-02 
376	 0.084327925580769 
377	 8.14448515346146E-02 
378	 7.88378947384546E-02 
379	 0.084509867343382 
380	 8.36910534471219E-02 
381	 8.27617404481108E-02 
382	 8.37273120077664E-02 
383	 0.084772583965462 
384	 8.64677109278005E-02 
385	 0.087148151101386 
386	 8.66299597312988E-02 
387	 8.81001491169846E-02 
388	 8.90302219661246E-02 
389	 0.090138453630034 
390	 9.24151341870287E-02 
391	 9.32230700238526E-02 
392	 9.41003172162814E-02 
393	 9.54673915894607E-02 
394	 9.66113086039697E-02 
395	 9.71376306664188E-02 
396	 9.68936862021212E-02 
397	 9.69497171644106E-02 
398	 0.101420350680741 
399	 0.102836121018172 
400	 0.102541274977357 
401	 0.104253652234714 
402	 0.10470313529698 
403	 0.105557567828286 
404	 0.106726075334698 
405	 0.106226257504947 
406	 0.107100507752426 
407	 0.108975367519482 
408	 0.110583266121071 
409	 0.110113200759842 
410	 0.109794987551603 
411	 0.110637537023494 
412	 0.112665026390517 
413	 0.113937160556948 
414	 0.114230901498076 
415	 0.113783137503005 
416	 0.113101457407565 
417	 0.113371586340504 
418	 0.113923699099586 
419	 0.114030005290529 
420	 0.114586975701916 
421	 0.114480853029994 
422	 0.114284790961001 
423	 0.115381241644161 
424	 0.115244286156422 
425	 0.114935796733073 
426	 0.115173483262937 
427	 0.115303225695083 
428	 0.11455370852754 
429	 0.113626358616183 
430	 0.113507453948443 
431	 0.113973648691451 
432	 0.113993612067636 
433	 0.113627035345246 
434	 0.113939838619972 
435	 0.113780773455595 
436	 0.113905865340805 
437	 0.11467180431139 
438	 0.114390332388541 
439	 0.114351944199282 
440	 0.114858834229929 
441	 0.115630928032061 
442	 0.116046819874115 
443	 0.116480518215335 
444	 0.117078175644875 
445	 0.117478878282022 
446	 0.118025219692604 
447	 0.118632163578392 
448	 0.119152241059458 
449	 0.119727734606488 
450	 0.120281655223683 
451	 0.1208073565906 
452	 0.121354653984542 
453	 0.121753762031212 
454	 0.12195342351255 
455	 0.122099489712925 
456	 0.12280532287432 
457	 0.123210203996919 
458	 0.123412393996862 
459	 0.123886833099763 
460	 0.124382069537352 
461	 0.124574064191093 
462	 0.124558919048275 
463	 0.125022093968777 
464	 0.125184222630468 
465	 0.12533351203427 
466	 0.12582034949563 
467	 0.126034415120053 
468	 0.126117338327188 
469	 0.126243085877372 
470	 0.12656889606089 
471	 0.126788149909785 
472	 0.126883790825607 
473	 0.126957479238181 
474	 0.127295214549688 
475	 0.127393245282854 
476	 0.127368190383918 
477	 0.127563255097437 
478	 0.127776776024745 
479	 0.127949085772284 
480	 0.128092128169983 
481	 0.12829462752433 
482	 0.128690771668147 
483	 0.129050095595777 
484	 0.129182322530845 
485	 0.129522359368309 
486	 0.129662391002635 
487	 0.129596351713191 
488	 0.129665953466161 
489	 0.129975487006025 
490	 0.130240593370645 
491	 0.130322986175257 
492	 0.130641464903886 
493	 0.130770565353465 
494	 0.130797589437218 
495	 0.131023589869334 
496	 0.131383825175359 
497	 0.131739557441453 
498	 0.131955944358364 
499	 0.131902628626364 
500	 0.131989696544985 
501	 0.132196926842297 
502	 0.13236950193594 
503	 0.132382614026543 
504	 0.13256050483189 
505	 0.13288876096288 
506	 0.133043630574354 
507	 0.133103367176605 
508	 0.133177259281078 
509	 0.133320700895054 
510	 0.133406586332248 
511	 0.133631131657646 
512	 0.133871796043141 
513	 0.133887943220283 
514	 0.134023276480053 
515	 0.134243705184532 
516	 0.134457492468685 
517	 0.134545188300479 
518	 0.134704722069945 
519	 0.134864654613979 
520	 0.134919985984106 
521	 0.135082299781367 
522	 0.135228631521779 
523	 0.135370398233769 
524	 0.135671805474832 
525	 0.135848006115456 
526	 0.135914322471409 
527	 0.135956679317031 
528	 0.13602838488986 
529	 0.136206683008908 
530	 0.136465729196703 
531	 0.136701342104317 
532	 0.136744011302716 
533	 0.13686269103379 
534	 0.137144681199724 
535	 0.137151321722784 
536	 0.13726192425317 
537	 0.137495081675023 
538	 0.137718830254931 
539	 0.137802983541117 
540	 0.137935150062692 
541	 0.138167661167577 
542	 0.13834046179056 
543	 0.138558418723386 
544	 0.138785309372255 
545	 0.1389602238459 
546	 0.139063461819064 
547	 0.139250231982145 
548	 0.139521523219152 
549	 0.139748055282505 
550	 0.139987534859168 
551	 0.140188543167124 
552	 0.14033729641355 
553	 0.140560115651974 
554	 0.140805436919515 
555	 0.141051120211424 
556	 0.14130110132819 
557	 0.141663009772865 
558	 0.142052117945095 
559	 0.142425699566528 
560	 0.142862343930994 
561	 0.143193306403765 
562	 0.143491779509767 
563	 0.14389036867155 
564	 0.144337707462141 
565	 0.144780476554294 
566	 0.145153275396985 
567	 0.145383534051806 
568	 0.145743873119994 
569	 0.146255932284261 
570	 0.146872557091572 
571	 0.147583169427327 
572	 0.14819204716235 
573	 0.148685118782002 
574	 0.14918605047375 
575	 0.149740825343753 
576	 0.15041457762953 
577	 0.151203012038721 
578	 0.151973508186146 
579	 0.152651084570743 
580	 0.153195688556877 
581	 0.153620546704487 
582	 0.154077499789598 
583	 0.154656733277905 
584	 0.155373730758325 
585	 0.156153945396229 
586	 0.157143072450584 
587	 0.158178176560548 
588	 0.159087438693455 
589	 0.16008798634167 
590	 0.161076839638286 
591	 0.161982202873248 
592	 0.162780494538066 
593	 0.163588408820362 
594	 0.164295222341 
595	 0.164823568245134 
596	 0.165289182666349 
597	 0.165768520966644 
598	 0.16628678512699 
599	 0.166843771216641 
600	 0.167501231834535 
601	 0.168260839457621 
602	 0.169071613627186 
603	 0.169807911835411 
604	 0.170526191814492 
605	 0.171236886078818 
606	 0.171947573879099 
607	 0.172725048528469 
608	 0.173455238547263 
609	 0.174121714356873 
610	 0.174829411017395 
611	 0.175423878011566 
612	 0.1758692045404 
613	 0.176206126404148 
614	 0.176614102401578 
615	 0.177034515810595 
616	 0.177428135774004 
617	 0.177777651972679 
618	 0.178196538824114 
619	 0.178591513993143 
620	 0.178912442702548 
621	 0.179268513116033 
622	 0.179599976641488 
623	 0.179899586227619 
624	 0.180181728801568 
625	 0.180456956215271 
626	 0.180757232362484 
627	 0.181071736177541 
628	 0.181331654772726 
629	 0.181625701433874 
630	 0.181916833912936 
631	 0.182158706799463 
632	 0.182402222338284 
633	 0.182665779694971 
634	 0.182925936438374 
635	 0.183133867960787 
636	 0.183408642468208 
637	 0.183646381386549 
638	 0.183802390946546 
639	 0.184070495280272 
640	 0.184373017990355 
641	 0.184665704540692 
642	 0.184920074645725 
643	 0.185144951823524 
644	 0.185371871000191 
645	 0.185612309837134 
646	 0.18584566367219 
647	 0.186059636865193 
648	 0.186303004446661 
649	 0.186609900716537 
650	 0.186876613897044 
651	 0.187145948056764 
652	 0.187421596039011 
653	 0.18767347044923 
654	 0.187942512948839 
655	 0.188211402931054 
656	 0.188481431532204 
657	 0.188836202014306 
658	 0.189141764010559 
659	 0.18940695867884 
660	 0.189705285872482 
661	 0.190022130227976 
662	 0.190364604690086 
663	 0.190712349028258 
664	 0.19100248527696 
665	 0.191326445664005 
666	 0.191656023082229 
667	 0.1919511744508 
668	 0.192265467712366 
669	 0.192644155519454 
670	 0.19307416708102 
671	 0.193490349683908 
672	 0.193818149384133 
673	 0.194144730054074 
674	 0.194529175354123 
675	 0.194887884052323 
676	 0.195304654671245 
677	 0.195735826856469 
678	 0.196105107384192 
679	 0.196520194967422 
680	 0.196970334953305 
681	 0.19742892666197 
682	 0.197863582906466 
683	 0.198262493746334 
684	 0.198680609851903 
685	 0.199163488132057 
686	 0.199666298178763 
687	 0.20012823338212 
688	 0.200559217882251 
689	 0.20101580797929 
690	 0.201454409762502 
691	 0.201908912263585 
692	 0.202401501477961 
693	 0.202916212720714 
694	 0.203402257188532 
695	 0.203892025469959 
696	 0.204427109214084 
697	 0.204909720224834 
698	 0.205377367487359 
699	 0.205857964935961 
700	 0.20636023564356 
701	 0.20693720410582 
702	 0.207495770406964 
703	 0.207964673993599 
704	 0.208413436728466 
705	 0.20889686707498 
706	 0.20942769661011 
707	 0.209977806353787 
708	 0.210423518772386 
709	 0.210895327848079 
710	 0.211456927603017 
711	 0.212041716252619 
712	 0.212528433342714 
713	 0.212941372245704 
714	 0.213368599249996 
715	 0.213959439268581 
716	 0.214450060583439 
717	 0.214825974288742 
718	 0.215263172263674 
719	 0.215813631415745 
720	 0.216308276367343 
721	 0.216670000673112 
722	 0.217059090300875 
723	 0.21748004412264 
724	 0.217882192518128 
725	 0.218221026608158 
726	 0.218614764838734 
727	 0.218961125873721 
728	 0.219258594824505 
729	 0.219604729148354 
730	 0.219979541432367 
731	 0.220307926296129 
732	 0.220553880202065 
733	 0.220789981927222 
734	 0.221065046976542 
735	 0.221319134593261 
736	 0.2214733566357 
737	 0.221649583184916 
738	 0.221854610613717 
739	 0.222058061366694 
740	 0.222200956375757 
741	 0.222304808266658 
742	 0.222386065265662 
743	 0.222461689357684 
744	 0.222555354370514 
745	 0.22260559349005 
746	 0.22262877724826 
747	 0.222671332848093 
748	 0.222704433941582 
749	 0.222671103610252 
750	 0.222598710059052 
751	 0.222613983175704 
752	 0.222558582327867 
753	 0.2224234420178 
754	 0.222262634205841 
755	 0.222203888992812 
756	 0.222151119102129 
757	 0.222030718483196 
758	 0.221811163499353 
759	 0.221657441273612 
760	 0.221526091330257 
761	 0.221364503471829 
762	 0.221137611430124 
763	 0.220917064190229 
764	 0.22068670722697 
765	 0.220437186764945 
766	 0.220240629216184 
767	 0.220076220199471 
768	 0.219884830235125 
769	 0.219606762543893 
770	 0.219328640646526 
771	 0.219036124935518 
772	 0.218736451758151 
773	 0.218471555310662 
774	 0.218215343367257 
775	 0.217955778930213 
776	 0.217680727689046 
777	 0.217364889585706 
778	 0.21706714601685 
779	 0.216793806114293 
780	 0.216518942608861 
781	 0.216184210425306 
782	 0.215918435558611 
783	 0.215708218753772 
784	 0.215385148751097 
785	 0.21506850600544 
786	 0.214762020396746 
787	 0.214456628381928 
788	 0.214161829723562 
789	 0.213919631705299 
790	 0.213663497111878 
791	 0.213325863699486 
792	 0.213064387339461 
793	 0.212800401059158 
794	 0.212509626366912 
795	 0.212223544944429 
796	 0.211910718489915 
797	 0.211637241331952 
798	 0.211415597011188 
799	 0.211135919743755 
800	 0.210860586326749 
801	 0.210608878838158 
802	 0.210375198538905 
803	 0.210111556152593 
804	 0.209832023928782 
805	 0.209587821037243 
806	 0.209425537848841 
807	 0.209164754424354 
808	 0.208876799219127 
809	 0.208616270978601 
810	 0.208376143089497 
811	 0.20819332005535 
812	 0.207975740007831 
813	 0.207692820271311 
814	 0.207560083343541 
815	 0.207417982109377 
816	 0.207228034623636 
817	 0.207005967378061 
818	 0.206760825483912 
819	 0.206555675073806 
820	 0.206379668295888 
821	 0.206168401649252 
822	 0.20604910155996 
823	 0.205888825309724 
824	 0.205655390772273 
825	 0.205541992997061 
826	 0.205404539402919 
827	 0.205230726362808 
828	 0.205055724596373 
829	 0.204955158267936 
830	 0.204768444555693 
831	 0.204550730917639 
832	 0.204441709006397 
833	 0.204379681372766 
834	 0.204308830181734 
835	 0.204198383636623 
836	 0.204050446112918 
837	 0.203945869386678 
838	 0.203843906876886 
839	 0.203725702496517 
840	 0.203645957991236 
841	 0.203530664066374 
842	 0.203430285895967 
843	 0.203388466271398 
844	 0.2033194636456 
845	 0.203243507315666 
846	 0.203158943233017 
847	 0.203072794657398 
848	 0.20309468288215 
849	 0.203063739751192 
850	 0.202953863354515 
851	 0.202865706576927 
852	 0.202775466382818 
853	 0.20276011376562 
854	 0.202812366824266 
855	 0.202792182539317 
856	 0.202818245021501 
857	 0.202845708194401 
858	 0.20283002270114 
859	 0.202823997853768 
860	 0.20281561972358 
861	 0.202807715571753 
862	 0.202800203646055 
863	 0.202756731520396 
864	 0.202767074451377 
865	 0.202833884489486 
866	 0.202898618168124 
867	 0.202920542189351 
868	 0.20292661558949 
869	 0.202941014631387 
870	 0.202977516816841 
871	 0.203066169763734 
872	 0.2031639898952 
873	 0.203250614089651 
874	 0.20336172738784 
875	 0.203504767809694 
876	 0.203579713394811 
877	 0.203556223834669 
878	 0.203645941675783 
879	 0.203794843578444 
880	 0.203892041090472 
881	 0.203890627497131 
882	 0.204094375873447 
883	 0.204309844060602 
884	 0.204434726608055 
885	 0.204467789259104 
886	 0.204608929184821 
887	 0.20477755990399 
888	 0.204921179493494 
889	 0.205041300881501 
890	 0.205227950526786 
891	 0.20541140384219 
892	 0.205562382487551 
893	 0.205728115957127 
894	 0.205904778710859 
895	 0.206079446088021 
896	 0.206252000167773 
897	 0.206448123409986 
898	 0.206712139520569 
899	 0.206972502536149 
900	 0.207177701621471 
901	 0.207418679458951 
902	 0.207605196966704 
903	 0.207777828121552 
904	 0.207994702158163 
905	 0.208193492603296 
906	 0.208471628488436 
907	 0.208793881638865 
908	 0.209081322325874 
909	 0.209403666312083 
910	 0.209698974686955 
911	 0.209922114632473 
912	 0.210077034298865 
913	 0.210353835126709 
914	 0.21068234611184 
915	 0.210993944456472 
916	 0.211263328027959 
917	 0.211628066489719 
918	 0.211986360109729 
919	 0.21227280479621 
920	 0.212514928227441 
921	 0.212916080491615 
922	 0.213357042707772 
923	 0.213728731367814 
924	 0.214033431004437 
925	 0.214343886257016 
926	 0.214668772502788 
927	 0.215009366605811 
928	 0.215378852330781 
929	 0.215905684276507 
930	 0.21638639285722 
931	 0.216699229444143 
932	 0.217109851359871 
933	 0.217457626955465 
934	 0.217845451118159 
935	 0.218367045820793 
936	 0.218891612318243 
937	 0.219258818560855 
938	 0.219615268740777 
939	 0.220140554337979 
940	 0.220741769692463 
941	 0.221176596208189 
942	 0.221569929733865 
943	 0.222119057191188 
944	 0.222664234844862 
945	 0.223075743495752 
946	 0.223509872115825 
947	 0.224142806278155 
948	 0.224626518281901 
949	 0.225089017272214 
950	 0.225562057798448 
951	 0.226052265542533 
952	 0.226740038644065 
953	 0.22727527504068 
954	 0.22775496426344 
955	 0.228441549103026 
956	 0.228941735022295 
957	 0.229478327012333 
958	 0.23007182726345 
959	 0.230612760347962 
960	 0.231122457074361 
961	 0.231752582357389 
962	 0.232483046706647 
963	 0.233174068643159 
964	 0.233770407097073 
965	 0.234322391325978 
966	 0.234883545343137 
967	 0.235495506973549 
968	 0.23617860496897 
969	 0.236758128246367 
970	 0.237304170966322 
971	 0.238021174375045 
972	 0.238831834678747 
973	 0.239441882228809 
974	 0.239986367841813 
975	 0.240795051217927 
976	 0.241453966105577 
977	 0.242248213223815 
978	 0.243045682774672 
979	 0.243535279527139 
980	 0.244150317601918 
981	 0.244881837439001 
982	 0.245634325583206 
983	 0.246295748503106 
984	 0.24687264867067 
985	 0.247593498575852 
986	 0.248378826424114 
987	 0.249044808278691 
988	 0.249902844472188 
989	 0.250543829212638 
990	 0.251018905299229 
991	 0.25161969924418 
992	 0.252429744484094 
993	 0.253160325610171 
994	 0.253845455576665 
995	 0.254608659021512 
996	 0.25523813839303 
997	 0.255990848840038 
998	 0.256752966013528 
999	 0.257373831879238 
1000	 0.258137085975116 
1001	 0.256049501677413 
1002	 0.25663281731967 
1003	 0.257237019168744 
1004	 0.25784195886716 
1005	 0.258433335999803 
1006	 0.259071255591534 
1007	 0.259751679614943 
1008	 0.260378353654782 
1009	 0.261050085066633 
1010	 0.261657679885356 
1011	 0.26221525035056 
1012	 0.262799608987496 
1013	 0.263319335866475 
1014	 0.263856128523765 
1015	 0.264436814948829 
1016	 0.265024125680999 
1017	 0.265589256021491 
1018	 0.266162400439478 
1019	 0.266717444571562 
1020	 0.267240066290289 
1021	 0.26771777381677 
1022	 0.268192690245268 
1023	 0.268656539862461 
1024	 0.26913819209725 
1025	 0.269664633498536 
1026	 0.270293565316265 
1027	 0.270858927707795 
1028	 0.271266543485028 
1029	 0.271738439710139 
1030	 0.272156179457757 
1031	 0.272592346123182 
1032	 0.273024300693781 
1033	 0.273609364512318 
1034	 0.274101773041637 
1035	 0.274557180484437 
1036	 0.275053052458228 
1037	 0.275528654041548 
1038	 0.276002806003652 
1039	 0.276462471209865 
1040	 0.276909286973905 
1041	 0.277350315323696 
1042	 0.277817952076799 
1043	 0.278304274877352 
1044	 0.278778712468404 
1045	 0.279264188956635 
1046	 0.279751333713095 
1047	 0.280192756063397 
1048	 0.280618793947494 
1049	 0.281079508200521 
1050	 0.281561371121735 
1051	 0.28203161018771 
1052	 0.282498434669832 
1053	 0.283001950256973 
1054	 0.283465366263933 
1055	 0.283889404287508 
1056	 0.28437734282667 
1057	 0.284843751242222 
1058	 0.285265237635586 
1059	 0.28571701936818 
1060	 0.286206605419545 
1061	 0.286656893976685 
1062	 0.287105782579377 
1063	 0.287533867673974 
1064	 0.287966212647277 
1065	 0.288391275307912 
1066	 0.288761750617717 
1067	 0.289175519094084 
1068	 0.289573415580352 
1069	 0.289955360757842 
1070	 0.290371797883735 
1071	 0.29083203277767 
1072	 0.291232199722264 
1073	 0.291629567758246 
1074	 0.292023163605487 
1075	 0.292381976068505 
1076	 0.292747612867242 
1077	 0.293138550229031 
1078	 0.293466464014813 
1079	 0.293782578438128 
1080	 0.294118800497724 
1081	 0.294467192414914 
1082	 0.294854268077277 
1083	 0.295217647046839 
1084	 0.295583737497624 
1085	 0.295955597433118 
1086	 0.296337125784737 
1087	 0.29667506530836 
1088	 0.297006023615781 
1089	 0.297320335235921 
1090	 0.297630110593972 
1091	 0.297952882038128 
1092	 0.2982986218433 
1093	 0.298655166388042 
1094	 0.2989911700174 
1095	 0.299316071515752 
1096	 0.299602790903291 
1097	 0.29989597329124 
1098	 0.300209279886677 
1099	 0.300518115188373 
1100	 0.300832540817182 
1101	 0.301167812317692 
1102	 0.301497215535755 
1103	 0.301830627358776 
1104	 0.302143567822946 
1105	 0.302448330486126 
1106	 0.302788364331379 
1107	 0.303109836346346 
1108	 0.303423078298619 
1109	 0.303753803215088 
1110	 0.304086570955476 
1111	 0.304416268942219 
1112	 0.304754029871406 
1113	 0.305067825804439 
1114	 0.305351112937978 
1115	 0.305676326944008 
1116	 0.30601865892003 
1117	 0.306342693227332 
1118	 0.306680147054187 
1119	 0.307016954400616 
1120	 0.307334645708134 
1121	 0.307642844258449 
1122	 0.307957765523618 
1123	 0.30829224632964 
1124	 0.308632921257334 
1125	 0.30898778092386 
1126	 0.309314054054237 
1127	 0.309646599330774 
1128	 0.309961092460667 
1129	 0.310236979728604 
1130	 0.310532205462491 
1131	 0.310838202850774 
1132	 0.311137948375104 
1133	 0.311426256436228 
1134	 0.311732898969059 
1135	 0.312048377892329 
1136	 0.312367359232827 
1137	 0.312679509437374 
1138	 0.31297304400247 
1139	 0.31328527382729 
1140	 0.313600898175479 
1141	 0.313899125851819 
1142	 0.314197914626457 
1143	 0.31450389923685 
1144	 0.314812081493069 
1145	 0.315086300553103 
1146	 0.315362121440208 
1147	 0.315624499184095 
1148	 0.31582250549493 
1149	 0.316064479350909 
1150	 0.316322314322671 
1151	 0.316612700947506 
1152	 0.316870981717386 
1153	 0.31713847871426 
1154	 0.317401774745241 
1155	 0.317646499626427 
1156	 0.317915775069138 
1157	 0.318200936405247 
1158	 0.31848103486952 
1159	 0.318785650297746 
1160	 0.319051489572412 
1161	 0.319301471061123 
1162	 0.31954974469817 
1163	 0.319759734701689 
1164	 0.319997744390264 
1165	 0.320250738109756 
1166	 0.320504844569093 
1167	 0.320756655780854 
1168	 0.321026191044194 
1169	 0.321269695206693 
1170	 0.321504318681914 
1171	 0.321731600058307 
1172	 0.321945137131748 
1173	 0.322160880481478 
1174	 0.322372867143347 
1175	 0.322579238779283 
1176	 0.322788605554117 
1177	 0.322983155871645 
1178	 0.323148934517678 
1179	 0.323342619397517 
1180	 0.323537060385242 
1181	 0.323742096240667 
1182	 0.323968062308884 
1183	 0.324203765025863 
1184	 0.324418406824032 
1185	 0.324626846441284 
1186	 0.324833338320788 
1187	 0.325030963000532 
1188	 0.32522895280028 
1189	 0.325434694256139 
1190	 0.325620535872037 
1191	 0.325780011034201 
1192	 0.325966810740466 
1193	 0.326164240707301 
1194	 0.326347555380156 
1195	 0.3265449647083 
1196	 0.326728759589409 
1197	 0.326881337290974 
1198	 0.327050456302478 
1199	 0.327224819330586 
1200	 0.327406986260911 
1201	 0.327585185880185 
1202	 0.327769405839023 
1203	 0.327946757865125 
1204	 0.328120151148767 
1205	 0.32829574273773 
1206	 0.32847255031948 
1207	 0.328645066226249 
1208	 0.328823752349931 
1209	 0.328986549296874 
1210	 0.329140106011947 
1211	 0.329289627158172 
1212	 0.329423939628352 
1213	 0.32956367748576 
1214	 0.329686764112322 
1215	 0.329834358573521 
1216	 0.329993744858528 
1217	 0.330177041196545 
1218	 0.330319794424786 
1219	 0.330472324164937 
1220	 0.330593889694404 
1221	 0.33065501588407 
1222	 0.330774969547701 
1223	 0.330931226833408 
1224	 0.331047433086522 
1225	 0.331157989244421 
1226	 0.331277632780973 
1227	 0.331370020500887 
1228	 0.331480892486178 
1229	 0.331621211732414 
1230	 0.331752419953138 
1231	 0.331879725207854 
1232	 0.332004437102264 
1233	 0.332128901323142 
1234	 0.332257185089274 
1235	 0.332382115070805 
1236	 0.332505466992268 
1237	 0.332619808430208 
1238	 0.332732590691168 
1239	 0.332841857286593 
1240	 0.332937658744547 
1241	 0.333041811171083 
1242	 0.333162914344357 
1243	 0.333258357287764 
1244	 0.333335900586564 
1245	 0.333421616754934 
1246	 0.333479925200763 
1247	 0.333566868938251 
1248	 0.333674190424521 
1249	 0.333786506243661 
1250	 0.333914404006413 
1251	 0.334035752588005 
1252	 0.334147414729355 
1253	 0.334264471175551 
1254	 0.334350808410816 
1255	 0.334410139989828 
1256	 0.334485207510833 
1257	 0.334544954608 
1258	 0.3346128811997 
1259	 0.334704053110714 
1260	 0.334766490801901 
1261	 0.334802547225793 
1262	 0.334854233408588 
1263	 0.334891899135709 
1264	 0.334948528714031 
1265	 0.335035075683561 
1266	 0.335102503724527 
1267	 0.335172891128354 
1268	 0.335226662990043 
1269	 0.335289726915845 
1270	 0.335329795006851 
1271	 0.335418770962564 
1272	 0.335537384232499 
1273	 0.335647103091307 
1274	 0.335776079462007 
1275	 0.335899580409554 
1276	 0.336011092889977 
1277	 0.336144399648303 
1278	 0.336287384393888 
1279	 0.336447136639227 
1280	 0.336639048931285 
1281	 0.336806452655107 
1282	 0.336974133491923 
1283	 0.33714571943562 
1284	 0.337318197341427 
1285	 0.337470634356136 
1286	 0.337629109762943 
1287	 0.337762172900494 
1288	 0.337884971072105 
1289	 0.337981194370419 
1290	 0.338080932705123 
1291	 0.338168395005863 
1292	 0.338266742220001 
1293	 0.338360063070435 
1294	 0.338449070402011 
1295	 0.338560916819172 
1296	 0.338636728561575 
1297	 0.338684456744387 
1298	 0.338737234022842 
1299	 0.338777567388301 
1300	 0.33881079585613 
1301	 0.338848196682909 
1302	 0.338865272417055 
1303	 0.338864068425616 
1304	 0.338850794392214 
1305	 0.338843419983542 
1306	 0.338837618498498 
1307	 0.338817157347312 
1308	 0.338797831583253 
1309	 0.338772130216387 
1310	 0.338734153209459 
1311	 0.338688573014303 
1312	 0.338647986927136 
1313	 0.338588372115595 
1314	 0.338491900228688 
1315	 0.338434231793682 
1316	 0.338382129984297 
1317	 0.338340383506268 
1318	 0.33833080017623 
1319	 0.3383009159988 
1320	 0.338265956749613 
1321	 0.338227876056751 
1322	 0.33818497223446 
1323	 0.338138654832792 
1324	 0.338086506329087 
1325	 0.338046568940408 
1326	 0.33801712650872 
1327	 0.337979780437994 
1328	 0.337918909988935 
1329	 0.337860220672795 
1330	 0.337803280719434 
1331	 0.337726861866823 
1332	 0.337667099304619 
1333	 0.337633679267795 
1334	 0.33757418391565 
1335	 0.337485773853389 
1336	 0.337433218205651 
1337	 0.337394879646534 
1338	 0.337346559146942 
1339	 0.337320046964463 
1340	 0.337275287784721 
1341	 0.337196096318162 
1342	 0.337148332277561 
1343	 0.33710876763382 
1344	 0.337086701737547 
1345	 0.337067853553448 
1346	 0.337040794623423 
1347	 0.337002277833666 
1348	 0.336959358583659 
1349	 0.336903379226908 
1350	 0.336854077270069 
1351	 0.336809079578416 
1352	 0.336770993544822 
1353	 0.336707267947316 
1354	 0.33663881403068 
1355	 0.336566700842036 
1356	 0.336462391852523 
1357	 0.33639375765578 
1358	 0.336337736456735 
1359	 0.336290294906695 
1360	 0.33627355994916 
1361	 0.336226436891415 
1362	 0.336173788216482 
1363	 0.336125203363947 
1364	 0.336051406562936 
1365	 0.335995098588009 
1366	 0.335951251108667 
1367	 0.335910725563682 
1368	 0.335880050094622 
1369	 0.335862116647985 
1370	 0.335823669869254 
1371	 0.335765834738044 
1372	 0.335691762681865 
1373	 0.33559404042283 
1374	 0.335491223186284 
1375	 0.335399022976537 
1376	 0.335246990932508 
1377	 0.335062115391105 
1378	 0.334857620358968 
1379	 0.334601131630716 
1380	 0.33435736485102 
1381	 0.334111585502012 
1382	 0.333842464899352 
1383	 0.333572739559944 
1384	 0.333268535992004 
1385	 0.332959158636808 
1386	 0.332597867298594 
1387	 0.332198414051501 
1388	 0.331765890842253 
1389	 0.331297857757641 
1390	 0.330785075432368 
1391	 0.330255295313377 
1392	 0.329686451433776 
1393	 0.32905254654132 
1394	 0.328397346102368 
1395	 0.327683337317976 
1396	 0.326956757948649 
1397	 0.326264408012946 
1398	 0.325571335729529 
1399	 0.324884717237587 
1400	 0.324220703533838 
1401	 0.32354771478832 
1402	 0.322853072308049 
1403	 0.322204339260648 
1404	 0.321560533359029 
1405	 0.320971075998515 
1406	 0.320417527226548 
1407	 0.319887116339336 
1408	 0.319376017658518 
1409	 0.318923820111563 
1410	 0.318478002483475 
1411	 0.318131377135454 
1412	 0.317845085683836 
1413	 0.317641478012332 
1414	 0.317547082612535 
1415	 0.317508441010894 
1416	 0.317545516909043 
1417	 0.317643412024785 
1418	 0.317732591560961 
1419	 0.31783749125978 
1420	 0.317964442640553 
1421	 0.318067423730012 
1422	 0.318179343405361 
1423	 0.318284702038243 
1424	 0.318332344442332 
1425	 0.318333808972426 
1426	 0.318343213587446 
1427	 0.31830145967176 
1428	 0.318299111341807 
1429	 0.318321800134635 
1430	 0.318316154220755 
1431	 0.318319420441266 
1432	 0.318294668790794 
1433	 0.318224547671135 
1434	 0.318188301335716 
1435	 0.318134998263378 
1436	 0.318120495263203 
1437	 0.318149308917075 
1438	 0.318166299545704 
1439	 0.318200848107292 
1440	 0.318232377131514 
1441	 0.318238542226121 
1442	 0.318246214086092 
1443	 0.318255755410752 
1444	 0.318264992366174 
1445	 0.318286692493616 
1446	 0.318322506172156 
1447	 0.318368076442947 
1448	 0.318403658942441 
1449	 0.318409799117858 
1450	 0.318417918822963 
1451	 0.318428261952921 
1452	 0.318415149645892 
1453	 0.318427971019838 
1454	 0.318465514899447 
1455	 0.318485455428503 
1456	 0.318505105057094 
1457	 0.318527456147319 
1458	 0.318544433263181 
1459	 0.318569994646762 
1460	 0.318586777704789 
1461	 0.318630441094575 
1462	 0.318696126294795 
1463	 0.318752783743197 
1464	 0.318819939505254 
1465	 0.318895540032362 
1466	 0.318958307271611 
1467	 0.319049380153488 
1468	 0.319154903622042 
1469	 0.319279586549603 
1470	 0.319424965967358 
1471	 0.319585876698904 
1472	 0.319757341408885 
1473	 0.319954079900323 
1474	 0.320136998132239 
1475	 0.320308606198577 
1476	 0.320471691143314 
1477	 0.320646228961059 
1478	 0.320826081070492 
1479	 0.32100102440797 
1480	 0.321192692195808 
1481	 0.321383881266486 
1482	 0.321573176012556 
1483	 0.321767306645589 
1484	 0.321957530322207 
1485	 0.322138313472839 
1486	 0.322331941688072 
1487	 0.322532514431873 
1488	 0.322733510076264 
1489	 0.322951989040363 
1490	 0.323146590383203 
1491	 0.323329736997042 
1492	 0.323510739406141 
1493	 0.323677747819503 
1494	 0.323845117432663 
1495	 0.324004531230244 
1496	 0.324178902806517 
1497	 0.324367678039997 
1498	 0.324536059510255 
1499	 0.324709298974602 
1500	 0.324868819147466 
1501	 0.32499312869683 
1502	 0.325134970051475 
1503	 0.325275841977111 
1504	 0.325434088508679 
1505	 0.325603457382371 
1506	 0.325779580499075 
1507	 0.325946166807816 
1508	 0.326095917120856 
1509	 0.326223615661238 
1510	 0.326350857798118 
1511	 0.32646729754794 
1512	 0.326584779308676 
1513	 0.326710991303198 
1514	 0.326839307388607 
1515	 0.326982837114448 
1516	 0.327129135539222 
1517	 0.327268402921552 
1518	 0.327406134861589 
1519	 0.327533610027626 
1520	 0.32765675722861 
1521	 0.32777908083573 
1522	 0.327880311841823 
1523	 0.328014893806821 
1524	 0.328175994832102 
1525	 0.328306395465601 
1526	 0.328448310546609 
1527	 0.328569611318772 
1528	 0.328650584087355 
1529	 0.328758944694428 
1530	 0.328878695338 
1531	 0.328990696788509 
1532	 0.329111460787474 
1533	 0.329217462496153 
1534	 0.329311675983627 
1535	 0.329409761596966 
1536	 0.329499829347395 
1537	 0.329593259049561 
1538	 0.329692004534292 
1539	 0.329782990998152 
1540	 0.329860271693617 
1541	 0.329955588386684 
1542	 0.330070177178868 
1543	 0.330163929985535 
1544	 0.330262971423614 
1545	 0.330351145500768 
1546	 0.330429533958677 
1547	 0.330475543033201 
1548	 0.330539474451617 
1549	 0.33059962108982 
1550	 0.330656476107148 
1551	 0.330746160787109 
1552	 0.330834533393724 
1553	 0.330924246803764 
1554	 0.331027751882934 
1555	 0.331099268708838 
1556	 0.331153897029438 
1557	 0.331221494075064 
1558	 0.331266262091315 
1559	 0.331311062272991 
1560	 0.331371559512361 
1561	 0.331447222861843 
1562	 0.331505487405975 
1563	 0.331558244361427 
1564	 0.331628755335699 
1565	 0.331704029343272 
1566	 0.331773021768954 
1567	 0.331864133866925 
1568	 0.33192035678686 
1569	 0.331941861843756 
1570	 0.331988900050729 
1571	 0.332034551193287 
1572	 0.33208475836373 
1573	 0.332145080416646 
1574	 0.332203706926905 
1575	 0.332263142730257 
1576	 0.332320116907244 
1577	 0.332386486860521 
1578	 0.332435425823774 
1579	 0.332470353242716 
1580	 0.332507324859404 
1581	 0.332529026244267 
1582	 0.332571549609309 
1583	 0.332623407649098 
1584	 0.332674857565534 
1585	 0.332741113670141 
1586	 0.332796092767084 
1587	 0.332850211568373 
1588	 0.332896214243348 
1589	 0.3329362581818 
1590	 0.332972785615694 
1591	 0.332996687099783 
1592	 0.333028631179209 
1593	 0.333054992038345 
1594	 0.33309256014839 
1595	 0.333143291085497 
1596	 0.33318952391315 
1597	 0.333248286041626 
1598	 0.333290470752391 
1599	 0.333327155047243 
1600	 0.333351964216477 
1601	 0.333360354776814 
1602	 0.333372582049141 
1603	 0.333357519523644 
1604	 0.333373329022131 
1605	 0.333405829319034 
1606	 0.333442277099066 
1607	 0.333495066721282 
1608	 0.333563582395974 
1609	 0.333633442171368 
1610	 0.333700750074323 
1611	 0.333754805606815 
1612	 0.333794444160439 
1613	 0.333791289243709 
1614	 0.333777697014624 
1615	 0.33379329385493 
1616	 0.333819478208901 
1617	 0.333851179383918 
1618	 0.333886528855179 
1619	 0.333916101311094 
1620	 0.333942857535393 
1621	 0.33396917384154 
1622	 0.334007334783046 
1623	 0.33403065089968 
1624	 0.334041251194555 
1625	 0.334051005195286 
1626	 0.334053044064767 
1627	 0.334072156395895 
1628	 0.334084411421972 
1629	 0.33412536641532 
1630	 0.334198618063633 
1631	 0.334243442661811 
1632	 0.334295379249028 
1633	 0.334324119067867 
1634	 0.334333721291489 
1635	 0.334344107862606 
1636	 0.334339841030299 
1637	 0.334352075185874 
1638	 0.334361501198192 
1639	 0.334382910377528 
1640	 0.334412469091173 
1641	 0.334454392293467 
1642	 0.334511761607991 
1643	 0.334556920922961 
1644	 0.334613109092669 
1645	 0.334655338497501 
1646	 0.334688778103804 
1647	 0.334710363717224 
1648	 0.334728883762421 
1649	 0.334734077533222 
1650	 0.334716715205235 
1651	 0.334709456644076 
1652	 0.334689046534441 
1653	 0.334695584374641 
1654	 0.334714013968586 
1655	 0.334734345973134 
1656	 0.33478641897645 
1657	 0.334798831916731 
1658	 0.334790264310023 
1659	 0.334788729819475 
1660	 0.334765679211593 
1661	 0.334764367049741 
1662	 0.334778990517872 
1663	 0.334784811516092 
1664	 0.33479111835292 
1665	 0.334800497369887 
1666	 0.334807847776788 
1667	 0.334820176645447 
1668	 0.334846719085696 
1669	 0.334853178203267 
1670	 0.334858346107116 
1671	 0.334845950560456 
1672	 0.334797092183788 
1673	 0.33478974098264 
1674	 0.334793319780237 
1675	 0.334795965156293 
1676	 0.334821637090415 
1677	 0.334838743426998 
1678	 0.334844753214742 
1679	 0.334859180897119 
1680	 0.334885808630473 
1681	 0.334907502429926 
1682	 0.334918518641026 
1683	 0.334947646214949 
1684	 0.334988112626077 
1685	 0.335027394446539 
1686	 0.335092105352012 
1687	 0.335116982322513 
1688	 0.335121906712033 
1689	 0.335126582733375 
1690	 0.33509595914979 
1691	 0.335099604850507 
1692	 0.335129671038709 
1693	 0.335138279473303 
1694	 0.335146342555612 
1695	 0.33515442178852 
1696	 0.335136502779563 
1697	 0.335156241559547 
1698	 0.335215024406026 
1699	 0.335238793262438 
1700	 0.335267236194339 
1701	 0.335279907054981 
1702	 0.335267576291818 
1703	 0.335256958876791 
1704	 0.335249365555993 
1705	 0.33522850994405 
1706	 0.335185405613432 
1707	 0.335154286883192 
1708	 0.335122595587178 
1709	 0.335093926559729 
1710	 0.335060594719304 
1711	 0.335047926094481 
1712	 0.335048669174686 
1713	 0.335042880492838 
1714	 0.335052631337995 
1715	 0.335049408585308 
1716	 0.335036159517302 
1717	 0.335026787503805 
1718	 0.335019205932993 
1719	 0.335006729046468 
1720	 0.334982156893767 
1721	 0.334972107219495 
1722	 0.334984036001345 
1723	 0.334958772848096 
1724	 0.334921167639335 
1725	 0.33488780493905 
1726	 0.334830162996891 
1727	 0.334780503683833 
1728	 0.33474054026557 
1729	 0.334703563996708 
1730	 0.334664934495715 
1731	 0.334609273237512 
1732	 0.334556171836985 
1733	 0.334496965765136 
1734	 0.334412040813042 
1735	 0.334344745894752 
1736	 0.334297705635746 
1737	 0.334235252831931 
1738	 0.334161658213425 
1739	 0.334100214083068 
1740	 0.334037057953994 
1741	 0.333975012785668 
1742	 0.333924875445455 
1743	 0.333855723218262 
1744	 0.333782105433859 
1745	 0.33370476186845 
1746	 0.333611021873447 
1747	 0.333519827159219 
1748	 0.333438779068871 
1749	 0.333377718340196 
1750	 0.333330466646079 
1751	 0.333279113290533 
1752	 0.333218689908326 
1753	 0.333146059567112 
1754	 0.333038734597424 
1755	 0.332926186896362 
1756	 0.332852549578904 
1757	 0.332782364583376 
1758	 0.332702886670375 
1759	 0.332645849680072 
1760	 0.332582926984207 
1761	 0.332495031983607 
1762	 0.332440284697912 
1763	 0.332383922558032 
1764	 0.332311412127839 
1765	 0.332242263229951 
1766	 0.332144773407942 
1767	 0.332044481445539 
1768	 0.331954363165573 
1769	 0.331882490842739 
1770	 0.331830590950528 
1771	 0.331792165271722 
1772	 0.331759961182994 
1773	 0.331715263142045 
1774	 0.33168601272456 
1775	 0.331664049166222 
1776	 0.331612753822007 
1777	 0.331562346369634 
1778	 0.331494073993457 
1779	 0.331399149094153 
1780	 0.33134818169824 
1781	 0.331323952341852 
1782	 0.33130835898079 
1783	 0.331313064249134 
1784	 0.331316668342135 
1785	 0.331327263831555 
1786	 0.33132705016276 
1787	 0.331354066829721 
1788	 0.331331611356024 
1789	 0.331254653038146 
1790	 0.331195250073389 
1791	 0.331101570809098 
1792	 0.33106428926929 
1793	 0.331060878451823 
1794	 0.331064298546324 
1795	 0.331084797402299 
1796	 0.331122719888667 
1797	 0.331197404757611 
1798	 0.331235432292329 
1799	 0.331300952932613 
1800	 0.331318116734212 
1801	 0.330459850246872 
1802	 0.330658296702363 
1803	 0.330849338131768 
1804	 0.331075419720991 
1805	 0.331340634548413 
1806	 0.331560761966948 
1807	 0.33176928636729 
1808	 0.331958127703398 
1809	 0.3321455924076 
1810	 0.332289317636286 
1811	 0.332410572460517 
1812	 0.332506799514604 
1813	 0.33256661840857 
1814	 0.332570238683117 
1815	 0.332548868258951 
1816	 0.332523076661128 
1817	 0.332502763046792 
1818	 0.332465982243434 
1819	 0.332442824618073 
1820	 0.332414598690521 
1821	 0.332420405269005 
1822	 0.332425070701983 
1823	 0.332434074699132 
1824	 0.3324832125692 
1825	 0.332492319872281 
1826	 0.332518901952938 
1827	 0.332569932916326 
1828	 0.332574195706958 
1829	 0.3325765531608 
1830	 0.332535583945026 
1831	 0.332447006141401 
1832	 0.332343670695965 
1833	 0.332262807590637 
1834	 0.332199322652351 
1835	 0.332147630154194 
1836	 0.332079035315196 
1837	 0.332014214914539 
1838	 0.331949101440601 
1839	 0.331897776361975 
1840	 0.331863428189153 
1841	 0.331857470443294 
1842	 0.331793843918069 
1843	 0.33172586563522 
1844	 0.331666169513687 
1845	 0.331551111766913 
1846	 0.331466747234004 
1847	 0.33142867040152 
1848	 0.33139020258193 
1849	 0.33134750671008 
1850	 0.331305608006911 
1851	 0.331282232846505 
1852	 0.331227335040065 
1853	 0.331155380735607 
1854	 0.331092546630454 
1855	 0.331002338367682 
1856	 0.33087855617978 
1857	 0.330728705396976 
1858	 0.33054665009995 
1859	 0.330332014466187 
1860	 0.330094493372771 
1861	 0.32982972229707 
1862	 0.329529053611757 
1863	 0.329226731784823 
1864	 0.328913636755765 
1865	 0.328539656348684 
1866	 0.32813233115449 
1867	 0.327684903175114 
1868	 0.32718556247907 
1869	 0.326672563959816 
1870	 0.326127190959342 
1871	 0.32553998002671 
1872	 0.324917320199403 
1873	 0.324262922117744 
1874	 0.323555088739095 
1875	 0.322795201700679 
1876	 0.321965273593325 
1877	 0.321068089105612 
1878	 0.320103305869849 
1879	 0.319064386450686 
1880	 0.317945407786202 
1881	 0.31677038712814 
1882	 0.315483707418515 
1883	 0.314113799301713 
1884	 0.312614265618829 
1885	 0.311036685979194 
1886	 0.309372772931554 
1887	 0.307616672410406 
1888	 0.305815443455698 
1889	 0.303942855586841 
1890	 0.301991151048101 
1891	 0.300043881136434 
1892	 0.298011626320258 
1893	 0.296039316587006 
1894	 0.294064202166596 
1895	 0.292127805771945 
1896	 0.290178917750843 
1897	 0.288301337041271 
1898	 0.286471325952043 
1899	 0.284686443785612 
1900	 0.283010846599256 
1901	 0.281428228262931 
1902	 0.279926227022196 
1903	 0.278522189215057 
1904	 0.277190292378851 
1905	 0.275940243510822 
1906	 0.274764699319624 
1907	 0.273677804406157 
1908	 0.272684760341313 
1909	 0.271761688699191 
1910	 0.270883672138433 
1911	 0.270072743423647 
1912	 0.269304096400535 
1913	 0.268585287624898 
1914	 0.267910809996302 
1915	 0.267310733422986 
1916	 0.266777989549383 
1917	 0.266274988977172 
1918	 0.26582935576209 
1919	 0.265437892086746 
1920	 0.265069200140293 
1921	 0.264737695967368 
1922	 0.264460576398171 
1923	 0.26420771721576 
1924	 0.263985702806357 
1925	 0.263791174771149 
1926	 0.263634759723853 
1927	 0.263502875281382 
1928	 0.263421108221495 
1929	 0.263373326798382 
1930	 0.26339682515909 
1931	 0.263450948431524 
1932	 0.263503744227563 
1933	 0.263618788509599 
1934	 0.263740720559405 
1935	 0.263879956727155 
1936	 0.264057968910057 
1937	 0.264243140435337 
1938	 0.264426794350681 
1939	 0.264638136948335 
1940	 0.264877778063543 
1941	 0.265113259480603 
1942	 0.265386192220044 
1943	 0.265669987470752 
1944	 0.265960243730966 
1945	 0.266287318108222 
1946	 0.266609637597148 
1947	 0.266920901931913 
1948	 0.267279118497593 
1949	 0.267678460421789 
1950	 0.268057015259218 
1951	 0.268452024893782 
1952	 0.268857875691855 
1953	 0.269225355417956 
1954	 0.269616991942616 
1955	 0.270052477251452 
1956	 0.270504487871001 
1957	 0.270960287815519 
1958	 0.271447584813509 
1959	 0.271922761860077 
1960	 0.272392757102545 
1961	 0.272866894126737 
1962	 0.273348603872583 
1963	 0.273835184255558 
1964	 0.274307556832878 
1965	 0.274809644832835 
1966	 0.275344375014598 
1967	 0.275882063869646 
1968	 0.276415379585322 
1969	 0.276966812839276 
1970	 0.277505834635038 
1971	 0.278045515242912 
1972	 0.278565150170781 
1973	 0.279075033713109 
1974	 0.279587005094616 
1975	 0.280089951157962 
1976	 0.280577528765896 
1977	 0.281073746519873 
1978	 0.28156274697557 
1979	 0.28205320139168 
1980	 0.282546731372781 
1981	 0.283033969024171 
1982	 0.2835192162725 
1983	 0.284018947151339 
1984	 0.284501779859566 
1985	 0.285017856036147 
1986	 0.28558168718532 
1987	 0.286117170844039 
1988	 0.286666817108223 
1989	 0.287193039438834 
1990	 0.28768211820979 
1991	 0.288185673661352 
1992	 0.288691107710165 
1993	 0.289193279296989 
1994	 0.289691990104822 
1995	 0.290198276388338 
1996	 0.290690303555054 
1997	 0.291167786273264 
1998	 0.291652059999953 
1999	 0.292142451666665 
2000	 0.292627004231826 
2001	 0.293130102436058 
2002	 0.293578819221492 
2003	 0.294049889738589 
2004	 0.294489142092553 
2005	 0.294935534829282 
2006	 0.295369947488535 
2007	 0.295822448938504 
2008	 0.296278586811678 
2009	 0.296731543415618 
2010	 0.297197280231013 
2011	 0.297644538447421 
2012	 0.298084283117882 
2013	 0.29851973286517 
2014	 0.298949775849594 
2015	 0.299366827544521 
2016	 0.29977659206308 
2017	 0.300191489721939 
2018	 0.300621417940857 
2019	 0.301057101139437 
2020	 0.301498434924828 
2021	 0.30197320183708 
2022	 0.302409419344865 
2023	 0.302836505925363 
2024	 0.303249192521955 
2025	 0.303632460391316 
2026	 0.304022611041948 
2027	 0.304401281218062 
2028	 0.304784121419586 
2029	 0.305178252309923 
2030	 0.305580433258813 
2031	 0.305977463811938 
2032	 0.306387689423979 
2033	 0.306776661343619 
2034	 0.307163326871197 
2035	 0.307528995882127 
2036	 0.307892117815945 
2037	 0.308225196929525 
2038	 0.308520478592952 
2039	 0.308820264414319 
2040	 0.309104368375665 
2041	 0.309369974528317 
2042	 0.309657653323497 
2043	 0.309962228728355 
2044	 0.310271874151316 
2045	 0.310599576926657 
2046	 0.310917674599656 
2047	 0.311254106645822 
2048	 0.311557520697682 
2049	 0.311851040676456 
2050	 0.312127944966282 
2051	 0.312370758023036 
2052	 0.312626756537013 
2053	 0.312885235260256 
2054	 0.313129534241061 
2055	 0.31336174157091 
2056	 0.313600771616373 
2057	 0.313837530292204 
2058	 0.314058113642966 
2059	 0.314301586525107 
2060	 0.314569370352402 
2061	 0.31480831345579 
2062	 0.315044672355266 
2063	 0.315272344969543 
2064	 0.315470024204089 
2065	 0.315694625084558 
2066	 0.315926239986425 
2067	 0.316162802416061 
2068	 0.316424231815406 
2069	 0.316668816664806 
2070	 0.316902143216131 
2071	 0.317134107520214 
2072	 0.317354057252771 
2073	 0.31755341197485 
2074	 0.317760990892451 
2075	 0.317969701676154 
2076	 0.318171306686159 
2077	 0.31836659794152 
2078	 0.318563571971561 
2079	 0.318748101799482 
2080	 0.31894556206645 
2081	 0.319144808042995 
2082	 0.319353407261376 
2083	 0.319568336604917 
2084	 0.319799000562413 
2085	 0.320025613699442 
2086	 0.320267264211761 
2087	 0.320485527801585 
2088	 0.320693744292062 
2089	 0.320906712311148 
2090	 0.321117290172722 
2091	 0.321311229365431 
2092	 0.321495950562605 
2093	 0.321688818952447 
2094	 0.321860154434935 
2095	 0.322050118994291 
2096	 0.322268369732949 
2097	 0.322470456317522 
2098	 0.322671416435329 
2099	 0.32287025289945 
2100	 0.323047297416521 
2101	 0.323198483591484 
2102	 0.323382156170509 
2103	 0.323555581126235 
2104	 0.323754823259512 
2105	 0.32398880505012 
2106	 0.324207462251521 
2107	 0.324434790014277 
2108	 0.324648150398316 
2109	 0.324848126981364 
2110	 0.325064072409428 
2111	 0.325276930816338 
2112	 0.325495169408334 
2113	 0.325731684606832 
2114	 0.325964891968863 
2115	 0.326186728417278 
2116	 0.326395325792621 
2117	 0.326622407303779 
2118	 0.326864231375051 
2119	 0.327072997259195 
2120	 0.327278590972179 
2121	 0.327474696340536 
2122	 0.327635095357492 
2123	 0.327817392483886 
2124	 0.32802813556344 
2125	 0.328203859526731 
2126	 0.32836461645732 
2127	 0.328516994984033 
2128	 0.328649211546744 
2129	 0.328773612013668 
2130	 0.328884009502474 
2131	 0.329009776524329 
2132	 0.329095776200287 
2133	 0.329162926628963 
2134	 0.329214336671928 
2135	 0.329241488755498 
2136	 0.329261715513254 
2137	 0.329271624194129 
2138	 0.329260261866973 
2139	 0.329230434518609 
2140	 0.329190361332913 
2141	 0.329136193027846 
2142	 0.329063466008696 
2143	 0.328973524938953 
2144	 0.328873443864226 
2145	 0.328748821376293 
2146	 0.32862190587111 
2147	 0.328478613726288 
2148	 0.328345774414627 
2149	 0.328207554328542 
2150	 0.328065882982692 
2151	 0.327918960285328 
2152	 0.327766646428038 
2153	 0.327621785500152 
2154	 0.327495761284168 
2155	 0.327319964986311 
2156	 0.327168766218201 
2157	 0.326930854517838 
2158	 0.326597152134182 
2159	 0.326290085483036 
2160	 0.325936002879003 
2161	 0.325596300581065 
2162	 0.325256928056688 
2163	 0.324931750753997 
2164	 0.32460634632998 
2165	 0.324297670297745 
2166	 0.32396507404118 
2167	 0.323641523857114 
2168	 0.323297603865378 
2169	 0.322918904556421 
2170	 0.322568466433833 
2171	 0.322232150253577 
2172	 0.321884713776253 
2173	 0.321541719588851 
2174	 0.3211876423595 
2175	 0.320839770352885 
2176	 0.320459238684015 
2177	 0.32006703836886 
2178	 0.319652095011619 
2179	 0.319208488294946 
2180	 0.31874956781542 
2181	 0.318267356229844 
2182	 0.317778052837692 
2183	 0.31724505003719 
2184	 0.316737806769477 
2185	 0.316249179826091 
2186	 0.315768422261748 
2187	 0.315289744100629 
2188	 0.314827029504795 
2189	 0.314375274014169 
2190	 0.313915260613623 
2191	 0.313487035012474 
2192	 0.313074161934657 
2193	 0.312698936209801 
2194	 0.312338694324789 
2195	 0.312016956123316 
2196	 0.311750423747257 
2197	 0.311489614019169 
2198	 0.311239887956813 
2199	 0.311028865563189 
2200	 0.310839273128018 
2201	 0.310684321430554 
2202	 0.310558071101462 
2203	 0.310482032263338 
2204	 0.31042896891764 
2205	 0.310401323452876 
2206	 0.310422811217599 
2207	 0.310480596528269 
2208	 0.310583904232422 
2209	 0.310732747176764 
2210	 0.310926880104614 
2211	 0.311188575992638 
2212	 0.311439865271465 
2213	 0.311710434890063 
2214	 0.312022595569379 
2215	 0.312403742191308 
2216	 0.312713796816691 
2217	 0.313076577264663 
2218	 0.313346096119567 
2219	 0.313500950693731 
2220	 0.313679398755394 
2221	 0.313837115452415 
2222	 0.31397924874954 
2223	 0.314102531109565 
2224	 0.314200817202706 
2225	 0.314303333938286 
2226	 0.314386590212774 
2227	 0.314460667848666 
2228	 0.314540634520483 
2229	 0.314594560955764 
2230	 0.314613693133058 
2231	 0.314640379091184 
2232	 0.314665759162127 
2233	 0.314677243283384 
2234	 0.314681775140998 
2235	 0.314674368080943 
2236	 0.314670071961321 
2237	 0.314626854346003 
2238	 0.314541240837651 
2239	 0.314466984733342 
2240	 0.314376755149599 
2241	 0.314279593744823 
2242	 0.314176161399647 
2243	 0.314081773681716 
2244	 0.314001832036658 
2245	 0.3138678785602 
2246	 0.313747046257694 
2247	 0.313672718538373 
2248	 0.313589662346896 
2249	 0.313501835024165 
2250	 0.313436985271595 
2251	 0.313401747843448 
2252	 0.313340178194606 
2253	 0.313268122352005 
2254	 0.313210662615048 
2255	 0.31315606336003 
2256	 0.313099916265249 
2257	 0.313041774369802 
2258	 0.313013277388473 
2259	 0.312983829951629 
2260	 0.312976684690135 
2261	 0.313011300367493 
2262	 0.313033079955473 
2263	 0.313064820884219 
2264	 0.313083983298885 
2265	 0.313107026594676 
2266	 0.313120371539688 
2267	 0.313112007760446 
2268	 0.313118840277133 
2269	 0.313113342859262 
2270	 0.313141241470369 
2271	 0.313194491477916 
2272	 0.313215214418824 
2273	 0.313243049164415 
2274	 0.313260994019074 
2275	 0.313279547299864 
2276	 0.313273839081363 
2277	 0.313301899777974 
2278	 0.31334880659919 
2279	 0.313393682665398 
2280	 0.313450874878492 
2281	 0.313504060606165 
2282	 0.313567249728456 
2283	 0.313617376175104 
2284	 0.313660374243784 
2285	 0.313698427866001 
2286	 0.313737955049319 
2287	 0.313750115851501 
2288	 0.313737194740055 
2289	 0.313741723315627 
2290	 0.313728701663936 
2291	 0.31373799864303 
2292	 0.313796018604443 
2293	 0.3138014498393 
2294	 0.313757115328684 
2295	 0.313747551108976 
2296	 0.313726272826754 
2297	 0.313716969679321 
2298	 0.313733198503945 
2299	 0.313767988165283 
2300	 0.313781382354571 
2301	 0.313767452857888 
2302	 0.313731391492186 
2303	 0.313687019170475 
2304	 0.313624826586087 
2305	 0.313538077812879 
2306	 0.31345757930438 
2307	 0.313382613827442 
2308	 0.313290959022859 
2309	 0.31318695257943 
2310	 0.313085926779121 
2311	 0.312950802150395 
2312	 0.312882911218314 
2313	 0.312843320688065 
2314	 0.312796780573399 
2315	 0.312834523345827 
2316	 0.312769520123935 
2317	 0.312640519240081 
2318	 0.312523509106796 
2319	 0.312327258617431 
2320	 0.312212563060731 
2321	 0.312143921865482 
2322	 0.312071107932031 
2323	 0.312069386664499 
2324	 0.311997750163564 
2325	 0.31184699872614 
2326	 0.311766078492765 
2327	 0.311706830970003 
2328	 0.311622141856926 
2329	 0.311589432160345 
2330	 0.311549078435213 
2331	 0.311392823271282 
2332	 0.311281628651403 
2333	 0.311218976642248 
2334	 0.311159990826437 
2335	 0.311113318528818 
2336	 0.311037079454999 
2337	 0.31092942838141 
2338	 0.3107719297729 
2339	 0.310630829854271 
2340	 0.310518619925867 
2341	 0.310360273840216 
2342	 0.310250615644464 
2343	 0.31020290826028 
2344	 0.31007436899808 
2345	 0.309937799220091 
2346	 0.309802149283635 
2347	 0.309628735284538 
2348	 0.309387484942668 
2349	 0.309221122921803 
2350	 0.309080349176753 
2351	 0.308909510009571 
2352	 0.308733966914276 
2353	 0.308574747796044 
2354	 0.308416395410932 
2355	 0.30824896042229 
2356	 0.308132070903865 
2357	 0.307952247803406 
2358	 0.307656084924817 
2359	 0.307484375213176 
2360	 0.307352567570898 
2361	 0.307223584409201 
2362	 0.307180569200883 
2363	 0.307110699612206 
2364	 0.307034149139345 
2365	 0.306946438531595 
2366	 0.306880955700483 
2367	 0.306770415949048 
2368	 0.306615470165127 
2369	 0.306435102544447 
2370	 0.306215745213203 
2371	 0.306032082358492 
2372	 0.30575500167596 
2373	 0.305526760494573 
2374	 0.305287850094479 
2375	 0.305027052841954 
2376	 0.304830341288223 
2377	 0.304571670025113 
2378	 0.304364623262359 
2379	 0.304122634606751 
2380	 0.303734598516305 
2381	 0.303358365161346 
2382	 0.302977273557617 
2383	 0.302596112743816 
2384	 0.30228249944988 
2385	 0.302043024671031 
2386	 0.30179415175548 
2387	 0.301495676371141 
2388	 0.301241195684871 
2389	 0.301019044807959 
2390	 0.300741418078453 
2391	 0.300443488648848 
2392	 0.300174954360543 
2393	 0.29984955740512 
2394	 0.299519357195535 
2395	 0.299231388495059 
2396	 0.298935650089814 
2397	 0.298648283829801 
2398	 0.298383091230885 
2399	 0.298115887545215 
2400	 0.297717786082442 
2401	 0.297330953103912 
2402	 0.297030640430137 
2403	 0.296725589113956 
2404	 0.296485192429782 
2405	 0.296198850151822 
2406	 0.295898686456435 
2407	 0.295494464456934 
2408	 0.294906286803553 
2409	 0.294457819231001 
2410	 0.294078069807677 
2411	 0.293713506938438 
2412	 0.293502648523951 
2413	 0.29329385453838 
2414	 0.29297081262514 
2415	 0.29262180432564 
2416	 0.292250415818984 
2417	 0.291824026597893 
2418	 0.291455164992788 
2419	 0.291096959530987 
2420	 0.290736820962162 
2421	 0.290448133313017 
2422	 0.29003035756527 
2423	 0.289486473580025 
2424	 0.2890193087864 
2425	 0.28856702620111 
2426	 0.28815044701832 
2427	 0.28783528965107 
2428	 0.28738252742117 
2429	 0.286792811709511 
2430	 0.286250503426725 
2431	 0.285622853832472 
2432	 0.285178027404117 
2433	 0.284900647670651 
2434	 0.284472907474752 
2435	 0.284053690478039 
2436	 0.283677210044901 
2437	 0.283197807179654 
2438	 0.282882137948434 
2439	 0.282800233445925 
2440	 0.28243688578541 
2441	 0.281970121829993 
2442	 0.281557299128521 
2443	 0.281002611453598 
2444	 0.280587419044255 
2445	 0.280298645439607 
2446	 0.279941466465694 
2447	 0.279548882784228 
2448	 0.279184294406529 
2449	 0.278823377351595 
2450	 0.278509613043383 
2451	 0.278294610782321 
2452	 0.277983862640552 
2453	 0.277682727448659 
2454	 0.277281114277042 
2455	 0.276717343940018 
2456	 0.27624436331461 
2457	 0.27575630108899 
2458	 0.275384495587911 
2459	 0.275085659921029 
2460	 0.27477459275305 
2461	 0.2746103453341 
2462	 0.274199214073534 
2463	 0.273623465043705 
2464	 0.273170755184115 
2465	 0.272574973155242 
2466	 0.272206877376866 
2467	 0.272079942744108 
2468	 0.271780975345309 
2469	 0.271556211802858 
2470	 0.27115481530494 
2471	 0.270588458873439 
2472	 0.270095639422627 
2473	 0.269754974469407 
2474	 0.26940776307548 
2475	 0.269087488114746 
2476	 0.268971430354626 
2477	 0.2686979978768 
2478	 0.268207980875963 
2479	 0.267825355847711 
2480	 0.267413466480179 
2481	 0.266993903060216 
2482	 0.266567988857455 
2483	 0.266290973139228 
2484	 0.266078338543653 
2485	 0.265652845731234 
2486	 0.265413237012202 
2487	 0.265277001407217 
2488	 0.264978708734132 
2489	 0.264671142768451 
2490	 0.264361580368975 
2491	 0.264046883055129 
2492	 0.263767957076577 
2493	 0.263624142582635 
2494	 0.263565479533214 
2495	 0.263379311838772 
2496	 0.263048531103987 
2497	 0.262846054914567 
2498	 0.262641043391312 
2499	 0.262200389884534 
2500	 0.261979472877043 
