Wavelength	mm1600002.asd
350	 7.24420074667249E-02 
351	 6.75199282783827E-02 
352	 5.94268067105109E-02 
353	 5.02540459189908E-02 
354	 5.24230487357438E-02 
355	 6.24320335386259E-02 
356	 6.91666160625062E-02 
357	 6.60454838148215E-02 
358	 6.86154372754904E-02 
359	 6.53281826883941E-02 
360	 6.09957269032491E-02 
361	 6.88755265554942E-02 
362	 7.07583019764217E-02 
363	 6.71918877918531E-02 
364	 6.22343583717916E-02 
365	 6.09861754170627E-02 
366	 6.38934854871454E-02 
367	 0.066340715107162 
368	 6.49741596795588E-02 
369	 6.72754182102884E-02 
370	 6.73777359671631E-02 
371	 6.58899477545035E-02 
372	 6.76489251406004E-02 
373	 0.06982781177306 
374	 7.16112983889873E-02 
375	 7.23708535689226E-02 
376	 7.11223655870692E-02 
377	 7.11177362091964E-02 
378	 7.40421142981551E-02 
379	 7.85852724081282E-02 
380	 7.40804848331152E-02 
381	 6.82473221638741E-02 
382	 6.75435313960219E-02 
383	 7.52649055144627E-02 
384	 7.68942136213317E-02 
385	 7.61918196648659E-02 
386	 7.71750065203398E-02 
387	 7.89064794080752E-02 
388	 0.081180202051412 
389	 8.20742876501492E-02 
390	 8.02806368939731E-02 
391	 7.93824021904211E-02 
392	 0.080256809230405 
393	 8.29890535070973E-02 
394	 8.68448024554241E-02 
395	 8.70636889238545E-02 
396	 8.63772422127322E-02 
397	 8.74182542705503E-02 
398	 9.03085578699993E-02 
399	 9.00034964078264E-02 
400	 8.90465165991002E-02 
401	 0.091470932788742 
402	 9.24059465186505E-02 
403	 9.24417122922509E-02 
404	 9.26245585412394E-02 
405	 9.40103971012605E-02 
406	 0.095566071554355 
407	 9.65609235181173E-02 
408	 9.66327287582504E-02 
409	 9.58044060387472E-02 
410	 9.65210718872387E-02 
411	 9.78045484057243E-02 
412	 9.75771451408947E-02 
413	 9.87430934901543E-02 
414	 9.94615675065327E-02 
415	 9.92548274266697E-02 
416	 9.98808524174374E-02 
417	 0.100090178228645 
418	 0.10019835586277 
419	 0.100585979289933 
420	 0.10056104337647 
421	 0.100496616127534 
422	 0.100685285614609 
423	 0.101222137842457 
424	 0.100764441951226 
425	 0.100168399172815 
426	 0.100250431680396 
427	 0.101438555496183 
428	 0.101354574563199 
429	 0.100565322791147 
430	 0.1003411490118 
431	 0.100070851909786 
432	 9.97198673684796E-02 
433	 9.94869004961817E-02 
434	 9.97441458141064E-02 
435	 0.10035069861849 
436	 0.100714133842083 
437	 0.1006043772305 
438	 0.100896589314591 
439	 0.101393039662225 
440	 0.101750051272225 
441	 0.101675936074192 
442	 0.101951051504826 
443	 0.10268270003328 
444	 0.103568379943343 
445	 0.103813258110394 
446	 0.104199389541071 
447	 0.104594974412435 
448	 0.104776629790261 
449	 0.105261164623141 
450	 0.105915330781511 
451	 0.106521364964724 
452	 0.106836092527847 
453	 0.107047004004887 
454	 0.107460657187276 
455	 0.108136181441587 
456	 0.108522455941432 
457	 0.108723649044956 
458	 0.108896005571823 
459	 0.109163847558288 
460	 0.109057196438184 
461	 0.109240101129599 
462	 0.109833875255175 
463	 0.110079584065549 
464	 0.110235306437948 
465	 0.110493755946863 
466	 0.110906486671897 
467	 0.110972885259907 
468	 0.111226292404618 
469	 0.111591773989335 
470	 0.111527175580276 
471	 0.111459528748123 
472	 0.11161852301217 
473	 0.111954092900043 
474	 0.111807339682718 
475	 0.111986473794463 
476	 0.11233837747714 
477	 0.112403391415289 
478	 0.112858453511727 
479	 0.113115454582228 
480	 0.113037719240707 
481	 0.113246977916678 
482	 0.113554849034364 
483	 0.113714164622018 
484	 0.113627690457693 
485	 0.113909468687097 
486	 0.114059917504929 
487	 0.114044526053042 
488	 0.114217392693261 
489	 0.114327774625329 
490	 0.114438268770217 
491	 0.114640012280915 
492	 0.115010837257422 
493	 0.115084643271931 
494	 0.11500469640811 
495	 0.115171757365469 
496	 0.115497715457278 
497	 0.115605336043727 
498	 0.115509179133193 
499	 0.115842317094095 
500	 0.116056196677324 
501	 0.116148941847694 
502	 0.116277901823577 
503	 0.116585759297344 
504	 0.116672273648332 
505	 0.116611196856545 
506	 0.116890891085196 
507	 0.117064521029728 
508	 0.117152981293296 
509	 0.117259564831882 
510	 0.117478064216755 
511	 0.117558259743306 
512	 0.117553262680304 
513	 0.117663003055733 
514	 0.117794128308593 
515	 0.117931632878943 
516	 0.118089715082598 
517	 0.118339700045764 
518	 0.118348890411803 
519	 0.118301343994088 
520	 0.118472431065467 
521	 0.118620191978768 
522	 0.118856434013738 
523	 0.119126148594643 
524	 0.119190129654221 
525	 0.119254988285826 
526	 0.119354013198559 
527	 0.119482663158383 
528	 0.119659211939187 
529	 0.119769296756468 
530	 0.119846217696786 
531	 0.12000958736097 
532	 0.120140672873541 
533	 0.120358163031241 
534	 0.120663781560924 
535	 0.120738911823635 
536	 0.120840291667716 
537	 0.12098322486343 
538	 0.12110892899689 
539	 0.121327541121227 
540	 0.121500933170905 
541	 0.121592289366909 
542	 0.121720139615113 
543	 0.121864299780105 
544	 0.122044719141895 
545	 0.122259882764327 
546	 0.122394818649266 
547	 0.12253991955681 
548	 0.122719492149803 
549	 0.122898021616986 
550	 0.123091159152974 
551	 0.123349041030484 
552	 0.123648234087386 
553	 0.123744213032766 
554	 0.123910145622024 
555	 0.124180649810717 
556	 0.124463315554111 
557	 0.124748388325479 
558	 0.125064742951687 
559	 0.125412840468324 
560	 0.125736895561196 
561	 0.126026391707795 
562	 0.126302900833473 
563	 0.126608460978018 
564	 0.127022271245956 
565	 0.127365531709354 
566	 0.127594985091534 
567	 0.127834549606626 
568	 0.128136273870722 
569	 0.128531275379858 
570	 0.129021125127703 
571	 0.129564569270617 
572	 0.130088580879033 
573	 0.130569138839968 
574	 0.131020183044906 
575	 0.131420977016694 
576	 0.131910000914633 
577	 0.13253167402985 
578	 0.133077551507807 
579	 0.133638958740873 
580	 0.134172200980104 
581	 0.134606330942253 
582	 0.135059971559415 
583	 0.135523082178223 
584	 0.136033645309404 
585	 0.136720998164788 
586	 0.137388317829286 
587	 0.138057515134698 
588	 0.138788973243028 
589	 0.139512217567227 
590	 0.140253766910286 
591	 0.140985671671483 
592	 0.141634404018437 
593	 0.142224288646538 
594	 0.142808266103393 
595	 0.143395239746742 
596	 0.14384858678897 
597	 0.144372465359278 
598	 0.144934318183273 
599	 0.145400011635634 
600	 0.145964144323617 
601	 0.146559838471535 
602	 0.147137441212328 
603	 0.147739778149232 
604	 0.148306219372797 
605	 0.148867193858037 
606	 0.149469920450392 
607	 0.150068625480248 
608	 0.150598035811134 
609	 0.151089164132401 
610	 0.151679416366802 
611	 0.152148122231661 
612	 0.152526403717033 
613	 0.152886683810877 
614	 0.153217401806755 
615	 0.153532854706009 
616	 0.153835641993737 
617	 0.15412494121798 
618	 0.1544941802872 
619	 0.154846912953617 
620	 0.15511939662682 
621	 0.15536673044342 
622	 0.155670598290463 
623	 0.155977109187065 
624	 0.15619987685509 
625	 0.15646463399498 
626	 0.15672571408079 
627	 0.156963039120848 
628	 0.157206893658096 
629	 0.157481280216709 
630	 0.15776284216342 
631	 0.158011890293215 
632	 0.15817710945852 
633	 0.158358505342004 
634	 0.158585214349191 
635	 0.158822630300514 
636	 0.159039130623872 
637	 0.159265269188418 
638	 0.159504518250349 
639	 0.159655082803056 
640	 0.159868064588821 
641	 0.160122633566003 
642	 0.160325131585466 
643	 0.160500604427696 
644	 0.160706223253971 
645	 0.160949883633491 
646	 0.161164026426739 
647	 0.161362702029241 
648	 0.161581077295364 
649	 0.161841395697566 
650	 0.162085548540743 
651	 0.16229213200956 
652	 0.162485214477415 
653	 0.162724760619015 
654	 0.162992592086197 
655	 0.163244539217468 
656	 0.163471999167013 
657	 0.163770775562124 
658	 0.164050343560843 
659	 0.164287978932478 
660	 0.164499966187088 
661	 0.164727208167432 
662	 0.164983488452682 
663	 0.165258440181229 
664	 0.16551006940089 
665	 0.165854039214264 
666	 0.166174287235006 
667	 0.166366155963518 
668	 0.1666507590694 
669	 0.166997841415428 
670	 0.16734944212725 
671	 0.167635834709188 
672	 0.167909883950948 
673	 0.168210064794879 
674	 0.168551073384466 
675	 0.168906115089762 
676	 0.169220407645106 
677	 0.169520294249415 
678	 0.169860454879754 
679	 0.170194924341614 
680	 0.170557747804755 
681	 0.170953792910267 
682	 0.17134311922723 
683	 0.171677455272025 
684	 0.172023793518118 
685	 0.1724358448683 
686	 0.172805469184487 
687	 0.173157287821846 
688	 0.173513462574579 
689	 0.173889472409389 
690	 0.174250289288538 
691	 0.174638921964362 
692	 0.175066467025698 
693	 0.175463751434357 
694	 0.175809137761337 
695	 0.176174276309317 
696	 0.176628199450774 
697	 0.17700632446796 
698	 0.177411619353757 
699	 0.177852521257395 
700	 0.178226306959114 
701	 0.178630311856674 
702	 0.179069463749771 
703	 0.179513997019786 
704	 0.17989501263174 
705	 0.180264036364641 
706	 0.180666103955835 
707	 0.181123562230641 
708	 0.181515937013255 
709	 0.181901550133868 
710	 0.182312714453074 
711	 0.182716597342453 
712	 0.183147864973419 
713	 0.183534728517288 
714	 0.183837779202037 
715	 0.184247772085346 
716	 0.184653300310689 
717	 0.185021232219685 
718	 0.185385276819825 
719	 0.185804779778576 
720	 0.186200902818261 
721	 0.186522988184797 
722	 0.186808615304441 
723	 0.187139196733618 
724	 0.187478525899902 
725	 0.187769504975964 
726	 0.188093954017214 
727	 0.188361482283658 
728	 0.188595640542158 
729	 0.188921566544249 
730	 0.189198229369913 
731	 0.189439162453259 
732	 0.189671086606112 
733	 0.189882130928842 
734	 0.190070273963037 
735	 0.190249058450031 
736	 0.190433699678562 
737	 0.190603301910134 
738	 0.190787787857643 
739	 0.190970054076814 
740	 0.191080933548042 
741	 0.19114611062969 
742	 0.191216449632596 
743	 0.191324842874717 
744	 0.191451744042644 
745	 0.191500467343792 
746	 0.191515309195304 
747	 0.191592842387352 
748	 0.1916675377656 
749	 0.191643255785077 
750	 0.19155343255136 
751	 0.191584379606613 
752	 0.191599340345327 
753	 0.191553264497804 
754	 0.191462510197306 
755	 0.191461733806348 
756	 0.191427091528203 
757	 0.191334098280032 
758	 0.191217023541158 
759	 0.191115216978133 
760	 0.191041242173241 
761	 0.190976693503848 
762	 0.190870922965976 
763	 0.190737108519127 
764	 0.190568866101609 
765	 0.190384634301998 
766	 0.190288272730969 
767	 0.190160790727947 
768	 0.189999579518662 
769	 0.189856101490041 
770	 0.189702958949267 
771	 0.189527206530157 
772	 0.18933503285483 
773	 0.189153103390601 
774	 0.188960679051068 
775	 0.188769646430968 
776	 0.188587680192232 
777	 0.188388503009319 
778	 0.188217450444458 
779	 0.188056918643689 
780	 0.187863300494676 
781	 0.187628981423008 
782	 0.187427877635021 
783	 0.187262128199779 
784	 0.187056473895532 
785	 0.186895981551115 
786	 0.186704440576729 
787	 0.186447808431461 
788	 0.186261553614423 
789	 0.186118108708681 
790	 0.185946660124628 
791	 0.185697662306248 
792	 0.185541356624685 
793	 0.185336075507441 
794	 0.185104753557857 
795	 0.185001791789528 
796	 0.184772852056031 
797	 0.18454648436857 
798	 0.184405618218413 
799	 0.184239371780733 
800	 0.184075034633939 
801	 0.183904302990829 
802	 0.183721449673925 
803	 0.183560556756441 
804	 0.183421871630616 
805	 0.183273078067859 
806	 0.183074712059064 
807	 0.182897345994024 
808	 0.182765077007622 
809	 0.182639668295221 
810	 0.182415894869616 
811	 0.182269711227899 
812	 0.182107653520233 
813	 0.181881280269231 
814	 0.181838190419417 
815	 0.181788298444003 
816	 0.181664047059898 
817	 0.18146992013023 
818	 0.181285372238145 
819	 0.181152780829317 
820	 0.181057569408423 
821	 0.180943247317417 
822	 0.180853115210723 
823	 0.180727828493634 
824	 0.180573107061269 
825	 0.180521553454442 
826	 0.180465894266777 
827	 0.180379145066331 
828	 0.180266416670627 
829	 0.180161426475126 
830	 0.180024878754829 
831	 0.179900956414123 
832	 0.179858740249719 
833	 0.179860742913331 
834	 0.179827022670113 
835	 0.179737254746756 
836	 0.179636123409109 
837	 0.179592848025191 
838	 0.179563440828421 
839	 0.179511729710823 
840	 0.179451794257134 
841	 0.179335665503441 
842	 0.179245369135387 
843	 0.179242244232004 
844	 0.179209926284055 
845	 0.179187510894934 
846	 0.179163108560507 
847	 0.17911950252558 
848	 0.17914219763826 
849	 0.179156674855467 
850	 0.179124146051416 
851	 0.179054291716845 
852	 0.179015344125716 
853	 0.179013021105829 
854	 0.179049540164259 
855	 0.179135955714542 
856	 0.179180959798346 
857	 0.179162206131495 
858	 0.179115258352604 
859	 0.179169577282154 
860	 0.179234360836257 
861	 0.179263074072427 
862	 0.179241771807601 
863	 0.179210041684162 
864	 0.179277923221903 
865	 0.179389748849933 
866	 0.179408473934433 
867	 0.179421759844374 
868	 0.179473883482917 
869	 0.179542913279171 
870	 0.179557749179924 
871	 0.179688141399078 
872	 0.179802007501274 
873	 0.179837516517035 
874	 0.179924057653673 
875	 0.180050283326922 
876	 0.180164206527477 
877	 0.180231392705031 
878	 0.180291131405417 
879	 0.180385055727857 
880	 0.18048033367324 
881	 0.180545280527106 
882	 0.180673219088972 
883	 0.180831680135856 
884	 0.180982403465761 
885	 0.18110339934167 
886	 0.181287114752666 
887	 0.181410282013552 
888	 0.181467205031781 
889	 0.181564497772083 
890	 0.181734665053035 
891	 0.181902488080437 
892	 0.182047138951227 
893	 0.182232163855836 
894	 0.182426820946481 
895	 0.182589437508141 
896	 0.182719522535564 
897	 0.182891076643994 
898	 0.183095145584078 
899	 0.183295438327535 
900	 0.183455252408899 
901	 0.183548315605761 
902	 0.183744949545111 
903	 0.184011914165897 
904	 0.184250879055201 
905	 0.184429041820064 
906	 0.184623890994244 
907	 0.184852135563847 
908	 0.185104181286306 
909	 0.18543014541163 
910	 0.185647095445862 
911	 0.185777968871797 
912	 0.185980354674074 
913	 0.18625415484534 
914	 0.186536620531904 
915	 0.186793789265268 
916	 0.187030727728985 
917	 0.187275071455187 
918	 0.187538244404296 
919	 0.187816344495312 
920	 0.188093512050002 
921	 0.188415519436849 
922	 0.188737229267704 
923	 0.189019556541784 
924	 0.189262981843773 
925	 0.189636197126041 
926	 0.189986147073003 
927	 0.19022755497527 
928	 0.190525943454341 
929	 0.190890129858115 
930	 0.191256131122167 
931	 0.191573495268621 
932	 0.191876719579266 
933	 0.192195532388258 
934	 0.19257719860738 
935	 0.193017701700586 
936	 0.193372955576656 
937	 0.193666424588933 
938	 0.19394059688533 
939	 0.194256953545734 
940	 0.194703845115196 
941	 0.195116965519239 
942	 0.195536049231562 
943	 0.196013294257864 
944	 0.196297006567688 
945	 0.196635063690093 
946	 0.197067904417171 
947	 0.19751793730371 
948	 0.197895584321931 
949	 0.198304802861764 
950	 0.198696658997781 
951	 0.199008397805281 
952	 0.199527391035242 
953	 0.199966158315102 
954	 0.200370597112159 
955	 0.20093168766432 
956	 0.201451394755585 
957	 0.201937622827145 
958	 0.20236157795541 
959	 0.202710355759088 
960	 0.2031821519161 
961	 0.203726792346897 
962	 0.204235127665225 
963	 0.204616518503085 
964	 0.205044004558547 
965	 0.205427984153668 
966	 0.205857654008767 
967	 0.206479808635152 
968	 0.207001949525161 
969	 0.207462300162465 
970	 0.207877957234561 
971	 0.208278100545048 
972	 0.208941589501846 
973	 0.209524498398189 
974	 0.209998472845652 
975	 0.210546074900312 
976	 0.211023193949087 
977	 0.21157769221189 
978	 0.21209129898006 
979	 0.212386748211388 
980	 0.213019609298988 
981	 0.213638308545253 
982	 0.214161422909498 
983	 0.214702601286785 
984	 0.215216126342759 
985	 0.2157917946128 
986	 0.216281132696152 
987	 0.216538461310433 
988	 0.21711604956039 
989	 0.217624500112197 
990	 0.218051904422585 
991	 0.218583480126115 
992	 0.219216602281921 
993	 0.219772248978344 
994	 0.220252653259185 
995	 0.220748564844426 
996	 0.221300665105565 
997	 0.221833827690922 
998	 0.222345959776494 
999	 0.222837103880295 
1000	 0.223185845409291 
1001	 0.218631232033273 
1002	 0.219053834599398 
1003	 0.219500426354705 
1004	 0.21992100087232 
1005	 0.220319587785085 
1006	 0.220726864340665 
1007	 0.221129436412145 
1008	 0.221519719269963 
1009	 0.221956189992105 
1010	 0.22238186731254 
1011	 0.222774269458897 
1012	 0.223209612409171 
1013	 0.223594202993184 
1014	 0.223936240653354 
1015	 0.224363958685302 
1016	 0.224784190147909 
1017	 0.225197714212136 
1018	 0.225606600740317 
1019	 0.226059952123222 
1020	 0.226410475425914 
1021	 0.226709714229927 
1022	 0.227024403983399 
1023	 0.227305552824716 
1024	 0.227610850453604 
1025	 0.227947552765767 
1026	 0.22828349692016 
1027	 0.228620907872691 
1028	 0.228945825168451 
1029	 0.229291176858769 
1030	 0.229683898182313 
1031	 0.23001930211516 
1032	 0.230332808650721 
1033	 0.23062224415474 
1034	 0.230931916344521 
1035	 0.231192143152951 
1036	 0.23148071376178 
1037	 0.231841935135512 
1038	 0.232123426384346 
1039	 0.232384535327877 
1040	 0.232688366335236 
1041	 0.232997383301753 
1042	 0.233350318946456 
1043	 0.233681527581839 
1044	 0.234013789667232 
1045	 0.234335647956884 
1046	 0.234646857394247 
1047	 0.234920234613612 
1048	 0.235222179773861 
1049	 0.235481810321293 
1050	 0.235745330760717 
1051	 0.236071312236644 
1052	 0.236359323098294 
1053	 0.236681745003372 
1054	 0.237008351016584 
1055	 0.237280460522223 
1056	 0.237616239897162 
1057	 0.237939336020595 
1058	 0.238263185036117 
1059	 0.238556647574816 
1060	 0.238835370638045 
1061	 0.239131931518163 
1062	 0.239441956305019 
1063	 0.239720170866807 
1064	 0.240061860396576 
1065	 0.240372244137686 
1066	 0.240586381350048 
1067	 0.240828122709867 
1068	 0.241078324665452 
1069	 0.241308550760306 
1070	 0.241566978929708 
1071	 0.241885615635101 
1072	 0.242150306964445 
1073	 0.242393724036224 
1074	 0.242627005644365 
1075	 0.242824776212586 
1076	 0.243040211822242 
1077	 0.243297586655701 
1078	 0.243540512562669 
1079	 0.243808924953669 
1080	 0.24403385998234 
1081	 0.244187289647977 
1082	 0.244397054097871 
1083	 0.244612415281736 
1084	 0.244819533770239 
1085	 0.245051087800918 
1086	 0.245323750000929 
1087	 0.245562894492341 
1088	 0.245796889328526 
1089	 0.246046714125988 
1090	 0.246243425851166 
1091	 0.246420570711165 
1092	 0.246562960580534 
1093	 0.24666627708212 
1094	 0.246842315906696 
1095	 0.247030985349052 
1096	 0.247223148627625 
1097	 0.247438940304808 
1098	 0.247644908657518 
1099	 0.247837127227892 
1100	 0.248044969719016 
1101	 0.248261003957368 
1102	 0.248475773829344 
1103	 0.248712933282974 
1104	 0.24890555497847 
1105	 0.249077158435422 
1106	 0.249277162326478 
1107	 0.249451584955414 
1108	 0.249632108257052 
1109	 0.249820579039772 
1110	 0.249993505262629 
1111	 0.2501688927919 
1112	 0.250337162423598 
1113	 0.250494517710602 
1114	 0.250643002408225 
1115	 0.250816582162889 
1116	 0.250996677239447 
1117	 0.251170432610521 
1118	 0.251362119362099 
1119	 0.251529368828933 
1120	 0.251693107056964 
1121	 0.251867968618417 
1122	 0.252056343068554 
1123	 0.252265681926931 
1124	 0.252455802638739 
1125	 0.252653727917022 
1126	 0.252826515149353 
1127	 0.252977539723598 
1128	 0.253131051569894 
1129	 0.253248056463365 
1130	 0.253415110061212 
1131	 0.253625572912105 
1132	 0.253804929078971 
1133	 0.254001877136669 
1134	 0.254185530242519 
1135	 0.254354139416569 
1136	 0.254491055960941 
1137	 0.254652834496084 
1138	 0.254801885389037 
1139	 0.25494960339831 
1140	 0.255078635040897 
1141	 0.255234441407525 
1142	 0.255411829971545 
1143	 0.255567468425729 
1144	 0.255725993266393 
1145	 0.25587387267125 
1146	 0.255997879242957 
1147	 0.256132096220746 
1148	 0.256278135565403 
1149	 0.256415817968032 
1150	 0.256542705286506 
1151	 0.256680637675227 
1152	 0.256825488339039 
1153	 0.256954137685048 
1154	 0.25708529290836 
1155	 0.257220953303925 
1156	 0.257350781871604 
1157	 0.257478748003643 
1158	 0.257594733128484 
1159	 0.257698419451785 
1160	 0.257814621179623 
1161	 0.257922342005416 
1162	 0.258036925935644 
1163	 0.258161618638313 
1164	 0.258294547587679 
1165	 0.258434658685492 
1166	 0.258571989316905 
1167	 0.258703423216535 
1168	 0.258829110523631 
1169	 0.258952898324451 
1170	 0.259057819532836 
1171	 0.259175758135677 
1172	 0.259308155577871 
1173	 0.259422283111111 
1174	 0.259510176127987 
1175	 0.259637022253998 
1176	 0.259789534503924 
1177	 0.259918944859091 
1178	 0.260073732774662 
1179	 0.260197355828892 
1180	 0.260281765493162 
1181	 0.260375840564145 
1182	 0.26046084694638 
1183	 0.260545098092431 
1184	 0.260653769020916 
1185	 0.260777026558836 
1186	 0.260886703799891 
1187	 0.261016380383923 
1188	 0.261119889486745 
1189	 0.261189642429098 
1190	 0.261290917780932 
1191	 0.261408547302404 
1192	 0.26151021439948 
1193	 0.261614626125415 
1194	 0.26171879814926 
1195	 0.26181710618745 
1196	 0.261909028729925 
1197	 0.262002489222115 
1198	 0.2620950024633 
1199	 0.262183091895946 
1200	 0.262249235596633 
1201	 0.262351283243142 
1202	 0.262473240597136 
1203	 0.26258283900028 
1204	 0.262709958723058 
1205	 0.262815352215224 
1206	 0.262900469616162 
1207	 0.262999533009358 
1208	 0.263106161973789 
1209	 0.263198190290538 
1210	 0.263288467773768 
1211	 0.263375001639207 
1212	 0.2634416256087 
1213	 0.263520431379735 
1214	 0.263602534272053 
1215	 0.263690594900012 
1216	 0.263783439063782 
1217	 0.263885326614585 
1218	 0.263976493060287 
1219	 0.264069971187806 
1220	 0.26415905367779 
1221	 0.264236710775415 
1222	 0.264325596592861 
1223	 0.264425726337008 
1224	 0.264513194488997 
1225	 0.264607230566193 
1226	 0.264681926988489 
1227	 0.264735169460619 
1228	 0.264797140957461 
1229	 0.264843276530854 
1230	 0.26490510933156 
1231	 0.264980445327538 
1232	 0.265053539486282 
1233	 0.265129710070331 
1234	 0.265215414878146 
1235	 0.265289418549793 
1236	 0.265358012504443 
1237	 0.265431468821363 
1238	 0.26550994750994 
1239	 0.265573006780311 
1240	 0.265629345547177 
1241	 0.265688815467418 
1242	 0.265729216625562 
1243	 0.265789410053614 
1244	 0.265864022659974 
1245	 0.265938092629974 
1246	 0.266019689763973 
1247	 0.266099037099592 
1248	 0.266179031750919 
1249	 0.266262581876416 
1250	 0.266347378270653 
1251	 0.266437446879079 
1252	 0.266505898355171 
1253	 0.266567209090185 
1254	 0.266624937908686 
1255	 0.266657924145283 
1256	 0.266716238804862 
1257	 0.266796433576291 
1258	 0.266850452240348 
1259	 0.266902361523828 
1260	 0.266946969735225 
1261	 0.26696271368589 
1262	 0.266999375467818 
1263	 0.267052839856318 
1264	 0.267094391581015 
1265	 0.267134371680911 
1266	 0.267176481670322 
1267	 0.267214900244006 
1268	 0.267245085707451 
1269	 0.267293065517925 
1270	 0.267347078700456 
1271	 0.267413270344942 
1272	 0.267492047982874 
1273	 0.26756964284442 
1274	 0.267661036623118 
1275	 0.267741521198515 
1276	 0.267809518658514 
1277	 0.267899081532681 
1278	 0.267996007433294 
1279	 0.268094829547044 
1280	 0.268209416199014 
1281	 0.268321890298125 
1282	 0.26843426410829 
1283	 0.268545048964999 
1284	 0.268673741852667 
1285	 0.268775886036354 
1286	 0.268858960672083 
1287	 0.268952012876952 
1288	 0.269039973456426 
1289	 0.269119039524026 
1290	 0.269202576345216 
1291	 0.269293662204563 
1292	 0.269368101123119 
1293	 0.269419736655999 
1294	 0.269501054441739 
1295	 0.269600364764242 
1296	 0.269676792428585 
1297	 0.269767945652151 
1298	 0.269834989597023 
1299	 0.269882861531815 
1300	 0.269913946433667 
1301	 0.269915750950569 
1302	 0.26993546260651 
1303	 0.26994285505823 
1304	 0.269953013616964 
1305	 0.269985770488196 
1306	 0.270016804746784 
1307	 0.270034785678648 
1308	 0.270047513297276 
1309	 0.270053579971625 
1310	 0.270057650698214 
1311	 0.270049755162823 
1312	 0.270028040943676 
1313	 0.270008426498258 
1314	 0.269980480852884 
1315	 0.269958369834697 
1316	 0.269938970241039 
1317	 0.269916169681761 
1318	 0.269882224992038 
1319	 0.26986546358288 
1320	 0.269865455996886 
1321	 0.269850019909568 
1322	 0.269833670580679 
1323	 0.269823870988022 
1324	 0.269797429965502 
1325	 0.269777510618026 
1326	 0.269773474102715 
1327	 0.269755830610694 
1328	 0.269712033975715 
1329	 0.269656778500041 
1330	 0.269616907244277 
1331	 0.269573050689163 
1332	 0.269525871476977 
1333	 0.26949006328035 
1334	 0.269444796909325 
1335	 0.269367179901752 
1336	 0.269331455686352 
1337	 0.269330000424304 
1338	 0.269306341434513 
1339	 0.269299711341197 
1340	 0.269272545955844 
1341	 0.269215065497702 
1342	 0.269172851188551 
1343	 0.269132675854146 
1344	 0.269087794795535 
1345	 0.269064290449108 
1346	 0.269050251131849 
1347	 0.269021330084142 
1348	 0.269009610637555 
1349	 0.26898468583786 
1350	 0.268938850869237 
1351	 0.268900358260409 
1352	 0.268856939972237 
1353	 0.268820406453704 
1354	 0.268788344770648 
1355	 0.26875204861682 
1356	 0.268726326251579 
1357	 0.268682618390201 
1358	 0.268617749493725 
1359	 0.268568947593775 
1360	 0.268508428607353 
1361	 0.268469049112625 
1362	 0.268462280948179 
1363	 0.268430280004302 
1364	 0.268386560795232 
1365	 0.268359504613364 
1366	 0.268331268097071 
1367	 0.268293964027669 
1368	 0.268294688543172 
1369	 0.26830584578187 
1370	 0.268275048043947 
1371	 0.268247994471577 
1372	 0.268210288657164 
1373	 0.268129456146435 
1374	 0.268058503820555 
1375	 0.268001640853622 
1376	 0.267895871322027 
1377	 0.267766967359848 
1378	 0.267620613259933 
1379	 0.267432775563525 
1380	 0.267252807757672 
1381	 0.267052967485408 
1382	 0.266870538977249 
1383	 0.266714932824397 
1384	 0.26651532468319 
1385	 0.266320361051817 
1386	 0.266083478143453 
1387	 0.265799441945854 
1388	 0.265504460543624 
1389	 0.265198666664451 
1390	 0.264859003191563 
1391	 0.264492204946448 
1392	 0.264108805826114 
1393	 0.263663369869452 
1394	 0.263192318690674 
1395	 0.262684960343546 
1396	 0.262157627305864 
1397	 0.261656810579263 
1398	 0.261156666418061 
1399	 0.260658055260374 
1400	 0.260171306395743 
1401	 0.259678074106201 
1402	 0.259167878161173 
1403	 0.258689756942834 
1404	 0.258208909005044 
1405	 0.257777520448279 
1406	 0.257385924428085 
1407	 0.256989070139884 
1408	 0.256607179605433 
1409	 0.256256895323197 
1410	 0.255889717224306 
1411	 0.255597656810774 
1412	 0.2553505278769 
1413	 0.25515404826945 
1414	 0.255031425675344 
1415	 0.254944696736907 
1416	 0.254912297475082 
1417	 0.254920151160092 
1418	 0.254909887558789 
1419	 0.254909658299504 
1420	 0.254938021473309 
1421	 0.254948064299987 
1422	 0.254963809925983 
1423	 0.254994044765923 
1424	 0.254990109098066 
1425	 0.254959290206895 
1426	 0.254935028659854 
1427	 0.254890620281243 
1428	 0.254861399503267 
1429	 0.254832554181229 
1430	 0.25481254864771 
1431	 0.254813055467419 
1432	 0.254788442508461 
1433	 0.254751518757676 
1434	 0.254725579968989 
1435	 0.254672561814919 
1436	 0.254657962231533 
1437	 0.254677712981028 
1438	 0.254688362624358 
1439	 0.254711441029409 
1440	 0.254739455703554 
1441	 0.254744040201828 
1442	 0.254744526366671 
1443	 0.254748017548436 
1444	 0.254755311183867 
1445	 0.254779880985364 
1446	 0.254802841790368 
1447	 0.25483406927319 
1448	 0.254869570362713 
1449	 0.254888603678277 
1450	 0.254905436204166 
1451	 0.254921438446487 
1452	 0.25492351764118 
1453	 0.254939339094297 
1454	 0.254966342715522 
1455	 0.254984666547425 
1456	 0.255004304148263 
1457	 0.255014946774982 
1458	 0.255008814858377 
1459	 0.255027715007326 
1460	 0.255048745973192 
1461	 0.255080489418501 
1462	 0.255139921801061 
1463	 0.255184182461135 
1464	 0.255217330540516 
1465	 0.25526545599307 
1466	 0.25530797708863 
1467	 0.255370972303313 
1468	 0.255449864310334 
1469	 0.255539893483004 
1470	 0.255643784161002 
1471	 0.255759082025035 
1472	 0.255883957435652 
1473	 0.256024730375114 
1474	 0.256168385270806 
1475	 0.256294135557092 
1476	 0.256411297876168 
1477	 0.256544985566872 
1478	 0.256677384251652 
1479	 0.256814269363013 
1480	 0.256979970029482 
1481	 0.257124912547286 
1482	 0.257275354340048 
1483	 0.25743783126721 
1484	 0.257588182235424 
1485	 0.257722970688774 
1486	 0.257873381665168 
1487	 0.258029917824698 
1488	 0.258175786137408 
1489	 0.258331037792619 
1490	 0.258469609604477 
1491	 0.258591846133939 
1492	 0.258717461569736 
1493	 0.258836740838007 
1494	 0.258956351213983 
1495	 0.259064692871843 
1496	 0.259189641944264 
1497	 0.259333647705229 
1498	 0.259458713137082 
1499	 0.259591805569998 
1500	 0.259708193668036 
1501	 0.259788972459639 
1502	 0.259892353605947 
1503	 0.259999617141351 
1504	 0.260115118998581 
1505	 0.260240353625738 
1506	 0.260343802873457 
1507	 0.260448037573684 
1508	 0.26055830287196 
1509	 0.260660308998261 
1510	 0.260769380088577 
1511	 0.260866384232499 
1512	 0.260947239858434 
1513	 0.261025191171229 
1514	 0.2611162815925 
1515	 0.261216925502558 
1516	 0.261324029296395 
1517	 0.261417939475416 
1518	 0.261506535128398 
1519	 0.261600931317621 
1520	 0.261689078380143 
1521	 0.261781211076878 
1522	 0.261884573420136 
1523	 0.26198051878624 
1524	 0.26207089178623 
1525	 0.262157102695278 
1526	 0.262240686469551 
1527	 0.262329461029256 
1528	 0.262417863070778 
1529	 0.262501391914371 
1530	 0.262591164987523 
1531	 0.26266579382064 
1532	 0.262719723664831 
1533	 0.262789539874014 
1534	 0.262865092772813 
1535	 0.262937535251356 
1536	 0.263010030230075 
1537	 0.263088462405302 
1538	 0.26316863776828 
1539	 0.263245266365075 
1540	 0.26333004131333 
1541	 0.263407988959579 
1542	 0.263474713805888 
1543	 0.263543654642077 
1544	 0.263623085433819 
1545	 0.263688277984371 
1546	 0.263743765474384 
1547	 0.263798766384096 
1548	 0.263852176586837 
1549	 0.263878533463292 
1550	 0.263892288687583 
1551	 0.263930067544485 
1552	 0.263962421086163 
1553	 0.264003955785916 
1554	 0.264082878450398 
1555	 0.264139173571852 
1556	 0.264193569046171 
1557	 0.264258970023758 
1558	 0.264303440918415 
1559	 0.264347304873705 
1560	 0.264388811516043 
1561	 0.264423056548982 
1562	 0.264466174804899 
1563	 0.26450769551032 
1564	 0.264558169598143 
1565	 0.264623486171624 
1566	 0.264670405050967 
1567	 0.264716110115168 
1568	 0.2647561023366 
1569	 0.26477618149486 
1570	 0.264814778774508 
1571	 0.264858127687045 
1572	 0.264907585831635 
1573	 0.264976660952562 
1574	 0.265021183386913 
1575	 0.265061547547593 
1576	 0.265094185418139 
1577	 0.265108793469081 
1578	 0.265130953314813 
1579	 0.265133129479584 
1580	 0.265175486581733 
1581	 0.265244003433822 
1582	 0.265298597257668 
1583	 0.265386193881756 
1584	 0.265443521395563 
1585	 0.265470482838612 
1586	 0.265508073965767 
1587	 0.265555824602409 
1588	 0.265579515837947 
1589	 0.265585125101406 
1590	 0.265594167045002 
1591	 0.265575236919416 
1592	 0.26558410957596 
1593	 0.265607751658365 
1594	 0.265638946980231 
1595	 0.265687951500807 
1596	 0.265731360310573 
1597	 0.265780681487724 
1598	 0.265828717636687 
1599	 0.265893173891978 
1600	 0.265931373000803 
1601	 0.26595824583221 
1602	 0.265973880001098 
1603	 0.265952208249928 
1604	 0.265948162475098 
1605	 0.265932615340644 
1606	 0.265945330408015 
1607	 0.265981235744559 
1608	 0.266023670576265 
1609	 0.26607137560449 
1610	 0.266116581173947 
1611	 0.266132433545847 
1612	 0.266129076034284 
1613	 0.266125214979967 
1614	 0.266129218224901 
1615	 0.266145671886941 
1616	 0.266163837780192 
1617	 0.266189908511453 
1618	 0.266220417707022 
1619	 0.266240159309984 
1620	 0.266267861864823 
1621	 0.266285623452172 
1622	 0.26629109153479 
1623	 0.266316676060993 
1624	 0.266352658470556 
1625	 0.266371106382834 
1626	 0.266396705755283 
1627	 0.266407216497283 
1628	 0.266389296497892 
1629	 0.266405954647519 
1630	 0.266441210698206 
1631	 0.266457531317988 
1632	 0.266474800445589 
1633	 0.266498431622428 
1634	 0.266516518965891 
1635	 0.266531597906486 
1636	 0.266563181478633 
1637	 0.266569457023638 
1638	 0.266545216408047 
1639	 0.266551697939281 
1640	 0.266564280156473 
1641	 0.266578340115398 
1642	 0.266600149401809 
1643	 0.266629970181585 
1644	 0.266669857560775 
1645	 0.266694264691651 
1646	 0.266727382285089 
1647	 0.266745247841378 
1648	 0.266741714525081 
1649	 0.266746090971278 
1650	 0.266749242638959 
1651	 0.266757357252994 
1652	 0.266760827262025 
1653	 0.266773811248425 
1654	 0.266802252249589 
1655	 0.266814576951533 
1656	 0.266828911308596 
1657	 0.266826387032868 
1658	 0.266812709544924 
1659	 0.266790601875518 
1660	 0.266747197495214 
1661	 0.266721276082525 
1662	 0.266686570904312 
1663	 0.266673879718497 
1664	 0.266678727511047 
1665	 0.266684735021387 
1666	 0.266711160515124 
1667	 0.266715950601092 
1668	 0.266715764862353 
1669	 0.26671367682998 
1670	 0.266701600176186 
1671	 0.266688347727267 
1672	 0.266675689524044 
1673	 0.266659216072887 
1674	 0.266620550666637 
1675	 0.266616653878673 
1676	 0.266631907241624 
1677	 0.266643556437362 
1678	 0.266683340209326 
1679	 0.266693108107409 
1680	 0.266678037229695 
1681	 0.266683290188374 
1682	 0.266687228833575 
1683	 0.266695169452909 
1684	 0.266717072187722 
1685	 0.266731498373784 
1686	 0.266747145971485 
1687	 0.266749163244931 
1688	 0.266750970127493 
1689	 0.266737054323707 
1690	 0.26669098567015 
1691	 0.266675810170585 
1692	 0.266660382949885 
1693	 0.266665415677667 
1694	 0.266697568570041 
1695	 0.266720676568338 
1696	 0.266757256798603 
1697	 0.266776771042297 
1698	 0.266789804246383 
1699	 0.266800070502305 
1700	 0.266802515029252 
1701	 0.266803022726403 
1702	 0.266804531849251 
1703	 0.266795379172799 
1704	 0.266779740018776 
1705	 0.266754022516148 
1706	 0.266715699006329 
1707	 0.266681102264321 
1708	 0.266624303816299 
1709	 0.266607179396424 
1710	 0.266619038524917 
1711	 0.266607665989273 
1712	 0.266605353202629 
1713	 0.266602351829226 
1714	 0.266588942864929 
1715	 0.26657308973607 
1716	 0.266558865338854 
1717	 0.266556142014637 
1718	 0.266545512552744 
1719	 0.266539041957647 
1720	 0.266567989411882 
1721	 0.266550699997574 
1722	 0.266497708406008 
1723	 0.266466970060198 
1724	 0.266430271205166 
1725	 0.266395366397366 
1726	 0.266367691766333 
1727	 0.266337250951626 
1728	 0.266300093931318 
1729	 0.266257251334572 
1730	 0.266221669952426 
1731	 0.266167859804405 
1732	 0.266091400424146 
1733	 0.26604613065198 
1734	 0.266008792085254 
1735	 0.265962496049341 
1736	 0.265930233604258 
1737	 0.265882967092598 
1738	 0.265825073900208 
1739	 0.265760728036198 
1740	 0.26568417331061 
1741	 0.265626054771658 
1742	 0.265565101208938 
1743	 0.265510887343832 
1744	 0.265482816987392 
1745	 0.265419933912726 
1746	 0.265332050174574 
1747	 0.265264508106271 
1748	 0.265200388634168 
1749	 0.265153009909219 
1750	 0.265105030754586 
1751	 0.265041157965053 
1752	 0.264970767562343 
1753	 0.264906928338924 
1754	 0.26483344930307 
1755	 0.264752014550613 
1756	 0.264695591133734 
1757	 0.264625809589002 
1758	 0.264559103562628 
1759	 0.264536607449263 
1760	 0.264500628702446 
1761	 0.264462717023007 
1762	 0.264429020145153 
1763	 0.264334763519447 
1764	 0.264246261394591 
1765	 0.264196823666886 
1766	 0.264121621315492 
1767	 0.26407045435974 
1768	 0.264027203520655 
1769	 0.263947689350365 
1770	 0.263907753754409 
1771	 0.263901190275567 
1772	 0.263870851932823 
1773	 0.263840241134983 
1774	 0.263814981355909 
1775	 0.263777048792629 
1776	 0.263749112811362 
1777	 0.263737915617787 
1778	 0.263706808416358 
1779	 0.263645495523488 
1780	 0.26360173252295 
1781	 0.263545797526575 
1782	 0.263479441691104 
1783	 0.263464108302621 
1784	 0.263445374860356 
1785	 0.263468759458662 
1786	 0.263462294777324 
1787	 0.263436056171246 
1788	 0.263408885243155 
1789	 0.263357606060613 
1790	 0.263322465747542 
1791	 0.263299933226852 
1792	 0.263268198350685 
1793	 0.263223250560822 
1794	 0.263210778349827 
1795	 0.26320915178244 
1796	 0.263209312792222 
1797	 0.263247784085631 
1798	 0.263261869602711 
1799	 0.263247856117747 
1800	 0.263256889493081 
1801	 0.26181281118397 
1802	 0.26199790899155 
1803	 0.26218875937213 
1804	 0.262372550010769 
1805	 0.262564825349046 
1806	 0.262775961169556 
1807	 0.262998457819177 
1808	 0.263172766974642 
1809	 0.263339008661073 
1810	 0.263474059002244 
1811	 0.263580626666508 
1812	 0.26364836873291 
1813	 0.263723120791057 
1814	 0.263751439838467 
1815	 0.263739724910809 
1816	 0.263737454579605 
1817	 0.263744796401597 
1818	 0.263739701899867 
1819	 0.263763335889889 
1820	 0.263804935117246 
1821	 0.263851736782534 
1822	 0.263915681887322 
1823	 0.263943674059944 
1824	 0.26396778869111 
1825	 0.263983815657076 
1826	 0.263990706848806 
1827	 0.264003843759757 
1828	 0.2640044117224 
1829	 0.264021361881746 
1830	 0.26399966365101 
1831	 0.263948612292087 
1832	 0.263884993173107 
1833	 0.263836182171072 
1834	 0.263790267517405 
1835	 0.263757430681204 
1836	 0.263746682125521 
1837	 0.263744674154652 
1838	 0.263736441941063 
1839	 0.26372629944487 
1840	 0.263728194144674 
1841	 0.263716714918778 
1842	 0.263672878907533 
1843	 0.263636775458984 
1844	 0.263601063143367 
1845	 0.263561301063989 
1846	 0.263532226479415 
1847	 0.26349637273292 
1848	 0.263453345121902 
1849	 0.263418771197798 
1850	 0.263382821650517 
1851	 0.263350965964184 
1852	 0.263310911606785 
1853	 0.263293470307105 
1854	 0.263254898178361 
1855	 0.263179889330697 
1856	 0.26310148666808 
1857	 0.262990269955424 
1858	 0.26285531927307 
1859	 0.262724453142593 
1860	 0.262566789497122 
1861	 0.262396721692016 
1862	 0.262188736048983 
1863	 0.261961496734137 
1864	 0.261697638078504 
1865	 0.261425832232642 
1866	 0.261140426653951 
1867	 0.260819157615117 
1868	 0.260486609740075 
1869	 0.260127869387618 
1870	 0.259747488633119 
1871	 0.259344790568621 
1872	 0.258929890763709 
1873	 0.258493041188969 
1874	 0.258003482600475 
1875	 0.257485829008483 
1876	 0.256948886214706 
1877	 0.256348622057469 
1878	 0.255677421986447 
1879	 0.254935770961239 
1880	 0.254135603984031 
1881	 0.25324749212436 
1882	 0.252321693292968 
1883	 0.251354695270746 
1884	 0.250314182682135 
1885	 0.249223714617064 
1886	 0.248049433499325 
1887	 0.246793006478147 
1888	 0.24547014776806 
1889	 0.244074683491747 
1890	 0.242652496649498 
1891	 0.241212985867599 
1892	 0.239731689321714 
1893	 0.238247007417584 
1894	 0.236739970141242 
1895	 0.235218168528934 
1896	 0.233680026717495 
1897	 0.232180087088688 
1898	 0.230717719043149 
1899	 0.229263452307545 
1900	 0.227860238972 
1901	 0.226509531826118 
1902	 0.225225530487471 
1903	 0.224004102717296 
1904	 0.222845413823845 
1905	 0.221747318405678 
1906	 0.220715433049274 
1907	 0.219759411710849 
1908	 0.218837631077818 
1909	 0.217988970148393 
1910	 0.217204081682581 
1911	 0.216461717102056 
1912	 0.215764257180349 
1913	 0.215101210120095 
1914	 0.214479959065154 
1915	 0.213903147963483 
1916	 0.213365901635189 
1917	 0.212861310594164 
1918	 0.212421654928983 
1919	 0.211978698616047 
1920	 0.211563051105528 
1921	 0.211196941049855 
1922	 0.210877042967752 
1923	 0.210617237026916 
1924	 0.210390448128824 
1925	 0.210226319839032 
1926	 0.210083393628374 
1927	 0.209969446861572 
1928	 0.20988996144886 
1929	 0.209844870915166 
1930	 0.209817188889356 
1931	 0.209821899517175 
1932	 0.209824843511345 
1933	 0.209842592996947 
1934	 0.20989401349472 
1935	 0.209962291096045 
1936	 0.210044242223756 
1937	 0.210145477370295 
1938	 0.210277210062389 
1939	 0.210419096408041 
1940	 0.210563149410199 
1941	 0.210747039631992 
1942	 0.210946967366412 
1943	 0.2111401139747 
1944	 0.211369914829507 
1945	 0.211629390120636 
1946	 0.211895364569721 
1947	 0.212189870772258 
1948	 0.212481812199973 
1949	 0.212782859506088 
1950	 0.213085726447756 
1951	 0.213388793806172 
1952	 0.213719293737965 
1953	 0.214032188632511 
1954	 0.214356628170103 
1955	 0.214689148719193 
1956	 0.215015151616603 
1957	 0.215359839968264 
1958	 0.215721573694323 
1959	 0.21607895084115 
1960	 0.216446927200483 
1961	 0.216813597604137 
1962	 0.217167506538344 
1963	 0.217543298451072 
1964	 0.217936435165837 
1965	 0.218326078279527 
1966	 0.218708347190763 
1967	 0.219135125806093 
1968	 0.219557668440474 
1969	 0.219984867611831 
1970	 0.220409676897835 
1971	 0.220861187484823 
1972	 0.221284767379793 
1973	 0.221693908520162 
1974	 0.222100458611234 
1975	 0.222511806936235 
1976	 0.222883450893291 
1977	 0.223274387566197 
1978	 0.223664926275706 
1979	 0.224038216410701 
1980	 0.224437566655633 
1981	 0.224831554518627 
1982	 0.225208463265394 
1983	 0.225619649736062 
1984	 0.226062786461135 
1985	 0.226485221165704 
1986	 0.22692275262516 
1987	 0.227345019281119 
1988	 0.227741687943696 
1989	 0.228162432915137 
1990	 0.228578108321732 
1991	 0.228980870133854 
1992	 0.22938125326724 
1993	 0.229780844990733 
1994	 0.230157198757798 
1995	 0.230512335136623 
1996	 0.230884388054407 
1997	 0.231240036632998 
1998	 0.231616005784023 
1999	 0.232013747067089 
2000	 0.232405325192885 
2001	 0.232803842821054 
2002	 0.233200521889265 
2003	 0.233581711331725 
2004	 0.233946056146662 
2005	 0.234311567534958 
2006	 0.234650796933832 
2007	 0.235016782564554 
2008	 0.235397849672798 
2009	 0.235768828004094 
2010	 0.236154330786451 
2011	 0.23652296496125 
2012	 0.236885239257497 
2013	 0.237233091451809 
2014	 0.237578171889645 
2015	 0.237897565521375 
2016	 0.238175194236963 
2017	 0.238487449576507 
2018	 0.238815973265833 
2019	 0.2391571573761 
2020	 0.239488010487928 
2021	 0.239847088627364 
2022	 0.240185357411504 
2023	 0.24050473493357 
2024	 0.240823293779762 
2025	 0.241132886620835 
2026	 0.241453484497667 
2027	 0.241774364726158 
2028	 0.24209339987361 
2029	 0.24240758225785 
2030	 0.242734858115809 
2031	 0.24305024509565 
2032	 0.243351385892421 
2033	 0.243653267609808 
2034	 0.243963602309553 
2035	 0.24425451753622 
2036	 0.244545182870067 
2037	 0.244804232724408 
2038	 0.245041731497809 
2039	 0.245270658125539 
2040	 0.245467030021295 
2041	 0.245655844945731 
2042	 0.245877161883533 
2043	 0.246101826301733 
2044	 0.246334795800192 
2045	 0.246592288540011 
2046	 0.24683083949596 
2047	 0.247054661834098 
2048	 0.247305100316702 
2049	 0.247586603717889 
2050	 0.247825537958553 
2051	 0.248070058491103 
2052	 0.248287324666922 
2053	 0.248439594049792 
2054	 0.248627158791234 
2055	 0.248816924699279 
2056	 0.249026733036624 
2057	 0.249228247236118 
2058	 0.249444304889435 
2059	 0.249647250785054 
2060	 0.249842249007649 
2061	 0.250035103860774 
2062	 0.250227959032945 
2063	 0.250416850057596 
2064	 0.250597818337301 
2065	 0.250782599522242 
2066	 0.250968119546519 
2067	 0.251149525601242 
2068	 0.251325412470385 
2069	 0.251506196021006 
2070	 0.251690735458024 
2071	 0.251881938374673 
2072	 0.252054808255542 
2073	 0.252221174352637 
2074	 0.252395309231823 
2075	 0.252563812243295 
2076	 0.252727280587506 
2077	 0.252896961667125 
2078	 0.253063856689262 
2079	 0.253210161158476 
2080	 0.253372397976976 
2081	 0.253560621269073 
2082	 0.253726150257536 
2083	 0.2538684049468 
2084	 0.254034816881459 
2085	 0.254198899851443 
2086	 0.254365847996876 
2087	 0.254512409155874 
2088	 0.254649935060198 
2089	 0.254807126593195 
2090	 0.254946745003797 
2091	 0.255106194729726 
2092	 0.255321003657241 
2093	 0.255481967041447 
2094	 0.255604409309912 
2095	 0.255747359651987 
2096	 0.255880098874494 
2097	 0.256013996210592 
2098	 0.256154384990066 
2099	 0.256294592441079 
2100	 0.25644756746857 
2101	 0.256595415152006 
2102	 0.256757801888132 
2103	 0.25694320781521 
2104	 0.257119328872281 
2105	 0.257295053657633 
2106	 0.257472623466306 
2107	 0.257657355919156 
2108	 0.257835094016622 
2109	 0.258019033811797 
2110	 0.25818379650688 
2111	 0.25831552465792 
2112	 0.258481629618795 
2113	 0.258652033879018 
2114	 0.258825907703274 
2115	 0.259017307482142 
2116	 0.259249706635175 
2117	 0.259438676894543 
2118	 0.259610313336397 
2119	 0.259795512125982 
2120	 0.259978490227309 
2121	 0.260156052754759 
2122	 0.260359351723779 
2123	 0.260512701388908 
2124	 0.260631191652329 
2125	 0.260749519715837 
2126	 0.260836610944227 
2127	 0.260931189062284 
2128	 0.261022835173482 
2129	 0.261114593923924 
2130	 0.261207222290697 
2131	 0.261294355575572 
2132	 0.261368356213748 
2133	 0.261431536748571 
2134	 0.261508207865119 
2135	 0.261593627465897 
2136	 0.26164078607049 
2137	 0.26170003024907 
2138	 0.261710125071063 
2139	 0.261649926632043 
2140	 0.26162461722034 
2141	 0.261599869104313 
2142	 0.26156054472584 
2143	 0.261540512580197 
2144	 0.261479928400545 
2145	 0.261377639077018 
2146	 0.261280786898229 
2147	 0.261165286879891 
2148	 0.2610347523527 
2149	 0.260930894873648 
2150	 0.260848406139355 
2151	 0.260731824966326 
2152	 0.260616214096615 
2153	 0.260485868837987 
2154	 0.260335864523652 
2155	 0.260172959359484 
2156	 0.260008844476355 
2157	 0.259824496613497 
2158	 0.259616720509611 
2159	 0.259396822543086 
2160	 0.259151527411245 
2161	 0.258915849545966 
2162	 0.258659280883582 
2163	 0.258417868722014 
2164	 0.258186592844596 
2165	 0.257968567773907 
2166	 0.257738991885549 
2167	 0.257511633246472 
2168	 0.257273859264813 
2169	 0.257030664437364 
2170	 0.256785390116053 
2171	 0.256532381164742 
2172	 0.256283301145789 
2173	 0.25605131018821 
2174	 0.255779622986799 
2175	 0.255484698170773 
2176	 0.255192792708749 
2177	 0.254874809450424 
2178	 0.254562172812262 
2179	 0.254260746595004 
2180	 0.25394550426305 
2181	 0.25361593278211 
2182	 0.253283431664327 
2183	 0.252913596648435 
2184	 0.252589263504869 
2185	 0.252285848102483 
2186	 0.252005458903811 
2187	 0.251704738882997 
2188	 0.25142125373829 
2189	 0.251144563455583 
2190	 0.250857050378936 
2191	 0.250574558484197 
2192	 0.250306995047059 
2193	 0.25005250109082 
2194	 0.249767145696329 
2195	 0.249535669589734 
2196	 0.249362513328141 
2197	 0.249183602124827 
2198	 0.249022213600913 
2199	 0.248870054979347 
2200	 0.248709696793186 
2201	 0.248586721241932 
2202	 0.248489965784558 
2203	 0.24841391302362 
2204	 0.248353915994078 
2205	 0.248308528151208 
2206	 0.248323085597923 
2207	 0.248371583879923 
2208	 0.248440877595996 
2209	 0.248585138202761 
2210	 0.248687305991648 
2211	 0.248776541610621 
2212	 0.248882212132516 
2213	 0.248994440554783 
2214	 0.249113217701804 
2215	 0.249257734972282 
2216	 0.249376377867986 
2217	 0.249485708203075 
2218	 0.249592684022852 
2219	 0.24966622415931 
2220	 0.249771809461328 
2221	 0.249912911110599 
2222	 0.250030843784031 
2223	 0.250127979576631 
2224	 0.25023182858379 
2225	 0.250306428083858 
2226	 0.250339396939241 
2227	 0.250391704096014 
2228	 0.2504425511626 
2229	 0.250497739310883 
2230	 0.250557667316271 
2231	 0.250595094775161 
2232	 0.250639652224546 
2233	 0.250649012913805 
2234	 0.250618124866403 
2235	 0.250603636203887 
2236	 0.250587686819635 
2237	 0.250554112222323 
2238	 0.250501465910472 
2239	 0.250460190908 
2240	 0.25039968018685 
2241	 0.250361790225102 
2242	 0.250370791331241 
2243	 0.250338052625774 
2244	 0.250288804617866 
2245	 0.250231908386332 
2246	 0.250155934129968 
2247	 0.250082452145816 
2248	 0.250041848223916 
2249	 0.25003289540189 
2250	 0.250000054156787 
2251	 0.249985996945743 
2252	 0.249934977328276 
2253	 0.249851815131838 
2254	 0.249788304543936 
2255	 0.249713414948713 
2256	 0.249655225069064 
2257	 0.249607051130461 
2258	 0.249567938558198 
2259	 0.249528558755067 
2260	 0.249504543177811 
2261	 0.249514782721846 
2262	 0.249499304563794 
2263	 0.249477825328618 
2264	 0.249456409163432 
2265	 0.249387499752094 
2266	 0.249381927658418 
2267	 0.249440007490397 
2268	 0.249467570519485 
2269	 0.249508507244514 
2270	 0.249559635383216 
2271	 0.249604220198867 
2272	 0.249596711200066 
2273	 0.249636550458786 
2274	 0.249679279065605 
2275	 0.249694014109739 
2276	 0.249686050125026 
2277	 0.24969983122027 
2278	 0.249703061884997 
2279	 0.249714970174763 
2280	 0.249733848223729 
2281	 0.249756570412109 
2282	 0.249782640471184 
2283	 0.249814985504489 
2284	 0.249848648544308 
2285	 0.249904041642337 
2286	 0.250005255690055 
2287	 0.250032891028987 
2288	 0.250046246262448 
2289	 0.250045530757008 
2290	 0.249967866731712 
2291	 0.249933253114178 
2292	 0.249913720073723 
2293	 0.249913043305293 
2294	 0.249938790361669 
2295	 0.249945388881862 
2296	 0.249994803075183 
2297	 0.24996817234221 
2298	 0.249921276629955 
2299	 0.249888120959255 
2300	 0.249836210750818 
2301	 0.249819422487992 
2302	 0.24983246312363 
2303	 0.24982835494725 
2304	 0.249817039096398 
2305	 0.249825167782999 
2306	 0.249790221838634 
2307	 0.249704172032305 
2308	 0.249669262041368 
2309	 0.249652920766378 
2310	 0.249590146711803 
2311	 0.249540922985054 
2312	 0.249456294176691 
2313	 0.249290954997685 
2314	 0.249196469871251 
2315	 0.249132223330521 
2316	 0.249061144365801 
2317	 0.249006051220602 
2318	 0.248952144819832 
2319	 0.248918490660324 
2320	 0.248845711234181 
2321	 0.248761803693422 
2322	 0.248671518973189 
2323	 0.248535315436771 
2324	 0.2484314556833 
2325	 0.248345809985633 
2326	 0.248263660118059 
2327	 0.248201679175455 
2328	 0.248116508333927 
2329	 0.248024934928529 
2330	 0.247974291400562 
2331	 0.247933386474507 
2332	 0.24789348525691 
2333	 0.247899550540312 
2334	 0.247908066211525 
2335	 0.247917315923566 
2336	 0.247920124033874 
2337	 0.247916888447773 
2338	 0.247861552382135 
2339	 0.247755440885569 
2340	 0.247629490896852 
2341	 0.247423021670435 
2342	 0.247234225649812 
2343	 0.247087797853262 
2344	 0.24695025745767 
2345	 0.246828964232812 
2346	 0.246761157860321 
2347	 0.246624940536553 
2348	 0.246466594492862 
2349	 0.246310288314775 
2350	 0.246111621110316 
2351	 0.24597861985561 
2352	 0.245860468857804 
2353	 0.245766174153245 
2354	 0.245750585170539 
2355	 0.245643253774162 
2356	 0.245518918705292 
2357	 0.245371424360872 
2358	 0.245119376169908 
2359	 0.244965998598492 
2360	 0.244871408022152 
2361	 0.244751641350043 
2362	 0.244670216266759 
2363	 0.244570979230295 
2364	 0.244432126715488 
2365	 0.244316966246308 
2366	 0.244219993678705 
2367	 0.244119919346264 
2368	 0.244055822055525 
2369	 0.243934060148694 
2370	 0.243788731268376 
2371	 0.243631985613959 
2372	 0.243417554170582 
2373	 0.243176900625518 
2374	 0.242991934617981 
2375	 0.242803314706641 
2376	 0.242535842532464 
2377	 0.242293371399512 
2378	 0.242113437869181 
2379	 0.241865003433545 
2380	 0.241670287105493 
2381	 0.241539686073621 
2382	 0.241302033432787 
2383	 0.241109498545284 
2384	 0.240955055769482 
2385	 0.240742372995853 
2386	 0.240508610595721 
2387	 0.240241057135755 
2388	 0.239964768652609 
2389	 0.239694268616331 
2390	 0.239462700325452 
2391	 0.239253239564083 
2392	 0.238976255505743 
2393	 0.238703554513007 
2394	 0.238449304521292 
2395	 0.238144222704016 
2396	 0.23791726979424 
2397	 0.237739185969776 
2398	 0.237481430904954 
2399	 0.237196042538273 
2400	 0.236915280596463 
2401	 0.236613458056665 
2402	 0.236277204076912 
2403	 0.23603047152335 
2404	 0.235826301147038 
2405	 0.235555255398138 
2406	 0.235331274594159 
2407	 0.235048223209178 
2408	 0.234638860150151 
2409	 0.234255087594719 
2410	 0.233852952066169 
2411	 0.233457992238177 
2412	 0.233249103576683 
2413	 0.233031926166505 
2414	 0.232706775643531 
2415	 0.232494454283532 
2416	 0.232225172152201 
2417	 0.231820691172897 
2418	 0.23151536892985 
2419	 0.231284771455212 
2420	 0.230977156841869 
2421	 0.230670179588736 
2422	 0.23037164730351 
2423	 0.230103498238968 
2424	 0.229728474209809 
2425	 0.229265528185309 
2426	 0.228834430660558 
2427	 0.228331818557852 
2428	 0.227910321406365 
2429	 0.227555937737577 
2430	 0.2271846324239 
2431	 0.226781918592231 
2432	 0.226430090963168 
2433	 0.226122526490972 
2434	 0.22581321406462 
2435	 0.225551141577172 
2436	 0.225292386692435 
2437	 0.22509528324644 
2438	 0.224789082694954 
2439	 0.224371466989456 
2440	 0.224071616886533 
2441	 0.223784021246086 
2442	 0.223457395223225 
2443	 0.223247384935193 
2444	 0.222950157719547 
2445	 0.222491611768908 
2446	 0.222115986962317 
2447	 0.221747332561242 
2448	 0.221403700332549 
2449	 0.22107313624727 
2450	 0.220784196443295 
2451	 0.220637413307051 
2452	 0.220366434909204 
2453	 0.220093938540942 
2454	 0.219732960426439 
2455	 0.219126167682977 
2456	 0.218727196970772 
2457	 0.21841224547938 
2458	 0.218042833058305 
2459	 0.217823259509459 
2460	 0.217526120099985 
2461	 0.217140909450595 
2462	 0.216735813903707 
2463	 0.216302026799427 
2464	 0.215849253094754 
2465	 0.215251509307241 
2466	 0.214778887362165 
2467	 0.214359071233873 
2468	 0.214065859162562 
2469	 0.214003879053456 
2470	 0.213774137790499 
2471	 0.21349031345853 
2472	 0.213244491329346 
2473	 0.212902232593899 
2474	 0.212480928415689 
2475	 0.212189139611583 
2476	 0.212028766494979 
2477	 0.211862889579671 
2478	 0.211690532155826 
2479	 0.211510534865335 
2480	 0.211263973743895 
2481	 0.210742067741409 
2482	 0.210298799342512 
2483	 0.210116903304165 
2484	 0.209842407245348 
2485	 0.209569057844482 
2486	 0.209453095949592 
2487	 0.209454431969963 
2488	 0.209397130690851 
2489	 0.20919100517403 
2490	 0.209109100244961 
2491	 0.208912075722987 
2492	 0.208521867340799 
2493	 0.208483155927449 
2494	 0.208244545369793 
2495	 0.207797858317113 
2496	 0.207549182481645 
2497	 0.207240828793622 
2498	 0.20710019396322 
2499	 0.206936862053146 
2500	 0.206643773124392 
