Wavelength	mm1600007.asd
350	 7.01950281690665E-02 
351	 7.98633416525919E-02 
352	 7.70643707074914E-02 
353	 6.33827557722691E-02 
354	 5.78298767616335E-02 
355	 6.21528149518292E-02 
356	 6.58288112070067E-02 
357	 6.14131592455709E-02 
358	 0.06623398324945 
359	 6.39936807484222E-02 
360	 5.74994039142165E-02 
361	 6.07336644700015E-02 
362	 6.28784876183423E-02 
363	 6.13478764589232E-02 
364	 5.79883133103931E-02 
365	 5.95772577147119E-02 
366	 6.26298020532651E-02 
367	 6.37982792234731E-02 
368	 0.061875100622224 
369	 6.32706434954774E-02 
370	 6.42698949957169E-02 
371	 6.50425313761996E-02 
372	 6.80888950064828E-02 
373	 6.89107481149427E-02 
374	 6.83705193989542E-02 
375	 6.79349124260331E-02 
376	 6.89640592982475E-02 
377	 6.78305298739432E-02 
378	 6.73111903131982E-02 
379	 7.00813248162087E-02 
380	 7.00020252601148E-02 
381	 6.90115540389944E-02 
382	 6.90863539762555E-02 
383	 7.16412538888211E-02 
384	 7.41869305723534E-02 
385	 7.48796003366442E-02 
386	 0.073651549285257 
387	 7.31744472368072E-02 
388	 7.57169908553242E-02 
389	 7.82825204209449E-02 
390	 7.74778396889036E-02 
391	 7.67033235909856E-02 
392	 7.82657647544576E-02 
393	 8.16202859736549E-02 
394	 8.39103378454499E-02 
395	 8.42290433715575E-02 
396	 8.42194267779372E-02 
397	 0.085146164576044 
398	 8.66278575859692E-02 
399	 8.74733396550524E-02 
400	 8.84832754996823E-02 
401	 9.04761696606628E-02 
402	 8.98096318573068E-02 
403	 8.96052950916635E-02 
404	 0.090620265710643 
405	 9.09024304669699E-02 
406	 0.091894031398023 
407	 9.35699382478661E-02 
408	 9.51473228749701E-02 
409	 9.45735305748235E-02 
410	 9.39167383352648E-02 
411	 9.38587521856442E-02 
412	 9.43932792759374E-02 
413	 9.60174127909802E-02 
414	 0.096806046168005 
415	 9.65104369956884E-02 
416	 9.72128559061589E-02 
417	 9.73459824711341E-02 
418	 9.75580489801964E-02 
419	 9.84310035155733E-02 
420	 9.86520573481365E-02 
421	 9.79045836976239E-02 
422	 9.72756883403936E-02 
423	 9.83867688688866E-02 
424	 9.84654707364418E-02 
425	 9.80864422442202E-02 
426	 9.79016566766133E-02 
427	 9.78692157893222E-02 
428	 9.80010785304546E-02 
429	 9.80491624276887E-02 
430	 9.77501669507058E-02 
431	 9.70901461355703E-02 
432	 9.69927795841446E-02 
433	 9.74063257441995E-02 
434	 9.73646213850753E-02 
435	 9.74773721536363E-02 
436	 9.78435172960954E-02 
437	 9.83168916167494E-02 
438	 9.83262566637485E-02 
439	 0.098591442860831 
440	 9.90681429835545E-02 
441	 9.93686269334505E-02 
442	 9.96865960801892E-02 
443	 0.10028741085925 
444	 0.10106282573553 
445	 0.101339959926258 
446	 0.10173455907625 
447	 0.102224312999542 
448	 0.102611856955034 
449	 0.102734237574588 
450	 0.103125139413076 
451	 0.103833035419289 
452	 0.104473341912606 
453	 0.104845648769641 
454	 0.105045187941806 
455	 0.105223925524553 
456	 0.105509535218117 
457	 0.105769819153189 
458	 0.106103933052392 
459	 0.106620191119448 
460	 0.106678894106792 
461	 0.106883280296572 
462	 0.107331259548015 
463	 0.107251735007241 
464	 0.107668334219771 
465	 0.108259406691414 
466	 0.108493277074998 
467	 0.108606831877355 
468	 0.10858951164574 
469	 0.108544898199397 
470	 0.108665291185316 
471	 0.109052954788775 
472	 0.109384870745748 
473	 0.109486410945015 
474	 0.109711487097517 
475	 0.109738567446369 
476	 0.109729610882033 
477	 0.110016044115956 
478	 0.110558601230767 
479	 0.110730885612405 
480	 0.110513648465004 
481	 0.110775472093602 
482	 0.110971850731318 
483	 0.111161995398757 
484	 0.111459595994168 
485	 0.111554927943938 
486	 0.111581164332057 
487	 0.111624598451597 
488	 0.111717819662705 
489	 0.111807318454982 
490	 0.112013342502228 
491	 0.112321612734558 
492	 0.112300748805472 
493	 0.112376803776129 
494	 0.112566270450668 
495	 0.112709394249921 
496	 0.112886852075236 
497	 0.113082502009962 
498	 0.113276056604194 
499	 0.113455769307049 
500	 0.113600255524356 
501	 0.113694103856991 
502	 0.113766585801447 
503	 0.114029865975066 
504	 0.114232942824257 
505	 0.114324081933442 
506	 0.114447996916072 
507	 0.114684078593076 
508	 0.114908705452132 
509	 0.115019195537669 
510	 0.115080023098283 
511	 0.115083361468907 
512	 0.11510239726654 
513	 0.115233665595697 
514	 0.115377019342644 
515	 0.115556510255007 
516	 0.115765630794227 
517	 0.115926893024677 
518	 0.116026404601646 
519	 0.116075380807681 
520	 0.116136709983788 
521	 0.11649385100077 
522	 0.116657835717116 
523	 0.116586287650755 
524	 0.11673656987146 
525	 0.116995575493377 
526	 0.117149049753117 
527	 0.117107279333862 
528	 0.117253827820764 
529	 0.117373156764819 
530	 0.117482948545208 
531	 0.117727419047012 
532	 0.117798846386233 
533	 0.117927324171204 
534	 0.118203261420238 
535	 0.118257560899358 
536	 0.118363639921128 
537	 0.118524412103147 
538	 0.118659927367797 
539	 0.118879883134169 
540	 0.119051513720601 
541	 0.119147764763524 
542	 0.119303190958854 
543	 0.119431468135367 
544	 0.119558198442685 
545	 0.119725432143161 
546	 0.119926071257199 
547	 0.12010337887595 
548	 0.1202794605529 
549	 0.120534227473468 
550	 0.120691011319513 
551	 0.120852108037075 
552	 0.12109278586703 
553	 0.121282435729703 
554	 0.121462687128006 
555	 0.121674139533771 
556	 0.121951867800301 
557	 0.122268012854755 
558	 0.122575587969692 
559	 0.122864422321174 
560	 0.123194570643687 
561	 0.123475164116746 
562	 0.12372855238539 
563	 0.124019938370672 
564	 0.124416078477393 
565	 0.124768681838715 
566	 0.125016243824437 
567	 0.125210392233875 
568	 0.125530813303723 
569	 0.125952165272493 
570	 0.12641572941712 
571	 0.126966111748542 
572	 0.12746122321303 
573	 0.127894905036051 
574	 0.12835642189861 
575	 0.128786783663332 
576	 0.12930629737808 
577	 0.129946654736186 
578	 0.130498583179383 
579	 0.13098243323681 
580	 0.131445117278376 
581	 0.131940282298305 
582	 0.132405022889029 
583	 0.132867731343409 
584	 0.133379268303199 
585	 0.134015314488866 
586	 0.134689728113264 
587	 0.135355024231216 
588	 0.136000219972 
589	 0.13671736512365 
590	 0.137458879005196 
591	 0.138185606940207 
592	 0.138871868422998 
593	 0.139440356645386 
594	 0.139975925505881 
595	 0.140537119152641 
596	 0.141015299654484 
597	 0.141527766606672 
598	 0.142079971176196 
599	 0.142622500183545 
600	 0.143189483914218 
601	 0.143760469096772 
602	 0.144322172086139 
603	 0.144887220117241 
604	 0.145448291534479 
605	 0.146048991016401 
606	 0.146715024691245 
607	 0.147289019898158 
608	 0.147780510431802 
609	 0.148263994657662 
610	 0.14887041594829 
611	 0.149345100711247 
612	 0.149719668511116 
613	 0.150076211586406 
614	 0.150404702948104 
615	 0.150760567775464 
616	 0.151125041592931 
617	 0.151431844836498 
618	 0.151745524588921 
619	 0.152064469560357 
620	 0.152369161853263 
621	 0.152610769776213 
622	 0.152917410127771 
623	 0.15322680561263 
624	 0.153433746022193 
625	 0.153716114553845 
626	 0.153979702453906 
627	 0.154202393676337 
628	 0.154484348260694 
629	 0.154745855065491 
630	 0.154973836601527 
631	 0.155180713478205 
632	 0.155395011396196 
633	 0.15563912183604 
634	 0.155893408423431 
635	 0.156107098611971 
636	 0.156302755482947 
637	 0.156505007492302 
638	 0.15671842166321 
639	 0.156888434229559 
640	 0.157134314277583 
641	 0.157417039985787 
642	 0.157631831444177 
643	 0.157802532517336 
644	 0.158006738413046 
645	 0.158242750765132 
646	 0.158383832340712 
647	 0.158600197500902 
648	 0.158858396225465 
649	 0.159090513574173 
650	 0.159360432780195 
651	 0.159606226807798 
652	 0.159817464735217 
653	 0.160032580803551 
654	 0.160275214662869 
655	 0.160502615373401 
656	 0.160707471250839 
657	 0.161006994360379 
658	 0.161296892672912 
659	 0.161563731535999 
660	 0.161829418331654 
661	 0.162026641518629 
662	 0.16229142870581 
663	 0.16263175471724 
664	 0.162843152036281 
665	 0.163111114798263 
666	 0.163407138268721 
667	 0.163668562640753 
668	 0.163952539133273 
669	 0.164265504768948 
670	 0.164608582045382 
671	 0.164972314267485 
672	 0.165249079832513 
673	 0.165522917970026 
674	 0.165857719133554 
675	 0.166190693921234 
676	 0.166512526429554 
677	 0.166824873899978 
678	 0.16714026306892 
679	 0.167484578280109 
680	 0.167843359321322 
681	 0.168208886840421 
682	 0.168587379718119 
683	 0.168963552019991 
684	 0.169352256339245 
685	 0.169754140760388 
686	 0.170088051893507 
687	 0.170439080563261 
688	 0.170829565621585 
689	 0.171227682173138 
690	 0.171547557383747 
691	 0.171907481448403 
692	 0.172356533984725 
693	 0.172749627836298 
694	 0.173123799663498 
695	 0.173503314252559 
696	 0.173905622662984 
697	 0.174309978642361 
698	 0.174720992114758 
699	 0.175131929819903 
700	 0.175525105148039 
701	 0.176003202097573 
702	 0.176455585261396 
703	 0.176800626359894 
704	 0.177159308874527 
705	 0.177559177710255 
706	 0.177991050063838 
707	 0.178421727327397 
708	 0.178840459414621 
709	 0.179242049824236 
710	 0.179624045417254 
711	 0.179984610046662 
712	 0.180409701649301 
713	 0.180837365666809 
714	 0.181204783727355 
715	 0.181623381089263 
716	 0.181980286655389 
717	 0.182290630121697 
718	 0.182661296049844 
719	 0.183073779008385 
720	 0.183471320929917 
721	 0.183820182075918 
722	 0.184143838727791 
723	 0.184441256666923 
724	 0.184734409980023 
725	 0.18504699444184 
726	 0.185379152156074 
727	 0.185665010552123 
728	 0.185907092965537 
729	 0.18617206614545 
730	 0.186447064014205 
731	 0.186713208110859 
732	 0.186947667711175 
733	 0.187110384834759 
734	 0.187347995318618 
735	 0.187605853256039 
736	 0.187767905539099 
737	 0.187917696110263 
738	 0.188074014383013 
739	 0.188234030754198 
740	 0.188376234135354 
741	 0.18850457706067 
742	 0.188607961165846 
743	 0.188687927668273 
744	 0.188793177263204 
745	 0.188830233906507 
746	 0.188852209135962 
747	 0.188953868462726 
748	 0.188990225617913 
749	 0.188970109613573 
750	 0.18892911647367 
751	 0.188916124275735 
752	 0.188927355177605 
753	 0.188891354697954 
754	 0.188786673494511 
755	 0.188786576563306 
756	 0.188769680298965 
757	 0.188684062092736 
758	 0.188536235548471 
759	 0.188462087542596 
760	 0.18839651173415 
761	 0.188295122363559 
762	 0.188165863878078 
763	 0.188019964882421 
764	 0.187875840176646 
765	 0.187746634212378 
766	 0.187630178262117 
767	 0.187491303206674 
768	 0.18734356446341 
769	 0.187216398420081 
770	 0.187058183796755 
771	 0.186875898897648 
772	 0.186684257231671 
773	 0.186499780012386 
774	 0.186315153706933 
775	 0.186135985062777 
776	 0.1859605480571 
777	 0.185757371583907 
778	 0.185574495243133 
779	 0.185411694590108 
780	 0.18523969852384 
781	 0.185002944732495 
782	 0.184799783663621 
783	 0.184648391141782 
784	 0.184471497364192 
785	 0.184279976340766 
786	 0.184072880911596 
787	 0.183856728847922 
788	 0.183655383385892 
789	 0.183471657364887 
790	 0.183278332334531 
791	 0.183055551288618 
792	 0.18288874160694 
793	 0.182690552331818 
794	 0.182488323089672 
795	 0.182394382066436 
796	 0.182176308396179 
797	 0.181961334318132 
798	 0.181821824204564 
799	 0.181624338682931 
800	 0.181440156975995 
801	 0.1812625206075 
802	 0.181076568354767 
803	 0.180923882039057 
804	 0.180796042462732 
805	 0.180653603309556 
806	 0.180455304295337 
807	 0.180304378736013 
808	 0.180172013017933 
809	 0.18002043811804 
810	 0.179822841357211 
811	 0.179667502502522 
812	 0.179503110424467 
813	 0.179309005775556 
814	 0.179241645273652 
815	 0.179158641990047 
816	 0.179033498541135 
817	 0.178887707486199 
818	 0.178705640266271 
819	 0.178593263539203 
820	 0.178521120030657 
821	 0.178355141546668 
822	 0.178228107078196 
823	 0.178101403204737 
824	 0.177973870118088 
825	 0.177946074668023 
826	 0.177890931243186 
827	 0.177785894964309 
828	 0.177651720503848 
829	 0.177543841360598 
830	 0.177401224873495 
831	 0.177273780341861 
832	 0.177242055962054 
833	 0.177228011939285 
834	 0.177173084666753 
835	 0.177088493390826 
836	 0.177043695615348 
837	 0.176978294605192 
838	 0.17692481996914 
839	 0.176895376157309 
840	 0.176844440072777 
841	 0.176745706159693 
842	 0.176667344916466 
843	 0.176659996003019 
844	 0.176630847826424 
845	 0.176642109351112 
846	 0.176629228758717 
847	 0.176519891073712 
848	 0.176541984636691 
849	 0.176554893668137 
850	 0.176510210903805 
851	 0.1764604707503 
852	 0.176423101377893 
853	 0.176413780389216 
854	 0.176446091431307 
855	 0.176531348360512 
856	 0.176570887921295 
857	 0.176558978686857 
858	 0.176533779130601 
859	 0.176578795083721 
860	 0.176620436132496 
861	 0.176633615188596 
862	 0.176624637909166 
863	 0.176641478139288 
864	 0.176733014552033 
865	 0.176825543054327 
866	 0.176803027591353 
867	 0.176819233408252 
868	 0.176839247803243 
869	 0.176866886399005 
870	 0.176956768582534 
871	 0.177091190472182 
872	 0.177181170068608 
873	 0.177222275098229 
874	 0.177358558092424 
875	 0.177477092775451 
876	 0.177556058099394 
877	 0.17760913362092 
878	 0.177675747751083 
879	 0.177773343960979 
880	 0.177891171230011 
881	 0.178009547792353 
882	 0.178128786890947 
883	 0.178250165850947 
884	 0.178371646445112 
885	 0.178491479044096 
886	 0.178625365633509 
887	 0.178734880503352 
888	 0.178826585295248 
889	 0.178949394685516 
890	 0.179140728620108 
891	 0.179335388279134 
892	 0.179490650104878 
893	 0.179616302543346 
894	 0.179818213073182 
895	 0.180001167995407 
896	 0.180128059583081 
897	 0.180336436036593 
898	 0.180561141462357 
899	 0.180736572487398 
900	 0.180849972322817 
901	 0.181027183863217 
902	 0.181181381644663 
903	 0.181365129797719 
904	 0.181626205267597 
905	 0.181823165596797 
906	 0.181996868993756 
907	 0.182217891092903 
908	 0.182535454643494 
909	 0.182842289556592 
910	 0.183066466672359 
911	 0.183228607056699 
912	 0.183412412144225 
913	 0.183662927274194 
914	 0.183938195587471 
915	 0.184191063066903 
916	 0.184395436931448 
917	 0.184657672382698 
918	 0.184968150086185 
919	 0.185268138891219 
920	 0.185479670841799 
921	 0.185781754169205 
922	 0.186125439472835 
923	 0.186441715415306 
924	 0.186701956036499 
925	 0.18704814849706 
926	 0.187377455105232 
927	 0.187617860251495 
928	 0.187850426826199 
929	 0.188231660887043 
930	 0.188659821141197 
931	 0.189008400164971 
932	 0.189266318122992 
933	 0.189590630392731 
934	 0.189987556053276 
935	 0.190403552551434 
936	 0.190777219777273 
937	 0.191064622982161 
938	 0.191317553297685 
939	 0.191622078288121 
940	 0.192046902391482 
941	 0.192461059510015 
942	 0.192863832553843 
943	 0.193287543807918 
944	 0.193658374261291 
945	 0.194057618584366 
946	 0.194459170365814 
947	 0.194817333225082 
948	 0.195241827771518 
949	 0.195646846971794 
950	 0.196003593312163 
951	 0.19634875866866 
952	 0.196843849727162 
953	 0.197306580909757 
954	 0.19774956927582 
955	 0.198272216362661 
956	 0.198745802210387 
957	 0.199232212882871 
958	 0.199663392046579 
959	 0.199967592922234 
960	 0.200524192847408 
961	 0.201070626390086 
962	 0.201518573322074 
963	 0.201925310709268 
964	 0.202274106231376 
965	 0.202823313955147 
966	 0.203442977793287 
967	 0.203822684695195 
968	 0.204303258462163 
969	 0.204779638865198 
970	 0.205255616859837 
971	 0.205800310981363 
972	 0.206313891720031 
973	 0.206742979233759 
974	 0.207220203866541 
975	 0.207899860301621 
976	 0.208343962466248 
977	 0.208808645620505 
978	 0.209354045276483 
979	 0.2098797258961 
980	 0.210361406864242 
981	 0.210876221017885 
982	 0.211369310204327 
983	 0.211775131153956 
984	 0.212435481649998 
985	 0.213079343948863 
986	 0.213583872557928 
987	 0.213986620709058 
988	 0.214505861740207 
989	 0.214937804114076 
990	 0.215294149567361 
991	 0.215726226323291 
992	 0.216400690668555 
993	 0.216961567896183 
994	 0.217464926314521 
995	 0.218082430834678 
996	 0.218589689267198 
997	 0.218975661747905 
998	 0.219388794596892 
999	 0.219946159055553 
1000	 0.220428217582409 
1001	 0.215912330897473 
1002	 0.216333621995628 
1003	 0.216816880405031 
1004	 0.217261255893758 
1005	 0.217763396733118 
1006	 0.218212248587104 
1007	 0.218627744988626 
1008	 0.218966149408029 
1009	 0.219364781947042 
1010	 0.219761172279035 
1011	 0.220150921886543 
1012	 0.220629925160939 
1013	 0.221103700973332 
1014	 0.22152399169456 
1015	 0.221917148811982 
1016	 0.22225501512817 
1017	 0.222619375559659 
1018	 0.222953414673086 
1019	 0.223297675990722 
1020	 0.223657462085964 
1021	 0.224054365122802 
1022	 0.224405590664991 
1023	 0.224728308079613 
1024	 0.225067728405085 
1025	 0.225403998826914 
1026	 0.225731737811035 
1027	 0.226069133376854 
1028	 0.226423950979715 
1029	 0.226790268823983 
1030	 0.227166484866274 
1031	 0.22751614973811 
1032	 0.22786791837816 
1033	 0.228220168420284 
1034	 0.228550654178845 
1035	 0.228808938995516 
1036	 0.229064273365448 
1037	 0.229350318450379 
1038	 0.229651877147605 
1039	 0.229980674603829 
1040	 0.230311395187965 
1041	 0.230653476390094 
1042	 0.230967044275068 
1043	 0.231237915953721 
1044	 0.231538138618862 
1045	 0.231850996472443 
1046	 0.232177682539611 
1047	 0.232485863334784 
1048	 0.232844469757156 
1049	 0.233217277861446 
1050	 0.233521813700272 
1051	 0.23382720932359 
1052	 0.234114306738978 
1053	 0.234365791376504 
1054	 0.234625087593899 
1055	 0.23489877515294 
1056	 0.235193153377236 
1057	 0.235486129943778 
1058	 0.235796312503784 
1059	 0.236085055187275 
1060	 0.236377310082526 
1061	 0.236642610011354 
1062	 0.236884308820236 
1063	 0.237165128491338 
1064	 0.237454883928554 
1065	 0.237722465739025 
1066	 0.237986316233443 
1067	 0.238260793997705 
1068	 0.238514275456473 
1069	 0.238773597921958 
1070	 0.239048526294418 
1071	 0.23934218494265 
1072	 0.239610046831597 
1073	 0.239891891237541 
1074	 0.240151990803645 
1075	 0.240395429751821 
1076	 0.240614556343974 
1077	 0.24084432915913 
1078	 0.24103685059883 
1079	 0.241247272163752 
1080	 0.241484441002051 
1081	 0.241668620859422 
1082	 0.241904946389832 
1083	 0.242150895130309 
1084	 0.242394406755399 
1085	 0.242633080147388 
1086	 0.242920428103314 
1087	 0.243149853545317 
1088	 0.243327912706042 
1089	 0.243539311532753 
1090	 0.243770296276947 
1091	 0.243975778581007 
1092	 0.244166596747948 
1093	 0.244364380459816 
1094	 0.244556530858753 
1095	 0.244753970461492 
1096	 0.244976272026711 
1097	 0.245200431073663 
1098	 0.245419308828086 
1099	 0.24565738678176 
1100	 0.245838598138385 
1101	 0.245970861629774 
1102	 0.246145410788159 
1103	 0.24630209241874 
1104	 0.246462200857168 
1105	 0.246686323742705 
1106	 0.24694723924995 
1107	 0.247157060240796 
1108	 0.247350242375846 
1109	 0.247538966656414 
1110	 0.247714638052461 
1111	 0.247906679058079 
1112	 0.248130009827819 
1113	 0.248300478145704 
1114	 0.248448120648052 
1115	 0.248603045322137 
1116	 0.248714026535057 
1117	 0.248864172740314 
1118	 0.249035371401285 
1119	 0.249218371388727 
1120	 0.249395720739037 
1121	 0.249587623709274 
1122	 0.249771912912608 
1123	 0.249945650382532 
1124	 0.250125283936643 
1125	 0.25030243264475 
1126	 0.250477092828916 
1127	 0.250652779031313 
1128	 0.250830471728127 
1129	 0.251006233954132 
1130	 0.251181413083678 
1131	 0.251368689845852 
1132	 0.251535140087553 
1133	 0.25167692806047 
1134	 0.251839165932055 
1135	 0.252003362653862 
1136	 0.25217190901571 
1137	 0.252336709212189 
1138	 0.252494797945303 
1139	 0.252647133223001 
1140	 0.252774757081039 
1141	 0.25292776493114 
1142	 0.253104324479797 
1143	 0.253250658239113 
1144	 0.253392625870197 
1145	 0.25352958066286 
1146	 0.253646761193019 
1147	 0.253765859469478 
1148	 0.25388119660975 
1149	 0.254002987558209 
1150	 0.254113481969204 
1151	 0.254243362027213 
1152	 0.254376596420227 
1153	 0.254517315643911 
1154	 0.254661892232464 
1155	 0.254810496518148 
1156	 0.254956348394283 
1157	 0.255117060264569 
1158	 0.255258001892977 
1159	 0.255390129279401 
1160	 0.255520900281335 
1161	 0.25564452544577 
1162	 0.255761093579088 
1163	 0.255860493229063 
1164	 0.255980234905221 
1165	 0.25610381833082 
1166	 0.256231466211264 
1167	 0.256370997947202 
1168	 0.256494831878636 
1169	 0.256633635104842 
1170	 0.256778520068527 
1171	 0.256905704328428 
1172	 0.257043762067746 
1173	 0.257161440141704 
1174	 0.25723934912656 
1175	 0.257349800865371 
1176	 0.257480174505407 
1177	 0.257591225479926 
1178	 0.2577002795307 
1179	 0.257814268908201 
1180	 0.257916733702636 
1181	 0.258024537437442 
1182	 0.258147528391466 
1183	 0.258265508970352 
1184	 0.258370166041817 
1185	 0.258460639584485 
1186	 0.258567212288493 
1187	 0.25867756914754 
1188	 0.25877505455506 
1189	 0.258867010555808 
1190	 0.258972761888569 
1191	 0.259079202781752 
1192	 0.259179495439732 
1193	 0.259290234832184 
1194	 0.259397158536722 
1195	 0.259489471324036 
1196	 0.259585742634259 
1197	 0.259686920004595 
1198	 0.259793222865575 
1199	 0.259900839844153 
1200	 0.260005883469296 
1201	 0.26011041745855 
1202	 0.26022118998519 
1203	 0.260329697489956 
1204	 0.260435492010062 
1205	 0.260536267102994 
1206	 0.260637621267979 
1207	 0.260739265262571 
1208	 0.26083389841933 
1209	 0.260930233548723 
1210	 0.261040932754427 
1211	 0.261132275498036 
1212	 0.261202181460922 
1213	 0.26128447549071 
1214	 0.261352676654072 
1215	 0.261439262367373 
1216	 0.261536957091181 
1217	 0.261655767387465 
1218	 0.261754777774871 
1219	 0.261863551452734 
1220	 0.261951591373665 
1221	 0.262016721896983 
1222	 0.26209865038389 
1223	 0.262180235214813 
1224	 0.262261893601309 
1225	 0.262354425356592 
1226	 0.262434517553562 
1227	 0.262504497971046 
1228	 0.262578187125581 
1229	 0.262646699958335 
1230	 0.262719166753836 
1231	 0.262802116809333 
1232	 0.262872948300914 
1233	 0.262938935856305 
1234	 0.262996772488891 
1235	 0.263068217733747 
1236	 0.263145085316441 
1237	 0.26320528933365 
1238	 0.263259050777261 
1239	 0.263328771874265 
1240	 0.263393012755675 
1241	 0.263456843662977 
1242	 0.26355115802529 
1243	 0.263614890568678 
1244	 0.263629544877139 
1245	 0.263689252074301 
1246	 0.263763532537257 
1247	 0.263839095185969 
1248	 0.263943921736565 
1249	 0.2640439284231 
1250	 0.264111505229123 
1251	 0.264190668502552 
1252	 0.264259692950193 
1253	 0.264317812709991 
1254	 0.264381472611453 
1255	 0.264451031629132 
1256	 0.264505068565433 
1257	 0.264553593408416 
1258	 0.264596347110046 
1259	 0.264611432851501 
1260	 0.264658781541779 
1261	 0.264726011897049 
1262	 0.264779858163163 
1263	 0.264847161593657 
1264	 0.264905516881552 
1265	 0.264948796082141 
1266	 0.264994948393493 
1267	 0.265048808614847 
1268	 0.26509259136058 
1269	 0.265134129406801 
1270	 0.265159818843538 
1271	 0.265214834147145 
1272	 0.265279389090724 
1273	 0.265345655108552 
1274	 0.265424594528098 
1275	 0.265509880947576 
1276	 0.26559054139946 
1277	 0.265690393121312 
1278	 0.26582398362113 
1279	 0.265934350815095 
1280	 0.266040444444676 
1281	 0.266146747688883 
1282	 0.266243602084537 
1283	 0.266342571891259 
1284	 0.26643722742424 
1285	 0.266550785776288 
1286	 0.266646369259258 
1287	 0.266739721680783 
1288	 0.266831706310368 
1289	 0.266918828403358 
1290	 0.26700870602535 
1291	 0.267097838946917 
1292	 0.267187576938571 
1293	 0.267286752670655 
1294	 0.26736407799315 
1295	 0.267443176500286 
1296	 0.267495941208521 
1297	 0.267509673869565 
1298	 0.267547828287388 
1299	 0.267574467190132 
1300	 0.267614144813261 
1301	 0.267688405890278 
1302	 0.267733296535831 
1303	 0.26776545411667 
1304	 0.267797324903437 
1305	 0.267803720991965 
1306	 0.267804049998659 
1307	 0.267807030872335 
1308	 0.267812990426859 
1309	 0.267834735073509 
1310	 0.267879709447156 
1311	 0.267887288995787 
1312	 0.267893393554571 
1313	 0.267890732060104 
1314	 0.267860290525193 
1315	 0.267838549514251 
1316	 0.267823296541682 
1317	 0.267803931316848 
1318	 0.267766578737555 
1319	 0.267746856972928 
1320	 0.267736532744849 
1321	 0.267724449234472 
1322	 0.267711594482187 
1323	 0.267721073459973 
1324	 0.267701199565078 
1325	 0.267690551573931 
1326	 0.267669184617736 
1327	 0.267631199804931 
1328	 0.267605256089496 
1329	 0.267575701907328 
1330	 0.267549060712006 
1331	 0.267522859363781 
1332	 0.267496230607848 
1333	 0.267478757518695 
1334	 0.267442589226968 
1335	 0.267391375778131 
1336	 0.267353307767831 
1337	 0.267316294470486 
1338	 0.267270148595216 
1339	 0.267227205369044 
1340	 0.267180922494662 
1341	 0.267115479888445 
1342	 0.267062612234495 
1343	 0.267014095089644 
1344	 0.266982328558958 
1345	 0.266933367859576 
1346	 0.266881680706579 
1347	 0.266838347373875 
1348	 0.266788827331278 
1349	 0.2667319037905 
1350	 0.266686792690623 
1351	 0.266651288039785 
1352	 0.266622760463152 
1353	 0.266582524524573 
1354	 0.266553977139847 
1355	 0.266517119215384 
1356	 0.266473367496626 
1357	 0.266412963183553 
1358	 0.266337025038186 
1359	 0.266276691529622 
1360	 0.266195191612083 
1361	 0.266143084287806 
1362	 0.266129623538038 
1363	 0.26609597561303 
1364	 0.266063106427373 
1365	 0.266024376671598 
1366	 0.265968193584013 
1367	 0.265931919024047 
1368	 0.265906635261464 
1369	 0.265879298082284 
1370	 0.265839652817978 
1371	 0.265784577706659 
1372	 0.265724799275498 
1373	 0.265639926295722 
1374	 0.265548828556148 
1375	 0.265461734029062 
1376	 0.265344084314378 
1377	 0.265202946924156 
1378	 0.265048703770483 
1379	 0.264870099784431 
1380	 0.26469576954845 
1381	 0.264511579868633 
1382	 0.264316768074046 
1383	 0.264134149585149 
1384	 0.263912341113107 
1385	 0.26367683943088 
1386	 0.263404637818479 
1387	 0.263100078731419 
1388	 0.262774866892825 
1389	 0.262421380573403 
1390	 0.262044527236769 
1391	 0.26165554214807 
1392	 0.261231987752538 
1393	 0.260761306864009 
1394	 0.260260090809838 
1395	 0.25972619848236 
1396	 0.259181521054206 
1397	 0.258650530400229 
1398	 0.258120539396827 
1399	 0.25758980504131 
1400	 0.257059876019091 
1401	 0.256529604047708 
1402	 0.255984800353041 
1403	 0.255471005484203 
1404	 0.254955827093624 
1405	 0.254484700147036 
1406	 0.25404519681425 
1407	 0.253618907763172 
1408	 0.253211758911979 
1409	 0.252834731753728 
1410	 0.252450660754888 
1411	 0.25214564146711 
1412	 0.251887471393335 
1413	 0.25167539018264 
1414	 0.251545416096808 
1415	 0.251444634580498 
1416	 0.251359923207237 
1417	 0.251323406642978 
1418	 0.251294379657899 
1419	 0.251268379783461 
1420	 0.251284612084384 
1421	 0.251306880172009 
1422	 0.251325473973751 
1423	 0.25134424323432 
1424	 0.251336088413422 
1425	 0.251310016380122 
1426	 0.251276180698818 
1427	 0.25121039178429 
1428	 0.251175960192928 
1429	 0.251137290303466 
1430	 0.251116409392295 
1431	 0.251129469086118 
1432	 0.251116076397554 
1433	 0.251098718343055 
1434	 0.251083850049986 
1435	 0.251045978774665 
1436	 0.251035289130697 
1437	 0.251036328296055 
1438	 0.251043896029596 
1439	 0.25106429039182 
1440	 0.251103701764074 
1441	 0.251111764035939 
1442	 0.251118116022124 
1443	 0.251132924500348 
1444	 0.251128130458717 
1445	 0.25113508718318 
1446	 0.251172376351682 
1447	 0.251207435970252 
1448	 0.251238672773289 
1449	 0.25127405012922 
1450	 0.251291493861405 
1451	 0.251310958883185 
1452	 0.25132053872488 
1453	 0.251334368478639 
1454	 0.251347566144389 
1455	 0.251366481556743 
1456	 0.25138220163934 
1457	 0.251401993967157 
1458	 0.251429247165443 
1459	 0.251454154487372 
1460	 0.251470463669341 
1461	 0.251504235297512 
1462	 0.251544779087089 
1463	 0.251600331941392 
1464	 0.251675605067785 
1465	 0.251745544465063 
1466	 0.251817593537214 
1467	 0.251893669744157 
1468	 0.251957849350111 
1469	 0.252054991148533 
1470	 0.252170747741634 
1471	 0.252300261753524 
1472	 0.252453557840809 
1473	 0.252608072347716 
1474	 0.252755083384338 
1475	 0.252922222647898 
1476	 0.253078734062488 
1477	 0.253226110510932 
1478	 0.253397617257348 
1479	 0.253557469251849 
1480	 0.253714374165661 
1481	 0.253890810426519 
1482	 0.254046623313448 
1483	 0.254185905189453 
1484	 0.25433341592306 
1485	 0.254473643474271 
1486	 0.254625763442156 
1487	 0.254783795200918 
1488	 0.254940476655471 
1489	 0.255115936048783 
1490	 0.255265056114575 
1491	 0.255402218923516 
1492	 0.255535715716815 
1493	 0.255643734658884 
1494	 0.255768724919542 
1495	 0.2558967093989 
1496	 0.256030697045097 
1497	 0.256182030011029 
1498	 0.256319053228157 
1499	 0.256452968669684 
1500	 0.256586014945454 
1501	 0.256710760677291 
1502	 0.256833319010498 
1503	 0.256952379155023 
1504	 0.257075021126647 
1505	 0.257203166847967 
1506	 0.257339803655941 
1507	 0.257475880081397 
1508	 0.257590018771472 
1509	 0.257695469242779 
1510	 0.257799828393069 
1511	 0.257885792752812 
1512	 0.257985926182835 
1513	 0.258096842932196 
1514	 0.258196170329353 
1515	 0.258307214896307 
1516	 0.258441172415862 
1517	 0.25856759447893 
1518	 0.258691589875853 
1519	 0.258810552454062 
1520	 0.258939616713274 
1521	 0.259050530332276 
1522	 0.259145747299583 
1523	 0.259244928517082 
1524	 0.259336520757319 
1525	 0.259432731240898 
1526	 0.259530524639244 
1527	 0.259624901557771 
1528	 0.259720655990739 
1529	 0.259812160432937 
1530	 0.259903767658423 
1531	 0.259984895538765 
1532	 0.260057267309715 
1533	 0.260131664132709 
1534	 0.260195404974448 
1535	 0.260265766817399 
1536	 0.260338494197787 
1537	 0.260417617686375 
1538	 0.260503645556047 
1539	 0.260584627987056 
1540	 0.260661691973885 
1541	 0.260748873874426 
1542	 0.260841723781819 
1543	 0.260929771461658 
1544	 0.261032138137158 
1545	 0.261121695072775 
1546	 0.261205012264507 
1547	 0.261278037254678 
1548	 0.261334124406574 
1549	 0.261370862955227 
1550	 0.261403987715185 
1551	 0.261438392368877 
1552	 0.261487506133553 
1553	 0.261559407183433 
1554	 0.261614015503916 
1555	 0.261648938174181 
1556	 0.261686843142659 
1557	 0.26172030154952 
1558	 0.261776548280994 
1559	 0.261853114684506 
1560	 0.261924449333692 
1561	 0.26201350732294 
1562	 0.262075894463228 
1563	 0.262123824978496 
1564	 0.262183904443647 
1565	 0.262233344856085 
1566	 0.262290414657045 
1567	 0.262369031915694 
1568	 0.262419813702036 
1569	 0.262448659593736 
1570	 0.26250192472391 
1571	 0.262557760861534 
1572	 0.262604077413119 
1573	 0.262662939298636 
1574	 0.262709318774038 
1575	 0.262738196456903 
1576	 0.262771336740727 
1577	 0.262812865201601 
1578	 0.262836720932115 
1579	 0.262830439008104 
1580	 0.262861886750437 
1581	 0.262896290107175 
1582	 0.262949335876522 
1583	 0.263052367304402 
1584	 0.263112003502508 
1585	 0.26316619128614 
1586	 0.263205199956091 
1587	 0.263208514219133 
1588	 0.26322984742377 
1589	 0.263248592694255 
1590	 0.26327305233627 
1591	 0.263315492363568 
1592	 0.263337518068329 
1593	 0.263333692845499 
1594	 0.263361216307133 
1595	 0.263396324047208 
1596	 0.263431094847978 
1597	 0.263497854906559 
1598	 0.263542460449401 
1599	 0.263576527560476 
1600	 0.263598176232527 
1601	 0.263602357946957 
1602	 0.263615585087832 
1603	 0.263606766290426 
1604	 0.263620569914671 
1605	 0.26365452417072 
1606	 0.263689881016642 
1607	 0.26374346410697 
1608	 0.26378886583169 
1609	 0.263829115638133 
1610	 0.263853800226038 
1611	 0.263879701749432 
1612	 0.263901913759146 
1613	 0.263894581456646 
1614	 0.26390471878659 
1615	 0.263907398900681 
1616	 0.263902672724481 
1617	 0.263930050823279 
1618	 0.263953677541677 
1619	 0.263986924085429 
1620	 0.2640248567476 
1621	 0.264058713450806 
1622	 0.264103269127912 
1623	 0.264126877414045 
1624	 0.26413790414902 
1625	 0.264151835432882 
1626	 0.264155493129952 
1627	 0.264166292459955 
1628	 0.26418089141165 
1629	 0.264193227927781 
1630	 0.26420261679589 
1631	 0.264219419292544 
1632	 0.264239968137322 
1633	 0.26425686137269 
1634	 0.264275328474828 
1635	 0.264297325415907 
1636	 0.264327125765288 
1637	 0.264331163521097 
1638	 0.264319290019061 
1639	 0.264332385658121 
1640	 0.264331410918061 
1641	 0.264355482623866 
1642	 0.264419058337292 
1643	 0.264452346641693 
1644	 0.264473941961529 
1645	 0.264503543617615 
1646	 0.264532840372466 
1647	 0.264558961645652 
1648	 0.26459386057343 
1649	 0.264606280386895 
1650	 0.264601570579631 
1651	 0.264606541725475 
1652	 0.264594384597539 
1653	 0.264606893764094 
1654	 0.264638961125938 
1655	 0.264660343670487 
1656	 0.264698738562421 
1657	 0.264706265066782 
1658	 0.264701946422952 
1659	 0.264682050671493 
1660	 0.264625188375379 
1661	 0.264602798677118 
1662	 0.264579810077987 
1663	 0.264570654755373 
1664	 0.264585081676375 
1665	 0.264593421114954 
1666	 0.264606163799835 
1667	 0.26461413853602 
1668	 0.264626166742362 
1669	 0.264633257832257 
1670	 0.264644180244444 
1671	 0.264631937591053 
1672	 0.264601690659179 
1673	 0.264583954676656 
1674	 0.264545734982339 
1675	 0.264532593319476 
1676	 0.264542065681573 
1677	 0.264547013081893 
1678	 0.264560200576318 
1679	 0.264564973408495 
1680	 0.264569693833796 
1681	 0.264574894345707 
1682	 0.264573058340493 
1683	 0.264579022837151 
1684	 0.264592111223637 
1685	 0.264602085586455 
1686	 0.264620371276236 
1687	 0.264620465428499 
1688	 0.264605021898882 
1689	 0.264602650086404 
1690	 0.264598095819645 
1691	 0.264591181299086 
1692	 0.264588910281314 
1693	 0.264590410534347 
1694	 0.264577055975732 
1695	 0.264587416255443 
1696	 0.264620210998077 
1697	 0.264646983523932 
1698	 0.264696419044135 
1699	 0.264709210340106 
1700	 0.264706875856054 
1701	 0.264699092880554 
1702	 0.26465758852925 
1703	 0.264642487849308 
1704	 0.264653529505008 
1705	 0.264626106584224 
1706	 0.264584737612695 
1707	 0.264544156590583 
1708	 0.26446273889615 
1709	 0.264431537861288 
1710	 0.264437515312722 
1711	 0.264420721931776 
1712	 0.264420486812782 
1713	 0.264395991137576 
1714	 0.264347866934888 
1715	 0.26431248409327 
1716	 0.264268610473491 
1717	 0.26424156537821 
1718	 0.264216398096771 
1719	 0.264208048332818 
1720	 0.264228086602668 
1721	 0.264221548354567 
1722	 0.264218143861889 
1723	 0.26420310590442 
1724	 0.264173390617588 
1725	 0.264136364340539 
1726	 0.264094853006678 
1727	 0.264043544330829 
1728	 0.263959990200635 
1729	 0.263917739534031 
1730	 0.263893237902817 
1731	 0.263866205261015 
1732	 0.263872426040881 
1733	 0.263834958812811 
1734	 0.263773660034466 
1735	 0.263716205482444 
1736	 0.26363190710226 
1737	 0.263578297549738 
1738	 0.263541410732908 
1739	 0.263494077857802 
1740	 0.26345613153895 
1741	 0.263410044033375 
1742	 0.263359911699543 
1743	 0.263302570048017 
1744	 0.263245374216234 
1745	 0.263166527633994 
1746	 0.263059134569616 
1747	 0.262971732573082 
1748	 0.262920490590888 
1749	 0.262906151510855 
1750	 0.262873153280993 
1751	 0.262830008489479 
1752	 0.262764483879806 
1753	 0.262665336601285 
1754	 0.262585712315685 
1755	 0.262485997756081 
1756	 0.262386536407179 
1757	 0.262307978144125 
1758	 0.26221867171945 
1759	 0.262178127617395 
1760	 0.262154405902923 
1761	 0.262115798157258 
1762	 0.262087141711614 
1763	 0.262006007990934 
1764	 0.261921344081031 
1765	 0.26188307698893 
1766	 0.261804192857381 
1767	 0.261723278785851 
1768	 0.261671188935145 
1769	 0.261599230597508 
1770	 0.261553594097674 
1771	 0.261552497000555 
1772	 0.261529542107711 
1773	 0.261488538099279 
1774	 0.261454655246175 
1775	 0.261412713432372 
1776	 0.261368341619862 
1777	 0.261325265782133 
1778	 0.261274935933709 
1779	 0.261212468896716 
1780	 0.261158197513928 
1781	 0.261113756307567 
1782	 0.261074297286869 
1783	 0.261048169986541 
1784	 0.261043234199423 
1785	 0.261074281263117 
1786	 0.261078148034661 
1787	 0.261094646943301 
1788	 0.261081488706319 
1789	 0.26103957970281 
1790	 0.260999166295514 
1791	 0.26093744899707 
1792	 0.260903667388258 
1793	 0.260864274053711 
1794	 0.260839240892985 
1795	 0.260836129968798 
1796	 0.260828232029761 
1797	 0.260821847901933 
1798	 0.260837403023993 
1799	 0.260876722400869 
1800	 0.260892472287095 
1801	 0.259487318816489 
1802	 0.259635202960526 
1803	 0.259787040593843 
1804	 0.260017321548626 
1805	 0.26025594800949 
1806	 0.260462494593039 
1807	 0.260692811836081 
1808	 0.260859718364853 
1809	 0.260969008666635 
1810	 0.261081833156151 
1811	 0.261179806448267 
1812	 0.261243976628265 
1813	 0.261324609942158 
1814	 0.261364323292289 
1815	 0.261357460939069 
1816	 0.261388167053417 
1817	 0.26140602173281 
1818	 0.261393964451742 
1819	 0.261411964885192 
1820	 0.261454750823337 
1821	 0.261475614218306 
1822	 0.261493844822566 
1823	 0.26151507619815 
1824	 0.261562115130012 
1825	 0.261601359251714 
1826	 0.261619557060939 
1827	 0.261653340653899 
1828	 0.261652435159061 
1829	 0.261608469845546 
1830	 0.261567017967328 
1831	 0.261510285260901 
1832	 0.261459372582098 
1833	 0.261403390095501 
1834	 0.261365775174363 
1835	 0.261372748757497 
1836	 0.26135537892745 
1837	 0.261316582872489 
1838	 0.261301426625097 
1839	 0.261288709586387 
1840	 0.261274971470627 
1841	 0.261263852277271 
1842	 0.261239577962238 
1843	 0.261197240686001 
1844	 0.26113219633965 
1845	 0.261039922329854 
1846	 0.260992599309171 
1847	 0.260975170009742 
1848	 0.260933984586675 
1849	 0.260895382363579 
1850	 0.260858618570843 
1851	 0.260829435248654 
1852	 0.260759362206703 
1853	 0.260683657659699 
1854	 0.260625213367736 
1855	 0.260536374668576 
1856	 0.260441798734843 
1857	 0.260346424361396 
1858	 0.260221905309868 
1859	 0.260070860391315 
1860	 0.259888594859429 
1861	 0.259675033754653 
1862	 0.259432856517911 
1863	 0.259169706347798 
1864	 0.258893681699234 
1865	 0.258601884618394 
1866	 0.258268736566777 
1867	 0.257915626989563 
1868	 0.257541658397938 
1869	 0.257121715191348 
1870	 0.256669216880459 
1871	 0.256193001859506 
1872	 0.255687066181824 
1873	 0.255160919954574 
1874	 0.254609343531423 
1875	 0.254033217050331 
1876	 0.253422648495155 
1877	 0.252746849392887 
1878	 0.251987844786925 
1879	 0.2511643718858 
1880	 0.250275546330455 
1881	 0.249307912041937 
1882	 0.248280573939073 
1883	 0.24719808704092 
1884	 0.246035139404059 
1885	 0.244805366497798 
1886	 0.243495529711103 
1887	 0.242079265595848 
1888	 0.24060714595094 
1889	 0.239074066201245 
1890	 0.237500060676576 
1891	 0.235925699958517 
1892	 0.234319538542315 
1893	 0.232705470653405 
1894	 0.231067370955908 
1895	 0.229433032125778 
1896	 0.227788367148967 
1897	 0.226204973658676 
1898	 0.224627096434642 
1899	 0.223081961675934 
1900	 0.221632643619336 
1901	 0.220216624398854 
1902	 0.218871258236533 
1903	 0.217622892480657 
1904	 0.21641575347801 
1905	 0.215246525593775 
1906	 0.214148930236404 
1907	 0.213133971737246 
1908	 0.212184700239402 
1909	 0.211301941432742 
1910	 0.210469507473179 
1911	 0.209686263076677 
1912	 0.208959055311928 
1913	 0.208280354844831 
1914	 0.207649620620573 
1915	 0.207067379267154 
1916	 0.206543380750623 
1917	 0.206059084906647 
1918	 0.205602933585056 
1919	 0.205186800091693 
1920	 0.20480649344461 
1921	 0.204448252573494 
1922	 0.20414025771038 
1923	 0.203889474909533 
1924	 0.203675411706671 
1925	 0.203521908078882 
1926	 0.203380628764824 
1927	 0.203268026799761 
1928	 0.203188773435851 
1929	 0.203141362648288 
1930	 0.203127863718545 
1931	 0.203140968461212 
1932	 0.203186503131996 
1933	 0.203243354009071 
1934	 0.203275680334051 
1935	 0.203351330078264 
1936	 0.203443126204407 
1937	 0.203567541746659 
1938	 0.203726699332734 
1939	 0.203904023504919 
1940	 0.204121123790006 
1941	 0.204324572707531 
1942	 0.204535930253656 
1943	 0.20476295874076 
1944	 0.204998010487013 
1945	 0.205245083138905 
1946	 0.205517758429997 
1947	 0.205818082453706 
1948	 0.20612615595558 
1949	 0.20646101638185 
1950	 0.20679094264892 
1951	 0.20712829979403 
1952	 0.207467016667036 
1953	 0.20781990793867 
1954	 0.208184714112184 
1955	 0.208549990257476 
1956	 0.208924876332555 
1957	 0.209310867151723 
1958	 0.20970782903075 
1959	 0.21010183025944 
1960	 0.210508282938 
1961	 0.210907756395773 
1962	 0.211294270884457 
1963	 0.21169292027848 
1964	 0.212078404737144 
1965	 0.212510873639872 
1966	 0.212955431868367 
1967	 0.213414895761324 
1968	 0.213871174009895 
1969	 0.214361835045303 
1970	 0.214804371046795 
1971	 0.215216589162233 
1972	 0.215644977813581 
1973	 0.216055630181957 
1974	 0.216482236162857 
1975	 0.216924997915132 
1976	 0.217364465786321 
1977	 0.217799530408981 
1978	 0.218227049065741 
1979	 0.218659666074452 
1980	 0.219096233726075 
1981	 0.219525132668613 
1982	 0.219951390151357 
1983	 0.220379254391973 
1984	 0.220792155441828 
1985	 0.221226890046096 
1986	 0.221682470423619 
1987	 0.222124757122247 
1988	 0.222571159074315 
1989	 0.223017938749744 
1990	 0.223448810686032 
1991	 0.223895110884043 
1992	 0.224325540853055 
1993	 0.224758128048608 
1994	 0.225173232303416 
1995	 0.225568693875377 
1996	 0.225966077654306 
1997	 0.226343553031279 
1998	 0.226748790048415 
1999	 0.227169496411774 
2000	 0.227584017041924 
2001	 0.228007851163717 
2002	 0.228437293101657 
2003	 0.228862435666309 
2004	 0.22927209679173 
2005	 0.229663170795744 
2006	 0.230038368461672 
2007	 0.230420760786908 
2008	 0.230770570326919 
2009	 0.231155086505721 
2010	 0.231582194582835 
2011	 0.231971031616941 
2012	 0.232355260448422 
2013	 0.23273046925193 
2014	 0.233086570398593 
2015	 0.233430383022862 
2016	 0.233792384149857 
2017	 0.234144669324893 
2018	 0.234492828292833 
2019	 0.234834611758111 
2020	 0.235182354110575 
2021	 0.235525121527867 
2022	 0.235871916407846 
2023	 0.236230846045634 
2024	 0.236574929462837 
2025	 0.236908502865905 
2026	 0.237247510381247 
2027	 0.23758497242108 
2028	 0.237916213957695 
2029	 0.238252390572952 
2030	 0.238599756991949 
2031	 0.238925871763285 
2032	 0.239251389424758 
2033	 0.239554443406125 
2034	 0.239831049593287 
2035	 0.240118363290121 
2036	 0.240391381277406 
2037	 0.240673228233008 
2038	 0.24098228388905 
2039	 0.241255166135682 
2040	 0.241513576765792 
2041	 0.241754263297763 
2042	 0.241983823773804 
2043	 0.242222095681882 
2044	 0.242468079859536 
2045	 0.242724958288844 
2046	 0.242983778401946 
2047	 0.243249910566368 
2048	 0.243509740847087 
2049	 0.243795581625855 
2050	 0.244036701518563 
2051	 0.244242994139337 
2052	 0.244461487241882 
2053	 0.244647602822287 
2054	 0.244854315498909 
2055	 0.2450732684099 
2056	 0.245309657630813 
2057	 0.245529793805312 
2058	 0.245755243921688 
2059	 0.245962627816514 
2060	 0.246147261726823 
2061	 0.246355595267706 
2062	 0.246563049941555 
2063	 0.246775800142042 
2064	 0.247022206898306 
2065	 0.247232900398252 
2066	 0.247413870265971 
2067	 0.247610011625939 
2068	 0.247793291729006 
2069	 0.24798696061086 
2070	 0.248184720024683 
2071	 0.248396958824768 
2072	 0.248601139254903 
2073	 0.248799103323983 
2074	 0.249006031734236 
2075	 0.249229272385927 
2076	 0.249429522866007 
2077	 0.249626128243814 
2078	 0.24981595523212 
2079	 0.249993426867951 
2080	 0.25016238454217 
2081	 0.250314877976132 
2082	 0.250479651478814 
2083	 0.250633117226213 
2084	 0.250802830101252 
2085	 0.250968409715795 
2086	 0.251145862116595 
2087	 0.251317305881956 
2088	 0.251479950930335 
2089	 0.251654304708779 
2090	 0.251844786929814 
2091	 0.25201781539377 
2092	 0.252210668721626 
2093	 0.252355309572173 
2094	 0.252438080291338 
2095	 0.252568872930987 
2096	 0.252695202484258 
2097	 0.252823710666049 
2098	 0.252957308860067 
2099	 0.253138195242276 
2100	 0.253307503144659 
2101	 0.253471928645321 
2102	 0.25363881047994 
2103	 0.253822821746328 
2104	 0.254008361723668 
2105	 0.254179453183256 
2106	 0.254365875599691 
2107	 0.254586004486353 
2108	 0.254781295956497 
2109	 0.2549653363029 
2110	 0.255149136694913 
2111	 0.255315367298898 
2112	 0.255500687968716 
2113	 0.255695619096748 
2114	 0.255889819938581 
2115	 0.256081576657357 
2116	 0.256287598159905 
2117	 0.256474954862484 
2118	 0.256646421226231 
2119	 0.256826404061176 
2120	 0.257008775622531 
2121	 0.257185768274126 
2122	 0.257374641163705 
2123	 0.257531670425055 
2124	 0.257663375825698 
2125	 0.25780381734466 
2126	 0.257940947222057 
2127	 0.258057373726028 
2128	 0.258170756923739 
2129	 0.258274448045874 
2130	 0.258350235895618 
2131	 0.258417887774221 
2132	 0.258500514577001 
2133	 0.258600102927628 
2134	 0.258668731376187 
2135	 0.258741206095429 
2136	 0.258775098112023 
2137	 0.258764498121685 
2138	 0.258776824985812 
2139	 0.25878130702782 
2140	 0.258779172980989 
2141	 0.258799351706048 
2142	 0.258778119339764 
2143	 0.258731516782278 
2144	 0.258668516577763 
2145	 0.258573979315192 
2146	 0.258476932866365 
2147	 0.258359460759974 
2148	 0.258233274658331 
2149	 0.258128734727692 
2150	 0.258029295963319 
2151	 0.257926237205725 
2152	 0.257846309635852 
2153	 0.257731781317906 
2154	 0.257602158611824 
2155	 0.25745907896698 
2156	 0.257303682257473 
2157	 0.257131806254231 
2158	 0.25694505112847 
2159	 0.25674519371541 
2160	 0.256524148686311 
2161	 0.256297460078814 
2162	 0.256044975943918 
2163	 0.255805206590678 
2164	 0.255554382676717 
2165	 0.2553274725691 
2166	 0.25508975297312 
2167	 0.254855078994714 
2168	 0.254626562141404 
2169	 0.254403130502261 
2170	 0.254168717055771 
2171	 0.253941939604215 
2172	 0.253702352478706 
2173	 0.253450767377592 
2174	 0.253191599261293 
2175	 0.252919181887153 
2176	 0.252658489651046 
2177	 0.25241920636154 
2178	 0.252131187863016 
2179	 0.251814890576723 
2180	 0.251509755842569 
2181	 0.251172800600064 
2182	 0.25084006460961 
2183	 0.250517924090268 
2184	 0.25020456405672 
2185	 0.249881047613319 
2186	 0.24953198418904 
2187	 0.249209996223693 
2188	 0.248904911981007 
2189	 0.248593607902304 
2190	 0.248267731424595 
2191	 0.247982508650341 
2192	 0.247709251878459 
2193	 0.247462013699912 
2194	 0.247260586116022 
2195	 0.247044306938482 
2196	 0.246816169044654 
2197	 0.246626789567046 
2198	 0.246445473744808 
2199	 0.246296893030984 
2200	 0.246188499069117 
2201	 0.2460995606439 
2202	 0.246036854795401 
2203	 0.245985677567607 
2204	 0.245962955791025 
2205	 0.245973462370878 
2206	 0.245982083512587 
2207	 0.246005152565162 
2208	 0.246044398851745 
2209	 0.246091563365312 
2210	 0.246166997074762 
2211	 0.246266839254779 
2212	 0.246377627527409 
2213	 0.246515537240218 
2214	 0.246648685948321 
2215	 0.246812197548974 
2216	 0.246944187134878 
2217	 0.247063771231545 
2218	 0.247181143663723 
2219	 0.247282006728257 
2220	 0.247379940776983 
2221	 0.247480039274339 
2222	 0.247571440802247 
2223	 0.247637270856646 
2224	 0.247722300963611 
2225	 0.247802415016941 
2226	 0.247879879003438 
2227	 0.247956186327297 
2228	 0.248046143971068 
2229	 0.248102422938833 
2230	 0.248141269696464 
2231	 0.248182702318714 
2232	 0.248223776268111 
2233	 0.248224811731111 
2234	 0.248200875413641 
2235	 0.248182817176984 
2236	 0.248136943685381 
2237	 0.248089586347945 
2238	 0.248048832042963 
2239	 0.248000283391155 
2240	 0.247912001049986 
2241	 0.247858320611652 
2242	 0.247848129455886 
2243	 0.24780363324076 
2244	 0.247763710512674 
2245	 0.247699806766979 
2246	 0.247616142920067 
2247	 0.247523179271632 
2248	 0.247448899217337 
2249	 0.24738180190886 
2250	 0.247322006454525 
2251	 0.247270119503968 
2252	 0.247218586259377 
2253	 0.247167485364686 
2254	 0.247131178796938 
2255	 0.247115347332712 
2256	 0.2470706320399 
2257	 0.247017368558456 
2258	 0.24697955824393 
2259	 0.24692306912337 
2260	 0.246888257470077 
2261	 0.246876967759797 
2262	 0.246866928325216 
2263	 0.246865518915122 
2264	 0.24685998401098 
2265	 0.246862504363287 
2266	 0.246871457120724 
2267	 0.246850439198217 
2268	 0.246874547209005 
2269	 0.246945081173992 
2270	 0.247006118947994 
2271	 0.247070909947101 
2272	 0.247135931294649 
2273	 0.247183374058762 
2274	 0.247217342495961 
2275	 0.247237776590388 
2276	 0.247244708129953 
2277	 0.247270426871831 
2278	 0.247288755553798 
2279	 0.247298020269872 
2280	 0.247314990957915 
2281	 0.247337838224041 
2282	 0.247343117314936 
2283	 0.247365581164649 
2284	 0.247425342974053 
2285	 0.247451004541576 
2286	 0.247453930087092 
2287	 0.247456686625143 
2288	 0.247451637810541 
2289	 0.247447109179456 
2290	 0.247435418749661 
2291	 0.247432382915822 
2292	 0.247433057819613 
2293	 0.247425936139109 
2294	 0.247431822260707 
2295	 0.247413925599868 
2296	 0.247356694306776 
2297	 0.247341438852039 
2298	 0.247328953299621 
2299	 0.247278116205125 
2300	 0.24727492318131 
2301	 0.247233085537436 
2302	 0.247174676691997 
2303	 0.247169964267361 
2304	 0.247133754806432 
2305	 0.247084322460605 
2306	 0.247033353574684 
2307	 0.246961677991031 
2308	 0.246907179456943 
2309	 0.24688175313 
2310	 0.246804003073037 
2311	 0.246697474810362 
2312	 0.246597029103269 
2313	 0.246457043815929 
2314	 0.246354241162082 
2315	 0.24627199134341 
2316	 0.246194946088077 
2317	 0.246139998836112 
2318	 0.246056779971181 
2319	 0.245975498263544 
2320	 0.245886132896004 
2321	 0.245756303013015 
2322	 0.245655359369855 
2323	 0.245570448856118 
2324	 0.24549337666739 
2325	 0.245440842276864 
2326	 0.245378661137869 
2327	 0.245335292821697 
2328	 0.245244273345276 
2329	 0.24513195832929 
2330	 0.245053715026982 
2331	 0.244992392708595 
2332	 0.244905657883229 
2333	 0.244870999333367 
2334	 0.244893204346674 
2335	 0.244912577546706 
2336	 0.244950128514754 
2337	 0.244933813185732 
2338	 0.244821349629803 
2339	 0.244660621150427 
2340	 0.24448188526245 
2341	 0.2443515661054 
2342	 0.244225938455788 
2343	 0.244099034124158 
2344	 0.243978118808591 
2345	 0.243831816805396 
2346	 0.243652832714468 
2347	 0.243521569026191 
2348	 0.243407430986977 
2349	 0.243258191828026 
2350	 0.243131125229123 
2351	 0.242960019995063 
2352	 0.24270257754194 
2353	 0.242554207227091 
2354	 0.242452346657619 
2355	 0.242325420102213 
2356	 0.242263842019844 
2357	 0.242139353978282 
2358	 0.24195431601328 
2359	 0.241802251953467 
2360	 0.24163207188776 
2361	 0.241498168924507 
2362	 0.241410879305441 
2363	 0.241289693364988 
2364	 0.241162488550462 
2365	 0.24104488987485 
2366	 0.240932967692719 
2367	 0.240792151744321 
2368	 0.240659681085534 
2369	 0.240493294139731 
2370	 0.24030359801884 
2371	 0.240047046634735 
2372	 0.239767638347998 
2373	 0.239556727162338 
2374	 0.239332033913177 
2375	 0.239127838212696 
2376	 0.239001037443722 
2377	 0.23880310549931 
2378	 0.238572283289795 
2379	 0.238343767459172 
2380	 0.238069245173113 
2381	 0.237861588449933 
2382	 0.237675206061566 
2383	 0.237436711111259 
2384	 0.237213590186845 
2385	 0.237006980930665 
2386	 0.236791869479367 
2387	 0.23659658137346 
2388	 0.236448740413869 
2389	 0.236275419323067 
2390	 0.236013428903303 
2391	 0.235766630820866 
2392	 0.235493620039068 
2393	 0.235149691461385 
2394	 0.234853943648269 
2395	 0.234566528445151 
2396	 0.234283672611458 
2397	 0.234025575367647 
2398	 0.233701465988127 
2399	 0.233393702668226 
2400	 0.233234040260838 
2401	 0.233051113763063 
2402	 0.232850775806104 
2403	 0.232695335309793 
2404	 0.232385556318157 
2405	 0.232001942472625 
2406	 0.231693436956979 
2407	 0.231355002830661 
2408	 0.230917332349503 
2409	 0.230550965498658 
2410	 0.2302173295783 
2411	 0.229855756112278 
2412	 0.229627686259452 
2413	 0.229379750038071 
2414	 0.229073687843373 
2415	 0.228807591538616 
2416	 0.228500926406531 
2417	 0.228128188899441 
2418	 0.22781341993493 
2419	 0.227521949075321 
2420	 0.227235442744739 
2421	 0.226980413940497 
2422	 0.226677159285746 
2423	 0.226336990677485 
2424	 0.226018394827716 
2425	 0.225762800319564 
2426	 0.225376474060804 
2427	 0.224893355200884 
2428	 0.22451502873833 
2429	 0.224066726367632 
2430	 0.223655388758035 
2431	 0.223389513405133 
2432	 0.22301638652675 
2433	 0.22248976760964 
2434	 0.222133350626124 
2435	 0.22188685869659 
2436	 0.22155806810711 
2437	 0.221281795634853 
2438	 0.220975806052112 
2439	 0.2206122973081 
2440	 0.220264234813266 
2441	 0.21990740784482 
2442	 0.219600241925845 
2443	 0.219325914035299 
2444	 0.218993392751737 
2445	 0.218675532189027 
2446	 0.218344701839102 
2447	 0.217908040757691 
2448	 0.217540725794772 
2449	 0.217291976502959 
2450	 0.216950679143204 
2451	 0.216569142883368 
2452	 0.216221090163192 
2453	 0.215853987447536 
2454	 0.215478608948527 
2455	 0.215064777376852 
2456	 0.214708074988327 
2457	 0.214371143381313 
2458	 0.214030862562793 
2459	 0.21375659277307 
2460	 0.213538763493006 
2461	 0.213320771055844 
2462	 0.213044432266519 
2463	 0.212829011392719 
2464	 0.212466182563846 
2465	 0.21199417505852 
2466	 0.211609143403151 
2467	 0.211147055878991 
2468	 0.210838093056686 
2469	 0.210650231625816 
2470	 0.210370051467203 
2471	 0.210065263367466 
2472	 0.209667065414753 
2473	 0.20942397881587 
2474	 0.209295183807551 
2475	 0.209025877208861 
2476	 0.20884168549853 
2477	 0.20867038894111 
2478	 0.20824651466932 
2479	 0.207882945911252 
2480	 0.207539660504127 
2481	 0.20715403921535 
2482	 0.206874310753008 
2483	 0.206677743109198 
2484	 0.20659887554818 
2485	 0.206307441081211 
2486	 0.205911630043102 
2487	 0.205687396897415 
2488	 0.205299375309451 
2489	 0.204978943601436 
2490	 0.204845766695506 
2491	 0.204590272316817 
2492	 0.204369534530878 
2493	 0.204206308669587 
2494	 0.203997291184687 
2495	 0.203726033336181 
2496	 0.203389150686854 
2497	 0.203145014085534 
2498	 0.203022334056684 
2499	 0.202923725525503 
2500	 0.202837291787222 
