Wavelength	mm1600001.asd
350	 0.071674675715333 
351	 6.48660368002661E-02 
352	 5.58219422313217E-02 
353	 5.21098686917993E-02 
354	 5.59067867945221E-02 
355	 6.32085482277511E-02 
356	 6.50558755434903E-02 
357	 5.88164902859119E-02 
358	 6.84992146843432E-02 
359	 6.73369430560585E-02 
360	 5.78061409138126E-02 
361	 0.060130245723322 
362	 6.18367192175726E-02 
363	 6.39896936455199E-02 
364	 6.61510710928585E-02 
365	 6.28190199883199E-02 
366	 6.17975055735108E-02 
367	 6.28525429952107E-02 
368	 6.40214594652963E-02 
369	 6.70222168692454E-02 
370	 6.59191469523719E-02 
371	 6.35949348397227E-02 
372	 0.06784754949978 
373	 6.89956964683201E-02 
374	 0.067703033937537 
375	 6.58596721325681E-02 
376	 6.47531741926736E-02 
377	 6.67200045944945E-02 
378	 7.02401217114359E-02 
379	 7.28249100871403E-02 
380	 7.44185130299816E-02 
381	 7.24637346895257E-02 
382	 7.00570970881778E-02 
383	 7.36819107029787E-02 
384	 7.78573615803114E-02 
385	 7.70230268409247E-02 
386	 7.22950380647281E-02 
387	 7.74487181548548E-02 
388	 8.05046581633993E-02 
389	 8.06657577481246E-02 
390	 8.04673146772847E-02 
391	 8.02803485523078E-02 
392	 7.98128817661121E-02 
393	 8.02953221750355E-02 
394	 8.38224014888084E-02 
395	 8.48193548636086E-02 
396	 8.48300481816349E-02 
397	 8.56434935540428E-02 
398	 8.68387714815832E-02 
399	 8.92835699112584E-02 
400	 9.12931194147552E-02 
401	 9.10745693004435E-02 
402	 9.15299200553469E-02 
403	 9.24056912351344E-02 
404	 9.34576237498148E-02 
405	 9.46668211881515E-02 
406	 0.095116859118418 
407	 9.56724409221555E-02 
408	 9.66158782063209E-02 
409	 9.55955538801331E-02 
410	 9.57553585201218E-02 
411	 9.72927015753366E-02 
412	 9.88425730292361E-02 
413	 9.90610203694142E-02 
414	 9.89025338304457E-02 
415	 9.90254603483974E-02 
416	 9.94109184164777E-02 
417	 0.100040965029859 
418	 0.100291872799571 
419	 9.98818763299155E-02 
420	 0.100067919221114 
421	 0.100320061250408 
422	 0.100665215499413 
423	 0.101383222272425 
424	 0.101229756125816 
425	 0.100777857400751 
426	 0.100603045516853 
427	 0.100917438482366 
428	 0.100798027192669 
429	 0.100401679760541 
430	 0.100196798329292 
431	 0.100188667452105 
432	 0.100480155376877 
433	 0.100826000449243 
434	 0.100693654939284 
435	 0.100758018953616 
436	 0.100844054833119 
437	 0.100769178075901 
438	 0.100700287525049 
439	 0.101217261395236 
440	 0.102063367692965 
441	 0.102580802964374 
442	 0.102665669576529 
443	 0.102983388763242 
444	 0.103723833484889 
445	 0.10427766609003 
446	 0.104680687424248 
447	 0.10503415244869 
448	 0.105426395236346 
449	 0.105678653366252 
450	 0.106301052080776 
451	 0.107067626888654 
452	 0.107187151748461 
453	 0.107486159724645 
454	 0.107954972782307 
455	 0.10841404547367 
456	 0.108649921480029 
457	 0.108751773706087 
458	 0.108999123203652 
459	 0.109616848709415 
460	 0.109748241306015 
461	 0.109775983241735 
462	 0.110015630012992 
463	 0.110536741974327 
464	 0.110667699608879 
465	 0.110714232598674 
466	 0.111049167399216 
467	 0.111101750872865 
468	 0.111219300509791 
469	 0.111529338976216 
470	 0.111932449447104 
471	 0.111902076500299 
472	 0.112004565303588 
473	 0.112524562467438 
474	 0.112670995465352 
475	 0.112544434293942 
476	 0.112485589832786 
477	 0.112834093544104 
478	 0.11291207285671 
479	 0.113122574297551 
480	 0.113501184663905 
481	 0.113442206010478 
482	 0.113793334372057 
483	 0.114182696167578 
484	 0.114153547279537 
485	 0.114357825875569 
486	 0.114435619791702 
487	 0.114390434252404 
488	 0.114531206740852 
489	 0.114733623322937 
490	 0.114913251766989 
491	 0.115047057752109 
492	 0.115275770745916 
493	 0.115241839150777 
494	 0.115204960749307 
495	 0.11561234739362 
496	 0.11593199583135 
497	 0.116060947841513 
498	 0.116087932868597 
499	 0.116320006218579 
500	 0.116375692502431 
501	 0.116406187048352 
502	 0.116619920370527 
503	 0.11674545350521 
504	 0.116955466863933 
505	 0.117209881154366 
506	 0.117278870143332 
507	 0.117370902465196 
508	 0.11754592954777 
509	 0.117761055765304 
510	 0.117769531983914 
511	 0.117850396047322 
512	 0.118007537304242 
513	 0.118112961129335 
514	 0.118296582023662 
515	 0.118440228837986 
516	 0.118520329281485 
517	 0.118734348687914 
518	 0.118733445654948 
519	 0.118694744207108 
520	 0.11889637945094 
521	 0.119190752242945 
522	 0.119348472726336 
523	 0.11937231457512 
524	 0.119506222100977 
525	 0.119728775613305 
526	 0.119869003725687 
527	 0.119849046882261 
528	 0.119991199213847 
529	 0.120154765635676 
530	 0.120315967670515 
531	 0.12051584177964 
532	 0.120587976656251 
533	 0.120681336372376 
534	 0.120870384981146 
535	 0.120980623810442 
536	 0.121097859108189 
537	 0.121274193001311 
538	 0.121524348923108 
539	 0.121692389873593 
540	 0.121876031396091 
541	 0.122081780812773 
542	 0.122167223627136 
543	 0.122256353380446 
544	 0.122415945503497 
545	 0.122648038213532 
546	 0.122766102718667 
547	 0.122938665365713 
548	 0.123178425692834 
549	 0.123362761081446 
550	 0.123549231396498 
551	 0.123729780896251 
552	 0.123904569308167 
553	 0.124115210275853 
554	 0.124412018483239 
555	 0.124718946587926 
556	 0.12492216952787 
557	 0.125238501417527 
558	 0.12557306070518 
559	 0.125876780815802 
560	 0.126255778942439 
561	 0.126475841597711 
562	 0.126664603049067 
563	 0.127017775498408 
564	 0.12734745594109 
565	 0.127685210238467 
566	 0.128009685738916 
567	 0.128231350572819 
568	 0.128574558011717 
569	 0.128996094740599 
570	 0.12942618134913 
571	 0.129953095509562 
572	 0.130472311824451 
573	 0.130949762242614 
574	 0.131408333135308 
575	 0.131883339535491 
576	 0.132438106375018 
577	 0.133064522873485 
578	 0.133591820002158 
579	 0.134127750803404 
580	 0.134639258001479 
581	 0.135063817710881 
582	 0.135544785969896 
583	 0.136041885440323 
584	 0.136560353097263 
585	 0.137198445555785 
586	 0.137833203236303 
587	 0.13852086477759 
588	 0.139318426194443 
589	 0.140065749630285 
590	 0.14076542111247 
591	 0.141438591384405 
592	 0.142116166728974 
593	 0.142699445281312 
594	 0.143253324706638 
595	 0.143826047983849 
596	 0.144330010118936 
597	 0.144843462429672 
598	 0.145350972674501 
599	 0.145811364370727 
600	 0.146421180704247 
601	 0.147069891896334 
602	 0.147657249817599 
603	 0.148162950866674 
604	 0.148699240114661 
605	 0.149282969863396 
606	 0.149888935231536 
607	 0.150483669953382 
608	 0.15105953960248 
609	 0.151616039619934 
610	 0.1521585374476 
611	 0.152583778601698 
612	 0.152948859247293 
613	 0.153322798268097 
614	 0.15367424713039 
615	 0.153994106023135 
616	 0.154296907886355 
617	 0.154611256752999 
618	 0.154936107131284 
619	 0.155288679901874 
620	 0.155637193947949 
621	 0.155815088237466 
622	 0.156117648355779 
623	 0.156478384795974 
624	 0.156715353177067 
625	 0.156959149209584 
626	 0.157199154481142 
627	 0.15742963734962 
628	 0.157664046355978 
629	 0.157927663264955 
630	 0.158167855729169 
631	 0.158346432624923 
632	 0.158558727215511 
633	 0.158817481726549 
634	 0.159075467868702 
635	 0.159248174260651 
636	 0.159454499868227 
637	 0.159678019100487 
638	 0.159885015032969 
639	 0.160049133795899 
640	 0.160298481475321 
641	 0.160578184431933 
642	 0.160763908854604 
643	 0.160929618740617 
644	 0.161154226551674 
645	 0.161425719593203 
646	 0.16160031557983 
647	 0.161777399552307 
648	 0.161993129823289 
649	 0.162250076869322 
650	 0.162493520465802 
651	 0.162718475870396 
652	 0.162938332662475 
653	 0.163179846844011 
654	 0.163426659607366 
655	 0.163657424063432 
656	 0.163879445711923 
657	 0.164179447787794 
658	 0.164443424594813 
659	 0.164665595462167 
660	 0.164894937642171 
661	 0.165156822239091 
662	 0.165453918927415 
663	 0.16575766759035 
664	 0.165999103762393 
665	 0.166242410681284 
666	 0.166499780094634 
667	 0.166778464089035 
668	 0.167135654539559 
669	 0.167468985563691 
670	 0.167766070065442 
671	 0.168086799535748 
672	 0.168332051600606 
673	 0.168598178176567 
674	 0.168944619985847 
675	 0.169266260076554 
676	 0.16960000045161 
677	 0.169940151104311 
678	 0.170271476042169 
679	 0.170628924399751 
680	 0.170998720248887 
681	 0.171362482413659 
682	 0.171701781429184 
683	 0.172048347892516 
684	 0.172410776046729 
685	 0.172785222439222 
686	 0.173147090159223 
687	 0.173541277840419 
688	 0.173958561528866 
689	 0.174347571483998 
690	 0.174647988209854 
691	 0.175009844470038 
692	 0.175491477265697 
693	 0.175919002192721 
694	 0.176262863112315 
695	 0.176619332251379 
696	 0.177086030080703 
697	 0.177456099675764 
698	 0.177824025310423 
699	 0.178234373887791 
700	 0.178659394716055 
701	 0.179095073040102 
702	 0.179503657244212 
703	 0.179871989992308 
704	 0.180268364921965 
705	 0.180681201544979 
706	 0.181093650828586 
707	 0.1814883055509 
708	 0.181879851238737 
709	 0.182304898439307 
710	 0.182752606797985 
711	 0.183143221106837 
712	 0.18352576126477 
713	 0.183894539099677 
714	 0.184248589823208 
715	 0.184662102099921 
716	 0.185038621336091 
717	 0.185388517090835 
718	 0.185795124147635 
719	 0.186195364717794 
720	 0.186567185058439 
721	 0.186902115443067 
722	 0.18720318045102 
723	 0.187520435626501 
724	 0.18784125708761 
725	 0.188138777571459 
726	 0.188443031008286 
727	 0.188714907630622 
728	 0.188977945116761 
729	 0.189307317569401 
730	 0.189577592577714 
731	 0.189805180886891 
732	 0.190026822338036 
733	 0.19026300698886 
734	 0.19048336643186 
735	 0.19066972051955 
736	 0.190820274910246 
737	 0.190993039155732 
738	 0.19116946414257 
739	 0.191326085349012 
740	 0.191442176441533 
741	 0.191530622148196 
742	 0.191617882926746 
743	 0.191717174168204 
744	 0.191801409484978 
745	 0.191859782483262 
746	 0.191910968022443 
747	 0.19198247594079 
748	 0.192061980897143 
749	 0.192043901028502 
750	 0.191952364753569 
751	 0.191971163139458 
752	 0.191982926522642 
753	 0.191937300002289 
754	 0.191841894939415 
755	 0.191830491618725 
756	 0.191787856882251 
757	 0.191697155403574 
758	 0.191598889629221 
759	 0.191543031836656 
760	 0.191468674918744 
761	 0.191357519379464 
762	 0.191257320123543 
763	 0.191087466307429 
764	 0.190906717473823 
765	 0.190776406443926 
766	 0.190673195398702 
767	 0.190509736338354 
768	 0.190325544742507 
769	 0.190205143740258 
770	 0.190036579482871 
771	 0.189863850719171 
772	 0.189697241568926 
773	 0.189492104391809 
774	 0.189297117026695 
775	 0.189114965483873 
776	 0.188938181667209 
777	 0.188759939268489 
778	 0.188609430577551 
779	 0.188456176340304 
780	 0.188248459078418 
781	 0.187984286952814 
782	 0.187772603006226 
783	 0.187622506828996 
784	 0.187432718901323 
785	 0.187249847209962 
786	 0.187060904627981 
787	 0.18685467253412 
788	 0.186641276689644 
789	 0.186492634836395 
790	 0.186336899853222 
791	 0.18608722936338 
792	 0.185891049873139 
793	 0.185699586979115 
794	 0.185519820030345 
795	 0.185401283287884 
796	 0.185188007601831 
797	 0.184968829758315 
798	 0.18479593346581 
799	 0.184579922206873 
800	 0.184399327363443 
801	 0.184249722817017 
802	 0.184102268922683 
803	 0.183940305780912 
804	 0.183794360555767 
805	 0.183641391030637 
806	 0.183436528916723 
807	 0.183248538849171 
808	 0.183117283489691 
809	 0.182999064030948 
810	 0.182755190657962 
811	 0.182614507889522 
812	 0.182494034720122 
813	 0.182316717652567 
814	 0.182221697076117 
815	 0.182153859850099 
816	 0.182034865808822 
817	 0.181816063628899 
818	 0.181652155227819 
819	 0.181549972539743 
820	 0.181462825623411 
821	 0.181318710193583 
822	 0.181234464503712 
823	 0.181123624055639 
824	 0.180970178550679 
825	 0.180920300056861 
826	 0.180877688550281 
827	 0.180787091309768 
828	 0.1806417505725 
829	 0.180550892358651 
830	 0.180425351526568 
831	 0.18029006949458 
832	 0.180219180450787 
833	 0.180225540939281 
834	 0.180160875088941 
835	 0.180041974624709 
836	 0.180034047624425 
837	 0.179969723850252 
838	 0.179896123310578 
839	 0.179849042917666 
840	 0.179786911421883 
841	 0.179681371947578 
842	 0.179601675806316 
843	 0.179599152527031 
844	 0.179582130413832 
845	 0.179572753789813 
846	 0.179553590157918 
847	 0.179507887407949 
848	 0.179520466509234 
849	 0.179530147442888 
850	 0.17949831784206 
851	 0.179424638950677 
852	 0.179396577684103 
853	 0.179393762257483 
854	 0.179405264647348 
855	 0.179457218437047 
856	 0.179505026184322 
857	 0.179515063341028 
858	 0.179495684318889 
859	 0.17955178488335 
860	 0.179596657409614 
861	 0.179608137806967 
862	 0.179597237141667 
863	 0.179595375192731 
864	 0.179690027702705 
865	 0.179811468513052 
866	 0.179816684912575 
867	 0.179789817777772 
868	 0.179811829709822 
869	 0.179880371306653 
870	 0.179917041874995 
871	 0.180022504446055 
872	 0.180128229565583 
873	 0.180202463783504 
874	 0.180315424523154 
875	 0.180443529765475 
876	 0.180535482152334 
877	 0.18056796937622 
878	 0.180594611380692 
879	 0.180740237306443 
880	 0.180892993805664 
881	 0.180926859543858 
882	 0.181040275625987 
883	 0.1811733290544 
884	 0.181310657269346 
885	 0.181466436272742 
886	 0.181674742989183 
887	 0.181792951275988 
888	 0.181853186962505 
889	 0.182022363636955 
890	 0.182157334101478 
891	 0.182234710562518 
892	 0.182321527111019 
893	 0.182560354064551 
894	 0.182779533168079 
895	 0.182932857822234 
896	 0.183055217669317 
897	 0.183273657781832 
898	 0.183499987033038 
899	 0.183704208568155 
900	 0.183865913234676 
901	 0.183938576639826 
902	 0.18408289513905 
903	 0.184314359329977 
904	 0.18457853442065 
905	 0.18479385971394 
906	 0.185006854841627 
907	 0.18522206786452 
908	 0.185439826733262 
909	 0.185760566540477 
910	 0.185978982987546 
911	 0.186118010997194 
912	 0.186339820271474 
913	 0.18655314676865 
914	 0.186839974877229 
915	 0.187158625955611 
916	 0.187377376410451 
917	 0.187691572489553 
918	 0.18799917281793 
919	 0.188243425469991 
920	 0.188467840432253 
921	 0.188733472092042 
922	 0.189061803689308 
923	 0.189400570655754 
924	 0.189620291940318 
925	 0.189914078192112 
926	 0.190271606670882 
927	 0.190611561149853 
928	 0.190813540368867 
929	 0.191221222570232 
930	 0.191676064246222 
931	 0.191995544004963 
932	 0.192261588380683 
933	 0.192497093506695 
934	 0.192854916717678 
935	 0.193374353203713 
936	 0.193691946108741 
937	 0.193985121739858 
938	 0.194311864517544 
939	 0.194681146857048 
940	 0.195063155566371 
941	 0.195503765831947 
942	 0.195964252075097 
943	 0.196375088007729 
944	 0.196687731772565 
945	 0.197014689302198 
946	 0.197423622280574 
947	 0.197897366714738 
948	 0.198185590967236 
949	 0.198593194374624 
950	 0.19904314941406 
951	 0.199353257246033 
952	 0.199915870831582 
953	 0.200373785985118 
954	 0.200779386894945 
955	 0.201346196670059 
956	 0.20171384984859 
957	 0.202087216355108 
958	 0.202522400120547 
959	 0.20296653368961 
960	 0.203428862571534 
961	 0.203942495834966 
962	 0.204478434909903 
963	 0.204967002980117 
964	 0.205366552413615 
965	 0.205799003880946 
966	 0.206291736543972 
967	 0.206798769616923 
968	 0.207329700912007 
969	 0.207781159785421 
970	 0.208149668657638 
971	 0.208534037970305 
972	 0.209155335393418 
973	 0.209763226526971 
974	 0.210294312619639 
975	 0.210828196644327 
976	 0.211306227220126 
977	 0.211820509988464 
978	 0.212339104766612 
979	 0.212790256650806 
980	 0.213408369096794 
981	 0.213903736312895 
982	 0.214318253364623 
983	 0.214875910168733 
984	 0.215472339703966 
985	 0.216003837530392 
986	 0.216528963232016 
987	 0.217127540396726 
988	 0.217492715089883 
989	 0.21790909909438 
990	 0.218412467260117 
991	 0.218921724696157 
992	 0.219554531329741 
993	 0.220101238992117 
994	 0.220599575758545 
995	 0.221157233636468 
996	 0.221642743524233 
997	 0.222119561635313 
998	 0.22256941374388 
999	 0.222974294762626 
1000	 0.22341632477236 
1001	 0.218748822084279 
1002	 0.219187869922969 
1003	 0.219609940967776 
1004	 0.220032792162467 
1005	 0.220474205467267 
1006	 0.220909368180311 
1007	 0.221332244866475 
1008	 0.221738896339725 
1009	 0.222203584940664 
1010	 0.222600074313314 
1011	 0.223058181267708 
1012	 0.223556704037502 
1013	 0.223962191745356 
1014	 0.224391256624795 
1015	 0.22475946799427 
1016	 0.225050273366205 
1017	 0.225398283028853 
1018	 0.22576885850155 
1019	 0.226115395313239 
1020	 0.226455560559663 
1021	 0.226843361463323 
1022	 0.227183093005051 
1023	 0.227504760782057 
1024	 0.227929678519995 
1025	 0.228309863519418 
1026	 0.228645591979546 
1027	 0.229013366571575 
1028	 0.229294082208876 
1029	 0.229602262410901 
1030	 0.229944139624472 
1031	 0.230258930955556 
1032	 0.230554439770024 
1033	 0.230872040574563 
1034	 0.231194435643645 
1035	 0.231508690337955 
1036	 0.231847083669094 
1037	 0.232182205212178 
1038	 0.232450635151654 
1039	 0.232724823419335 
1040	 0.23302248437092 
1041	 0.233334779835393 
1042	 0.233687103700148 
1043	 0.234015425960636 
1044	 0.234334170263153 
1045	 0.23465602104175 
1046	 0.234938646748941 
1047	 0.235203956982016 
1048	 0.235526040533873 
1049	 0.235821432302987 
1050	 0.236135365856243 
1051	 0.23649365254091 
1052	 0.236771110974537 
1053	 0.237000635381492 
1054	 0.237270038007495 
1055	 0.237526931981921 
1056	 0.237782458501869 
1057	 0.238076653547107 
1058	 0.238451216709627 
1059	 0.238768121963957 
1060	 0.239061660478894 
1061	 0.239379546872435 
1062	 0.239680247642483 
1063	 0.239956700795147 
1064	 0.240235167660815 
1065	 0.240500142190861 
1066	 0.24075743673699 
1067	 0.241009696553018 
1068	 0.241271991987192 
1069	 0.241568950232825 
1070	 0.241825859634208 
1071	 0.242059473699399 
1072	 0.242324550339868 
1073	 0.242581213524444 
1074	 0.24282795597663 
1075	 0.243098550320626 
1076	 0.24337475682411 
1077	 0.243569891027355 
1078	 0.243727232470145 
1079	 0.243928142318456 
1080	 0.244129161673981 
1081	 0.244344996695931 
1082	 0.244630862747167 
1083	 0.244875789252712 
1084	 0.245120764816503 
1085	 0.245334654553624 
1086	 0.245511399807079 
1087	 0.245704240233478 
1088	 0.245875726628271 
1089	 0.246074957731436 
1090	 0.246306179556017 
1091	 0.246548018641815 
1092	 0.246739698253512 
1093	 0.246929751553597 
1094	 0.247101422929132 
1095	 0.247267255945259 
1096	 0.247448683187944 
1097	 0.247639066601087 
1098	 0.247855769020195 
1099	 0.248117761975472 
1100	 0.248312202372287 
1101	 0.248496081881064 
1102	 0.24868770426289 
1103	 0.248854189992779 
1104	 0.248992606005579 
1105	 0.24916604302337 
1106	 0.249385263620261 
1107	 0.249582697536611 
1108	 0.249792234375728 
1109	 0.250034242964695 
1110	 0.250224302328605 
1111	 0.250400947569876 
1112	 0.250533957053027 
1113	 0.250713207254919 
1114	 0.250916715609609 
1115	 0.251079120268677 
1116	 0.251217110044256 
1117	 0.251385060549524 
1118	 0.251533009376318 
1119	 0.25169608865099 
1120	 0.251934344833015 
1121	 0.252157043239079 
1122	 0.252326090988445 
1123	 0.252493115078671 
1124	 0.252660404063273 
1125	 0.252792862070476 
1126	 0.252971537716685 
1127	 0.253189885796226 
1128	 0.25336641466442 
1129	 0.253527312277976 
1130	 0.253704171848353 
1131	 0.25388000298985 
1132	 0.254046487769386 
1133	 0.254228153221827 
1134	 0.254394989289644 
1135	 0.254543279820427 
1136	 0.254677833677229 
1137	 0.254828985586308 
1138	 0.254983859458891 
1139	 0.255142356005222 
1140	 0.255307835897847 
1141	 0.255465153559506 
1142	 0.255631371017396 
1143	 0.255779951831392 
1144	 0.255914490828259 
1145	 0.25605058372897 
1146	 0.25617828939613 
1147	 0.256305586061097 
1148	 0.256421989858547 
1149	 0.256555542188302 
1150	 0.256696883952096 
1151	 0.25683772211109 
1152	 0.256983267728057 
1153	 0.257147922714495 
1154	 0.257283601291379 
1155	 0.257402140260029 
1156	 0.257530077247103 
1157	 0.257645815524895 
1158	 0.257772125544947 
1159	 0.257920368374808 
1160	 0.258040267012875 
1161	 0.25813678408541 
1162	 0.258255547395853 
1163	 0.258365533044606 
1164	 0.258486009780554 
1165	 0.25862003278043 
1166	 0.258771056693871 
1167	 0.258906536740962 
1168	 0.25903893398037 
1169	 0.259162266135074 
1170	 0.259277775655504 
1171	 0.25939829560927 
1172	 0.25951480644274 
1173	 0.25963195476386 
1174	 0.259752425523916 
1175	 0.259872779055147 
1176	 0.259988613435793 
1177	 0.260103781608365 
1178	 0.260235948900495 
1179	 0.260344692836566 
1180	 0.260428936246332 
1181	 0.260526752617466 
1182	 0.260610621311637 
1183	 0.260707036550756 
1184	 0.260818173961915 
1185	 0.260950360377722 
1186	 0.261067335600594 
1187	 0.261194280714613 
1188	 0.261303141351692 
1189	 0.261396921221236 
1190	 0.261500152163841 
1191	 0.261598224959768 
1192	 0.261702403996234 
1193	 0.261818419280259 
1194	 0.261922140439235 
1195	 0.26202314033694 
1196	 0.262119196555632 
1197	 0.262197001805565 
1198	 0.262290061655163 
1199	 0.262388216481925 
1200	 0.262490337655441 
1201	 0.262590841324625 
1202	 0.262703825816327 
1203	 0.262801668681548 
1204	 0.26288295496805 
1205	 0.262985013021132 
1206	 0.263095864144884 
1207	 0.263199098254056 
1208	 0.263316210915209 
1209	 0.263417092637243 
1210	 0.263506475845207 
1211	 0.263591764457567 
1212	 0.263664293522548 
1213	 0.263744700628936 
1214	 0.263823759696972 
1215	 0.263902062716538 
1216	 0.263981726348043 
1217	 0.264065517706029 
1218	 0.26415096901002 
1219	 0.264230966453677 
1220	 0.264323664983371 
1221	 0.264436315645703 
1222	 0.264524860123249 
1223	 0.264608624799074 
1224	 0.264690237639816 
1225	 0.264759502132929 
1226	 0.264829454447054 
1227	 0.264900910883745 
1228	 0.264969429367414 
1229	 0.265026755062356 
1230	 0.265091363617282 
1231	 0.265165744355944 
1232	 0.265232163151152 
1233	 0.265296134951868 
1234	 0.265351731297603 
1235	 0.265430572118056 
1236	 0.265521325485043 
1237	 0.265594557037452 
1238	 0.265676717813484 
1239	 0.26575257951343 
1240	 0.265808781077411 
1241	 0.265874558835587 
1242	 0.265958294026923 
1243	 0.266024213169585 
1244	 0.266070765392375 
1245	 0.26613022691873 
1246	 0.266186200265784 
1247	 0.266249732379876 
1248	 0.266322234062269 
1249	 0.266397207384814 
1250	 0.266472417006742 
1251	 0.266546583644801 
1252	 0.266612874211153 
1253	 0.266678660280289 
1254	 0.266731281422662 
1255	 0.266766169985771 
1256	 0.266818632146323 
1257	 0.266870780892543 
1258	 0.266922149527511 
1259	 0.266983121952619 
1260	 0.267039968344135 
1261	 0.267088378952084 
1262	 0.267141603610882 
1263	 0.267206069717815 
1264	 0.267259312680237 
1265	 0.267301589243726 
1266	 0.267351603377898 
1267	 0.267406290894351 
1268	 0.267451625698435 
1269	 0.267497420786036 
1270	 0.26754057822403 
1271	 0.267599918500657 
1272	 0.267657761996236 
1273	 0.267729631616042 
1274	 0.267823895665639 
1275	 0.267906937173977 
1276	 0.267979541076851 
1277	 0.268070887469785 
1278	 0.268179838505982 
1279	 0.268278427473078 
1280	 0.268375388575217 
1281	 0.268486348830204 
1282	 0.268607815291711 
1283	 0.268715087665178 
1284	 0.268825963144509 
1285	 0.26894123994076 
1286	 0.269033232171851 
1287	 0.269111494741605 
1288	 0.26920583894946 
1289	 0.269305972101357 
1290	 0.26940319931645 
1291	 0.269515238317454 
1292	 0.269593333602515 
1293	 0.269655260922602 
1294	 0.269719723791372 
1295	 0.269754498945015 
1296	 0.269815786693949 
1297	 0.269902413465069 
1298	 0.269965158148685 
1299	 0.270028418545361 
1300	 0.270078488080163 
1301	 0.270111543643451 
1302	 0.270142442884781 
1303	 0.270166916060395 
1304	 0.270191995741238 
1305	 0.270198899959803 
1306	 0.270190239047488 
1307	 0.270157977174616 
1308	 0.270124336891385 
1309	 0.270118982932438 
1310	 0.270129201940391 
1311	 0.270119028097201 
1312	 0.270127828731641 
1313	 0.270115951978724 
1314	 0.270064268970638 
1315	 0.270048536147458 
1316	 0.270060183214285 
1317	 0.270045065895662 
1318	 0.270028954951384 
1319	 0.270012843742085 
1320	 0.269977714187539 
1321	 0.269953834801631 
1322	 0.269950845387647 
1323	 0.269924792696546 
1324	 0.269880709751611 
1325	 0.26983323256027 
1326	 0.269794097230109 
1327	 0.269761172133407 
1328	 0.269744596860905 
1329	 0.269747794019906 
1330	 0.269738080928345 
1331	 0.269741613309065 
1332	 0.269704226048146 
1333	 0.269638700047108 
1334	 0.269595985657831 
1335	 0.269525317733352 
1336	 0.269487359063374 
1337	 0.269490614185733 
1338	 0.269466431546664 
1339	 0.269438158263576 
1340	 0.269407572356675 
1341	 0.269365076335712 
1342	 0.269331425878082 
1343	 0.269299767222454 
1344	 0.269269062459924 
1345	 0.2692478916437 
1346	 0.269224054142898 
1347	 0.269207891668741 
1348	 0.269207572600947 
1349	 0.269181409227233 
1350	 0.269151488073586 
1351	 0.269119485011953 
1352	 0.26907226681897 
1353	 0.269026880334485 
1354	 0.268984901930317 
1355	 0.268944147777875 
1356	 0.268899699567617 
1357	 0.268854245966912 
1358	 0.268803583694766 
1359	 0.26876370186914 
1360	 0.268719700504355 
1361	 0.268689262423759 
1362	 0.268688739127202 
1363	 0.268668684256894 
1364	 0.268634832365947 
1365	 0.268610404086286 
1366	 0.268587660066366 
1367	 0.268556033046628 
1368	 0.268535958792441 
1369	 0.268533884144754 
1370	 0.268501064469677 
1371	 0.26844640792454 
1372	 0.268383491680776 
1373	 0.268302043786772 
1374	 0.268225880406443 
1375	 0.268158754691987 
1376	 0.26805803925254 
1377	 0.267951559629691 
1378	 0.267810510974366 
1379	 0.267618352585017 
1380	 0.267460759911459 
1381	 0.267302587262147 
1382	 0.267133817535889 
1383	 0.266990276751654 
1384	 0.266806466921371 
1385	 0.26660572733735 
1386	 0.266375646367143 
1387	 0.266123623968097 
1388	 0.265846754433764 
1389	 0.265545244710555 
1390	 0.265212927278945 
1391	 0.264861581197768 
1392	 0.264481457587449 
1393	 0.26405511755964 
1394	 0.263605105615697 
1395	 0.263104060220692 
1396	 0.262591867173005 
1397	 0.26209905119438 
1398	 0.261588250496113 
1399	 0.261097833583401 
1400	 0.260634851750041 
1401	 0.26015832799033 
1402	 0.259671645187381 
1403	 0.259207000231732 
1404	 0.258733673491977 
1405	 0.25829836429662 
1406	 0.25788827028885 
1407	 0.257490395213054 
1408	 0.257108703042245 
1409	 0.256760467402771 
1410	 0.256396471139043 
1411	 0.256114751241116 
1412	 0.255884806097707 
1413	 0.255703597855956 
1414	 0.255579617725897 
1415	 0.255513877631018 
1416	 0.255476947962637 
1417	 0.255464251238474 
1418	 0.255458169380685 
1419	 0.255462703079646 
1420	 0.255485085326059 
1421	 0.255499682236669 
1422	 0.255511440335069 
1423	 0.255535073084476 
1424	 0.255533273134346 
1425	 0.255506807251725 
1426	 0.255487905566006 
1427	 0.255455071021545 
1428	 0.25544201233345 
1429	 0.255441698563557 
1430	 0.255428444231032 
1431	 0.255426383927988 
1432	 0.255402355534286 
1433	 0.255349662271155 
1434	 0.25532065989519 
1435	 0.255283419099411 
1436	 0.255270947821635 
1437	 0.255280361266663 
1438	 0.255287873722662 
1439	 0.255307635672593 
1440	 0.255334319721822 
1441	 0.255345989314235 
1442	 0.255352489059869 
1443	 0.255346199362497 
1444	 0.255341491127517 
1445	 0.255354411961635 
1446	 0.25537499076628 
1447	 0.255405599442329 
1448	 0.255441514435248 
1449	 0.25546828129708 
1450	 0.255480930613519 
1451	 0.255490583858878 
1452	 0.255486421073145 
1453	 0.255500269716711 
1454	 0.25551730069068 
1455	 0.255531727110951 
1456	 0.255559540996825 
1457	 0.255575432710272 
1458	 0.255576424453631 
1459	 0.255593225029237 
1460	 0.255611122637645 
1461	 0.255635389733238 
1462	 0.255667017082402 
1463	 0.255698479921261 
1464	 0.255732577156151 
1465	 0.255776976113274 
1466	 0.255817784507313 
1467	 0.255878054996039 
1468	 0.255949448207625 
1469	 0.256035524589441 
1470	 0.256135223980066 
1471	 0.256254629130803 
1472	 0.256385250219867 
1473	 0.256518708131332 
1474	 0.256645833776206 
1475	 0.256774054810604 
1476	 0.256893155484097 
1477	 0.257015409818639 
1478	 0.257147722527959 
1479	 0.257291406182708 
1480	 0.257468696965497 
1481	 0.257641507346726 
1482	 0.2577959687377 
1483	 0.257957095582019 
1484	 0.258096171203963 
1485	 0.258203762608416 
1486	 0.25832916775572 
1487	 0.25844987412193 
1488	 0.258582015684482 
1489	 0.258720711033501 
1490	 0.258858368431814 
1491	 0.259012113045699 
1492	 0.259147235705644 
1493	 0.259273383624925 
1494	 0.259395509061382 
1495	 0.25950880853585 
1496	 0.25961589858724 
1497	 0.259711240653836 
1498	 0.259816109704424 
1499	 0.259922565120753 
1500	 0.260026629541218 
1501	 0.260131988973494 
1502	 0.260242441222461 
1503	 0.260356983624428 
1504	 0.260454550002833 
1505	 0.260572915426082 
1506	 0.260685455957489 
1507	 0.260790943780899 
1508	 0.260911593884296 
1509	 0.261007193177587 
1510	 0.261081338516693 
1511	 0.261162455420931 
1512	 0.26123532999115 
1513	 0.261314513683067 
1514	 0.261426534867674 
1515	 0.261529195241474 
1516	 0.261626673475874 
1517	 0.261722592425904 
1518	 0.261817587170528 
1519	 0.261914829338366 
1520	 0.262012261730503 
1521	 0.26210287409466 
1522	 0.26219669615817 
1523	 0.262280840161761 
1524	 0.262347301467115 
1525	 0.262431601541627 
1526	 0.26252408481171 
1527	 0.26261406958001 
1528	 0.262717035925064 
1529	 0.262798879558442 
1530	 0.262857825592178 
1531	 0.262939487695348 
1532	 0.263025596251615 
1533	 0.263106378630919 
1534	 0.26321220815513 
1535	 0.2632866486521 
1536	 0.263326545213682 
1537	 0.263386778182006 
1538	 0.263440496289777 
1539	 0.263502460078416 
1540	 0.263581147561744 
1541	 0.26365293842192 
1542	 0.263723056793668 
1543	 0.263789347663046 
1544	 0.263860516446437 
1545	 0.263918572234842 
1546	 0.263960417731968 
1547	 0.264016390798695 
1548	 0.264059625561107 
1549	 0.264085842725425 
1550	 0.264126303162476 
1551	 0.264161075897815 
1552	 0.264202234319839 
1553	 0.264263147545383 
1554	 0.26432858526653 
1555	 0.264388780814334 
1556	 0.264428482555548 
1557	 0.264474805687522 
1558	 0.26452971504152 
1559	 0.264576979647922 
1560	 0.264629105732683 
1561	 0.264700050621407 
1562	 0.264740149480539 
1563	 0.264754715117417 
1564	 0.264798199943707 
1565	 0.264848273950494 
1566	 0.264887969708181 
1567	 0.264937577974054 
1568	 0.264978663116706 
1569	 0.264997305610766 
1570	 0.265037653819777 
1571	 0.265099594559607 
1572	 0.26514076947451 
1573	 0.265175899578094 
1574	 0.265213229283308 
1575	 0.265242774822946 
1576	 0.26527235877364 
1577	 0.265307785040721 
1578	 0.265336760361475 
1579	 0.265346587894466 
1580	 0.265383403205957 
1581	 0.265432095349869 
1582	 0.265479910103067 
1583	 0.265551038552931 
1584	 0.26560208935868 
1585	 0.265650333071383 
1586	 0.265682651443104 
1587	 0.265698208274409 
1588	 0.265715571697506 
1589	 0.265709189359946 
1590	 0.265726841552562 
1591	 0.265760221312337 
1592	 0.265787331614599 
1593	 0.265821455283276 
1594	 0.265859039735815 
1595	 0.265895423432051 
1596	 0.265930161092815 
1597	 0.265975251852788 
1598	 0.26601187693194 
1599	 0.266040609577715 
1600	 0.266069312071263 
1601	 0.266096365980569 
1602	 0.266120464006604 
1603	 0.266144535598786 
1604	 0.266158826600211 
1605	 0.26615959795022 
1606	 0.266171023939589 
1607	 0.266172376576948 
1608	 0.266190143325845 
1609	 0.266236561289889 
1610	 0.266268671930471 
1611	 0.266292882321439 
1612	 0.266323837550537 
1613	 0.266338287363394 
1614	 0.266355708992767 
1615	 0.266385097482188 
1616	 0.266415136851102 
1617	 0.266446814347211 
1618	 0.266468132424788 
1619	 0.266484457089568 
1620	 0.266508682385646 
1621	 0.266534527982222 
1622	 0.266567364271997 
1623	 0.266582611461698 
1624	 0.266597656419327 
1625	 0.266598603537198 
1626	 0.266578609422149 
1627	 0.266574651224056 
1628	 0.266561590135276 
1629	 0.266581006668768 
1630	 0.266627070386026 
1631	 0.26664263854529 
1632	 0.266667677614835 
1633	 0.266678199218987 
1634	 0.266656506990531 
1635	 0.266662674223976 
1636	 0.2666876660698 
1637	 0.266696581772897 
1638	 0.266701006535274 
1639	 0.266710907811542 
1640	 0.266713228086076 
1641	 0.266731930456161 
1642	 0.266755400199699 
1643	 0.266794908192564 
1644	 0.266855517941175 
1645	 0.266898918186134 
1646	 0.266959022559372 
1647	 0.266984952804999 
1648	 0.266983761772504 
1649	 0.266992776182237 
1650	 0.266987216814317 
1651	 0.266992132741118 
1652	 0.267009354021165 
1653	 0.267008112398052 
1654	 0.266993090373685 
1655	 0.266992546705027 
1656	 0.266992952652391 
1657	 0.266986924791035 
1658	 0.267000126299937 
1659	 0.266976969700577 
1660	 0.266916167698555 
1661	 0.266884209125594 
1662	 0.266838053580452 
1663	 0.266821757497656 
1664	 0.266834394331055 
1665	 0.266840225493026 
1666	 0.266857161170944 
1667	 0.266870057501103 
1668	 0.266893383582126 
1669	 0.266895644583926 
1670	 0.266888611130036 
1671	 0.266879784070343 
1672	 0.266852411738495 
1673	 0.266837445917094 
1674	 0.266817181306832 
1675	 0.266821898837652 
1676	 0.266843245333013 
1677	 0.266860428061936 
1678	 0.266902578363393 
1679	 0.266919515806186 
1680	 0.266922012471747 
1681	 0.266923876424436 
1682	 0.266912803543668 
1683	 0.266913634054206 
1684	 0.26691228964318 
1685	 0.266918502893548 
1686	 0.266951649997885 
1687	 0.266945088411866 
1688	 0.266914431869697 
1689	 0.266898995110423 
1690	 0.26685093607143 
1691	 0.266846382833591 
1692	 0.266880014955179 
1693	 0.266900675355808 
1694	 0.266944526334274 
1695	 0.266958291923236 
1696	 0.26693829997477 
1697	 0.266961473468781 
1698	 0.267006859619635 
1699	 0.267019123760753 
1700	 0.267052318448491 
1701	 0.267054529115433 
1702	 0.267005023819839 
1703	 0.26698093378681 
1704	 0.266967080866797 
1705	 0.266943414624901 
1706	 0.266910912949661 
1707	 0.266884260539862 
1708	 0.266853874818672 
1709	 0.266835667272373 
1710	 0.266834623541832 
1711	 0.26681037073382 
1712	 0.266779925092659 
1713	 0.266754359766761 
1714	 0.266708178755323 
1715	 0.266681237743423 
1716	 0.266670025772504 
1717	 0.26666078901438 
1718	 0.266662022129894 
1719	 0.266655995088546 
1720	 0.266651058232457 
1721	 0.266645948421394 
1722	 0.266643094716679 
1723	 0.266621656193636 
1724	 0.26659319836061 
1725	 0.266572833276267 
1726	 0.266546874159593 
1727	 0.266501938775119 
1728	 0.266452933840348 
1729	 0.266408744796023 
1730	 0.266346055035859 
1731	 0.266295007448245 
1732	 0.26626200835753 
1733	 0.266219928633972 
1734	 0.266167530856465 
1735	 0.266113768416874 
1736	 0.266058513181983 
1737	 0.266018303541755 
1738	 0.265983943414663 
1739	 0.26593550058101 
1740	 0.265898650216088 
1741	 0.265840094968029 
1742	 0.265755473062524 
1743	 0.265684431228701 
1744	 0.265614233742506 
1745	 0.26554709151415 
1746	 0.265476823889746 
1747	 0.265425420309732 
1748	 0.265371370126324 
1749	 0.265355463727756 
1750	 0.265303742805353 
1751	 0.265243533903721 
1752	 0.265221257886107 
1753	 0.26516491166392 
1754	 0.265095250660523 
1755	 0.264994739978274 
1756	 0.264885853029131 
1757	 0.264807448252937 
1758	 0.264739925639775 
1759	 0.26469255897976 
1760	 0.26465618775657 
1761	 0.264606733302261 
1762	 0.264540249215725 
1763	 0.264508467697329 
1764	 0.26447553658522 
1765	 0.264420366116037 
1766	 0.264371814520617 
1767	 0.2642826878062 
1768	 0.264207042925702 
1769	 0.264174674816947 
1770	 0.264149291332845 
1771	 0.264156035142765 
1772	 0.264155507308394 
1773	 0.264103983114262 
1774	 0.264061837536558 
1775	 0.264034171014722 
1776	 0.263977549950083 
1777	 0.263927658062667 
1778	 0.263887170394088 
1779	 0.263842041635656 
1780	 0.263804981444293 
1781	 0.2637629493567 
1782	 0.263727615940109 
1783	 0.263657708678168 
1784	 0.26363186705161 
1785	 0.263664144062457 
1786	 0.263653492604492 
1787	 0.263662319322951 
1788	 0.263637024966115 
1789	 0.263541798616018 
1790	 0.263510750409167 
1791	 0.263502736662877 
1792	 0.263473358662333 
1793	 0.263468426568614 
1794	 0.263465063445831 
1795	 0.263428974852952 
1796	 0.263426829831083 
1797	 0.263472801217646 
1798	 0.26347595380007 
1799	 0.263459446585653 
1800	 0.263457334790893 
1801	 0.262186002368255 
1802	 0.262338859517703 
1803	 0.262515739961883 
1804	 0.262721092739786 
1805	 0.262943177722165 
1806	 0.263149529913378 
1807	 0.26334421302225 
1808	 0.263484516360977 
1809	 0.263587052588849 
1810	 0.26367551541037 
1811	 0.26371744509248 
1812	 0.263749667028447 
1813	 0.263837118741187 
1814	 0.263895601554103 
1815	 0.263919569108811 
1816	 0.263958292420624 
1817	 0.263973720566127 
1818	 0.263938154941115 
1819	 0.263955531238432 
1820	 0.263997006462731 
1821	 0.264014622963133 
1822	 0.264072656937827 
1823	 0.264100660482027 
1824	 0.264112571527243 
1825	 0.264134490113593 
1826	 0.264122986440946 
1827	 0.264118193648993 
1828	 0.264100884428767 
1829	 0.264072179019504 
1830	 0.264033663470596 
1831	 0.263973711129528 
1832	 0.263938646961329 
1833	 0.26390781695438 
1834	 0.263869746022676 
1835	 0.263868009752636 
1836	 0.26383971341093 
1837	 0.263809211358329 
1838	 0.263841738608775 
1839	 0.263860361941493 
1840	 0.263895972316949 
1841	 0.263926590131967 
1842	 0.263926042432821 
1843	 0.263886694364099 
1844	 0.263848878969292 
1845	 0.263797191669214 
1846	 0.263749603948353 
1847	 0.263729661124504 
1848	 0.263695785292561 
1849	 0.263644142277449 
1850	 0.263608799646034 
1851	 0.263586546739138 
1852	 0.263557130509291 
1853	 0.263527447783598 
1854	 0.263481967306605 
1855	 0.26342119722418 
1856	 0.263344758870581 
1857	 0.263241838883863 
1858	 0.263126055684082 
1859	 0.263000011767477 
1860	 0.262855503935508 
1861	 0.26269151027787 
1862	 0.262490503880308 
1863	 0.262285857162436 
1864	 0.262071369464857 
1865	 0.261821860456306 
1866	 0.261544268403306 
1867	 0.261251556320529 
1868	 0.260932784610597 
1869	 0.260578185648759 
1870	 0.260202537269939 
1871	 0.259803828631608 
1872	 0.259387249019118 
1873	 0.258942181070875 
1874	 0.258460368052246 
1875	 0.257950748887771 
1876	 0.257404692499301 
1877	 0.256807301302512 
1878	 0.256159046494725 
1879	 0.255481506574374 
1880	 0.254723371878193 
1881	 0.253896557823575 
1882	 0.253016065583275 
1883	 0.252085850002416 
1884	 0.25104856451372 
1885	 0.249980492549388 
1886	 0.248840460517525 
1887	 0.247600883845371 
1888	 0.24633783433041 
1889	 0.244980928043612 
1890	 0.243558375448494 
1891	 0.242153429176214 
1892	 0.240706353645194 
1893	 0.239246617680546 
1894	 0.237765083976541 
1895	 0.236323377816786 
1896	 0.234824745019043 
1897	 0.233364768056845 
1898	 0.231930026190888 
1899	 0.230494480180894 
1900	 0.229135575370704 
1901	 0.227810194922606 
1902	 0.226555109748563 
1903	 0.225388576559465 
1904	 0.22426543133106 
1905	 0.223181602104772 
1906	 0.222166665565827 
1907	 0.221251176775758 
1908	 0.220339134575778 
1909	 0.219500050538968 
1910	 0.218725765065962 
1911	 0.217971519279536 
1912	 0.217295620581613 
1913	 0.216647825284372 
1914	 0.216052938312222 
1915	 0.215480363081625 
1916	 0.214948317319129 
1917	 0.214429795998623 
1918	 0.213953630980369 
1919	 0.213510411826827 
1920	 0.21310466506635 
1921	 0.212735092541604 
1922	 0.212407328842211 
1923	 0.212120707584981 
1924	 0.211888780610267 
1925	 0.211734279261006 
1926	 0.211582418130482 
1927	 0.211456759708029 
1928	 0.211370398913162 
1929	 0.211339561999808 
1930	 0.21130229957107 
1931	 0.211298173521879 
1932	 0.211338100693871 
1933	 0.211367134497862 
1934	 0.211404470704076 
1935	 0.211467734993061 
1936	 0.211555855916545 
1937	 0.211660270548059 
1938	 0.211785243782255 
1939	 0.21192175466364 
1940	 0.212076913687103 
1941	 0.212238329843546 
1942	 0.21242679148353 
1943	 0.212653964625274 
1944	 0.212892482277665 
1945	 0.213144160036744 
1946	 0.21339460721973 
1947	 0.213634367805804 
1948	 0.213902996287586 
1949	 0.214189660158902 
1950	 0.214483325932054 
1951	 0.214800980117524 
1952	 0.215115528520856 
1953	 0.215423209357789 
1954	 0.215753086844723 
1955	 0.216074649190969 
1956	 0.216390657482005 
1957	 0.216722561298625 
1958	 0.217046100230409 
1959	 0.217400032075258 
1960	 0.217804352310683 
1961	 0.218165980196813 
1962	 0.218513247189543 
1963	 0.218879984076002 
1964	 0.219233651638028 
1965	 0.219580364904551 
1966	 0.219986232233668 
1967	 0.220401192507411 
1968	 0.220808229878197 
1969	 0.221225540490446 
1970	 0.221632878390508 
1971	 0.222038005258699 
1972	 0.222444496599195 
1973	 0.222849492454232 
1974	 0.223249081957898 
1975	 0.223646927253283 
1976	 0.224044057745448 
1977	 0.224429631435018 
1978	 0.224813887287758 
1979	 0.225208174531374 
1980	 0.225592766713224 
1981	 0.225974952188432 
1982	 0.226355698406405 
1983	 0.226738627071951 
1984	 0.227098483087448 
1985	 0.227493131450967 
1986	 0.227910536934333 
1987	 0.228324837249789 
1988	 0.228758170003895 
1989	 0.229201139196673 
1990	 0.229616437785165 
1991	 0.229994953243167 
1992	 0.230384129151245 
1993	 0.230754517533673 
1994	 0.231137162134856 
1995	 0.231535678934422 
1996	 0.231907061664687 
1997	 0.232255265069941 
1998	 0.232624388168793 
1999	 0.23298516629293 
2000	 0.233353715077985 
2001	 0.233751188746409 
2002	 0.23412571656117 
2003	 0.234491905633148 
2004	 0.234861325669039 
2005	 0.235217921260564 
2006	 0.235561463064374 
2007	 0.235921157707495 
2008	 0.236276989913233 
2009	 0.23663348475752 
2010	 0.237010409087199 
2011	 0.237367488137975 
2012	 0.237714606462235 
2013	 0.238055755699547 
2014	 0.23840054998965 
2015	 0.238711786404177 
2016	 0.239022093198835 
2017	 0.239342250220284 
2018	 0.239669629252848 
2019	 0.240003192868598 
2020	 0.240335997326272 
2021	 0.240687883894325 
2022	 0.241016708106985 
2023	 0.241334524190993 
2024	 0.241650181046494 
2025	 0.241944692409258 
2026	 0.242251828629218 
2027	 0.242557219018271 
2028	 0.242880402296214 
2029	 0.24318914534486 
2030	 0.243500888627825 
2031	 0.243811486269507 
2032	 0.24411968738796 
2033	 0.244414527088217 
2034	 0.244719392708001 
2035	 0.244996198776762 
2036	 0.245257367469116 
2037	 0.245498312079516 
2038	 0.245700354391041 
2039	 0.245923457430419 
2040	 0.246137128466884 
2041	 0.246352710373069 
2042	 0.246574786477804 
2043	 0.24679621550324 
2044	 0.247025806384855 
2045	 0.247252204894589 
2046	 0.247478142731182 
2047	 0.247720036934811 
2048	 0.247947618491044 
2049	 0.248168123693691 
2050	 0.248379360555964 
2051	 0.248582422055415 
2052	 0.248788586030918 
2053	 0.248980738595503 
2054	 0.249176945040905 
2055	 0.249385695112798 
2056	 0.24958509382712 
2057	 0.24977707504781 
2058	 0.249963823989483 
2059	 0.250145923722373 
2060	 0.250307842688242 
2061	 0.250496990468455 
2062	 0.250698150746196 
2063	 0.250889327583731 
2064	 0.251100697474569 
2065	 0.251290576126458 
2066	 0.251462245439091 
2067	 0.251635394909356 
2068	 0.251798236011444 
2069	 0.251959346366702 
2070	 0.252140118815555 
2071	 0.252318452025169 
2072	 0.252520915031019 
2073	 0.252760342606233 
2074	 0.252964088261688 
2075	 0.25317707164414 
2076	 0.253359728785499 
2077	 0.253512415672882 
2078	 0.253670093632652 
2079	 0.253811152695539 
2080	 0.253958231172396 
2081	 0.254093005183687 
2082	 0.254243432434623 
2083	 0.254395102718808 
2084	 0.254568127495064 
2085	 0.254728576932722 
2086	 0.254902663237276 
2087	 0.255057657489883 
2088	 0.255192658161424 
2089	 0.255346976228169 
2090	 0.255511199759815 
2091	 0.255658230930222 
2092	 0.255803437256067 
2093	 0.255950877786619 
2094	 0.256081749144324 
2095	 0.256223631485557 
2096	 0.256388480085179 
2097	 0.256534111547134 
2098	 0.25665926370218 
2099	 0.25679919248414 
2100	 0.256940294962006 
2101	 0.257077687191558 
2102	 0.257220305172455 
2103	 0.257366534139689 
2104	 0.257524693184752 
2105	 0.257691778651651 
2106	 0.257850240711954 
2107	 0.258019223371848 
2108	 0.258183488019013 
2109	 0.258325764079905 
2110	 0.258490995603568 
2111	 0.258666102600089 
2112	 0.258852189118629 
2113	 0.259063688391922 
2114	 0.25926120423945 
2115	 0.25946018262397 
2116	 0.25967398116211 
2117	 0.259858775867645 
2118	 0.260021514849237 
2119	 0.260200734038508 
2120	 0.260383741375987 
2121	 0.26054645015619 
2122	 0.260712910105213 
2123	 0.260860118399182 
2124	 0.260991451767577 
2125	 0.261101922996662 
2126	 0.261188063679452 
2127	 0.261280936496214 
2128	 0.261340709139726 
2129	 0.261421211941639 
2130	 0.261523119180873 
2131	 0.26163018775468 
2132	 0.261701649818173 
2133	 0.261759643686407 
2134	 0.261822416732295 
2135	 0.261866941745517 
2136	 0.261906164425493 
2137	 0.261962250753655 
2138	 0.261981653569989 
2139	 0.261978215957779 
2140	 0.261955641964541 
2141	 0.261907179530954 
2142	 0.261855568484316 
2143	 0.261776929802634 
2144	 0.261701421476645 
2145	 0.261623588918838 
2146	 0.261541195586807 
2147	 0.261449464583261 
2148	 0.261358248987071 
2149	 0.261267785272919 
2150	 0.261190503653919 
2151	 0.261073928649688 
2152	 0.260938585922939 
2153	 0.260804915608848 
2154	 0.26065222587989 
2155	 0.260488954183671 
2156	 0.260338089175296 
2157	 0.260153751225461 
2158	 0.259926272257181 
2159	 0.259710621748679 
2160	 0.259488111237335 
2161	 0.259258029966255 
2162	 0.259032260513428 
2163	 0.258789478018048 
2164	 0.258523382394487 
2165	 0.258259094938029 
2166	 0.258001219300807 
2167	 0.257725618542555 
2168	 0.257480191163871 
2169	 0.2572600549879 
2170	 0.257024288027359 
2171	 0.256809884698936 
2172	 0.256558356584122 
2173	 0.256283014724319 
2174	 0.256011715082096 
2175	 0.255723095853881 
2176	 0.255436382765668 
2177	 0.255144130217491 
2178	 0.254859701545735 
2179	 0.254590810958134 
2180	 0.254290071860967 
2181	 0.253987188336461 
2182	 0.253667779958257 
2183	 0.253284741861699 
2184	 0.252944614328369 
2185	 0.252617143401602 
2186	 0.252292211386723 
2187	 0.251995798521343 
2188	 0.251749995278169 
2189	 0.251450647772214 
2190	 0.251131867752563 
2191	 0.250842569696858 
2192	 0.25052026895856 
2193	 0.250253378073051 
2194	 0.25004551987776 
2195	 0.249819158878859 
2196	 0.249588974636402 
2197	 0.249393348561886 
2198	 0.249205793683482 
2199	 0.249045761349882 
2200	 0.248915789215816 
2201	 0.24881294515822 
2202	 0.248737008083859 
2203	 0.248673323797947 
2204	 0.248646495740148 
2205	 0.248662770044938 
2206	 0.248666180513604 
2207	 0.24867759057026 
2208	 0.248724761861538 
2209	 0.248781663107442 
2210	 0.248875913610486 
2211	 0.249025282194698 
2212	 0.249155210848332 
2213	 0.24930988159074 
2214	 0.249438731376745 
2215	 0.249565818010756 
2216	 0.249679637506405 
2217	 0.249759911751212 
2218	 0.249870055185234 
2219	 0.250000846141939 
2220	 0.250110340768123 
2221	 0.250241468783257 
2222	 0.250330136386481 
2223	 0.250421574959294 
2224	 0.250496536702334 
2225	 0.250578346331085 
2226	 0.250673718539031 
2227	 0.250741289956457 
2228	 0.250796795830679 
2229	 0.250840047296677 
2230	 0.250862531964576 
2231	 0.250886541199105 
2232	 0.250901527331008 
2233	 0.250909590691299 
2234	 0.250929705643933 
2235	 0.250909449980179 
2236	 0.250854266200962 
2237	 0.250810751166783 
2238	 0.250718117927515 
2239	 0.250677982727547 
2240	 0.250681776962367 
2241	 0.250666030347316 
2242	 0.25068362626911 
2243	 0.25066783988597 
2244	 0.250632086658743 
2245	 0.250583158800328 
2246	 0.25049698896703 
2247	 0.250412892936755 
2248	 0.250343906914833 
2249	 0.250263357089615 
2250	 0.250207287978753 
2251	 0.250182740473479 
2252	 0.250129586991284 
2253	 0.250070298022179 
2254	 0.250008877298949 
2255	 0.249935725487832 
2256	 0.249871940708895 
2257	 0.249800333219824 
2258	 0.24975518261368 
2259	 0.24972048021054 
2260	 0.249700897764577 
2261	 0.249712559462417 
2262	 0.249708297274471 
2263	 0.249700302608607 
2264	 0.249699412834522 
2265	 0.249684980531212 
2266	 0.249705621107623 
2267	 0.249754787086239 
2268	 0.249801697508823 
2269	 0.249877633204641 
2270	 0.249941432916056 
2271	 0.249987601643116 
2272	 0.250031816220769 
2273	 0.2500534611082 
2274	 0.250068727677435 
2275	 0.250057666795542 
2276	 0.250008762169361 
2277	 0.249997943813293 
2278	 0.249959914549914 
2279	 0.249982231252685 
2280	 0.25005830817118 
2281	 0.250114895969656 
2282	 0.250217579095385 
2283	 0.250267964351449 
2284	 0.250283318940993 
2285	 0.250316707602554 
2286	 0.250334365938484 
2287	 0.250349113098811 
2288	 0.250379323934946 
2289	 0.250387918955979 
2290	 0.25036822635101 
2291	 0.250364473390082 
2292	 0.250371971393149 
2293	 0.250364575122213 
2294	 0.250345076836356 
2295	 0.250335533816785 
2296	 0.250340209381373 
2297	 0.250299917695022 
2298	 0.250272594275519 
2299	 0.250243667439818 
2300	 0.250207481217515 
2301	 0.250195413059424 
2302	 0.250195488254297 
2303	 0.250237051321215 
2304	 0.250292787927161 
2305	 0.250303290051039 
2306	 0.250280716070642 
2307	 0.250238078233807 
2308	 0.250170336558378 
2309	 0.250035956903983 
2310	 0.24994919206357 
2311	 0.249866685141498 
2312	 0.249798677521778 
2313	 0.249732891997132 
2314	 0.24969525701464 
2315	 0.249711782144443 
2316	 0.249661248762942 
2317	 0.249617718741345 
2318	 0.24953370881511 
2319	 0.249359793247313 
2320	 0.249239242946284 
2321	 0.249104664447032 
2322	 0.249009287995731 
2323	 0.248981258621917 
2324	 0.248914414995474 
2325	 0.248862617609065 
2326	 0.248784279937044 
2327	 0.248671754450808 
2328	 0.248539061846532 
2329	 0.248448195039595 
2330	 0.248392664195177 
2331	 0.24840109660387 
2332	 0.248428435384008 
2333	 0.248403140459645 
2334	 0.248376202093641 
2335	 0.248335615174771 
2336	 0.248264214140939 
2337	 0.248230649204989 
2338	 0.248232298412497 
2339	 0.248178453583209 
2340	 0.248068708357391 
2341	 0.24799539047053 
2342	 0.247865171135094 
2343	 0.247690618624786 
2344	 0.247587152388494 
2345	 0.247440817840457 
2346	 0.247255715939133 
2347	 0.247084646475047 
2348	 0.246884724235797 
2349	 0.246750401086614 
2350	 0.246656177566912 
2351	 0.246534301161732 
2352	 0.246458562306295 
2353	 0.246338426651049 
2354	 0.246154626008017 
2355	 0.246016317219584 
2356	 0.245926071893375 
2357	 0.245788760624776 
2358	 0.245614243388875 
2359	 0.245468579042345 
2360	 0.245301833063188 
2361	 0.245178897856679 
2362	 0.245103924603808 
2363	 0.245013006328428 
2364	 0.244932449144018 
2365	 0.244836540648931 
2366	 0.244748991734475 
2367	 0.24465353032498 
2368	 0.244574968836465 
2369	 0.244429167627437 
2370	 0.244215656086986 
2371	 0.244040525377749 
2372	 0.243913180332656 
2373	 0.243738056917569 
2374	 0.243582353906108 
2375	 0.243454473341637 
2376	 0.243187837210015 
2377	 0.242863393289655 
2378	 0.242669369923432 
2379	 0.242459656347384 
2380	 0.242291241956326 
2381	 0.24222406354045 
2382	 0.242068281108948 
2383	 0.241838970178656 
2384	 0.241530252639297 
2385	 0.241246975287566 
2386	 0.241007929889136 
2387	 0.240716825431614 
2388	 0.240515892832755 
2389	 0.240345328754913 
2390	 0.240152450030642 
2391	 0.23997465811178 
2392	 0.239776831269263 
2393	 0.239540957094522 
2394	 0.239207037100971 
2395	 0.238915721383945 
2396	 0.238707903904853 
2397	 0.238430195003306 
2398	 0.238168580167893 
2399	 0.238017640573971 
2400	 0.237797320943927 
2401	 0.237479147524374 
2402	 0.237169559278928 
2403	 0.236831659158008 
2404	 0.236513551045608 
2405	 0.236284913310235 
2406	 0.236127614164814 
2407	 0.235950776588102 
2408	 0.235640957617094 
2409	 0.235268901655724 
2410	 0.234932974572744 
2411	 0.234603936848872 
2412	 0.234344544600399 
2413	 0.23414358854296 
2414	 0.233843551316379 
2415	 0.233510549271345 
2416	 0.233184299074543 
2417	 0.232788003019669 
2418	 0.232454066826457 
2419	 0.23218550708226 
2420	 0.231865127575145 
2421	 0.231542928515743 
2422	 0.231249345431827 
2423	 0.230933405169725 
2424	 0.230588214198767 
2425	 0.230288527426518 
2426	 0.229922444124628 
2427	 0.229496749777836 
2428	 0.229092324994378 
2429	 0.228637107147211 
2430	 0.228215226436669 
2431	 0.227804533030234 
2432	 0.227454862371328 
2433	 0.227158534294268 
2434	 0.226822737394831 
2435	 0.226470637559359 
2436	 0.226140820881228 
2437	 0.225826254398391 
2438	 0.225547481061449 
2439	 0.22533957259731 
2440	 0.225027499445359 
2441	 0.224715829841613 
2442	 0.224366399357186 
2443	 0.223904876208049 
2444	 0.223534781350823 
2445	 0.223100535488076 
2446	 0.222746290012261 
2447	 0.222568214501157 
2448	 0.222263394881155 
2449	 0.221939152252451 
2450	 0.221615908107817 
2451	 0.221138884500268 
2452	 0.220818335163467 
2453	 0.220683879538903 
2454	 0.220463139230457 
2455	 0.22028134827694 
2456	 0.22000331290445 
2457	 0.219601210046867 
2458	 0.219277585505654 
2459	 0.2188930655617 
2460	 0.218583408129609 
2461	 0.218454875066654 
2462	 0.218151442809401 
2463	 0.217777707069598 
2464	 0.21743603714577 
2465	 0.216926415538622 
2466	 0.216629146933972 
2467	 0.216511697019444 
2468	 0.216264094330967 
2469	 0.216103710738039 
2470	 0.215687801172737 
2471	 0.215234863224508 
2472	 0.214733283594407 
2473	 0.214410603765906 
2474	 0.214159245839964 
2475	 0.213987372510287 
2476	 0.213973764644977 
2477	 0.213816620798964 
2478	 0.213567874028227 
2479	 0.21326949822265 
2480	 0.212942415752091 
2481	 0.212595087717155 
2482	 0.212275845413647 
2483	 0.211994960544256 
2484	 0.21162936193476 
2485	 0.21143227628559 
2486	 0.211203884150933 
2487	 0.210943598087334 
2488	 0.210858190604503 
2489	 0.210639578067446 
2490	 0.210472858604524 
2491	 0.21019358997988 
2492	 0.20985393009562 
2493	 0.209648944573424 
2494	 0.209263898163498 
2495	 0.209015866156435 
2496	 0.208980542201717 
2497	 0.208861120233163 
2498	 0.208659404820216 
2499	 0.208402935685777 
2500	 0.207976988208346 
