Wavelength	mm1600006.asd
350	 6.14135164813063E-02 
351	 7.53893212406045E-02 
352	 7.40887348142783E-02 
353	 5.34790242938575E-02 
354	 6.52266026117754E-02 
355	 6.66560289283244E-02 
356	 6.32978138126226E-02 
357	 6.69571354817664E-02 
358	 6.32061800059147E-02 
359	 5.90529692754634E-02 
360	 6.00665987755295E-02 
361	 6.83479088368122E-02 
362	 6.47100070592887E-02 
363	 6.01006458321628E-02 
364	 6.08302531862507E-02 
365	 6.00322263313702E-02 
366	 6.16070318124413E-02 
367	 6.44576572307734E-02 
368	 6.65979236604892E-02 
369	 6.82891461244904E-02 
370	 6.74277266059973E-02 
371	 6.61228090827467E-02 
372	 6.85327182811714E-02 
373	 6.72802306189957E-02 
374	 6.59684674468986E-02 
375	 6.72008331782254E-02 
376	 0.069797288122622 
377	 6.74646046181326E-02 
378	 6.52330004783649E-02 
379	 6.87943721209909E-02 
380	 7.10828303886493E-02 
381	 7.16403919280807E-02 
382	 7.24417512456449E-02 
383	 7.64586345494442E-02 
384	 7.73423032960744E-02 
385	 7.56718803163187E-02 
386	 7.37670787265999E-02 
387	 7.51751457778183E-02 
388	 7.67490252550059E-02 
389	 7.83816636595409E-02 
390	 0.080258486338978 
391	 7.91405965194618E-02 
392	 7.90949940344662E-02 
393	 8.09879944508156E-02 
394	 0.082688736700591 
395	 8.31706829672845E-02 
396	 8.46391050695484E-02 
397	 8.76340068957835E-02 
398	 8.79572890529289E-02 
399	 8.85091639402469E-02 
400	 8.93002006665486E-02 
401	 8.95272189063517E-02 
402	 8.98864750224532E-02 
403	 9.06824018213529E-02 
404	 9.16615434047674E-02 
405	 9.21125659316254E-02 
406	 9.31087204747334E-02 
407	 9.45098000958861E-02 
408	 0.095606221603707 
409	 9.46108697721617E-02 
410	 9.50435834968796E-02 
411	 9.63054957329319E-02 
412	 9.62277335750496E-02 
413	 9.66665903759047E-02 
414	 9.72114681867342E-02 
415	 9.75760641205237E-02 
416	 9.79005583707677E-02 
417	 9.77595459133286E-02 
418	 9.80212736777117E-02 
419	 9.90494161341429E-02 
420	 9.84387986401717E-02 
421	 9.81244988804473E-02 
422	 9.85624345212725E-02 
423	 9.91166642901183E-02 
424	 9.88377685961972E-02 
425	 9.84317460727894E-02 
426	 9.84887458785753E-02 
427	 9.91214266873322E-02 
428	 9.87611590124373E-02 
429	 9.80541026962337E-02 
430	 9.80848749300389E-02 
431	 9.81250551165432E-02 
432	 9.81754111104053E-02 
433	 9.82956688975797E-02 
434	 9.85514468836757E-02 
435	 9.83552113347459E-02 
436	 9.82023562148638E-02 
437	 9.84906655620982E-02 
438	 9.88097065861689E-02 
439	 9.92554944060651E-02 
440	 9.97531376703449E-02 
441	 0.100169518979696 
442	 0.100616969198852 
443	 0.101016326579791 
444	 0.101343693683563 
445	 0.101676915262534 
446	 0.102098148702693 
447	 0.102484734257595 
448	 0.102784306787507 
449	 0.103536395202777 
450	 0.104173905704537 
451	 0.104494240077098 
452	 0.104659923698482 
453	 0.105051656310882 
454	 0.10545476882985 
455	 0.105719346340443 
456	 0.10615132981477 
457	 0.106447798043128 
458	 0.106656960497269 
459	 0.106970056282159 
460	 0.107342851829038 
461	 0.107757428206653 
462	 0.108138469509979 
463	 0.108332244472988 
464	 0.108397925058499 
465	 0.108410759673084 
466	 0.108513345931834 
467	 0.109133402570103 
468	 0.109434992863223 
469	 0.109345756401486 
470	 0.109437100982164 
471	 0.109867774455961 
472	 0.110217067271202 
473	 0.110225195881439 
474	 0.110229373897393 
475	 0.110292549033629 
476	 0.110446386957865 
477	 0.110674995552968 
478	 0.110842739158966 
479	 0.111089637052981 
480	 0.111377184330678 
481	 0.111385281797263 
482	 0.111592007862791 
483	 0.111736098439142 
484	 0.111576010726686 
485	 0.111810038029098 
486	 0.111995329897659 
487	 0.112131739526267 
488	 0.112567278358025 
489	 0.112717448885589 
490	 0.112672294637777 
491	 0.112658039148442 
492	 0.112942924241381 
493	 0.113140023511694 
494	 0.113256146407826 
495	 0.113460566282911 
496	 0.11361721682855 
497	 0.113739165932612 
498	 0.11386195830177 
499	 0.11403713661945 
500	 0.114122577328524 
501	 0.114228091213371 
502	 0.114457497534907 
503	 0.114547100648912 
504	 0.114621843711964 
505	 0.114752380187659 
506	 0.114943909964654 
507	 0.115164742407525 
508	 0.115381162217801 
509	 0.115548584326115 
510	 0.115580194332736 
511	 0.115591968696997 
512	 0.115702925881998 
513	 0.115981017037922 
514	 0.116056844557173 
515	 0.116061786262239 
516	 0.116136520118699 
517	 0.116340940615932 
518	 0.116557015664421 
519	 0.116705965383594 
520	 0.116761561624643 
521	 0.116866624255582 
522	 0.117020475288115 
523	 0.117205853981432 
524	 0.117397645172266 
525	 0.117538403370943 
526	 0.117589501788652 
527	 0.117587282409265 
528	 0.117775186247979 
529	 0.117979580863321 
530	 0.118149055331036 
531	 0.118313060533824 
532	 0.118423032856031 
533	 0.118541267513289 
534	 0.118718100637621 
535	 0.118967800481355 
536	 0.119112572164028 
537	 0.119195061931376 
538	 0.119333181661557 
539	 0.119479043530878 
540	 0.119562819145283 
541	 0.11962925937847 
542	 0.119877946657661 
543	 0.120018118521231 
544	 0.120156748772782 
545	 0.120424907057525 
546	 0.120597153386248 
547	 0.12072059750796 
548	 0.120871376217875 
549	 0.121131198007552 
550	 0.121309768647587 
551	 0.121483062324223 
552	 0.121710999515395 
553	 0.121874000230356 
554	 0.122059012506953 
555	 0.122288259979237 
556	 0.122549586818189 
557	 0.12284772825538 
558	 0.123148328685652 
559	 0.12344983870501 
560	 0.123822417116616 
561	 0.12411668089145 
562	 0.124367770173011 
563	 0.124665292552279 
564	 0.125007511871789 
565	 0.125309861064818 
566	 0.125564688630195 
567	 0.125854446517633 
568	 0.126138310122323 
569	 0.126503724576569 
570	 0.127013592151681 
571	 0.127573243797665 
572	 0.12809774361226 
573	 0.128556067858952 
574	 0.128963185247505 
575	 0.129331739703709 
576	 0.129864544134404 
577	 0.130584626911002 
578	 0.131061851852429 
579	 0.13153824893254 
580	 0.132032102794851 
581	 0.132491807176716 
582	 0.133022326513925 
583	 0.133517018036856 
584	 0.133977089263141 
585	 0.13458179773987 
586	 0.135295570531182 
587	 0.136016020127904 
588	 0.136666361470539 
589	 0.137393130693775 
590	 0.13812377453552 
591	 0.138823652904716 
592	 0.139500125157226 
593	 0.140093771407588 
594	 0.140651014826829 
595	 0.141204768781195 
596	 0.141685650843125 
597	 0.14220565170434 
598	 0.142735372081906 
599	 0.143194014939889 
600	 0.143772414659524 
601	 0.144390098001075 
602	 0.144975293849109 
603	 0.145530535425813 
604	 0.146092367127636 
605	 0.146683790617411 
606	 0.147306583926105 
607	 0.147887094849343 
608	 0.14845086938415 
609	 0.149005278085042 
610	 0.149530844531669 
611	 0.149994152741888 
612	 0.150368661618979 
613	 0.150665672069139 
614	 0.151002448745826 
615	 0.15136843689536 
616	 0.1517308647573 
617	 0.152044144993376 
618	 0.152341634896081 
619	 0.152644814785581 
620	 0.152959237825151 
621	 0.153260173612122 
622	 0.153549748252118 
623	 0.153831095241266 
624	 0.154104428997015 
625	 0.154335290393429 
626	 0.154569032782921 
627	 0.154828418365586 
628	 0.155098130706769 
629	 0.155358993476287 
630	 0.155587270591541 
631	 0.155776746498093 
632	 0.155975337646996 
633	 0.156221990538707 
634	 0.156479642064625 
635	 0.156658643117286 
636	 0.156866250465295 
637	 0.157089168450489 
638	 0.157303040352967 
639	 0.157505816574898 
640	 0.157747334858259 
641	 0.157995750724368 
642	 0.15819283626288 
643	 0.15840666380895 
644	 0.158626277551039 
645	 0.158841523795597 
646	 0.159054970118623 
647	 0.159226383363241 
648	 0.159424927507855 
649	 0.159709853783761 
650	 0.15996140807897 
651	 0.160206347761246 
652	 0.160448182926828 
653	 0.160670061282994 
654	 0.160910733889526 
655	 0.161127517017954 
656	 0.16132335683818 
657	 0.16166319084381 
658	 0.161949849780046 
659	 0.162179572111795 
660	 0.162433788673278 
661	 0.162670205008539 
662	 0.162931402589907 
663	 0.163214776172474 
664	 0.163441051219151 
665	 0.163707958267391 
666	 0.163988535841529 
667	 0.164244719351166 
668	 0.164547982648454 
669	 0.164871712960032 
670	 0.165199951182599 
671	 0.165526324040501 
672	 0.165825206490758 
673	 0.166124139836295 
674	 0.166452275786475 
675	 0.166827835523955 
676	 0.16716654268727 
677	 0.167469375918173 
678	 0.167777111753651 
679	 0.168098250252392 
680	 0.168438676417186 
681	 0.168810031497764 
682	 0.169233430879938 
683	 0.16959167629239 
684	 0.169921530154837 
685	 0.170283746296566 
686	 0.170663841151895 
687	 0.171043461038638 
688	 0.171418297008463 
689	 0.171793917828312 
690	 0.17216346023199 
691	 0.172546332094277 
692	 0.172947516082706 
693	 0.173336644274863 
694	 0.173736236516245 
695	 0.174138392730221 
696	 0.174527231000021 
697	 0.174900239701484 
698	 0.175296413439181 
699	 0.175719979952332 
700	 0.176136918766941 
701	 0.176579355017472 
702	 0.177021309211716 
703	 0.177432111481251 
704	 0.17779683968387 
705	 0.178173690678275 
706	 0.178592582705315 
707	 0.179049932193441 
708	 0.179426848472899 
709	 0.179808168239364 
710	 0.180226057090843 
711	 0.18060547440864 
712	 0.18100415636627 
713	 0.181398124328674 
714	 0.181766805075927 
715	 0.182193859976116 
716	 0.182574625294237 
717	 0.18291072256395 
718	 0.183280699792038 
719	 0.183656345514158 
720	 0.184038818755282 
721	 0.184409866696993 
722	 0.18470419292462 
723	 0.185032264308739 
724	 0.185361302321768 
725	 0.185636587825429 
726	 0.185964064704427 
727	 0.186257903398351 
728	 0.186502819979406 
729	 0.186757328133478 
730	 0.187044590795473 
731	 0.1873139562741 
732	 0.187534074111344 
733	 0.187750167891297 
734	 0.187985253186295 
735	 0.188200541474767 
736	 0.188348786681771 
737	 0.188509815796189 
738	 0.188682631689724 
739	 0.188847624711349 
740	 0.188973485597157 
741	 0.189095908684669 
742	 0.189212708316847 
743	 0.189311468013039 
744	 0.189374058140059 
745	 0.189420611774201 
746	 0.189471651515867 
747	 0.189537495532718 
748	 0.189565508469667 
749	 0.18954950687289 
750	 0.189524538234038 
751	 0.189565757603483 
752	 0.189532007169205 
753	 0.18945400052191 
754	 0.189392779776721 
755	 0.189375923532296 
756	 0.189330045000688 
757	 0.189243228359064 
758	 0.189140502379244 
759	 0.189042764816766 
760	 0.188974050433338 
761	 0.188912778371616 
762	 0.188784002802933 
763	 0.188635378056702 
764	 0.188490349402117 
765	 0.188359062962136 
766	 0.188231414253253 
767	 0.188082885976613 
768	 0.187924155337611 
769	 0.187781559076403 
770	 0.187651616475423 
771	 0.187491697114637 
772	 0.187294676704286 
773	 0.187099702629381 
774	 0.186923728454358 
775	 0.18674745357492 
776	 0.186556847553754 
777	 0.186378686055099 
778	 0.186204122310507 
779	 0.186017092253244 
780	 0.18580209705264 
781	 0.185564398368419 
782	 0.185369683146246 
783	 0.185214878333962 
784	 0.185023632676384 
785	 0.184839912218372 
786	 0.184637572968211 
787	 0.184404430759664 
788	 0.184183860851211 
789	 0.184026206499237 
790	 0.183878390990127 
791	 0.183672174205369 
792	 0.183501491916979 
793	 0.183296626000265 
794	 0.183077694450303 
795	 0.182935284436267 
796	 0.182730107363926 
797	 0.182527552588839 
798	 0.182371959115393 
799	 0.182211193016371 
800	 0.18204176179888 
801	 0.181849787648973 
802	 0.181641417544031 
803	 0.181500256278589 
804	 0.181368306026587 
805	 0.181218032930972 
806	 0.181048709639784 
807	 0.18088239329297 
808	 0.180750307560898 
809	 0.180621611405362 
810	 0.180390648728941 
811	 0.180233095882476 
812	 0.180081547260605 
813	 0.179887473526278 
814	 0.17981290480758 
815	 0.179732144469691 
816	 0.179609672577634 
817	 0.179453172027393 
818	 0.179273659235776 
819	 0.17915091884164 
820	 0.179060975750406 
821	 0.178901261780703 
822	 0.178778056488495 
823	 0.178668975399134 
824	 0.178563411239513 
825	 0.178500708471018 
826	 0.178458688618173 
827	 0.178395820527026 
828	 0.178282490916876 
829	 0.178138452634291 
830	 0.177996550043481 
831	 0.17788055269525 
832	 0.177807948015925 
833	 0.177812701649369 
834	 0.177763077416989 
835	 0.17766510679641 
836	 0.177650610784127 
837	 0.177568918784559 
838	 0.177490371839022 
839	 0.177454849044105 
840	 0.177390381628677 
841	 0.177310076744973 
842	 0.177247789889165 
843	 0.177223360100089 
844	 0.177189571524235 
845	 0.177194881101771 
846	 0.177195204042252 
847	 0.177132635270216 
848	 0.177128712396737 
849	 0.177133564446314 
850	 0.177112231872969 
851	 0.177059288556135 
852	 0.17703162178184 
853	 0.177032268181756 
854	 0.177055134685818 
855	 0.177093679517303 
856	 0.177118262590261 
857	 0.177127854627191 
858	 0.177139322806506 
859	 0.177195655823576 
860	 0.17724551247925 
861	 0.177261643100154 
862	 0.177239511068848 
863	 0.177213833295611 
864	 0.177264916014533 
865	 0.177349042414624 
866	 0.177362972380264 
867	 0.177379483845627 
868	 0.177427267420033 
869	 0.177499252396772 
870	 0.17755925336127 
871	 0.177641513638665 
872	 0.177738360130162 
873	 0.177837296803666 
874	 0.177929796243152 
875	 0.178028933089184 
876	 0.178089787793182 
877	 0.17810652543914 
878	 0.178207360716311 
879	 0.178337686316062 
880	 0.178458565674564 
881	 0.178555929835351 
882	 0.17869992560757 
883	 0.178841530375054 
884	 0.178969394396013 
885	 0.179095189738259 
886	 0.179219212820429 
887	 0.179349631621281 
888	 0.17947135355605 
889	 0.179559924557351 
890	 0.179692576482188 
891	 0.179869724295422 
892	 0.180069994733991 
893	 0.180260339022081 
894	 0.180430633638016 
895	 0.180576380509645 
896	 0.180720667945683 
897	 0.180928550833211 
898	 0.181131369534283 
899	 0.181293103031194 
900	 0.181421339201472 
901	 0.181611272469069 
902	 0.181776658398943 
903	 0.181972315363377 
904	 0.182244970619036 
905	 0.182435000949757 
906	 0.182596090215067 
907	 0.182794854065468 
908	 0.183078694712474 
909	 0.183390293008744 
910	 0.183618387615172 
911	 0.183772576076256 
912	 0.183953008403058 
913	 0.184248533226672 
914	 0.184532552866482 
915	 0.184769430804865 
916	 0.185021303804929 
917	 0.185267591315591 
918	 0.185558630611353 
919	 0.185872747019177 
920	 0.186108998922405 
921	 0.186363910667456 
922	 0.186643981984936 
923	 0.186960570571954 
924	 0.187348299765834 
925	 0.187653350388183 
926	 0.187924301159715 
927	 0.188206265736202 
928	 0.188449846061471 
929	 0.188821187145976 
930	 0.189257705332118 
931	 0.189648886881891 
932	 0.189928986019335 
933	 0.190194019401541 
934	 0.190558550371547 
935	 0.191038899227652 
936	 0.191383822397432 
937	 0.191650627152357 
938	 0.191907204291808 
939	 0.192232441117866 
940	 0.192712470578084 
941	 0.193136837439539 
942	 0.193532862058023 
943	 0.193981930513097 
944	 0.194360400138572 
945	 0.194681960633038 
946	 0.195037853873389 
947	 0.195501451660684 
948	 0.195927591818569 
949	 0.196294347734653 
950	 0.196623609374741 
951	 0.196978584438633 
952	 0.197492870513255 
953	 0.197934743448883 
954	 0.198304765635028 
955	 0.198747322165447 
956	 0.199328376551574 
957	 0.199887115417218 
958	 0.200344762264363 
959	 0.200711139350766 
960	 0.201072412855276 
961	 0.201530438838504 
962	 0.202056802083144 
963	 0.202533547817994 
964	 0.202873416369447 
965	 0.203325793803523 
966	 0.203919344159667 
967	 0.204500632902261 
968	 0.204937640629943 
969	 0.205360348683343 
970	 0.205828904398798 
971	 0.206334574896324 
972	 0.206892333306327 
973	 0.207399710149575 
974	 0.207892509879825 
975	 0.20847305960248 
976	 0.209031353752309 
977	 0.209495506232951 
978	 0.209930429245186 
979	 0.210458200065084 
980	 0.211009677604925 
981	 0.21141978330081 
982	 0.211840036138994 
983	 0.2125092356627 
984	 0.213024796193813 
985	 0.213535432611534 
986	 0.214032536294084 
987	 0.214446470327543 
988	 0.214947417644219 
989	 0.215447765402559 
990	 0.215986030719588 
991	 0.216593315647583 
992	 0.216930321394007 
993	 0.21747387271083 
994	 0.2181363066537 
995	 0.218649211108098 
996	 0.219232569381302 
997	 0.219806708628459 
998	 0.220288183023921 
999	 0.220685998359631 
1000	 0.221298067429913 
1001	 0.21667063028538 
1002	 0.217090045850215 
1003	 0.217438949648335 
1004	 0.21785714858843 
1005	 0.218298515803462 
1006	 0.218737545502312 
1007	 0.219208215873652 
1008	 0.219696505551993 
1009	 0.220137510497959 
1010	 0.22054804009533 
1011	 0.220979585930215 
1012	 0.22140533281284 
1013	 0.221782972846826 
1014	 0.222152051565668 
1015	 0.222503558044941 
1016	 0.222865377342708 
1017	 0.223231778444123 
1018	 0.223628555292528 
1019	 0.223956276587643 
1020	 0.224305260773593 
1021	 0.224698211756321 
1022	 0.225086272762597 
1023	 0.225501231946267 
1024	 0.225848453173627 
1025	 0.226153572092761 
1026	 0.226524596106298 
1027	 0.226928842002351 
1028	 0.227283817824521 
1029	 0.227577460311164 
1030	 0.227882335304856 
1031	 0.228186670420442 
1032	 0.228443565762981 
1033	 0.228724919913479 
1034	 0.22910475993674 
1035	 0.229408472519482 
1036	 0.229627520535786 
1037	 0.22996310011824 
1038	 0.230321654106075 
1039	 0.230658844339992 
1040	 0.231022116815978 
1041	 0.231356663677653 
1042	 0.23171782484155 
1043	 0.2320564870477 
1044	 0.232342380858129 
1045	 0.232605272381341 
1046	 0.232883730987669 
1047	 0.233122029626575 
1048	 0.233384206834706 
1049	 0.233705456756914 
1050	 0.23401567435364 
1051	 0.234303884238142 
1052	 0.234615825043389 
1053	 0.234920409111623 
1054	 0.235199434161632 
1055	 0.235523605919431 
1056	 0.235811465609409 
1057	 0.236095479906869 
1058	 0.236404983556761 
1059	 0.236696393062744 
1060	 0.236970278231562 
1061	 0.237200253728132 
1062	 0.237447866164554 
1063	 0.237778293613664 
1064	 0.238139981986041 
1065	 0.238462986218993 
1066	 0.238748332285003 
1067	 0.238980186091762 
1068	 0.239174708802833 
1069	 0.239395989507471 
1070	 0.239652147558613 
1071	 0.239984448023824 
1072	 0.24025693152415 
1073	 0.240518423265611 
1074	 0.240771908644906 
1075	 0.241011851936593 
1076	 0.241227783682136 
1077	 0.241460984188603 
1078	 0.241678566207465 
1079	 0.241867725291124 
1080	 0.242092614259691 
1081	 0.242315638809511 
1082	 0.242534583810152 
1083	 0.242778273683259 
1084	 0.243062278072191 
1085	 0.243301266758365 
1086	 0.243533392915289 
1087	 0.243753833539137 
1088	 0.243937226907314 
1089	 0.244161807856189 
1090	 0.244408462797534 
1091	 0.244665543234972 
1092	 0.244919245515406 
1093	 0.245102860104257 
1094	 0.245252236817078 
1095	 0.245412704125816 
1096	 0.245588417738971 
1097	 0.2458077334326 
1098	 0.246009945740776 
1099	 0.246227830468195 
1100	 0.246416379341686 
1101	 0.246583360239283 
1102	 0.24676300937596 
1103	 0.246928290841921 
1104	 0.247117975440397 
1105	 0.247322261876305 
1106	 0.247511702206858 
1107	 0.24772279015262 
1108	 0.247945832644395 
1109	 0.248153200879931 
1110	 0.248372408043774 
1111	 0.248568452726381 
1112	 0.248753080410553 
1113	 0.248925307029452 
1114	 0.249078856203264 
1115	 0.249227445803462 
1116	 0.249340394161527 
1117	 0.24949682462378 
1118	 0.249653750183439 
1119	 0.249858844730547 
1120	 0.250070553932068 
1121	 0.250234360450712 
1122	 0.250386695205406 
1123	 0.250551361653609 
1124	 0.25071710046428 
1125	 0.250882572536216 
1126	 0.251064998895636 
1127	 0.251253203774074 
1128	 0.251437550181233 
1129	 0.251647444389474 
1130	 0.251826022199117 
1131	 0.251986472925396 
1132	 0.252153145947185 
1133	 0.252301506518817 
1134	 0.252458509888297 
1135	 0.252621605759003 
1136	 0.252782807148514 
1137	 0.252950420971887 
1138	 0.253127788039921 
1139	 0.253283331432822 
1140	 0.253435937589648 
1141	 0.253580794272112 
1142	 0.253705823149198 
1143	 0.253841110340914 
1144	 0.253981007206935 
1145	 0.254116966575676 
1146	 0.254244489304205 
1147	 0.254377591981254 
1148	 0.254527998739031 
1149	 0.254652920112715 
1150	 0.254745918131604 
1151	 0.254882148827984 
1152	 0.254994835112159 
1153	 0.255109900212934 
1154	 0.255232069792928 
1155	 0.255361458507126 
1156	 0.255499745022611 
1157	 0.255649210369898 
1158	 0.255785394274212 
1159	 0.255928048472063 
1160	 0.256068280469501 
1161	 0.256201310661689 
1162	 0.256325955419177 
1163	 0.256461813319666 
1164	 0.256581829426315 
1165	 0.256657879137751 
1166	 0.256769253707915 
1167	 0.256925518048456 
1168	 0.257071024244368 
1169	 0.257210018522098 
1170	 0.257379281940369 
1171	 0.257508249346265 
1172	 0.257593326418034 
1173	 0.25771079020601 
1174	 0.257842872112008 
1175	 0.257959358005447 
1176	 0.258069180534237 
1177	 0.258188901964161 
1178	 0.258308035941947 
1179	 0.258423570905193 
1180	 0.258546706462664 
1181	 0.258665108208302 
1182	 0.258773663888988 
1183	 0.258885682092953 
1184	 0.258993897837873 
1185	 0.259103305563935 
1186	 0.259213775529741 
1187	 0.259324924685961 
1188	 0.259424648655321 
1189	 0.259522870701304 
1190	 0.25962040819594 
1191	 0.259708232092815 
1192	 0.259797819308187 
1193	 0.259881191014337 
1194	 0.259978817453777 
1195	 0.260086982747428 
1196	 0.260183832588406 
1197	 0.260285039161134 
1198	 0.260388500386594 
1199	 0.260489204888122 
1200	 0.260571326432195 
1201	 0.260680126492608 
1202	 0.260815024008889 
1203	 0.260919303875936 
1204	 0.261013490933173 
1205	 0.261117978161043 
1206	 0.261214013466487 
1207	 0.261312865843203 
1208	 0.261431312984426 
1209	 0.261529027978262 
1210	 0.261599640125879 
1211	 0.261690687886748 
1212	 0.261791420628168 
1213	 0.261883552124119 
1214	 0.261980373863324 
1215	 0.262075980710959 
1216	 0.262168408761362 
1217	 0.262250112839904 
1218	 0.26233963369277 
1219	 0.262436656409971 
1220	 0.262525072251155 
1221	 0.26261346716788 
1222	 0.262691667899456 
1223	 0.262756959332395 
1224	 0.26283461496202 
1225	 0.262912880669099 
1226	 0.262988123523607 
1227	 0.263070390578103 
1228	 0.263148759260742 
1229	 0.263218411986477 
1230	 0.263290948120572 
1231	 0.263367757427345 
1232	 0.263443143168876 
1233	 0.263517612552157 
1234	 0.263593157472015 
1235	 0.263657601021869 
1236	 0.263712448325962 
1237	 0.263781765780102 
1238	 0.263852658287718 
1239	 0.263918100760025 
1240	 0.263993919566076 
1241	 0.264059867594304 
1242	 0.264110061427789 
1243	 0.264167720643244 
1244	 0.264222760084129 
1245	 0.264289709324188 
1246	 0.264364745230437 
1247	 0.264436405340317 
1248	 0.264515285107534 
1249	 0.26459581172708 
1250	 0.264671689487559 
1251	 0.26474832165654 
1252	 0.264822966126239 
1253	 0.26490619853853 
1254	 0.264972703819426 
1255	 0.265032333189111 
1256	 0.265083002641733 
1257	 0.26511874921047 
1258	 0.265161984206407 
1259	 0.265195280220825 
1260	 0.265238980331791 
1261	 0.265285832881698 
1262	 0.265341134169968 
1263	 0.265406715211847 
1264	 0.265470250454954 
1265	 0.265553221081165 
1266	 0.265614609087719 
1267	 0.265666152941195 
1268	 0.265708491204108 
1269	 0.265745797299071 
1270	 0.265751387780623 
1271	 0.265812091720577 
1272	 0.265896362688222 
1273	 0.265969999316939 
1274	 0.266073310555138 
1275	 0.266156376988382 
1276	 0.266208658376406 
1277	 0.266294133854152 
1278	 0.26639902922054 
1279	 0.266500895308327 
1280	 0.266614795272516 
1281	 0.266727165310222 
1282	 0.266852271671813 
1283	 0.266959710197289 
1284	 0.267062542194527 
1285	 0.267153491009275 
1286	 0.267258574367181 
1287	 0.267345895167518 
1288	 0.267432284788129 
1289	 0.267524121720947 
1290	 0.267612032334784 
1291	 0.267680983683561 
1292	 0.267765635708082 
1293	 0.267880227680431 
1294	 0.267951318522254 
1295	 0.268003818978208 
1296	 0.268050941654586 
1297	 0.268058800605366 
1298	 0.268098897534564 
1299	 0.268161345605825 
1300	 0.268204985727597 
1301	 0.268248235472601 
1302	 0.268289049255881 
1303	 0.268320580108658 
1304	 0.268345432621652 
1305	 0.268379672395231 
1306	 0.268421431597547 
1307	 0.268424789927137 
1308	 0.26842581590828 
1309	 0.26842541130628 
1310	 0.268406154197554 
1311	 0.268399554638364 
1312	 0.26840804932955 
1313	 0.268398481991519 
1314	 0.268375809208971 
1315	 0.268365351551421 
1316	 0.268352149442794 
1317	 0.268338909534092 
1318	 0.268344806537626 
1319	 0.268326487025864 
1320	 0.268282483884165 
1321	 0.268256557559365 
1322	 0.2682240333098 
1323	 0.268200964946054 
1324	 0.268197744072047 
1325	 0.268186118669934 
1326	 0.268188377659146 
1327	 0.268172611047482 
1328	 0.268128663984373 
1329	 0.268108573825958 
1330	 0.268083606021355 
1331	 0.268049868372344 
1332	 0.268014518324292 
1333	 0.267994514126904 
1334	 0.267953338948293 
1335	 0.267881662137653 
1336	 0.267835746438353 
1337	 0.267798973771982 
1338	 0.26775769187229 
1339	 0.267728329061783 
1340	 0.2676874903445 
1341	 0.267634073600666 
1342	 0.267591725566376 
1343	 0.267546279759837 
1344	 0.26750840847386 
1345	 0.267493948637443 
1346	 0.267455211127446 
1347	 0.2674000112969 
1348	 0.267364335319131 
1349	 0.267328278205683 
1350	 0.267279105170288 
1351	 0.26723874846653 
1352	 0.267215480336727 
1353	 0.267170454538373 
1354	 0.267113981104049 
1355	 0.267061744624145 
1356	 0.267003853586022 
1357	 0.266944157636611 
1358	 0.266878335305299 
1359	 0.266821401784047 
1360	 0.266756563689918 
1361	 0.266710997148298 
1362	 0.266684433224035 
1363	 0.266653786674087 
1364	 0.266637364875305 
1365	 0.266611203493771 
1366	 0.266577830192965 
1367	 0.266543034681819 
1368	 0.266532352627604 
1369	 0.266506941090352 
1370	 0.266465963918499 
1371	 0.266424665510947 
1372	 0.266340730325401 
1373	 0.266239536310767 
1374	 0.266142443448541 
1375	 0.266044944223285 
1376	 0.265923909051862 
1377	 0.265796620786662 
1378	 0.265648356199349 
1379	 0.265476467343168 
1380	 0.265298710373144 
1381	 0.265104310547031 
1382	 0.264909618020249 
1383	 0.264711307456289 
1384	 0.264498188005928 
1385	 0.264309789683345 
1386	 0.264054177742504 
1387	 0.263752658303348 
1388	 0.263441182374311 
1389	 0.263108395539645 
1390	 0.262720295996496 
1391	 0.262315586859688 
1392	 0.261909775547232 
1393	 0.261452395180012 
1394	 0.260959607263608 
1395	 0.26044135702713 
1396	 0.259913595128108 
1397	 0.259384151074003 
1398	 0.258824404683195 
1399	 0.258290738608496 
1400	 0.257767143234456 
1401	 0.257245422153153 
1402	 0.256715096894882 
1403	 0.256218686342969 
1404	 0.255731448131433 
1405	 0.255270249943601 
1406	 0.254837062810786 
1407	 0.25441719365188 
1408	 0.254008461254193 
1409	 0.253632199656918 
1410	 0.253247418537737 
1411	 0.252940010777777 
1412	 0.252676857857148 
1413	 0.252458128542654 
1414	 0.25232024807268 
1415	 0.252225462003159 
1416	 0.252167160437158 
1417	 0.252144333605788 
1418	 0.252113204224647 
1419	 0.252106934673762 
1420	 0.252127718229793 
1421	 0.252139199123868 
1422	 0.252171942980329 
1423	 0.252204661906119 
1424	 0.252202007577944 
1425	 0.252172619679071 
1426	 0.25214703865555 
1427	 0.252091997111517 
1428	 0.252061753512888 
1429	 0.252041688104859 
1430	 0.252015215564471 
1431	 0.251997687595178 
1432	 0.251968829137319 
1433	 0.25192320213615 
1434	 0.251894905028917 
1435	 0.251860908301053 
1436	 0.25185091292534 
1437	 0.251863293001434 
1438	 0.251872725438124 
1439	 0.251895455422775 
1440	 0.251919032399853 
1441	 0.251925783348625 
1442	 0.251941040792415 
1443	 0.251937929497499 
1444	 0.251927097646739 
1445	 0.251949487689157 
1446	 0.251972122254888 
1447	 0.252010450342861 
1448	 0.252053587445536 
1449	 0.252058075738864 
1450	 0.252061001301269 
1451	 0.252077697604842 
1452	 0.252089211102125 
1453	 0.252111111617062 
1454	 0.252155001101455 
1455	 0.25218220864869 
1456	 0.2522060623783 
1457	 0.252220219569342 
1458	 0.252216279104437 
1459	 0.252235489647814 
1460	 0.252252072271935 
1461	 0.252286853706808 
1462	 0.252346550585139 
1463	 0.252401261840847 
1464	 0.252453961431985 
1465	 0.252518595637856 
1466	 0.252591604696243 
1467	 0.252673259396771 
1468	 0.252755758375319 
1469	 0.252859628012373 
1470	 0.252982968435282 
1471	 0.25310790085265 
1472	 0.253245216246053 
1473	 0.25339749391051 
1474	 0.253534853843746 
1475	 0.253678211423929 
1476	 0.253811943240294 
1477	 0.253955534056417 
1478	 0.254126568279455 
1479	 0.254289498539499 
1480	 0.254460735432487 
1481	 0.254621344905876 
1482	 0.254772978256947 
1483	 0.254898980682603 
1484	 0.255051126355588 
1485	 0.255213074248248 
1486	 0.255371450909661 
1487	 0.25554059635601 
1488	 0.255694792074886 
1489	 0.2558468694079 
1490	 0.255985043472723 
1491	 0.256106787841806 
1492	 0.256237956957123 
1493	 0.25635846285488 
1494	 0.256491771453279 
1495	 0.256639243376445 
1496	 0.256774319570654 
1497	 0.256908286432005 
1498	 0.257041104008309 
1499	 0.257170996025694 
1500	 0.257298873057203 
1501	 0.257429238262753 
1502	 0.257549934426545 
1503	 0.257658015144504 
1504	 0.257770562694151 
1505	 0.257895156383024 
1506	 0.258013019762149 
1507	 0.258136893120131 
1508	 0.258262017296848 
1509	 0.258365244731426 
1510	 0.258473762463811 
1511	 0.258575765516169 
1512	 0.258671589346536 
1513	 0.258771723561681 
1514	 0.258872746917936 
1515	 0.258989456562038 
1516	 0.259101369405814 
1517	 0.25921167848776 
1518	 0.259323508380023 
1519	 0.259437790395354 
1520	 0.259555156077064 
1521	 0.259662741173009 
1522	 0.259766890890636 
1523	 0.259871915614606 
1524	 0.259970777630632 
1525	 0.260062746244641 
1526	 0.26016026425823 
1527	 0.260251630251127 
1528	 0.260324533778102 
1529	 0.260409898293584 
1530	 0.26050391796936 
1531	 0.260586515041503 
1532	 0.260667226508958 
1533	 0.260745207811726 
1534	 0.260809098622805 
1535	 0.26089330502342 
1536	 0.260990345974195 
1537	 0.261076922147244 
1538	 0.261176345406474 
1539	 0.261259065188477 
1540	 0.261317367230334 
1541	 0.261392371753931 
1542	 0.261471291780953 
1543	 0.261549808799858 
1544	 0.261647062430255 
1545	 0.261723586590856 
1546	 0.261796356794225 
1547	 0.261843546863579 
1548	 0.261891688183783 
1549	 0.261932951009982 
1550	 0.261969120886686 
1551	 0.262026436253801 
1552	 0.262077093110741 
1553	 0.262129883521263 
1554	 0.262188745073989 
1555	 0.262234676884586 
1556	 0.262279414346863 
1557	 0.262320210553123 
1558	 0.262384287170013 
1559	 0.262459110837189 
1560	 0.262521179390719 
1561	 0.262594297189598 
1562	 0.262655511025388 
1563	 0.262698245387037 
1564	 0.262754220970262 
1565	 0.262822380297669 
1566	 0.26287302299343 
1567	 0.262912993350798 
1568	 0.262959677985896 
1569	 0.262998655129611 
1570	 0.263048335667071 
1571	 0.263110944191151 
1572	 0.263161276654621 
1573	 0.263212312562048 
1574	 0.263254763476457 
1575	 0.26328775894968 
1576	 0.263321654137736 
1577	 0.263350200566898 
1578	 0.263380980235797 
1579	 0.263406606270635 
1580	 0.26344059989945 
1581	 0.263477760102767 
1582	 0.263519719269356 
1583	 0.263569201709851 
1584	 0.263618216879581 
1585	 0.263683734543783 
1586	 0.263720319267387 
1587	 0.263743425076648 
1588	 0.263767429146754 
1589	 0.263762280176448 
1590	 0.263777752352532 
1591	 0.26380798815356 
1592	 0.263834055214108 
1593	 0.263861146439601 
1594	 0.263894370871974 
1595	 0.263929524867612 
1596	 0.263967588847381 
1597	 0.264011131064832 
1598	 0.264057575083393 
1599	 0.264122723559953 
1600	 0.264163156774464 
1601	 0.264199050999369 
1602	 0.264221834427958 
1603	 0.264202266748385 
1604	 0.264208777142011 
1605	 0.264218884742856 
1606	 0.264239971962988 
1607	 0.264282796164749 
1608	 0.264329564108012 
1609	 0.264358926129711 
1610	 0.264363176142765 
1611	 0.264360706071254 
1612	 0.26436087679377 
1613	 0.264346032381082 
1614	 0.26436199237736 
1615	 0.264393735987045 
1616	 0.264413970035519 
1617	 0.264456865064687 
1618	 0.264498117893095 
1619	 0.264530851214863 
1620	 0.264563225710098 
1621	 0.264599461750812 
1622	 0.264649894284655 
1623	 0.264672784855927 
1624	 0.264680496928354 
1625	 0.264701720248135 
1626	 0.264714555813379 
1627	 0.264727739395419 
1628	 0.264751323576956 
1629	 0.264762407627183 
1630	 0.264756688803635 
1631	 0.264772289404339 
1632	 0.264795596716632 
1633	 0.264819634016806 
1634	 0.264856634839316 
1635	 0.264873592675613 
1636	 0.264886988062639 
1637	 0.264891276502262 
1638	 0.264873019802223 
1639	 0.264883000484217 
1640	 0.264892746031459 
1641	 0.264925180214976 
1642	 0.264989309471749 
1643	 0.265026481455022 
1644	 0.265061768693284 
1645	 0.265101908704491 
1646	 0.265141698816177 
1647	 0.265164012712827 
1648	 0.265191423925643 
1649	 0.265201280447367 
1650	 0.265173238864415 
1651	 0.265178203057288 
1652	 0.265199617917345 
1653	 0.265207044368422 
1654	 0.265218136965749 
1655	 0.265225743926464 
1656	 0.265230632530298 
1657	 0.265221963396308 
1658	 0.265206845149322 
1659	 0.265194336876996 
1660	 0.26516766746404 
1661	 0.265148686558577 
1662	 0.265128356490099 
1663	 0.265129282392173 
1664	 0.265146449047942 
1665	 0.265145011820723 
1666	 0.265145685497392 
1667	 0.265160158243721 
1668	 0.265173712931207 
1669	 0.265173880997087 
1670	 0.265203016227877 
1671	 0.265187710510704 
1672	 0.265108687395482 
1673	 0.265084329442197 
1674	 0.265071126919422 
1675	 0.265062583910984 
1676	 0.265080649247289 
1677	 0.26508749376554 
1678	 0.26508643986547 
1679	 0.265094525246216 
1680	 0.265116103601796 
1681	 0.265123729117987 
1682	 0.265119199032038 
1683	 0.265131626916637 
1684	 0.265153569456473 
1685	 0.265160404547674 
1686	 0.26517304866675 
1687	 0.265178728555125 
1688	 0.26516059590102 
1689	 0.265161055514058 
1690	 0.265184145568395 
1691	 0.26518038352661 
1692	 0.265153242890142 
1693	 0.265157371854977 
1694	 0.265151584677154 
1695	 0.26517816622009 
1696	 0.265262270036662 
1697	 0.265292468478184 
1698	 0.265319892480021 
1699	 0.265323225975149 
1700	 0.2652877463116 
1701	 0.265266873904151 
1702	 0.265241866903238 
1703	 0.265211390394659 
1704	 0.265175805938621 
1705	 0.265138300271433 
1706	 0.265086701461685 
1707	 0.26505577912538 
1708	 0.265031862745806 
1709	 0.265012184708354 
1710	 0.265007177189971 
1711	 0.26499837022072 
1712	 0.265003448977593 
1713	 0.264976427734834 
1714	 0.264930781011425 
1715	 0.264896263359602 
1716	 0.264835277250225 
1717	 0.264806089446881 
1718	 0.264803041558416 
1719	 0.26479388086037 
1720	 0.26479937669984 
1721	 0.264779282279667 
1722	 0.264742482198887 
1723	 0.264728709639943 
1724	 0.264721308051622 
1725	 0.264698990750496 
1726	 0.264685332161278 
1727	 0.264661260509042 
1728	 0.264607438605537 
1729	 0.264573178637444 
1730	 0.26456737478883 
1731	 0.264528391310502 
1732	 0.264464913350217 
1733	 0.264423452235362 
1734	 0.264380805299269 
1735	 0.2643239222145 
1736	 0.264282531117856 
1737	 0.264218927568625 
1738	 0.26412648394462 
1739	 0.26404330698023 
1740	 0.263948493411374 
1741	 0.263886961418798 
1742	 0.263834406292005 
1743	 0.263787438269281 
1744	 0.263778000784856 
1745	 0.263715154640615 
1746	 0.263626029428095 
1747	 0.263525909337342 
1748	 0.263443206534015 
1749	 0.263430368279779 
1750	 0.263404664260651 
1751	 0.263391067990026 
1752	 0.263374936838504 
1753	 0.263291438214079 
1754	 0.263206449320816 
1755	 0.263107508637973 
1756	 0.263004493722592 
1757	 0.262940592889968 
1758	 0.26288074354386 
1759	 0.262828901141518 
1760	 0.262780951576563 
1761	 0.262706396987369 
1762	 0.26263418127776 
1763	 0.262587663780393 
1764	 0.26253184677705 
1765	 0.262487795086794 
1766	 0.262449960186989 
1767	 0.26238525874217 
1768	 0.262329657938482 
1769	 0.262283181020844 
1770	 0.262223609379355 
1771	 0.262172525727666 
1772	 0.2621461163994 
1773	 0.262105442021221 
1774	 0.262074735765061 
1775	 0.262072992885913 
1776	 0.262027280057939 
1777	 0.26198055276611 
1778	 0.261934750093631 
1779	 0.261852967236965 
1780	 0.26179127671516 
1781	 0.261722150812115 
1782	 0.261660738764583 
1783	 0.261624567330098 
1784	 0.261608727772849 
1785	 0.261659593169009 
1786	 0.261657970821527 
1787	 0.261631053830028 
1788	 0.261617148972782 
1789	 0.261586690516419 
1790	 0.261557312240671 
1791	 0.261533268918219 
1792	 0.261518542700122 
1793	 0.261495528895788 
1794	 0.261483594483492 
1795	 0.261483931544123 
1796	 0.261499092327431 
1797	 0.261536077080385 
1798	 0.261544084287677 
1799	 0.261563139670334 
1800	 0.261564890687872 
1801	 0.260188003328894 
1802	 0.260366765625817 
1803	 0.260515333577402 
1804	 0.260698506418463 
1805	 0.260903006722744 
1806	 0.261073399804862 
1807	 0.261279046557005 
1808	 0.261448582793976 
1809	 0.261615243514125 
1810	 0.261733767336865 
1811	 0.261827223898817 
1812	 0.261901761969991 
1813	 0.261937346623134 
1814	 0.261964154443663 
1815	 0.26198753308995 
1816	 0.261994282413722 
1817	 0.262004135975931 
1818	 0.261996012303876 
1819	 0.262009099851082 
1820	 0.262022588758461 
1821	 0.262050273145339 
1822	 0.262110076333687 
1823	 0.262184353806114 
1824	 0.262237482736121 
1825	 0.262256140548103 
1826	 0.262311354798888 
1827	 0.262339336179112 
1828	 0.262329519972902 
1829	 0.262330263590277 
1830	 0.26229601822647 
1831	 0.262190437082716 
1832	 0.262096926849034 
1833	 0.26206287313511 
1834	 0.26202668952993 
1835	 0.262033745156754 
1836	 0.262007967524423 
1837	 0.261970950480828 
1838	 0.261965206105065 
1839	 0.261941363113781 
1840	 0.261910357617266 
1841	 0.261888337057795 
1842	 0.261865081653533 
1843	 0.261816478089921 
1844	 0.26176520589736 
1845	 0.261705088409227 
1846	 0.261642666349408 
1847	 0.261594976113786 
1848	 0.261545007120073 
1849	 0.261510790724816 
1850	 0.261478721906229 
1851	 0.261459643656348 
1852	 0.261419466502591 
1853	 0.261387956295238 
1854	 0.26133744774539 
1855	 0.261256124076767 
1856	 0.261144130466387 
1857	 0.260997299070181 
1858	 0.260860000074082 
1859	 0.260707691769723 
1860	 0.260524652609204 
1861	 0.260325844847413 
1862	 0.260111335623912 
1863	 0.259845210303886 
1864	 0.259565985667956 
1865	 0.259294842455498 
1866	 0.25898394940241 
1867	 0.258655325504523 
1868	 0.258286620625373 
1869	 0.257865695346886 
1870	 0.257442932766324 
1871	 0.256980816867796 
1872	 0.256487035191509 
1873	 0.255975895181144 
1874	 0.255439840510329 
1875	 0.254838336277693 
1876	 0.25421845673209 
1877	 0.253553415576938 
1878	 0.252821261024188 
1879	 0.252047136928741 
1880	 0.251189414908483 
1881	 0.250266511589471 
1882	 0.249263940618206 
1883	 0.24818939316395 
1884	 0.247011566805971 
1885	 0.245800551730819 
1886	 0.244525558286892 
1887	 0.243168829814323 
1888	 0.241747797368873 
1889	 0.240233316919981 
1890	 0.238644370991759 
1891	 0.237068393036841 
1892	 0.235429193721318 
1893	 0.233825507756179 
1894	 0.232220039999019 
1895	 0.230641145241863 
1896	 0.229031303388664 
1897	 0.227456534820024 
1898	 0.225896463084622 
1899	 0.224356363515108 
1900	 0.222889160792735 
1901	 0.22145560383147 
1902	 0.220103108539847 
1903	 0.218821722041772 
1904	 0.217610513290664 
1905	 0.216454117201171 
1906	 0.215407539309226 
1907	 0.214431791358627 
1908	 0.213474991228415 
1909	 0.212571132453231 
1910	 0.21172869609087 
1911	 0.210949760144896 
1912	 0.210259353340831 
1913	 0.209595472087509 
1914	 0.209003349081662 
1915	 0.2084256679935 
1916	 0.207875451386761 
1917	 0.207354439966106 
1918	 0.20689393223874 
1919	 0.206473701920546 
1920	 0.206100321781021 
1921	 0.205759445157363 
1922	 0.205464373726301 
1923	 0.205224342457263 
1924	 0.205010553455353 
1925	 0.204851520685383 
1926	 0.204709383417951 
1927	 0.204591279196794 
1928	 0.20449568333632 
1929	 0.204454963959397 
1930	 0.20442006216912 
1931	 0.204420094214185 
1932	 0.204452401942561 
1933	 0.204502037117969 
1934	 0.204569624558663 
1935	 0.20464292265536 
1936	 0.204710842190053 
1937	 0.204829753687717 
1938	 0.204977840640241 
1939	 0.205142165647595 
1940	 0.205348859949114 
1941	 0.205564601068381 
1942	 0.205777848666771 
1943	 0.206000905491033 
1944	 0.20623456765056 
1945	 0.206508775094147 
1946	 0.206787486891435 
1947	 0.207072961036459 
1948	 0.207384055202545 
1949	 0.207728201038463 
1950	 0.20806374385111 
1951	 0.2084115968616 
1952	 0.208779840024373 
1953	 0.209115998348682 
1954	 0.209460094260979 
1955	 0.209826084369078 
1956	 0.210184065226773 
1957	 0.210558658755172 
1958	 0.210958568166846 
1959	 0.211337506543884 
1960	 0.211710985140863 
1961	 0.212094501788277 
1962	 0.212459995972944 
1963	 0.212858508049978 
1964	 0.21327763410152 
1965	 0.213703891765105 
1966	 0.214152204384392 
1967	 0.214614083608987 
1968	 0.215060299103084 
1969	 0.215510287030399 
1970	 0.215944278166124 
1971	 0.216365057190001 
1972	 0.216793973213146 
1973	 0.217223530105379 
1974	 0.217646888198466 
1975	 0.218076282527714 
1976	 0.218480897497666 
1977	 0.21890245221605 
1978	 0.219322111067158 
1979	 0.219736315178331 
1980	 0.220166227320882 
1981	 0.220589717737904 
1982	 0.220996274192834 
1983	 0.221426551110007 
1984	 0.221868382188249 
1985	 0.222316206558334 
1986	 0.222796308846403 
1987	 0.223237496714401 
1988	 0.223656784867484 
1989	 0.224099899909999 
1990	 0.22451025390876 
1991	 0.224923115487626 
1992	 0.225331476755946 
1993	 0.225744646413845 
1994	 0.226149912603 
1995	 0.22654075291127 
1996	 0.22693638771002 
1997	 0.22732719631779 
1998	 0.227735780662629 
1999	 0.228150067177112 
2000	 0.228568148554826 
2001	 0.229019719797231 
2002	 0.229441100691261 
2003	 0.229849473912441 
2004	 0.23023979460535 
2005	 0.230631034040027 
2006	 0.231009553053497 
2007	 0.231391841696896 
2008	 0.23177390043268 
2009	 0.2321498817922 
2010	 0.232513839885645 
2011	 0.232880770572837 
2012	 0.233257546653661 
2013	 0.233618356267347 
2014	 0.233953466697641 
2015	 0.234320986813964 
2016	 0.234684335713111 
2017	 0.235022161126635 
2018	 0.235381301550055 
2019	 0.235760402712428 
2020	 0.23612074829621 
2021	 0.236485118981119 
2022	 0.236832336417026 
2023	 0.23715704326294 
2024	 0.237494727047403 
2025	 0.237828236546655 
2026	 0.238161908140315 
2027	 0.238502482782538 
2028	 0.238842785596116 
2029	 0.239176508859318 
2030	 0.239504786814461 
2031	 0.239829977703568 
2032	 0.240151354182496 
2033	 0.240473726754321 
2034	 0.240810560027592 
2035	 0.241106143833823 
2036	 0.241389214138713 
2037	 0.241656845245385 
2038	 0.241877416970861 
2039	 0.242114898356986 
2040	 0.242347712942693 
2041	 0.24258767433666 
2042	 0.242829161973075 
2043	 0.243073922940735 
2044	 0.243324555905256 
2045	 0.243581171150015 
2046	 0.243842248185041 
2047	 0.244126582262533 
2048	 0.244375249794619 
2049	 0.244611916992864 
2050	 0.244846626737308 
2051	 0.245055963365253 
2052	 0.245271557958873 
2053	 0.245488005905721 
2054	 0.245708599583979 
2055	 0.245929641794558 
2056	 0.246150433615878 
2057	 0.246356865011448 
2058	 0.246553178498439 
2059	 0.246769049469259 
2060	 0.246978914340319 
2061	 0.24719475351297 
2062	 0.247448637450756 
2063	 0.247661667227862 
2064	 0.247841228677012 
2065	 0.24803691934465 
2066	 0.248230597881206 
2067	 0.248416218836538 
2068	 0.248600832868614 
2069	 0.248786964430942 
2070	 0.248965130277259 
2071	 0.249115596959912 
2072	 0.249310591911242 
2073	 0.249540475141215 
2074	 0.249727982770888 
2075	 0.24991579195877 
2076	 0.250103561328915 
2077	 0.250263505647246 
2078	 0.250434931304646 
2079	 0.250626780612656 
2080	 0.250805569504806 
2081	 0.250960547910887 
2082	 0.25113192686618 
2083	 0.251308438395815 
2084	 0.251498050628259 
2085	 0.251677418943912 
2086	 0.251868176680354 
2087	 0.252033450913584 
2088	 0.252180248331069 
2089	 0.252337895488061 
2090	 0.252481079019333 
2091	 0.252638347204465 
2092	 0.252809886226291 
2093	 0.252974149451752 
2094	 0.253154168165705 
2095	 0.253305675170223 
2096	 0.253422827545776 
2097	 0.253568277648747 
2098	 0.253718554634119 
2099	 0.253849441969279 
2100	 0.254012448661723 
2101	 0.254206541521141 
2102	 0.254388664722649 
2103	 0.25457808354668 
2104	 0.254761204160194 
2105	 0.254944071925394 
2106	 0.255132981286336 
2107	 0.25532381479377 
2108	 0.255506586656823 
2109	 0.255688820009708 
2110	 0.25587751261358 
2111	 0.256050283069071 
2112	 0.256242428196533 
2113	 0.256443627975099 
2114	 0.256668563408793 
2115	 0.256886326817722 
2116	 0.257118389090381 
2117	 0.257327197045285 
2118	 0.257535073540596 
2119	 0.257727550756532 
2120	 0.257908550233826 
2121	 0.258077248324404 
2122	 0.258238616857384 
2123	 0.258384609048329 
2124	 0.258512032219149 
2125	 0.258631705876339 
2126	 0.258738744220134 
2127	 0.258838405822317 
2128	 0.258918301912678 
2129	 0.259003426557202 
2130	 0.259085612089696 
2131	 0.259165781289887 
2132	 0.259241257837217 
2133	 0.259327322597495 
2134	 0.259380612584643 
2135	 0.259410206279708 
2136	 0.259447913932479 
2137	 0.259473215722248 
2138	 0.259494200268199 
2139	 0.259537768581846 
2140	 0.259533599194823 
2141	 0.259497717771574 
2142	 0.259453407883182 
2143	 0.25937307591986 
2144	 0.259297634775231 
2145	 0.259212546457253 
2146	 0.259127112537783 
2147	 0.259034565242277 
2148	 0.258942970025931 
2149	 0.258853617666866 
2150	 0.258772434714376 
2151	 0.258670108382665 
2152	 0.258569254385044 
2153	 0.258444382654742 
2154	 0.258300318258112 
2155	 0.258145270126192 
2156	 0.257971832061306 
2157	 0.257795060060395 
2158	 0.257611162498493 
2159	 0.257411482690921 
2160	 0.257194915495381 
2161	 0.256979684250475 
2162	 0.256741430729513 
2163	 0.256516325627038 
2164	 0.256300843815555 
2165	 0.256090452854861 
2166	 0.255856902920441 
2167	 0.25561753778147 
2168	 0.255374507589213 
2169	 0.255103845763386 
2170	 0.254863793060539 
2171	 0.254649483470575 
2172	 0.254406563063926 
2173	 0.254170060168978 
2174	 0.253910940760634 
2175	 0.253621339154576 
2176	 0.253339799371944 
2177	 0.253066105580822 
2178	 0.252763820627581 
2179	 0.252428073511173 
2180	 0.252115848991962 
2181	 0.251799497945913 
2182	 0.251478823239066 
2183	 0.251160944641361 
2184	 0.250867203689232 
2185	 0.250550620789321 
2186	 0.250203930308382 
2187	 0.249897987491432 
2188	 0.249608642335793 
2189	 0.249316199597734 
2190	 0.2490398434678 
2191	 0.248759412939093 
2192	 0.248465451553607 
2193	 0.248198616462988 
2194	 0.247931748935887 
2195	 0.24769922464619 
2196	 0.247495040425121 
2197	 0.247306128598702 
2198	 0.247146843203437 
2199	 0.24699531833558 
2200	 0.246844909956804 
2201	 0.246727719963127 
2202	 0.24661502360257 
2203	 0.246558354076968 
2204	 0.246523762200354 
2205	 0.246526500037048 
2206	 0.246545657438383 
2207	 0.246592645483299 
2208	 0.246663892876745 
2209	 0.246770932322376 
2210	 0.246873162843237 
2211	 0.246999866760645 
2212	 0.247126223853732 
2213	 0.247260676510297 
2214	 0.247392441031013 
2215	 0.247542483099267 
2216	 0.247669366055263 
2217	 0.2477894014498 
2218	 0.247894575497705 
2219	 0.247974710947143 
2220	 0.248070285856581 
2221	 0.248192022445 
2222	 0.248254196452041 
2223	 0.248320382397313 
2224	 0.248368640275194 
2225	 0.248445813045429 
2226	 0.248513014435131 
2227	 0.248585804358771 
2228	 0.248698902535188 
2229	 0.248764143327884 
2230	 0.248803909437443 
2231	 0.248825198184742 
2232	 0.248827893733193 
2233	 0.248827645519344 
2234	 0.248801874574453 
2235	 0.248773188028428 
2236	 0.248735739509694 
2237	 0.248705243506882 
2238	 0.248664590659297 
2239	 0.248629141820013 
2240	 0.248608961920862 
2241	 0.248576101422504 
2242	 0.248532356399273 
2243	 0.248485245781095 
2244	 0.248433563822515 
2245	 0.24838526204258 
2246	 0.24831659727652 
2247	 0.248259714763289 
2248	 0.248201042327237 
2249	 0.248147589793087 
2250	 0.248077215790718 
2251	 0.247994398475821 
2252	 0.247929112974259 
2253	 0.247843562270909 
2254	 0.247800600576826 
2255	 0.247805684096421 
2256	 0.247773122522065 
2257	 0.247744085916225 
2258	 0.247711028984771 
2259	 0.247653116536665 
2260	 0.247613606186085 
2261	 0.247588007812519 
2262	 0.247558456614194 
2263	 0.247532120741759 
2264	 0.247506485400662 
2265	 0.247456616774898 
2266	 0.247451350661315 
2267	 0.247473615788555 
2268	 0.247493284224116 
2269	 0.247528836464509 
2270	 0.247604534473997 
2271	 0.247647154423086 
2272	 0.247676274283766 
2273	 0.247762743310978 
2274	 0.247811827604469 
2275	 0.247838863279289 
2276	 0.247861562484075 
2277	 0.247872723393639 
2278	 0.247829938672177 
2279	 0.247844020411608 
2280	 0.24788440734787 
2281	 0.247912649537803 
2282	 0.247955155570717 
2283	 0.247997426129692 
2284	 0.248038286878876 
2285	 0.248080290258807 
2286	 0.248137890400414 
2287	 0.248164425194997 
2288	 0.248178241058856 
2289	 0.248183916650399 
2290	 0.248175864646724 
2291	 0.248162095637042 
2292	 0.248126240149705 
2293	 0.248104817070909 
2294	 0.24807953549095 
2295	 0.248052765832831 
2296	 0.248021209322712 
2297	 0.248031198009276 
2298	 0.247979069829034 
2299	 0.247922402182141 
2300	 0.247919841140369 
2301	 0.247889132289104 
2302	 0.247841861883458 
2303	 0.24783387073945 
2304	 0.247860373317928 
2305	 0.247821024682839 
2306	 0.247761100418496 
2307	 0.247718212932836 
2308	 0.247638656738945 
2309	 0.247475539198232 
2310	 0.247368066140105 
2311	 0.247283695776576 
2312	 0.247205686631041 
2313	 0.247127162510593 
2314	 0.24704242836311 
2315	 0.246962131788215 
2316	 0.246905690098146 
2317	 0.246864357965405 
2318	 0.246805807765963 
2319	 0.246793730279843 
2320	 0.246716616708424 
2321	 0.246550718373028 
2322	 0.246446345742356 
2323	 0.246345360697616 
2324	 0.246254200574742 
2325	 0.246210439631697 
2326	 0.246138469552077 
2327	 0.246054053584015 
2328	 0.245965670693124 
2329	 0.245843705506818 
2330	 0.245759937034081 
2331	 0.245704994795983 
2332	 0.245634172591641 
2333	 0.245590540695566 
2334	 0.245540386980496 
2335	 0.245481567944975 
2336	 0.245441241936556 
2337	 0.245399300341578 
2338	 0.245336430662882 
2339	 0.245268999469744 
2340	 0.245172463168903 
2341	 0.245075911470007 
2342	 0.244974468934241 
2343	 0.244860025674392 
2344	 0.244728130768919 
2345	 0.244599142419451 
2346	 0.244468420823801 
2347	 0.244360173025215 
2348	 0.244267781640236 
2349	 0.244143067601727 
2350	 0.244017270096097 
2351	 0.243868834870688 
2352	 0.243674767481965 
2353	 0.243507832733813 
2354	 0.243360666642449 
2355	 0.243193804975256 
2356	 0.243017016076349 
2357	 0.242856117766345 
2358	 0.242670981324104 
2359	 0.242527033429862 
2360	 0.242417384567432 
2361	 0.242280741966026 
2362	 0.242183521666541 
2363	 0.242056911921056 
2364	 0.241882587326412 
2365	 0.241746464909241 
2366	 0.241617853072708 
2367	 0.241471200821652 
2368	 0.241343487041088 
2369	 0.241199951093464 
2370	 0.241034252364149 
2371	 0.240887094554649 
2372	 0.24072357268648 
2373	 0.240480590568027 
2374	 0.240254748559965 
2375	 0.24001682945662 
2376	 0.239772823094507 
2377	 0.239616854089663 
2378	 0.239447564016437 
2379	 0.239233682464532 
2380	 0.239014555366728 
2381	 0.238809160374275 
2382	 0.238601703723933 
2383	 0.238373019821214 
2384	 0.238176020508191 
2385	 0.238013744932417 
2386	 0.237777140759314 
2387	 0.237523081039319 
2388	 0.237291468746839 
2389	 0.236987985621886 
2390	 0.236714454176012 
2391	 0.236464182350037 
2392	 0.236153322036201 
2393	 0.235849568048073 
2394	 0.235563422974451 
2395	 0.235303013769897 
2396	 0.235081738125073 
2397	 0.234812192874274 
2398	 0.234541094344224 
2399	 0.234308290712037 
2400	 0.234089341942503 
2401	 0.23382751813408 
2402	 0.233490254827837 
2403	 0.233152929385421 
2404	 0.232833768651516 
2405	 0.232587644177131 
2406	 0.232364892897386 
2407	 0.232073255165276 
2408	 0.23172710360497 
2409	 0.231314144176948 
2410	 0.230930726738183 
2411	 0.230632335039056 
2412	 0.230289056507117 
2413	 0.229935201788018 
2414	 0.229565410924545 
2415	 0.229238359915336 
2416	 0.228953521920169 
2417	 0.228739683262904 
2418	 0.228457069106949 
2419	 0.228168160175051 
2420	 0.227878111490969 
2421	 0.227576191494193 
2422	 0.227258055070049 
2423	 0.226960104195416 
2424	 0.226641624277891 
2425	 0.226282236990565 
2426	 0.225937865576139 
2427	 0.225622029252111 
2428	 0.225247554800427 
2429	 0.224796602325473 
2430	 0.224391703839486 
2431	 0.223971331080859 
2432	 0.223614764186289 
2433	 0.223334824522056 
2434	 0.222986445627636 
2435	 0.222595583499194 
2436	 0.222264803143206 
2437	 0.221963166552802 
2438	 0.221661805978015 
2439	 0.221434164463001 
2440	 0.221113098426342 
2441	 0.220694788602102 
2442	 0.220344166735015 
2443	 0.220048950060728 
2444	 0.219710816219353 
2445	 0.219361901209742 
2446	 0.218945117033918 
2447	 0.218375447227947 
2448	 0.21798547443472 
2449	 0.217705541307447 
2450	 0.217394356175175 
2451	 0.217168005804847 
2452	 0.216903268599491 
2453	 0.216608924850443 
2454	 0.216295413643245 
2455	 0.216033459094865 
2456	 0.215641747442215 
2457	 0.215058751786826 
2458	 0.214672841033173 
2459	 0.214321470244189 
2460	 0.213993621418076 
2461	 0.213862737052256 
2462	 0.213559100505607 
2463	 0.21315256905256 
2464	 0.212819137878331 
2465	 0.21233896120804 
2466	 0.212009478010079 
2467	 0.211830472967614 
2468	 0.211513692347635 
2469	 0.21127085747161 
2470	 0.210921299885514 
2471	 0.210665375761484 
2472	 0.210542773443403 
2473	 0.210398130176058 
2474	 0.210069796687631 
2475	 0.209636664522856 
2476	 0.20931304322411 
2477	 0.208850267415188 
2478	 0.208576026570809 
2479	 0.208321535481887 
2480	 0.207990977454794 
2481	 0.207945850667771 
2482	 0.207655801036915 
2483	 0.207195877244823 
2484	 0.20698419986641 
2485	 0.206596360914784 
2486	 0.206221583066662 
2487	 0.206280158689063 
2488	 0.206288107146018 
2489	 0.206162363779579 
2490	 0.206026515688148 
2491	 0.20578141525811 
2492	 0.205425230571022 
2493	 0.204885795499032 
2494	 0.204560056571705 
2495	 0.20438262420847 
2496	 0.204035046650929 
2497	 0.203859823346177 
2498	 0.203709135925968 
2499	 0.203424597768108 
2500	 0.203117815193081 
