Wavelength	mm1600000.asd
350	 6.55610605010716E-02 
351	 6.43095454500926E-02 
352	 0.059898888189347 
353	 5.76139655303555E-02 
354	 7.65499178411149E-02 
355	 7.74745025740396E-02 
356	 6.94419433052008E-02 
357	 6.98402263139491E-02 
358	 7.65144384895106E-02 
359	 7.20807371790032E-02 
360	 0.061505852976512 
361	 6.25012726671008E-02 
362	 0.06262894219173 
363	 6.44790457511253E-02 
364	 6.70600080786695E-02 
365	 6.04021223039253E-02 
366	 6.18930534938235E-02 
367	 0.067616543732185 
368	 6.94474873497421E-02 
369	 6.81226832597149E-02 
370	 6.68161051325041E-02 
371	 6.73956063923212E-02 
372	 7.02699352100497E-02 
373	 7.21637675769732E-02 
374	 0.071650652740843 
375	 6.99129232684261E-02 
376	 7.20751701653913E-02 
377	 7.32197451030796E-02 
378	 7.33080451278885E-02 
379	 7.37644676170759E-02 
380	 7.59798438046761E-02 
381	 7.60446383881148E-02 
382	 7.42696978523767E-02 
383	 7.41306819472472E-02 
384	 7.53260112860492E-02 
385	 7.59490747649531E-02 
386	 7.60113295176671E-02 
387	 8.00259521891924E-02 
388	 0.080527197413356 
389	 7.95769566072117E-02 
390	 0.081105747125295 
391	 8.23059211340807E-02 
392	 8.27307099391435E-02 
393	 8.29320239471396E-02 
394	 8.41585064671933E-02 
395	 0.086926154244648 
396	 8.90075795453988E-02 
397	 0.08953400964132 
398	 9.16640403248667E-02 
399	 9.19715804405163E-02 
400	 9.20200845657242E-02 
401	 9.40007963073176E-02 
402	 9.25971484735448E-02 
403	 9.23903122911937E-02 
404	 9.40846720861533E-02 
405	 0.094062254083435 
406	 9.44174356202132E-02 
407	 9.63246915641777E-02 
408	 9.90063086366991E-02 
409	 9.68750104793613E-02 
410	 0.096724399690277 
411	 9.82923163617901E-02 
412	 9.84019185755367E-02 
413	 9.91620304717127E-02 
414	 9.95693956932339E-02 
415	 9.93199553330554E-02 
416	 9.92857159849691E-02 
417	 0.099815378947353 
418	 0.100638132439501 
419	 0.101390633404193 
420	 0.102181982657412 
421	 0.101931866654195 
422	 0.101411745518102 
423	 0.102297621788934 
424	 0.102327467064408 
425	 0.101711528136184 
426	 0.101045145418593 
427	 0.101021187573069 
428	 0.100867519690913 
429	 0.100646079141311 
430	 0.100628296612949 
431	 0.100727965279691 
432	 0.100744536002436 
433	 0.100799245343137 
434	 0.101284609193037 
435	 0.101318337740424 
436	 0.101357306382213 
437	 0.101705790741935 
438	 0.101475817481766 
439	 0.101852781526069 
440	 0.102614710153144 
441	 0.102925704585195 
442	 0.103213641050704 
443	 0.103756786835909 
444	 0.10445014670303 
445	 0.104636548506029 
446	 0.104999459911675 
447	 0.105484783921812 
448	 0.105883859280507 
449	 0.106279805403147 
450	 0.106778210224652 
451	 0.107328777804651 
452	 0.107753052756243 
453	 0.107976456134548 
454	 0.108135640640168 
455	 0.108442169581947 
456	 0.109299599243848 
457	 0.109466431493226 
458	 0.109331031585014 
459	 0.109849977913232 
460	 0.110021418493587 
461	 0.110155422671137 
462	 0.110473878966298 
463	 0.11091635487054 
464	 0.111297799638515 
465	 0.111562531039517 
466	 0.111705550162474 
467	 0.111694564671378 
468	 0.111853970983493 
469	 0.112130929303083 
470	 0.112186449537816 
471	 0.112300062683489 
472	 0.112504880812272 
473	 0.112713824658431 
474	 0.112617324664712 
475	 0.112755179535048 
476	 0.113085959091005 
477	 0.113331800853585 
478	 0.113597579900529 
479	 0.113731635662479 
480	 0.113781331984164 
481	 0.114093390354484 
482	 0.114273630129234 
483	 0.114352731201774 
484	 0.114443277530523 
485	 0.11446444767918 
486	 0.114558730679561 
487	 0.114689967915857 
488	 0.114699670873328 
489	 0.115080653359937 
490	 0.115417036835635 
491	 0.115420313755564 
492	 0.115485796008404 
493	 0.115586725218422 
494	 0.115714309375823 
495	 0.115854088434304 
496	 0.115978211829507 
497	 0.116095716204119 
498	 0.116275317652305 
499	 0.116684667261587 
500	 0.116811999935958 
501	 0.116829516580091 
502	 0.11701341028374 
503	 0.117111100409165 
504	 0.117209160715151 
505	 0.117337769778381 
506	 0.117465107753909 
507	 0.117546952724008 
508	 0.117689075326336 
509	 0.117933628499638 
510	 0.118104059578104 
511	 0.118050547322608 
512	 0.117984221894182 
513	 0.118247763790541 
514	 0.118441652328007 
515	 0.118582583102227 
516	 0.118720684385352 
517	 0.118879164754458 
518	 0.119024809238492 
519	 0.119106462440953 
520	 0.119125906132504 
521	 0.119377829322748 
522	 0.119613959147153 
523	 0.119730331739147 
524	 0.119807068409538 
525	 0.119927945881709 
526	 0.120070726003675 
527	 0.120199324554123 
528	 0.120328602680324 
529	 0.120432669300102 
530	 0.120555496027362 
531	 0.120766396883229 
532	 0.120850263690436 
533	 0.120934108571051 
534	 0.121116057217781 
535	 0.121357649833945 
536	 0.121421691395933 
537	 0.121483307768302 
538	 0.121793672760165 
539	 0.121878374339005 
540	 0.121973616431041 
541	 0.122159666524655 
542	 0.122233797768616 
543	 0.122401857232497 
544	 0.122609776867985 
545	 0.1227729168795 
546	 0.122987181553082 
547	 0.123201239944267 
548	 0.123397693874599 
549	 0.123592510020727 
550	 0.123815562255588 
551	 0.124019077147631 
552	 0.124181269553568 
553	 0.124380489048824 
554	 0.124611976695722 
555	 0.124870073596836 
556	 0.125149766631604 
557	 0.125484779391368 
558	 0.125799332268486 
559	 0.126089723659207 
560	 0.126513655900268 
561	 0.126757072379944 
562	 0.126949461713689 
563	 0.127321361655518 
564	 0.127747036940678 
565	 0.128047080823083 
566	 0.128233530211836 
567	 0.128530919763637 
568	 0.128888939816946 
569	 0.12926802352806 
570	 0.129676855869009 
571	 0.130315100227359 
572	 0.130886032997112 
573	 0.131341700892292 
574	 0.131812895001386 
575	 0.132225360363586 
576	 0.132724131245601 
577	 0.133366846487082 
578	 0.133961457804725 
579	 0.134535309287415 
580	 0.135055256288049 
581	 0.135488120714914 
582	 0.135918072063294 
583	 0.136396179997782 
584	 0.136929535942991 
585	 0.137469139914002 
586	 0.138170506990157 
587	 0.13892883589328 
588	 0.139612253733396 
589	 0.140340157603874 
590	 0.141082369039208 
591	 0.141806779635792 
592	 0.142486245065259 
593	 0.143082182731357 
594	 0.143660831314388 
595	 0.1442400037241 
596	 0.144627147558747 
597	 0.145144501572605 
598	 0.145753547790244 
599	 0.146244404668543 
600	 0.146774341679544 
601	 0.147385295175074 
602	 0.1480369446706 
603	 0.148568267041054 
604	 0.149082212589618 
605	 0.149627179391449 
606	 0.150226756333636 
607	 0.15087261037809 
608	 0.151467945479483 
609	 0.151988849642728 
610	 0.152499998440684 
611	 0.152959717728911 
612	 0.15334559250846 
613	 0.15366572655287 
614	 0.154016690751345 
615	 0.154334984918867 
616	 0.154620676952828 
617	 0.154919703090923 
618	 0.155278695899672 
619	 0.155642921657733 
620	 0.155956521591205 
621	 0.156182115318644 
622	 0.156438052112592 
623	 0.156733352253571 
624	 0.15702167696845 
625	 0.157227256988073 
626	 0.157427536748715 
627	 0.157672578807381 
628	 0.157959750691207 
629	 0.158202700493201 
630	 0.158423629035825 
631	 0.158660269137942 
632	 0.158871998976637 
633	 0.15910610394763 
634	 0.159342878394257 
635	 0.159514465005296 
636	 0.159714337855285 
637	 0.159919610438743 
638	 0.160105270451575 
639	 0.160287584438874 
640	 0.160506596328245 
641	 0.160772622687149 
642	 0.161060657490328 
643	 0.161220834512278 
644	 0.161405543067143 
645	 0.161652734656599 
646	 0.161789947207821 
647	 0.16198458120813 
648	 0.162228867162304 
649	 0.162470307080525 
650	 0.162696867677307 
651	 0.16295202921968 
652	 0.163225646696123 
653	 0.163462620449482 
654	 0.163681813234772 
655	 0.163892414890726 
656	 0.164117762361928 
657	 0.164425819270169 
658	 0.164715800811779 
659	 0.164946142954661 
660	 0.165121513311065 
661	 0.165337529254142 
662	 0.165641567574813 
663	 0.16598123069499 
664	 0.166168764858595 
665	 0.166421088453004 
666	 0.166712879106961 
667	 0.166976273025922 
668	 0.16726949957289 
669	 0.16761820188246 
670	 0.167972294261628 
671	 0.168229880913436 
672	 0.16850168612552 
673	 0.168816399427825 
674	 0.169160700978444 
675	 0.16945744591425 
676	 0.169760893833613 
677	 0.170097036045192 
678	 0.170469505388405 
679	 0.170816893847816 
680	 0.171150450318194 
681	 0.171491825557038 
682	 0.171866872084883 
683	 0.172224186013933 
684	 0.172573119650804 
685	 0.172937607442816 
686	 0.173338127367583 
687	 0.173702709477076 
688	 0.174048161244412 
689	 0.174444963371551 
690	 0.174781785977925 
691	 0.175157871216712 
692	 0.175610564713635 
693	 0.175996724565054 
694	 0.17635784381531 
695	 0.17676693628262 
696	 0.177258680675119 
697	 0.177570924270447 
698	 0.177926763152194 
699	 0.178373515309806 
700	 0.178748861559466 
701	 0.17917805508509 
702	 0.179595215658173 
703	 0.179954389831912 
704	 0.180376725771463 
705	 0.180802746062252 
706	 0.181214405254773 
707	 0.18161255824878 
708	 0.181968709642136 
709	 0.182370982660048 
710	 0.182831276953053 
711	 0.183237869611878 
712	 0.183631616650491 
713	 0.184004961799066 
714	 0.18436353801343 
715	 0.184813981693647 
716	 0.185174937586208 
717	 0.18548037913083 
718	 0.185906381533332 
719	 0.186278625832538 
720	 0.186624364205366 
721	 0.186970127467647 
722	 0.187283510297281 
723	 0.187603384156939 
724	 0.187936354911172 
725	 0.188269069251702 
726	 0.188554586205889 
727	 0.188818584516333 
728	 0.189098252406112 
729	 0.189429043456108 
730	 0.189678969941596 
731	 0.189913653567241 
732	 0.190173370772827 
733	 0.190339695100163 
734	 0.190548494505507 
735	 0.190757816669173 
736	 0.190880803853403 
737	 0.191037048142986 
738	 0.191230997917539 
739	 0.191421365692155 
740	 0.191531112734508 
741	 0.191643943086877 
742	 0.191741865191626 
743	 0.191810298964617 
744	 0.191907990848179 
745	 0.191963599589092 
746	 0.192003892039836 
747	 0.192087879286489 
748	 0.19215319715016 
749	 0.192129047593756 
750	 0.192048272155685 
751	 0.192063645745606 
752	 0.19207814705035 
753	 0.192040399040945 
754	 0.191953738434351 
755	 0.191954035946781 
756	 0.191914098198665 
757	 0.191815181740824 
758	 0.191701258819927 
759	 0.191617373920201 
760	 0.191523878676845 
761	 0.191421314813233 
762	 0.191368945097238 
763	 0.191206463076909 
764	 0.191009301938424 
765	 0.190870580986614 
766	 0.190765231845247 
767	 0.190617333780977 
768	 0.190448070388143 
769	 0.190317316878567 
770	 0.190164176660872 
771	 0.189980213625349 
772	 0.189777457120229 
773	 0.18958556076717 
774	 0.189390054363507 
775	 0.189206842337669 
776	 0.189038629390598 
777	 0.188831448440155 
778	 0.188658674191347 
779	 0.188506711132625 
780	 0.188320733723795 
781	 0.18806273081927 
782	 0.187848941315048 
783	 0.187699418052545 
784	 0.187522656949987 
785	 0.187354338830391 
786	 0.187150315930383 
787	 0.186901406770327 
788	 0.186708982162872 
789	 0.186563646277854 
790	 0.186393973342792 
791	 0.186143542674462 
792	 0.185978703412576 
793	 0.185779313725244 
794	 0.18556002805524 
795	 0.185444405911385 
796	 0.185223217060178 
797	 0.184986257933727 
798	 0.184806732469722 
799	 0.184640072956201 
800	 0.184473952968169 
801	 0.184307141315501 
802	 0.184141740739811 
803	 0.18396829291705 
804	 0.183832577389888 
805	 0.183692789508341 
806	 0.183471441708161 
807	 0.183285599026152 
808	 0.18314184498118 
809	 0.182998920410304 
810	 0.182775780452061 
811	 0.182659599581009 
812	 0.182530811631806 
813	 0.182315145344691 
814	 0.182257051786769 
815	 0.182205665890785 
816	 0.182086567664993 
817	 0.181886556823273 
818	 0.181727932824309 
819	 0.181613099737721 
820	 0.181510059295781 
821	 0.181372260006489 
822	 0.181282238257067 
823	 0.181160938729973 
824	 0.181000202118076 
825	 0.180944073476077 
826	 0.180895308420343 
827	 0.180814373603578 
828	 0.180694018308799 
829	 0.180573082958118 
830	 0.180464020160058 
831	 0.180377124043685 
832	 0.180315174407051 
833	 0.180262222463372 
834	 0.180183289597091 
835	 0.180098104775985 
836	 0.180067900083977 
837	 0.17997584630438 
838	 0.179920514174514 
839	 0.179925750071918 
840	 0.179831421316959 
841	 0.179722956712897 
842	 0.179666132657151 
843	 0.179673262708341 
844	 0.179602276994112 
845	 0.179602827635695 
846	 0.179621928055397 
847	 0.17954861444147 
848	 0.179522483713079 
849	 0.179538372854948 
850	 0.179551887209263 
851	 0.179502320477444 
852	 0.179440000330833 
853	 0.179398488587073 
854	 0.179409069236946 
855	 0.179499868629596 
856	 0.179583260807704 
857	 0.179604730053297 
858	 0.179570244302031 
859	 0.179607402988066 
860	 0.179652539937597 
861	 0.179660579931681 
862	 0.179623536002705 
863	 0.179654881074422 
864	 0.17975261219526 
865	 0.179824946398594 
866	 0.179773298641911 
867	 0.179841275258669 
868	 0.179903562548046 
869	 0.179918573982918 
870	 0.179964473883845 
871	 0.180073807389408 
872	 0.180163871111829 
873	 0.180204524614161 
874	 0.180280247059438 
875	 0.180419929601789 
876	 0.180550348844244 
877	 0.180613476055138 
878	 0.180656498674277 
879	 0.180751362078858 
880	 0.180872794053418 
881	 0.180971499538215 
882	 0.181068520354223 
883	 0.181193946032979 
884	 0.181339283376438 
885	 0.181481751050028 
886	 0.181669946101554 
887	 0.181813853279864 
888	 0.181897327953327 
889	 0.181981476894494 
890	 0.182138156633084 
891	 0.182259390615468 
892	 0.182367317893854 
893	 0.182654396874671 
894	 0.182848148362859 
895	 0.182974726937946 
896	 0.183108621361536 
897	 0.183296377733849 
898	 0.183499246912197 
899	 0.183686542173325 
900	 0.183846034367465 
901	 0.184007906447726 
902	 0.184140330886351 
903	 0.184336769720417 
904	 0.184653745374054 
905	 0.184864327005509 
906	 0.185034112587001 
907	 0.18523177025429 
908	 0.185503777907008 
909	 0.185795481327039 
910	 0.186015803950901 
911	 0.186191925493577 
912	 0.186415164850116 
913	 0.186613140437413 
914	 0.18685738153313 
915	 0.187146783440726 
916	 0.187414621293633 
917	 0.187716670130705 
918	 0.187982611392185 
919	 0.18820754114731 
920	 0.188474611106296 
921	 0.188796736241017 
922	 0.189110498607536 
923	 0.189386402858192 
924	 0.189667292535186 
925	 0.18997946947526 
926	 0.19030764548217 
927	 0.19061502945548 
928	 0.190846988201592 
929	 0.191226547944593 
930	 0.191665478306658 
931	 0.192038649230218 
932	 0.192343993998577 
933	 0.192580955242929 
934	 0.192872635494169 
935	 0.193293027504232 
936	 0.193693314978854 
937	 0.193946216252427 
938	 0.194222456298693 
939	 0.194692200781927 
940	 0.19515271395163 
941	 0.195536856250147 
942	 0.195911298873718 
943	 0.196354991802503 
944	 0.196751544701771 
945	 0.197093249901122 
946	 0.197454635397048 
947	 0.19790078721641 
948	 0.198297812067178 
949	 0.198611126090397 
950	 0.19893059344592 
951	 0.199377794372943 
952	 0.199910222679947 
953	 0.200313315463663 
954	 0.200714154853571 
955	 0.201335394922625 
956	 0.20178213781879 
957	 0.202259320598483 
958	 0.202707659300773 
959	 0.20297045049602 
960	 0.203375665963267 
961	 0.203932756094364 
962	 0.204548993214066 
963	 0.205069126354864 
964	 0.205314360102094 
965	 0.205765427946205 
966	 0.206400765011509 
967	 0.206876802229118 
968	 0.207338257271107 
969	 0.207810256264898 
970	 0.208292555724793 
971	 0.208773727889287 
972	 0.209291599991466 
973	 0.20975101185086 
974	 0.21018932054813 
975	 0.210727591000342 
976	 0.211391241099068 
977	 0.211975740184284 
978	 0.212438593118553 
979	 0.212880786266053 
980	 0.21345320550819 
981	 0.213997202270883 
982	 0.214462948352302 
983	 0.214891412364463 
984	 0.215289768928215 
985	 0.215901125944264 
986	 0.216565858644567 
987	 0.216983306595253 
988	 0.217416135720954 
989	 0.217792145845078 
990	 0.218288452893293 
991	 0.219058224414568 
992	 0.2195886372592 
993	 0.220035831330508 
994	 0.220510682522203 
995	 0.221044366309713 
996	 0.221488710918426 
997	 0.221970230729988 
998	 0.222516305135748 
999	 0.223108746865787 
1000	 0.223767942867501 
1001	 0.218644854965798 
1002	 0.219132482272079 
1003	 0.219505738028204 
1004	 0.219918353593661 
1005	 0.220270350205572 
1006	 0.220683865440156 
1007	 0.221126380880267 
1008	 0.22161186142931 
1009	 0.222070465727587 
1010	 0.222464990349075 
1011	 0.222832830608568 
1012	 0.223278841907729 
1013	 0.223740625764645 
1014	 0.224116675473948 
1015	 0.224444062248505 
1016	 0.224805038377291 
1017	 0.2251936074205 
1018	 0.225578321536907 
1019	 0.225986289968799 
1020	 0.226392839634803 
1021	 0.226744455713086 
1022	 0.227056282509732 
1023	 0.227370862621288 
1024	 0.227715191110405 
1025	 0.228050055533321 
1026	 0.228381342241865 
1027	 0.228688019417725 
1028	 0.229014316515098 
1029	 0.229419094226311 
1030	 0.229798805792956 
1031	 0.230127977711874 
1032	 0.23044531962912 
1033	 0.230746831591065 
1034	 0.23102582933369 
1035	 0.23128957459173 
1036	 0.23156894178704 
1037	 0.231891181241662 
1038	 0.232196988951816 
1039	 0.232489220797433 
1040	 0.232809273277994 
1041	 0.233120921375893 
1042	 0.233393351740478 
1043	 0.233683196317553 
1044	 0.233985986987667 
1045	 0.234308495582189 
1046	 0.234606079374464 
1047	 0.234919750293747 
1048	 0.235226378158796 
1049	 0.235481204522194 
1050	 0.235785627072414 
1051	 0.236117138517888 
1052	 0.236391664426697 
1053	 0.236670558784895 
1054	 0.236977171049578 
1055	 0.237293374405149 
1056	 0.23760807398285 
1057	 0.237912151392674 
1058	 0.238249976142052 
1059	 0.238544486477856 
1060	 0.238786965005981 
1061	 0.239053892107112 
1062	 0.23936299366667 
1063	 0.239622627991441 
1064	 0.239905690562648 
1065	 0.240176145888933 
1066	 0.240381110994477 
1067	 0.240637053038335 
1068	 0.240907730335813 
1069	 0.24116874383778 
1070	 0.24143070352553 
1071	 0.241704522440864 
1072	 0.241988540210671 
1073	 0.242278156310105 
1074	 0.242542397941593 
1075	 0.242830687843848 
1076	 0.243087040976175 
1077	 0.243266233678253 
1078	 0.243395762209277 
1079	 0.243563864818146 
1080	 0.24377061221961 
1081	 0.243960848812946 
1082	 0.244239435239211 
1083	 0.244497516713454 
1084	 0.244753690492793 
1085	 0.244987627817355 
1086	 0.245246522817608 
1087	 0.245462033627211 
1088	 0.24563215101139 
1089	 0.245844480904956 
1090	 0.246015959345387 
1091	 0.246190526597234 
1092	 0.246379689218056 
1093	 0.246576463085279 
1094	 0.246809642325893 
1095	 0.246997200198131 
1096	 0.247164418649636 
1097	 0.247328055188747 
1098	 0.247510371155033 
1099	 0.247701378756278 
1100	 0.247885350943903 
1101	 0.248070680659701 
1102	 0.248260550962602 
1103	 0.2484444669864 
1104	 0.248628149042758 
1105	 0.248807585783341 
1106	 0.24901625380997 
1107	 0.249230808994729 
1108	 0.249428098437609 
1109	 0.249615657726757 
1110	 0.249827936292014 
1111	 0.250029543191347 
1112	 0.250227830573752 
1113	 0.2503942291799 
1114	 0.250541283851314 
1115	 0.250703749266851 
1116	 0.250841412626718 
1117	 0.250999807541665 
1118	 0.251170622384458 
1119	 0.251369895771121 
1120	 0.251558427435518 
1121	 0.251728847073386 
1122	 0.25192526559633 
1123	 0.252110482681684 
1124	 0.25227785905972 
1125	 0.252431770165797 
1126	 0.252587183741297 
1127	 0.252714307445463 
1128	 0.252875757874281 
1129	 0.253056699186798 
1130	 0.25322900545734 
1131	 0.253408941369563 
1132	 0.253598522753412 
1133	 0.253796003889406 
1134	 0.253976599149556 
1135	 0.254166987454952 
1136	 0.254340320988616 
1137	 0.254494281089688 
1138	 0.254641180970467 
1139	 0.254793911715214 
1140	 0.254947716146432 
1141	 0.255101362482136 
1142	 0.255264182499679 
1143	 0.25540728144836 
1144	 0.255526770557099 
1145	 0.25566767730494 
1146	 0.255807999761226 
1147	 0.255947718344815 
1148	 0.256120513604298 
1149	 0.256260818729027 
1150	 0.256361973520289 
1151	 0.256489027769645 
1152	 0.25662670666273 
1153	 0.256750116737741 
1154	 0.256879665151544 
1155	 0.257024262150453 
1156	 0.25715997817803 
1157	 0.257291875975623 
1158	 0.257414134989022 
1159	 0.257529609604663 
1160	 0.257652885363077 
1161	 0.257768733785304 
1162	 0.257883284830748 
1163	 0.258016199091668 
1164	 0.258136733497192 
1165	 0.258225301271392 
1166	 0.258344620773746 
1167	 0.258489827766743 
1168	 0.258599141460525 
1169	 0.258725419847132 
1170	 0.258868865806209 
1171	 0.258987656232999 
1172	 0.259095929018433 
1173	 0.259204181273914 
1174	 0.259290632951604 
1175	 0.259404739072604 
1176	 0.259540545826463 
1177	 0.259652269106824 
1178	 0.259770195953494 
1179	 0.25988063428552 
1180	 0.259966186125383 
1181	 0.260062109638513 
1182	 0.260167731682854 
1183	 0.260262311761047 
1184	 0.260372896573986 
1185	 0.26049441453603 
1186	 0.26059464938545 
1187	 0.260692105675991 
1188	 0.260794673306097 
1189	 0.260874461877294 
1190	 0.260982799202921 
1191	 0.261130179857983 
1192	 0.261241591960842 
1193	 0.261343264297486 
1194	 0.261444176733828 
1195	 0.26152172238729 
1196	 0.261613054853226 
1197	 0.261716251217269 
1198	 0.261814560182108 
1199	 0.261912492867093 
1200	 0.262008696632402 
1201	 0.262110901680743 
1202	 0.262217053299221 
1203	 0.262316648928339 
1204	 0.262423060323024 
1205	 0.262514962383476 
1206	 0.262583386366886 
1207	 0.262679027234228 
1208	 0.262790216793532 
1209	 0.262885230342773 
1210	 0.262990950802384 
1211	 0.263085230084282 
1212	 0.263148076449628 
1213	 0.263233622464107 
1214	 0.263348092860884 
1215	 0.263437168438091 
1216	 0.263518808929563 
1217	 0.263595983769224 
1218	 0.263678865748517 
1219	 0.263741482156124 
1220	 0.263828398701114 
1221	 0.263946069704738 
1222	 0.264033069102861 
1223	 0.264108974487509 
1224	 0.264188818153686 
1225	 0.264256577412706 
1226	 0.264330722227644 
1227	 0.264415832280082 
1228	 0.264490971139792 
1229	 0.264562884256543 
1230	 0.264629683671908 
1231	 0.264690827785618 
1232	 0.264748867129816 
1233	 0.264803127191711 
1234	 0.264845970583485 
1235	 0.26490829979777 
1236	 0.264971796154955 
1237	 0.265046663962031 
1238	 0.265145199230356 
1239	 0.265222378422166 
1240	 0.265298752213495 
1241	 0.26536680884965 
1242	 0.265418658230946 
1243	 0.265480247244109 
1244	 0.26553843319863 
1245	 0.265604212553931 
1246	 0.265678181839613 
1247	 0.265750364310439 
1248	 0.265823207884363 
1249	 0.265901505112778 
1250	 0.265983552667969 
1251	 0.266055257032308 
1252	 0.266129104884269 
1253	 0.266212807679637 
1254	 0.266268664662891 
1255	 0.266314410417404 
1256	 0.266350115237585 
1257	 0.266352710313851 
1258	 0.26638206227511 
1259	 0.266409439577107 
1260	 0.266452419832096 
1261	 0.26651530913132 
1262	 0.266572960547713 
1263	 0.266645248777251 
1264	 0.266702450259253 
1265	 0.266751925711244 
1266	 0.266803271321777 
1267	 0.266858185161097 
1268	 0.266890831608682 
1269	 0.266932495236505 
1270	 0.266967377706794 
1271	 0.267025309625741 
1272	 0.267086264956166 
1273	 0.267160778075502 
1274	 0.267261766543283 
1275	 0.267347985484707 
1276	 0.267425756048036 
1277	 0.267520423206055 
1278	 0.267625208807939 
1279	 0.267726366418901 
1280	 0.267835217946431 
1281	 0.267946711442903 
1282	 0.26806858913825 
1283	 0.268171612762773 
1284	 0.268270578941368 
1285	 0.268363706908406 
1286	 0.268444060137835 
1287	 0.268527798436259 
1288	 0.268626471832657 
1289	 0.268744086963564 
1290	 0.268842374896784 
1291	 0.268942957486123 
1292	 0.269034333136769 
1293	 0.269116330874162 
1294	 0.26919706300314 
1295	 0.269280444658896 
1296	 0.269345802969104 
1297	 0.269402139021904 
1298	 0.269449219349771 
1299	 0.269485480651138 
1300	 0.26951187313453 
1301	 0.269518881263482 
1302	 0.269531107755529 
1303	 0.269530454243937 
1304	 0.269539629786936 
1305	 0.269558356403008 
1306	 0.269578500832611 
1307	 0.269607198188605 
1308	 0.269623660687484 
1309	 0.269618235987361 
1310	 0.269588336242241 
1311	 0.269581651832699 
1312	 0.269561365922028 
1313	 0.269555242824051 
1314	 0.26958821803124 
1315	 0.269574203423271 
1316	 0.269530100113009 
1317	 0.269503077841907 
1318	 0.269456455602019 
1319	 0.269424293340839 
1320	 0.269409618171783 
1321	 0.269390263887258 
1322	 0.269371941435978 
1323	 0.269353219648233 
1324	 0.269322471186729 
1325	 0.269300012184147 
1326	 0.269274204451532 
1327	 0.269250019896658 
1328	 0.269233689015548 
1329	 0.269216051264727 
1330	 0.269191185807356 
1331	 0.269162526320463 
1332	 0.269121994330459 
1333	 0.269070375839789 
1334	 0.269026678217774 
1335	 0.268963651431745 
1336	 0.268932764823846 
1337	 0.268928670564275 
1338	 0.268908148283627 
1339	 0.268906996369828 
1340	 0.268880264565171 
1341	 0.268824152883346 
1342	 0.268787322635488 
1343	 0.268741054356638 
1344	 0.268709071808452 
1345	 0.268717591660477 
1346	 0.268706715404695 
1347	 0.268686433025648 
1348	 0.268655054427087 
1349	 0.268593943152359 
1350	 0.268553830123125 
1351	 0.26852838961009 
1352	 0.268528066858754 
1353	 0.26850336202105 
1354	 0.268482937704465 
1355	 0.26844886553393 
1356	 0.268398889548182 
1357	 0.268352769803626 
1358	 0.268299666593492 
1359	 0.26825651980577 
1360	 0.268200464729299 
1361	 0.26816783399903 
1362	 0.268169434691063 
1363	 0.268147330328839 
1364	 0.268121298345647 
1365	 0.268102675958291 
1366	 0.26808127991025 
1367	 0.268045270486956 
1368	 0.268029003209288 
1369	 0.268026129586565 
1370	 0.267999506825135 
1371	 0.267961855814687 
1372	 0.267921607635887 
1373	 0.267864982895753 
1374	 0.26780178977472 
1375	 0.267736519027335 
1376	 0.267648458676175 
1377	 0.267545082252659 
1378	 0.267427220770601 
1379	 0.267289349203517 
1380	 0.267146739008021 
1381	 0.26698886690866 
1382	 0.266832766522543 
1383	 0.266687348531795 
1384	 0.266503978376792 
1385	 0.26631856305519 
1386	 0.266095772530658 
1387	 0.265826629688001 
1388	 0.265553317998719 
1389	 0.265276119777911 
1390	 0.26495435396445 
1391	 0.264617432300539 
1392	 0.264268212488774 
1393	 0.263859600674617 
1394	 0.263436048564825 
1395	 0.26296979597576 
1396	 0.262493536769338 
1397	 0.262033699443713 
1398	 0.261563324940882 
1399	 0.261105832959072 
1400	 0.260662534652441 
1401	 0.260211453673928 
1402	 0.259753813825386 
1403	 0.259312038005537 
1404	 0.258869353987367 
1405	 0.258457831997277 
1406	 0.258053179284582 
1407	 0.257677671347118 
1408	 0.257329977841707 
1409	 0.256996221663354 
1410	 0.256650769051018 
1411	 0.256381912749747 
1412	 0.256147948014547 
1413	 0.255961791493483 
1414	 0.255849227844081 
1415	 0.255797571030845 
1416	 0.255786378637752 
1417	 0.255793496720545 
1418	 0.255796722592078 
1419	 0.255815193037519 
1420	 0.25584543046092 
1421	 0.255875583975667 
1422	 0.255915757495349 
1423	 0.25595021426742 
1424	 0.25595826523432 
1425	 0.255940887308646 
1426	 0.255919729566552 
1427	 0.25587627831967 
1428	 0.255849761558624 
1429	 0.255817570276114 
1430	 0.255795387125064 
1431	 0.255785765547474 
1432	 0.255768485149237 
1433	 0.255747885038832 
1434	 0.255732774740533 
1435	 0.255711270905918 
1436	 0.25570877523492 
1437	 0.255716221405159 
1438	 0.255727182654412 
1439	 0.255751589045364 
1440	 0.25578416328975 
1441	 0.255788823305175 
1442	 0.255793032519976 
1443	 0.255784207497333 
1444	 0.255774336455856 
1445	 0.255812347139981 
1446	 0.255856758863688 
1447	 0.255894962453846 
1448	 0.25593173344087 
1449	 0.255926086786611 
1450	 0.25591418997984 
1451	 0.255926466193253 
1452	 0.255952986091031 
1453	 0.255965239196789 
1454	 0.255989436780718 
1455	 0.255996291327107 
1456	 0.255980915325787 
1457	 0.255980727606487 
1458	 0.255978522829712 
1459	 0.255990115942387 
1460	 0.256007131707622 
1461	 0.256031528414737 
1462	 0.256065601153592 
1463	 0.256104504550726 
1464	 0.256154642062087 
1465	 0.256201047136807 
1466	 0.256245629883643 
1467	 0.256303169850803 
1468	 0.256353965387967 
1469	 0.256429899970961 
1470	 0.256526998673802 
1471	 0.25663509692347 
1472	 0.256748771405935 
1473	 0.256859977128872 
1474	 0.256968434085614 
1475	 0.257072529284981 
1476	 0.257181322178944 
1477	 0.257300131653485 
1478	 0.257406244483575 
1479	 0.257518706733349 
1480	 0.257651952728379 
1481	 0.257776594478517 
1482	 0.257905480375852 
1483	 0.258054279790027 
1484	 0.258184428447504 
1485	 0.258290929687514 
1486	 0.258425049604759 
1487	 0.258575872744985 
1488	 0.258709024779323 
1489	 0.258852754236596 
1490	 0.258982420422372 
1491	 0.259094555223793 
1492	 0.259206938941291 
1493	 0.259312838182287 
1494	 0.259422801664866 
1495	 0.259527742706827 
1496	 0.259634379783576 
1497	 0.259756083922766 
1498	 0.259856472482808 
1499	 0.259937176659872 
1500	 0.260028956308647 
1501	 0.260106485759523 
1502	 0.260200051353997 
1503	 0.260303771919495 
1504	 0.260421073652034 
1505	 0.260537648260437 
1506	 0.260648755257621 
1507	 0.260749329186853 
1508	 0.260852488132786 
1509	 0.260947185268219 
1510	 0.261036778505884 
1511	 0.261122034974158 
1512	 0.2611778626891 
1513	 0.261242418715783 
1514	 0.26132169588464 
1515	 0.261402088894425 
1516	 0.261504880703119 
1517	 0.261598451623486 
1518	 0.261697806791063 
1519	 0.261781940665798 
1520	 0.261860809673151 
1521	 0.261937787575609 
1522	 0.262000635382463 
1523	 0.262070713346651 
1524	 0.262147009894127 
1525	 0.262216433454059 
1526	 0.262275402971105 
1527	 0.262353290064427 
1528	 0.262441169895754 
1529	 0.262523493540047 
1530	 0.262625050277998 
1531	 0.262700290400608 
1532	 0.262749382073998 
1533	 0.262810134169249 
1534	 0.262868819351578 
1535	 0.262923766191493 
1536	 0.262977208656068 
1537	 0.263040729145647 
1538	 0.263099284525742 
1539	 0.263166754250822 
1540	 0.263248787083598 
1541	 0.263326549530696 
1542	 0.263409734145867 
1543	 0.263483230440804 
1544	 0.263564919395406 
1545	 0.263627177937932 
1546	 0.263677023634663 
1547	 0.263710368274436 
1548	 0.263738418258058 
1549	 0.263771628253442 
1550	 0.263790841154592 
1551	 0.263818116896404 
1552	 0.2638553453811 
1553	 0.263888215439945 
1554	 0.263952663784264 
1555	 0.264011690157545 
1556	 0.264048236605882 
1557	 0.264096311279604 
1558	 0.26414406571457 
1559	 0.264196704663444 
1560	 0.26424436087642 
1561	 0.264304459068357 
1562	 0.264347081441669 
1563	 0.264365914758943 
1564	 0.264416589624098 
1565	 0.264490402059345 
1566	 0.264529391872316 
1567	 0.264565796329431 
1568	 0.264601583295452 
1569	 0.264607331883003 
1570	 0.264641319769387 
1571	 0.264698414753726 
1572	 0.264738477017263 
1573	 0.264774884317427 
1574	 0.26481616055743 
1575	 0.264864081461294 
1576	 0.264896535641134 
1577	 0.264928333168409 
1578	 0.264945958495856 
1579	 0.264932445841655 
1580	 0.264951188678678 
1581	 0.264964797042413 
1582	 0.265007033663174 
1583	 0.265099075749873 
1584	 0.265150524880877 
1585	 0.265205446947582 
1586	 0.265245571574134 
1587	 0.265254765436947 
1588	 0.265271202501223 
1589	 0.265280165031399 
1590	 0.265296965163667 
1591	 0.265311496493612 
1592	 0.265333208756238 
1593	 0.265359289103454 
1594	 0.265398056400653 
1595	 0.265453162045747 
1596	 0.265495234241451 
1597	 0.265550077558093 
1598	 0.265589368504138 
1599	 0.265619625280668 
1600	 0.265633372806672 
1601	 0.265625143490723 
1602	 0.265625565843535 
1603	 0.26559644145877 
1604	 0.265599154612864 
1605	 0.265634737519188 
1606	 0.265657850736695 
1607	 0.265687505745744 
1608	 0.265726276719286 
1609	 0.265746451570275 
1610	 0.26576768300936 
1611	 0.265774588012171 
1612	 0.265781843099898 
1613	 0.265774890109838 
1614	 0.265768551863792 
1615	 0.265788164461096 
1616	 0.265806174811543 
1617	 0.26583737143019 
1618	 0.265872203313853 
1619	 0.265904355446772 
1620	 0.26594585839667 
1621	 0.265975241516748 
1622	 0.266008470846727 
1623	 0.266023634222643 
1624	 0.26602491181016 
1625	 0.266026740249322 
1626	 0.266015522056092 
1627	 0.266019772050164 
1628	 0.266024883701378 
1629	 0.266038886452659 
1630	 0.266064406664289 
1631	 0.266085378223356 
1632	 0.266108491204655 
1633	 0.266130510714025 
1634	 0.26615424315003 
1635	 0.266174735291419 
1636	 0.266202471673505 
1637	 0.266205574340631 
1638	 0.266187455468021 
1639	 0.266193117486698 
1640	 0.266188429387615 
1641	 0.266203697494827 
1642	 0.266243642426247 
1643	 0.266274195810106 
1644	 0.266308785236752 
1645	 0.26633579401747 
1646	 0.266367907173869 
1647	 0.26638770265022 
1648	 0.266396272860869 
1649	 0.266402619512875 
1650	 0.266400122952039 
1651	 0.266405450168984 
1652	 0.266410678730949 
1653	 0.266412357691925 
1654	 0.266413798165709 
1655	 0.266420103887202 
1656	 0.266426236795024 
1657	 0.266428910268848 
1658	 0.266444731434647 
1659	 0.266437058538481 
1660	 0.266404913805777 
1661	 0.266391606749279 
1662	 0.266379032746192 
1663	 0.266362310814589 
1664	 0.266349088607985 
1665	 0.266339166080111 
1666	 0.266313822240263 
1667	 0.266316642613696 
1668	 0.266354691122744 
1669	 0.266358199748948 
1670	 0.266366152573284 
1671	 0.266351416476107 
1672	 0.266293080891486 
1673	 0.266273831236091 
1674	 0.266255058924433 
1675	 0.266258385528209 
1676	 0.266298353299051 
1677	 0.266313052085928 
1678	 0.266328020258339 
1679	 0.266341591605607 
1680	 0.266345906668917 
1681	 0.266351992592468 
1682	 0.266362687817497 
1683	 0.266368757801481 
1684	 0.266367211708065 
1685	 0.266369474605336 
1686	 0.26637649905994 
1687	 0.266376578285887 
1688	 0.266374051406986 
1689	 0.266368779070579 
1690	 0.266359539354491 
1691	 0.266348217286662 
1692	 0.266314449872845 
1693	 0.266324453242122 
1694	 0.26635437962956 
1695	 0.266386235865936 
1696	 0.266468563026931 
1697	 0.266495587472701 
1698	 0.26648959769377 
1699	 0.266495501273768 
1700	 0.266489729983034 
1701	 0.266477865530476 
1702	 0.266471578582171 
1703	 0.266444518151163 
1704	 0.26639229589695 
1705	 0.266347816868022 
1706	 0.266289413683875 
1707	 0.266256002385602 
1708	 0.266224594728654 
1709	 0.266212473251416 
1710	 0.266239443587021 
1711	 0.266231109127711 
1712	 0.266214154627282 
1713	 0.266199781253108 
1714	 0.266171400264595 
1715	 0.26614272101649 
1716	 0.266114354646581 
1717	 0.266097869588579 
1718	 0.266075375218756 
1719	 0.266062534627274 
1720	 0.266071655085432 
1721	 0.266067166072757 
1722	 0.266060411938606 
1723	 0.266043641905422 
1724	 0.266026448702684 
1725	 0.265993696232359 
1726	 0.265941166908016 
1727	 0.265895510147087 
1728	 0.265844850441028 
1729	 0.265805176103043 
1730	 0.265766335661322 
1731	 0.265732149683728 
1732	 0.265706346219833 
1733	 0.26566747255514 
1734	 0.265633457701615 
1735	 0.265582779667389 
1736	 0.265521854092282 
1737	 0.265458127283442 
1738	 0.265372079939982 
1739	 0.265311786004963 
1740	 0.265265560646043 
1741	 0.265210102555783 
1742	 0.265159163381807 
1743	 0.265112481240077 
1744	 0.26505571642017 
1745	 0.264998209367476 
1746	 0.264955548848841 
1747	 0.264900547585763 
1748	 0.264856883097263 
1749	 0.264820690775744 
1750	 0.264758306945093 
1751	 0.264688734703108 
1752	 0.264626120685134 
1753	 0.264560915969839 
1754	 0.264496642941589 
1755	 0.264427626029303 
1756	 0.264342119726702 
1757	 0.26426284511853 
1758	 0.264210373771745 
1759	 0.264195940097658 
1760	 0.264189152077364 
1761	 0.264180124624853 
1762	 0.264148259653662 
1763	 0.264072993362148 
1764	 0.264017023062464 
1765	 0.263970357603847 
1766	 0.263901364859065 
1767	 0.263827796091746 
1768	 0.26375012478741 
1769	 0.263684598759966 
1770	 0.263651395561945 
1771	 0.263637706943077 
1772	 0.263625165478671 
1773	 0.263614366106306 
1774	 0.263595180721234 
1775	 0.263580443186877 
1776	 0.263557297746029 
1777	 0.263504686770307 
1778	 0.263436472553243 
1779	 0.263344181585424 
1780	 0.263264850914882 
1781	 0.263215710203862 
1782	 0.263179152085583 
1783	 0.263170014635066 
1784	 0.263156383526997 
1785	 0.263147332903441 
1786	 0.263130325306017 
1787	 0.26311414921988 
1788	 0.263106142860229 
1789	 0.263103639048335 
1790	 0.26307317921212 
1791	 0.263036636472721 
1792	 0.262994044888172 
1793	 0.262899306091718 
1794	 0.262872036455816 
1795	 0.262889764478076 
1796	 0.262902891723084 
1797	 0.262952263176352 
1798	 0.262980298462789 
1799	 0.262999903829713 
1800	 0.262999106347383 
1801	 0.261768557892574 
1802	 0.261932003207998 
1803	 0.262118436362552 
1804	 0.262337654392422 
1805	 0.262561187250568 
1806	 0.262783814425366 
1807	 0.262981145039726 
1808	 0.26313061831068 
1809	 0.263239247230041 
1810	 0.263349600530734 
1811	 0.263427125774896 
1812	 0.26349576417573 
1813	 0.263575143795503 
1814	 0.263634110598088 
1815	 0.263648257948859 
1816	 0.263631553607427 
1817	 0.263643114832526 
1818	 0.263641145782636 
1819	 0.263657683961267 
1820	 0.263694390454991 
1821	 0.263739195690989 
1822	 0.263742165456872 
1823	 0.263729140594156 
1824	 0.263738944433093 
1825	 0.263745802445552 
1826	 0.263770412298041 
1827	 0.263834164462409 
1828	 0.263850867873782 
1829	 0.263845207655806 
1830	 0.263815403161501 
1831	 0.263760095349104 
1832	 0.263697285114991 
1833	 0.263613502194039 
1834	 0.263570999100837 
1835	 0.263563864522145 
1836	 0.263527088877006 
1837	 0.263505291253192 
1838	 0.263505142243245 
1839	 0.263494474444431 
1840	 0.263479640961549 
1841	 0.263476450642738 
1842	 0.263475957153585 
1843	 0.263455047494048 
1844	 0.263429377665184 
1845	 0.263400949890221 
1846	 0.263364715225991 
1847	 0.263333745319804 
1848	 0.263308314383042 
1849	 0.263260429669469 
1850	 0.263222681801663 
1851	 0.263177623920655 
1852	 0.263154753341584 
1853	 0.26313499879647 
1854	 0.263099635261618 
1855	 0.263041040563902 
1856	 0.262959202400303 
1857	 0.262856134153733 
1858	 0.262759761078456 
1859	 0.262669590397232 
1860	 0.262534726942363 
1861	 0.26237255039872 
1862	 0.262172850933014 
1863	 0.261964300845846 
1864	 0.261738198504598 
1865	 0.261517886364856 
1866	 0.261282854437779 
1867	 0.261020866597983 
1868	 0.260738402940047 
1869	 0.260424667702356 
1870	 0.260113773195293 
1871	 0.259765824994174 
1872	 0.259396267217666 
1873	 0.259001212165829 
1874	 0.258580595311299 
1875	 0.258110473421779 
1876	 0.257626547856145 
1877	 0.257088948676761 
1878	 0.256483537036228 
1879	 0.255850444854994 
1880	 0.255165654294731 
1881	 0.254435141727197 
1882	 0.253641785954642 
1883	 0.252815694135469 
1884	 0.251889785207296 
1885	 0.250896333373975 
1886	 0.24984197231227 
1887	 0.248710206391545 
1888	 0.24753058816259 
1889	 0.246294132452684 
1890	 0.245000223778524 
1891	 0.243691239495176 
1892	 0.242324194618378 
1893	 0.240968200122303 
1894	 0.239587417768632 
1895	 0.23821689403559 
1896	 0.236823782915954 
1897	 0.235430830653295 
1898	 0.234049737496597 
1899	 0.232693936950811 
1900	 0.231396695750047 
1901	 0.230164389003135 
1902	 0.228983978187398 
1903	 0.227872000375382 
1904	 0.226795096432976 
1905	 0.225766630520387 
1906	 0.224785738312286 
1907	 0.223845546685518 
1908	 0.222972467593015 
1909	 0.222153063121033 
1910	 0.221363617551599 
1911	 0.220649495733676 
1912	 0.219999311029664 
1913	 0.219372575824038 
1914	 0.218799117707608 
1915	 0.218253064894985 
1916	 0.217742658332837 
1917	 0.217246476734809 
1918	 0.216799772061255 
1919	 0.216377439283709 
1920	 0.215989705806075 
1921	 0.215632459091436 
1922	 0.215298061146708 
1923	 0.215008436507991 
1924	 0.214760506106405 
1925	 0.214548746784778 
1926	 0.21438277880941 
1927	 0.214265828817859 
1928	 0.214179092505404 
1929	 0.214128999508554 
1930	 0.214115100998756 
1931	 0.214106354173102 
1932	 0.214113811126048 
1933	 0.214143471035877 
1934	 0.214161784154953 
1935	 0.214207229519132 
1936	 0.214264067438593 
1937	 0.214349934500602 
1938	 0.214456161042212 
1939	 0.214588809539012 
1940	 0.214749829111512 
1941	 0.214923934031077 
1942	 0.215136841282043 
1943	 0.215333864577427 
1944	 0.215529866065093 
1945	 0.215742056282909 
1946	 0.215964581804563 
1947	 0.216186197874706 
1948	 0.216431535397249 
1949	 0.216699684155245 
1950	 0.216973010467808 
1951	 0.217264475710166 
1952	 0.217550228465139 
1953	 0.217832873274559 
1954	 0.218122310336026 
1955	 0.218420501344286 
1956	 0.218733011677838 
1957	 0.219049510807937 
1958	 0.219388497683073 
1959	 0.219716505951158 
1960	 0.220040123771061 
1961	 0.22036637038167 
1962	 0.22068481726727 
1963	 0.221029372267462 
1964	 0.221384254129279 
1965	 0.221745890872347 
1966	 0.222140204747613 
1967	 0.222527663179525 
1968	 0.222906784717546 
1969	 0.223288314340486 
1970	 0.22365882854752 
1971	 0.224015861725061 
1972	 0.224382494529643 
1973	 0.224746685420023 
1974	 0.225115143793258 
1975	 0.225499697477951 
1976	 0.225858396818944 
1977	 0.22621553952959 
1978	 0.226572624484083 
1979	 0.22691634551488 
1980	 0.227283053118236 
1981	 0.227653633808836 
1982	 0.228040409858487 
1983	 0.228416334406664 
1984	 0.228790484995331 
1985	 0.229170881738477 
1986	 0.229549756825567 
1987	 0.229932859390862 
1988	 0.230328954958293 
1989	 0.230726982217499 
1990	 0.231092068514978 
1991	 0.231455925546161 
1992	 0.231823236596695 
1993	 0.232184012109583 
1994	 0.232537783485433 
1995	 0.232889871763752 
1996	 0.233244463985227 
1997	 0.233592182551643 
1998	 0.233933762848336 
1999	 0.234280354638214 
2000	 0.234625637250143 
2001	 0.234955759385821 
2002	 0.235286758857794 
2003	 0.235646083205245 
2004	 0.236001664183476 
2005	 0.236353672625439 
2006	 0.236714530264098 
2007	 0.237060732442463 
2008	 0.237390122925135 
2009	 0.237731890248691 
2010	 0.238080174479096 
2011	 0.238419564942705 
2012	 0.238775187710174 
2013	 0.239101556320021 
2014	 0.239418416945068 
2015	 0.239699983101393 
2016	 0.239973165955857 
2017	 0.240254529306892 
2018	 0.240556305377632 
2019	 0.24087624095458 
2020	 0.241188244272967 
2021	 0.241513505511217 
2022	 0.241832632271759 
2023	 0.242146904874733 
2024	 0.242459319634845 
2025	 0.242786863766244 
2026	 0.243091433542366 
2027	 0.243371934255048 
2028	 0.243661983205262 
2029	 0.243952392882127 
2030	 0.244229778652707 
2031	 0.244527866878515 
2032	 0.244853329135691 
2033	 0.2451402809828 
2034	 0.245427284191671 
2035	 0.245690134331324 
2036	 0.245919941687782 
2037	 0.246154764960513 
2038	 0.246370656217606 
2039	 0.246597563229505 
2040	 0.246824857786281 
2041	 0.247057746396773 
2042	 0.24726696110773 
2043	 0.247478975024645 
2044	 0.247690376759553 
2045	 0.24788525198826 
2046	 0.248089359669632 
2047	 0.248306077421765 
2048	 0.248512967794661 
2049	 0.248714455491309 
2050	 0.248913601060517 
2051	 0.249115960684987 
2052	 0.249310264928557 
2053	 0.2494978831848 
2054	 0.249677388547551 
2055	 0.249838002450212 
2056	 0.25001505876343 
2057	 0.250191355962049 
2058	 0.250360451040937 
2059	 0.25054340806489 
2060	 0.250737914521201 
2061	 0.250931791365405 
2062	 0.251145248076818 
2063	 0.251328316124487 
2064	 0.251501326674298 
2065	 0.251672649826281 
2066	 0.251813495735766 
2067	 0.251973393602352 
2068	 0.252146965099294 
2069	 0.252310670901547 
2070	 0.252494007065741 
2071	 0.252696255914793 
2072	 0.252872690514449 
2073	 0.253053690350847 
2074	 0.253222680399157 
2075	 0.253373423338121 
2076	 0.253520918715709 
2077	 0.253654897822423 
2078	 0.253808113413489 
2079	 0.253951532498399 
2080	 0.254110433034341 
2081	 0.254316482608794 
2082	 0.254483193897106 
2083	 0.254632240621034 
2084	 0.254780918023756 
2085	 0.254913070350994 
2086	 0.255012300999111 
2087	 0.255143287458957 
2088	 0.255275410562979 
2089	 0.255419851588076 
2090	 0.255582191604971 
2091	 0.255735252673715 
2092	 0.25589815587447 
2093	 0.256048166860655 
2094	 0.256192462688074 
2095	 0.256333247369566 
2096	 0.256465260777834 
2097	 0.256596349489543 
2098	 0.256720709611786 
2099	 0.256851223837117 
2100	 0.256977973491726 
2101	 0.257097930155751 
2102	 0.257231070446481 
2103	 0.25736588300107 
2104	 0.257510526582295 
2105	 0.25765982772774 
2106	 0.25782421448632 
2107	 0.258014904326995 
2108	 0.258182202405725 
2109	 0.258351648527978 
2110	 0.258516433421828 
2111	 0.258650897263967 
2112	 0.258810519994035 
2113	 0.258982236508255 
2114	 0.259164729082863 
2115	 0.259349340744054 
2116	 0.259549433870568 
2117	 0.259736582868213 
2118	 0.259922932674942 
2119	 0.260110424846792 
2120	 0.260308057178695 
2121	 0.260475719184375 
2122	 0.260639299418002 
2123	 0.260780902942233 
2124	 0.260888579032921 
2125	 0.261001622474242 
2126	 0.261113308083147 
2127	 0.261210065328045 
2128	 0.261276760552361 
2129	 0.261364351071076 
2130	 0.261459755603652 
2131	 0.261549748467387 
2132	 0.261622174756927 
2133	 0.261704425880344 
2134	 0.261763524284638 
2135	 0.261789708131313 
2136	 0.261826418384564 
2137	 0.261887339891014 
2138	 0.261890244413545 
2139	 0.261848911432513 
2140	 0.261823366522127 
2141	 0.261784104814689 
2142	 0.261723320872911 
2143	 0.261661853791821 
2144	 0.261587418703988 
2145	 0.261462415309407 
2146	 0.26136104307073 
2147	 0.261282012163412 
2148	 0.261188590605304 
2149	 0.261088152434735 
2150	 0.260992050147198 
2151	 0.260871837658539 
2152	 0.260733677293323 
2153	 0.260590665835685 
2154	 0.260426419331454 
2155	 0.260273695018006 
2156	 0.260146759791501 
2157	 0.259962860321803 
2158	 0.259755941443963 
2159	 0.259538152609968 
2160	 0.259257422971749 
2161	 0.259008129036274 
2162	 0.258776537978802 
2163	 0.258536760263022 
2164	 0.258303040005698 
2165	 0.258053181697459 
2166	 0.257817871475814 
2167	 0.257592184072492 
2168	 0.257340041429445 
2169	 0.257076934560511 
2170	 0.256827236555432 
2171	 0.256556761632584 
2172	 0.256307612947011 
2173	 0.256099764426061 
2174	 0.255850266294131 
2175	 0.255592312840182 
2176	 0.25531485477002 
2177	 0.255014208590792 
2178	 0.254703601564164 
2179	 0.254367890175119 
2180	 0.254038756238987 
2181	 0.253697082795589 
2182	 0.253360283143591 
2183	 0.253017732171722 
2184	 0.2526920050646 
2185	 0.252364038704743 
2186	 0.252032977887923 
2187	 0.251715760593844 
2188	 0.251410273261005 
2189	 0.251099865923663 
2190	 0.250786809815778 
2191	 0.250491854654122 
2192	 0.250197634574368 
2193	 0.24992252370996 
2194	 0.249650738622419 
2195	 0.249418424280792 
2196	 0.249208423756012 
2197	 0.249017944650362 
2198	 0.248858464573603 
2199	 0.248723512062281 
2200	 0.248620690503988 
2201	 0.24852234083488 
2202	 0.248437711055288 
2203	 0.24838594470578 
2204	 0.248340067986538 
2205	 0.248285526819346 
2206	 0.248290139195618 
2207	 0.248319595290617 
2208	 0.248399964635948 
2209	 0.248561719338384 
2210	 0.248666307346645 
2211	 0.248791384428798 
2212	 0.248905695734347 
2213	 0.248974252882115 
2214	 0.249084117257484 
2215	 0.249242074382097 
2216	 0.249363353922154 
2217	 0.249484176581726 
2218	 0.249590466113344 
2219	 0.249649632011976 
2220	 0.249750982334419 
2221	 0.249877020072398 
2222	 0.24999551883035 
2223	 0.250108532592557 
2224	 0.250224762642915 
2225	 0.250304714243581 
2226	 0.25033564591743 
2227	 0.250399991164213 
2228	 0.25047642583373 
2229	 0.250520796286618 
2230	 0.250556481975202 
2231	 0.250591552502899 
2232	 0.250614704676255 
2233	 0.250614184288763 
2234	 0.250616577843832 
2235	 0.250593252346614 
2236	 0.250509303740221 
2237	 0.250466743098002 
2238	 0.2504434522369 
2239	 0.250400673496813 
2240	 0.250364214947072 
2241	 0.250321231622277 
2242	 0.250248430089927 
2243	 0.250198478598606 
2244	 0.250181586597326 
2245	 0.25012909362205 
2246	 0.250054833514002 
2247	 0.250018258156873 
2248	 0.249974623281627 
2249	 0.249918638033586 
2250	 0.249874997889031 
2251	 0.249853298812605 
2252	 0.249814068024357 
2253	 0.249757130043466 
2254	 0.249715785716689 
2255	 0.249688836018171 
2256	 0.249647036182175 
2257	 0.249592101826491 
2258	 0.249562793019606 
2259	 0.249542438039204 
2260	 0.249517734544767 
2261	 0.249500884715429 
2262	 0.249488838428462 
2263	 0.249467733354504 
2264	 0.249465314453758 
2265	 0.249493340872333 
2266	 0.24950612293181 
2267	 0.249500302499365 
2268	 0.249523434520665 
2269	 0.249547943688076 
2270	 0.249598207519308 
2271	 0.249687418646625 
2272	 0.249757512959814 
2273	 0.249807069663086 
2274	 0.249854930786165 
2275	 0.249865791154911 
2276	 0.249823949858975 
2277	 0.249827052702915 
2278	 0.249829281343746 
2279	 0.249831360341444 
2280	 0.249840099837581 
2281	 0.249880487410027 
2282	 0.249928638089731 
2283	 0.249972563066545 
2284	 0.250066532211391 
2285	 0.250113861147681 
2286	 0.250126907739398 
2287	 0.250141601964739 
2288	 0.250138606182524 
2289	 0.250143713155043 
2290	 0.250144529907794 
2291	 0.250142792729235 
2292	 0.250146722240689 
2293	 0.250148791753436 
2294	 0.250152908461879 
2295	 0.250136413491245 
2296	 0.250110892476002 
2297	 0.250076645659673 
2298	 0.250034114176376 
2299	 0.250025366251325 
2300	 0.250029212206314 
2301	 0.250038200834813 
2302	 0.250046718856368 
2303	 0.250032688311852 
2304	 0.250029874938972 
2305	 0.250045182925848 
2306	 0.250009547241654 
2307	 0.249932032142203 
2308	 0.249892492325153 
2309	 0.249841323610508 
2310	 0.249773260453777 
2311	 0.249735566240707 
2312	 0.249661305123261 
2313	 0.249515589364836 
2314	 0.249453028605161 
2315	 0.249428176609534 
2316	 0.249387202273748 
2317	 0.249394218789689 
2318	 0.249342343861548 
2319	 0.249239450947941 
2320	 0.249171243892184 
2321	 0.249109455855754 
2322	 0.24902843796366 
2323	 0.248950647839945 
2324	 0.248870897120504 
2325	 0.248760135804929 
2326	 0.24866882934283 
2327	 0.248594185510942 
2328	 0.248521395647238 
2329	 0.24844627584285 
2330	 0.248381143922064 
2331	 0.248342791085739 
2332	 0.248303063369366 
2333	 0.248291810062922 
2334	 0.248280179360236 
2335	 0.248305755078747 
2336	 0.248320713310283 
2337	 0.248255010375569 
2338	 0.248213913809751 
2339	 0.248132675929709 
2340	 0.24801438894922 
2341	 0.247927422499358 
2342	 0.24780526029177 
2343	 0.247675285749419 
2344	 0.247612766442319 
2345	 0.247523962076762 
2346	 0.247454437309468 
2347	 0.247366175064798 
2348	 0.247269198657614 
2349	 0.247134082417742 
2350	 0.246981320869598 
2351	 0.246830220874594 
2352	 0.246625139309702 
2353	 0.246483107092762 
2354	 0.246377417893535 
2355	 0.246268921655137 
2356	 0.246204654311892 
2357	 0.246096156894923 
2358	 0.245945325036788 
2359	 0.245839371679348 
2360	 0.245750210924834 
2361	 0.245654489791114 
2362	 0.245587198605461 
2363	 0.245491162330622 
2364	 0.245363845359112 
2365	 0.245237621669632 
2366	 0.245111021548867 
2367	 0.244997231265401 
2368	 0.244880675003768 
2369	 0.244767086250403 
2370	 0.244657662880845 
2371	 0.244570455362058 
2372	 0.244425338579486 
2373	 0.244220815742921 
2374	 0.244069268804922 
2375	 0.243826212809235 
2376	 0.243631314245783 
2377	 0.243449248744318 
2378	 0.243112836631948 
2379	 0.242835446334869 
2380	 0.2425801554514 
2381	 0.242333272140641 
2382	 0.242204946491257 
2383	 0.242070383983945 
2384	 0.241863343969183 
2385	 0.241687150495138 
2386	 0.241511198332431 
2387	 0.241277791991916 
2388	 0.241097198273202 
2389	 0.240931154389231 
2390	 0.240731775127369 
2391	 0.240509531908713 
2392	 0.240272310925549 
2393	 0.24007465778437 
2394	 0.239773761025929 
2395	 0.239436191034113 
2396	 0.239194268431315 
2397	 0.238918752741612 
2398	 0.238651484328871 
2399	 0.238535770508525 
2400	 0.238412454275144 
2401	 0.238087223243786 
2402	 0.237679896775634 
2403	 0.23730535197693 
2404	 0.236966323465042 
2405	 0.236634324397468 
2406	 0.236394918015309 
2407	 0.236154598271469 
2408	 0.23577675537004 
2409	 0.235452417830299 
2410	 0.235214279570515 
2411	 0.234978991744031 
2412	 0.234783663147841 
2413	 0.234606704829535 
2414	 0.234313872072775 
2415	 0.233999746243063 
2416	 0.233719076362005 
2417	 0.233407047252744 
2418	 0.23311309474995 
2419	 0.23287748693911 
2420	 0.232569549754241 
2421	 0.23221748450944 
2422	 0.231886110402341 
2423	 0.231592670181211 
2424	 0.231210157581438 
2425	 0.230732115535643 
2426	 0.230357114319277 
2427	 0.229953204304439 
2428	 0.229573320742571 
2429	 0.229310611892542 
2430	 0.229010106974157 
2431	 0.228604361032045 
2432	 0.228256726746743 
2433	 0.228052683990448 
2434	 0.227691376268435 
2435	 0.227212619600258 
2436	 0.226946735870693 
2437	 0.226663832227636 
2438	 0.226424784834947 
2439	 0.226446392591952 
2440	 0.226173946617216 
2441	 0.225723419864333 
2442	 0.22539863284889 
2443	 0.224979393397747 
2444	 0.22459520119843 
2445	 0.224276675328675 
2446	 0.223932607856881 
2447	 0.223546170906116 
2448	 0.223290206527929 
2449	 0.223149740742853 
2450	 0.222918216410146 
2451	 0.222730261423731 
2452	 0.222402292456158 
2453	 0.221944577662143 
2454	 0.221651574304404 
2455	 0.221334690506905 
2456	 0.221031295690429 
2457	 0.220812540324345 
2458	 0.220583543409063 
2459	 0.220381173958837 
2460	 0.220127157927904 
2461	 0.219877616525933 
2462	 0.219567260975299 
2463	 0.219228719905789 
2464	 0.218857262896914 
2465	 0.218413282513185 
2466	 0.21808606474862 
2467	 0.217648432024201 
2468	 0.217300059475367 
2469	 0.217165671047324 
2470	 0.216879902044175 
2471	 0.216754780509647 
2472	 0.216694404316161 
2473	 0.216415571039445 
2474	 0.216004188146889 
2475	 0.215616618743522 
2476	 0.215237124262037 
2477	 0.214848110634093 
2478	 0.21474944946201 
2479	 0.214745849292576 
2480	 0.214507889441323 
2481	 0.214192234104863 
2482	 0.213975396358181 
2483	 0.213732936140491 
2484	 0.213406215939329 
2485	 0.213200415938364 
2486	 0.213051451444077 
2487	 0.212825603013599 
2488	 0.212623521066792 
2489	 0.212482585564947 
2490	 0.212278696584776 
2491	 0.211831297555495 
2492	 0.211308316166319 
2493	 0.210977874522163 
2494	 0.210684677311572 
2495	 0.210511743647257 
2496	 0.210667156279615 
2497	 0.210719402253629 
2498	 0.210530296492843 
2499	 0.210401167111166 
2500	 0.210023696534581 
