Wavelength	mm1700000.asd
350	 9.14897961959266E-02 
351	 9.38832731013785E-02 
352	 9.57552361052487E-02 
353	 9.57426974678539E-02 
354	 8.96665274562094E-02 
355	 8.83176561703732E-02 
356	 8.81723775621018E-02 
357	 8.62867136998253E-02 
358	 9.97516131532148E-02 
359	 9.74647134620015E-02 
360	 8.56768974409926E-02 
361	 0.091902504886923 
362	 9.08712680501845E-02 
363	 8.90024330210876E-02 
364	 9.03565193649016E-02 
365	 8.91998749378282E-02 
366	 8.99216405424286E-02 
367	 9.31826511853867E-02 
368	 9.74346597105141E-02 
369	 9.71965374136559E-02 
370	 9.66370365258022E-02 
371	 9.72712544520795E-02 
372	 0.098490147737398 
373	 9.98353604697739E-02 
374	 0.102243019036827 
375	 0.10516431492752 
376	 0.105192903807978 
377	 0.104355951298624 
378	 0.104360064423844 
379	 0.106005178415386 
380	 0.106780598779895 
381	 0.107159284486093 
382	 0.108521327095075 
383	 0.112493200987847 
384	 0.116763833425258 
385	 0.118037076101514 
386	 0.116469534921621 
387	 0.118742434343928 
388	 0.12233484626931 
389	 0.124573746930275 
390	 0.123842819373247 
391	 0.123813085148138 
392	 0.12559012335571 
393	 0.129487077615015 
394	 0.134866296057683 
395	 0.135012597449114 
396	 0.135355398216888 
397	 0.1393831113323 
398	 0.142351390760678 
399	 0.144228614133791 
400	 0.145729519878579 
401	 0.147700659210186 
402	 0.149096146645125 
403	 0.151013065508044 
404	 0.153521426528449 
405	 0.15561012542683 
406	 0.15700021842703 
407	 0.158978828069685 
408	 0.16177020166938 
409	 0.161985754719049 
410	 0.162621145634582 
411	 0.164070679211945 
412	 0.165563422827264 
413	 0.167815037168873 
414	 0.168985150579133 
415	 0.169025200041206 
416	 0.170377570469521 
417	 0.170783651808018 
418	 0.171505193433823 
419	 0.173339672226159 
420	 0.172560719265165 
421	 0.172281247177309 
422	 0.172996347020412 
423	 0.173399587023666 
424	 0.172881165415516 
425	 0.172471981395653 
426	 0.172565040902052 
427	 0.172008533706783 
428	 0.171523273823303 
429	 0.171325705445031 
430	 0.171387973831101 
431	 0.171375019474974 
432	 0.170964755859575 
433	 0.170485661930522 
434	 0.170813165288125 
435	 0.170994322940686 
436	 0.171318752204383 
437	 0.172013455319003 
438	 0.172434663612507 
439	 0.17345767125544 
440	 0.17484283758149 
441	 0.175874542227452 
442	 0.176936119687854 
443	 0.178227297365316 
444	 0.179699438160878 
445	 0.180965218129367 
446	 0.182295236212632 
447	 0.183648572535151 
448	 0.184907853578273 
449	 0.185994542335743 
450	 0.187203289107467 
451	 0.18859420942265 
452	 0.190009525663087 
453	 0.191153520906355 
454	 0.192243848501507 
455	 0.193454766053235 
456	 0.194651100655078 
457	 0.195507023594646 
458	 0.196297289935586 
459	 0.197464206805065 
460	 0.198434118953525 
461	 0.199172638006217 
462	 0.19979685083505 
463	 0.200556711526991 
464	 0.20120292536477 
465	 0.201792376838646 
466	 0.20244448684445 
467	 0.20317498195394 
468	 0.203937053533805 
469	 0.2045517992966 
470	 0.204800444543833 
471	 0.205550224660656 
472	 0.206275965418723 
473	 0.206622875278945 
474	 0.207232261606462 
475	 0.207532208515671 
476	 0.207776641117497 
477	 0.208467214345931 
478	 0.209105137009669 
479	 0.209657061731442 
480	 0.210128195839066 
481	 0.210513616733014 
482	 0.211011105669719 
483	 0.211591426083058 
484	 0.212160933386559 
485	 0.212674362157514 
486	 0.213206230099137 
487	 0.213671949964224 
488	 0.213889542515465 
489	 0.214371738075493 
490	 0.214896561080867 
491	 0.215292012592942 
492	 0.215860717023336 
493	 0.216264232862002 
494	 0.216613126436792 
495	 0.217166770858829 
496	 0.217562718267167 
497	 0.217966559945914 
498	 0.218421011239557 
499	 0.218706682998493 
500	 0.219135596287067 
501	 0.219624693406409 
502	 0.220022934222177 
503	 0.220431742692377 
504	 0.220886699114855 
505	 0.221303760364427 
506	 0.221520193708796 
507	 0.222100503315899 
508	 0.222707177183307 
509	 0.223027838825562 
510	 0.22328486209119 
511	 0.223551882874324 
512	 0.223878356140144 
513	 0.224288166625867 
514	 0.224793072439958 
515	 0.225183388717969 
516	 0.225447905884025 
517	 0.225961377875087 
518	 0.22631028197159 
519	 0.226570759821088 
520	 0.226932928508357 
521	 0.227274368905899 
522	 0.22767825943296 
523	 0.228100642004678 
524	 0.228361746578975 
525	 0.228709523407858 
526	 0.22903605880267 
527	 0.22926341351862 
528	 0.229678973509034 
529	 0.230013102079892 
530	 0.230314426921137 
531	 0.230806328729887 
532	 0.231118292128462 
533	 0.231386000444035 
534	 0.231734985123414 
535	 0.232120806154085 
536	 0.232519520623602 
537	 0.23289317883824 
538	 0.233223284833068 
539	 0.233651930431959 
540	 0.233994701232668 
541	 0.234228091067607 
542	 0.23456990743642 
543	 0.234912794144859 
544	 0.235315560736599 
545	 0.235813034566107 
546	 0.236186540937768 
547	 0.236533500041466 
548	 0.236920879676112 
549	 0.237373821544987 
550	 0.237767646484514 
551	 0.238123578631135 
552	 0.238489983141098 
553	 0.238903781029531 
554	 0.239369980330835 
555	 0.239863562404784 
556	 0.240350718883039 
557	 0.240891623941895 
558	 0.24143735544193 
559	 0.241968702979607 
560	 0.242542458037873 
561	 0.243088344543956 
562	 0.24359861672381 
563	 0.244105470603682 
564	 0.244733636582093 
565	 0.245277359626001 
566	 0.245686000066698 
567	 0.246102306784442 
568	 0.246527859093667 
569	 0.247111865944 
570	 0.247939611603801 
571	 0.248815947638224 
572	 0.24967798927042 
573	 0.250438942450146 
574	 0.251017631154476 
575	 0.251546339226373 
576	 0.252262193136857 
577	 0.253212935507831 
578	 0.254024784666406 
579	 0.254760955659902 
580	 0.255433983241274 
581	 0.256053058498714 
582	 0.256630477335586 
583	 0.257253744167633 
584	 0.257979067782494 
585	 0.258816932106528 
586	 0.259724826038652 
587	 0.260685547093611 
588	 0.261670968343758 
589	 0.262579670876288 
590	 0.263484934307665 
591	 0.264402098835352 
592	 0.265289719224402 
593	 0.266123241681111 
594	 0.26679108091484 
595	 0.267270683868072 
596	 0.26778732762163 
597	 0.268387935999941 
598	 0.26900779220037 
599	 0.269547193791783 
600	 0.270224408547216 
601	 0.270992466010642 
602	 0.271769824263583 
603	 0.272478037619468 
604	 0.273117953093786 
605	 0.273773841952443 
606	 0.274534521161969 
607	 0.27532705822965 
608	 0.276059154399812 
609	 0.276755402803607 
610	 0.277569821669488 
611	 0.278206915505594 
612	 0.278686141034858 
613	 0.279108333156331 
614	 0.279563753296757 
615	 0.279963755707277 
616	 0.280345000123656 
617	 0.280816486410949 
618	 0.281263098238708 
619	 0.281659903234851 
620	 0.282018966047433 
621	 0.282395013422501 
622	 0.282786648291319 
623	 0.283164629469273 
624	 0.283498362625925 
625	 0.283842885980934 
626	 0.28417481116035 
627	 0.284497696442804 
628	 0.284858738033201 
629	 0.285148000008147 
630	 0.285435930354157 
631	 0.285796015632309 
632	 0.286105831586144 
633	 0.286419107017814 
634	 0.286733977830707 
635	 0.287006403204969 
636	 0.287302944454021 
637	 0.287632821880879 
638	 0.287964184127126 
639	 0.288181699730174 
640	 0.288460565165211 
641	 0.288778902125963 
642	 0.289039661811254 
643	 0.289344775497873 
644	 0.289649502233226 
645	 0.289931012299403 
646	 0.290219229096922 
647	 0.290420878360425 
648	 0.290651320206068 
649	 0.29101832204753 
650	 0.291334877639824 
651	 0.291618818557172 
652	 0.291893913120223 
653	 0.292183732234813 
654	 0.292474821969614 
655	 0.292762723954919 
656	 0.293056047459775 
657	 0.293391839836636 
658	 0.293753652021215 
659	 0.294060056126146 
660	 0.294238602024658 
661	 0.294522178249287 
662	 0.294903644884876 
663	 0.295290354686897 
664	 0.295498466502158 
665	 0.295890505057663 
666	 0.296306580690292 
667	 0.296545570337536 
668	 0.296898270465879 
669	 0.297285721716513 
670	 0.297648189071325 
671	 0.297953578759721 
672	 0.298222085165307 
673	 0.298585465434584 
674	 0.299069613182549 
675	 0.299412150566866 
676	 0.299741661424197 
677	 0.300085141094434 
678	 0.300436115318395 
679	 0.300842819573805 
680	 0.301236104754997 
681	 0.30160134519796 
682	 0.302007205151324 
683	 0.302395730311064 
684	 0.302788911864265 
685	 0.303206020287853 
686	 0.303579882464294 
687	 0.30397569698147 
688	 0.304383029944623 
689	 0.304746646709374 
690	 0.305183822937089 
691	 0.30561022831058 
692	 0.305983088930961 
693	 0.306404932522798 
694	 0.306788330578348 
695	 0.307190852486265 
696	 0.307673683349643 
697	 0.308013733835319 
698	 0.308396970403748 
699	 0.308850748342413 
700	 0.309217381183841 
701	 0.309656777891077 
702	 0.310133393987173 
703	 0.310576526038534 
704	 0.310936024905712 
705	 0.311270819074109 
706	 0.311635456205413 
707	 0.312065128957669 
708	 0.312473689016211 
709	 0.312871065949301 
710	 0.313270129981092 
711	 0.313675572173563 
712	 0.313995722059951 
713	 0.314298632500045 
714	 0.314670886913275 
715	 0.315092249640988 
716	 0.315445475957828 
717	 0.315737755899414 
718	 0.316072013906567 
719	 0.31651879064446 
720	 0.316874127714857 
721	 0.317063509718904 
722	 0.317331261180243 
723	 0.317646853707523 
724	 0.317955617046991 
725	 0.318213093938527 
726	 0.318513846755568 
727	 0.318782149772463 
728	 0.318999841795824 
729	 0.319211755697526 
730	 0.319479438414816 
731	 0.319712578240967 
732	 0.319862690787562 
733	 0.320050915360428 
734	 0.320205755699651 
735	 0.320319654396784 
736	 0.320419933486892 
737	 0.320576164884117 
738	 0.320737660472353 
739	 0.320871882693162 
740	 0.320978051472046 
741	 0.321087121568536 
742	 0.321156477206661 
743	 0.32117179889477 
744	 0.321242798373607 
745	 0.321257947692529 
746	 0.321255760589071 
747	 0.321326772171594 
748	 0.321390988708633 
749	 0.321379811398953 
750	 0.321316849800025 
751	 0.321330813426733 
752	 0.321312932900601 
753	 0.321178744813263 
754	 0.320957732040984 
755	 0.320998317301292 
756	 0.320971948441519 
757	 0.320824692875116 
758	 0.320656447544189 
759	 0.320529334285247 
760	 0.320467419208287 
761	 0.3204094595899 
762	 0.320202362034949 
763	 0.320084982796987 
764	 0.319941743806424 
765	 0.319686598563761 
766	 0.319574743227373 
767	 0.319457890198036 
768	 0.319288668511217 
769	 0.319080543563201 
770	 0.318881683872696 
771	 0.318711976294309 
772	 0.318545144911245 
773	 0.318308369190193 
774	 0.318108244103206 
775	 0.317909266364867 
776	 0.317667821874131 
777	 0.317400259560249 
778	 0.317182737561444 
779	 0.31701577053737 
780	 0.316850744331343 
781	 0.316596675246228 
782	 0.316371008457843 
783	 0.31619059297796 
784	 0.315953512527924 
785	 0.315724684365544 
786	 0.31550607846836 
787	 0.315286913338651 
788	 0.315050616475925 
789	 0.314854015647593 
790	 0.314638052451952 
791	 0.314346545659002 
792	 0.314187232207858 
793	 0.313957131387724 
794	 0.31366266390861 
795	 0.3134899113982 
796	 0.313245547417748 
797	 0.31303033006271 
798	 0.312885482776119 
799	 0.312661694702797 
800	 0.31244907765664 
801	 0.312247799110608 
802	 0.31203592468339 
803	 0.311808644197395 
804	 0.311614560862089 
805	 0.311424808798714 
806	 0.311177124326843 
807	 0.310971567463603 
808	 0.310795791027425 
809	 0.310622597497833 
810	 0.310423537811901 
811	 0.310204720585112 
812	 0.309991584011436 
813	 0.309815751717634 
814	 0.309716826925176 
815	 0.309637167154721 
816	 0.309477126728287 
817	 0.309176301001456 
818	 0.308937143309119 
819	 0.308839303192596 
820	 0.308776234114569 
821	 0.308522420267129 
822	 0.308344322259267 
823	 0.308140796150538 
824	 0.307910791842043 
825	 0.307903589534526 
826	 0.307834966220412 
827	 0.307689127938087 
828	 0.307520496548429 
829	 0.307348018278182 
830	 0.30716228002652 
831	 0.307009749899515 
832	 0.306939237340168 
833	 0.306862630098133 
834	 0.306711132465467 
835	 0.306515235901667 
836	 0.306392688014561 
837	 0.306359027483737 
838	 0.306314673322213 
839	 0.306195454595506 
840	 0.306032271033285 
841	 0.305882131731851 
842	 0.305769069294555 
843	 0.305695681937658 
844	 0.305643844565255 
845	 0.305598334812794 
846	 0.305526699061486 
847	 0.305414761631855 
848	 0.305384354677609 
849	 0.305321344413704 
850	 0.305229253620506 
851	 0.305206782293304 
852	 0.30511009477445 
853	 0.304999183626005 
854	 0.304926501730627 
855	 0.304889408422356 
856	 0.304930009145913 
857	 0.304977655201936 
858	 0.304964736200075 
859	 0.304892799081773 
860	 0.304882145755197 
861	 0.304866416834807 
862	 0.304759532098931 
863	 0.304702602529244 
864	 0.304715457890305 
865	 0.304762251430072 
866	 0.304781591569315 
867	 0.304802253089611 
868	 0.304783970642297 
869	 0.304747622846864 
870	 0.304771392664095 
871	 0.304764637539558 
872	 0.304830789076522 
873	 0.304980627019505 
874	 0.305033414654337 
875	 0.305097764897425 
876	 0.305122747135743 
877	 0.305081893662002 
878	 0.305106077236835 
879	 0.305153026397782 
880	 0.305199001919315 
881	 0.305241137621904 
882	 0.305343417988643 
883	 0.305456691348281 
884	 0.305539264939273 
885	 0.30557417974351 
886	 0.305639943825452 
887	 0.305727642885163 
888	 0.305814612959843 
889	 0.305882774030293 
890	 0.306021035062323 
891	 0.306150978371734 
892	 0.306250590250799 
893	 0.306392797073243 
894	 0.306570375143981 
895	 0.306691800924432 
896	 0.306757415694447 
897	 0.306955689515103 
898	 0.307154040897364 
899	 0.30726828866687 
900	 0.30730249529646 
901	 0.307447933797876 
902	 0.307635114169042 
903	 0.307795448845958 
904	 0.307895820369387 
905	 0.308039512906539 
906	 0.308192961421401 
907	 0.308421639431513 
908	 0.30877795008016 
909	 0.309034038814227 
910	 0.309201411411568 
911	 0.309319682806422 
912	 0.309442656253709 
913	 0.309610811871443 
914	 0.309851126672576 
915	 0.310103799312163 
916	 0.310263140818402 
917	 0.310498763671873 
918	 0.310772754129837 
919	 0.311006978050321 
920	 0.311136359422022 
921	 0.311491360823181 
922	 0.311812564445727 
923	 0.311974969817965 
924	 0.312196926190885 
925	 0.312416474410439 
926	 0.312740178762561 
927	 0.313140066777776 
928	 0.313300855787227 
929	 0.313578223346639 
930	 0.313925446985837 
931	 0.314241878602929 
932	 0.314558298762806 
933	 0.314800338417612 
934	 0.315070429333216 
935	 0.315457675798792 
936	 0.315875240423561 
937	 0.31615516310827 
938	 0.316359980825366 
939	 0.316623942407247 
940	 0.316998337509109 
941	 0.317420813464305 
942	 0.317805072035464 
943	 0.318107215826783 
944	 0.318466722361869 
945	 0.318792644570596 
946	 0.319127998466546 
947	 0.319529875321993 
948	 0.3198354856239 
949	 0.320134088791454 
950	 0.320475831648949 
951	 0.320880602446927 
952	 0.32137418843112 
953	 0.321711805195193 
954	 0.32205393867115 
955	 0.322667027529731 
956	 0.323060788839257 
957	 0.323410865531379 
958	 0.323727463681597 
959	 0.32395569712113 
960	 0.324371413965588 
961	 0.324850105947613 
962	 0.325338416292256 
963	 0.325834932391836 
964	 0.326247779897092 
965	 0.326755269149996 
966	 0.327275073702365 
967	 0.327605510990764 
968	 0.328004797812644 
969	 0.328414060491292 
970	 0.328840813595263 
971	 0.329337645649188 
972	 0.329882518175483 
973	 0.330380449159926 
974	 0.330853794991797 
975	 0.331372015421379 
976	 0.331758752779816 
977	 0.332165557618716 
978	 0.332658281072919 
979	 0.33322525648523 
980	 0.333909624928485 
981	 0.334340093475824 
982	 0.334613102530688 
983	 0.335052805723339 
984	 0.335409767586279 
985	 0.335807459257574 
986	 0.336348745981421 
987	 0.337017924780059 
988	 0.337401043517486 
989	 0.337799193014926 
990	 0.338329036066936 
991	 0.338931438936451 
992	 0.339366387145646 
993	 0.339762140159739 
994	 0.340196451880503 
995	 0.340682657349832 
996	 0.341125777077664 
997	 0.341578072890653 
998	 0.34198417017733 
999	 0.342355848687179 
1000	 0.343081568564459 
1001	 0.33644106170281 
1002	 0.336729662407827 
1003	 0.337086934774869 
1004	 0.337496267510289 
1005	 0.337938674542917 
1006	 0.338348573546111 
1007	 0.338829869391824 
1008	 0.339234308431696 
1009	 0.339532747991051 
1010	 0.339860283719066 
1011	 0.340165603201542 
1012	 0.340503602834062 
1013	 0.340885056344125 
1014	 0.341228361127356 
1015	 0.341560014374013 
1016	 0.341922773330624 
1017	 0.342317114107873 
1018	 0.342746719101651 
1019	 0.343135404772021 
1020	 0.343481033870201 
1021	 0.343798091648722 
1022	 0.344008698646626 
1023	 0.344221416058507 
1024	 0.344515502410681 
1025	 0.344834200179923 
1026	 0.345135103431076 
1027	 0.345440578950617 
1028	 0.345763520299713 
1029	 0.346060870506403 
1030	 0.346381185579495 
1031	 0.34668950008375 
1032	 0.347006910099361 
1033	 0.347285940013319 
1034	 0.347563488637506 
1035	 0.347843843094316 
1036	 0.348109040062026 
1037	 0.348370514312055 
1038	 0.348689801662562 
1039	 0.348992013237216 
1040	 0.349287690855232 
1041	 0.349628125467876 
1042	 0.349959068973313 
1043	 0.350252867720917 
1044	 0.35056106641452 
1045	 0.350881017951951 
1046	 0.351230749846743 
1047	 0.351509137590007 
1048	 0.351820932893395 
1049	 0.35217829565304 
1050	 0.35248684731232 
1051	 0.352841190448082 
1052	 0.353155559533365 
1053	 0.353404188806812 
1054	 0.353686946372081 
1055	 0.354037047238642 
1056	 0.354397358214072 
1057	 0.354739456784076 
1058	 0.355162134137859 
1059	 0.355503855809899 
1060	 0.355783105147276 
1061	 0.356026023741493 
1062	 0.356302517595479 
1063	 0.35654857713302 
1064	 0.356763487207287 
1065	 0.356997779184544 
1066	 0.357255538129488 
1067	 0.357478735047559 
1068	 0.357697586611561 
1069	 0.357952931264361 
1070	 0.358196366427294 
1071	 0.358420737600116 
1072	 0.358677629113279 
1073	 0.358964535519609 
1074	 0.359222294374908 
1075	 0.359487456860677 
1076	 0.359754281903232 
1077	 0.359961454027915 
1078	 0.360125394537966 
1079	 0.360303369084349 
1080	 0.360467969989146 
1081	 0.360621576556372 
1082	 0.360799900285837 
1083	 0.360973294645409 
1084	 0.361134196057214 
1085	 0.361319333552089 
1086	 0.361528184167634 
1087	 0.361704807519628 
1088	 0.361873603434689 
1089	 0.362054744674313 
1090	 0.362216931210134 
1091	 0.362371134628326 
1092	 0.362527058411843 
1093	 0.3626514119696 
1094	 0.362772793754482 
1095	 0.362960654266788 
1096	 0.363166623444096 
1097	 0.363342232646619 
1098	 0.363513999297293 
1099	 0.36368225772486 
1100	 0.363823797602144 
1101	 0.363939558542344 
1102	 0.364078550679792 
1103	 0.364218098979623 
1104	 0.364338364586065 
1105	 0.364471510280264 
1106	 0.364617752350707 
1107	 0.364772400759503 
1108	 0.364918728229853 
1109	 0.365077491910103 
1110	 0.365263428285912 
1111	 0.365445617050538 
1112	 0.365644868965054 
1113	 0.365814266727762 
1114	 0.365977369146405 
1115	 0.36612990354053 
1116	 0.366245385059563 
1117	 0.366396185215094 
1118	 0.366554806061552 
1119	 0.366725459518341 
1120	 0.366942760955469 
1121	 0.36713404913176 
1122	 0.36729752759824 
1123	 0.367493347233921 
1124	 0.367684359808198 
1125	 0.367869127344277 
1126	 0.368035550327569 
1127	 0.368216697020915 
1128	 0.368370978550108 
1129	 0.36846731636957 
1130	 0.368617769823195 
1131	 0.368805914555995 
1132	 0.368960867867976 
1133	 0.369103006519575 
1134	 0.369270664829176 
1135	 0.369439313428441 
1136	 0.36960374264042 
1137	 0.369779587493052 
1138	 0.36994553989767 
1139	 0.370110716029777 
1140	 0.370263237503337 
1141	 0.370404981536095 
1142	 0.370540170814676 
1143	 0.370688655746732 
1144	 0.370828770950184 
1145	 0.370962671312052 
1146	 0.371112662868059 
1147	 0.37125257750776 
1148	 0.371364088693313 
1149	 0.371488940498638 
1150	 0.371623138033343 
1151	 0.371772910881684 
1152	 0.371882868871968 
1153	 0.372001188919016 
1154	 0.372111223901628 
1155	 0.372190953406655 
1156	 0.372313301953432 
1157	 0.372457955294295 
1158	 0.372589025116055 
1159	 0.372748235760985 
1160	 0.372876984441964 
1161	 0.372974785179928 
1162	 0.373094821883446 
1163	 0.373226296025541 
1164	 0.373337598201007 
1165	 0.373445097929314 
1166	 0.373550433666945 
1167	 0.373652588380392 
1168	 0.373753823749702 
1169	 0.373872985834541 
1170	 0.374023972063918 
1171	 0.37414090279443 
1172	 0.374249696547602 
1173	 0.374357937733107 
1174	 0.374447931140941 
1175	 0.374552294195609 
1176	 0.374665361061312 
1177	 0.374773314317302 
1178	 0.374888625949137 
1179	 0.374993573984842 
1180	 0.375092926220512 
1181	 0.375190066315692 
1182	 0.375276298051703 
1183	 0.375367743825916 
1184	 0.375458589082427 
1185	 0.375547790632938 
1186	 0.375639170804385 
1187	 0.375731776044945 
1188	 0.375825189074777 
1189	 0.375924535535209 
1190	 0.376014292509427 
1191	 0.376096213285112 
1192	 0.376186728280029 
1193	 0.376262974369026 
1194	 0.37636475147352 
1195	 0.376507086335249 
1196	 0.376612610409431 
1197	 0.376713089314741 
1198	 0.376809703325715 
1199	 0.37689526737392 
1200	 0.376948837062066 
1201	 0.37703030587014 
1202	 0.377126982304475 
1203	 0.377208909426592 
1204	 0.377285878504387 
1205	 0.377366597157452 
1206	 0.377437211044023 
1207	 0.37752488996423 
1208	 0.377634332951112 
1209	 0.377721760983996 
1210	 0.377817704032526 
1211	 0.377891962703584 
1212	 0.377915711810126 
1213	 0.37798350179947 
1214	 0.378071566981227 
1215	 0.378152396049124 
1216	 0.37824092725384 
1217	 0.378364310495095 
1218	 0.378443661529555 
1219	 0.378489827878311 
1220	 0.37856737027157 
1221	 0.378652314716929 
1222	 0.378725050359052 
1223	 0.378805505001197 
1224	 0.37887965505076 
1225	 0.378934072876416 
1226	 0.379001263642972 
1227	 0.379085987702541 
1228	 0.379156182983377 
1229	 0.37921557681125 
1230	 0.379280948037542 
1231	 0.37934084483811 
1232	 0.37940503201697 
1233	 0.379472637901537 
1234	 0.379547564840074 
1235	 0.379618574244866 
1236	 0.379691246174336 
1237	 0.379760862470244 
1238	 0.379831553534445 
1239	 0.379897225151104 
1240	 0.379952428378035 
1241	 0.380021661174628 
1242	 0.38010036078892 
1243	 0.380167976626863 
1244	 0.38024415835906 
1245	 0.38030804384904 
1246	 0.380356013810909 
1247	 0.380407313948186 
1248	 0.380452764158235 
1249	 0.380501473436865 
1250	 0.380561637088427 
1251	 0.380611280747209 
1252	 0.380667996913156 
1253	 0.380733221182675 
1254	 0.380790642765207 
1255	 0.380854281149864 
1256	 0.380893520146296 
1257	 0.380916101760328 
1258	 0.380948322872595 
1259	 0.380957592153478 
1260	 0.380989705218189 
1261	 0.381042871412498 
1262	 0.38108784088606 
1263	 0.381146402151563 
1264	 0.38118811721032 
1265	 0.381219282013328 
1266	 0.381251172451142 
1267	 0.381271425664233 
1268	 0.381282858878035 
1269	 0.381326228504223 
1270	 0.381383008664751 
1271	 0.381441811589754 
1272	 0.381523158489002 
1273	 0.381594696605239 
1274	 0.381651184207986 
1275	 0.38173968665872 
1276	 0.381838634087324 
1277	 0.381951633800082 
1278	 0.382110980189178 
1279	 0.382228835396561 
1280	 0.38233027763626 
1281	 0.382444558765195 
1282	 0.382539232802877 
1283	 0.382646381584803 
1284	 0.382780410843532 
1285	 0.382899705751037 
1286	 0.382994062094387 
1287	 0.383092737862157 
1288	 0.383200203348467 
1289	 0.383311362893338 
1290	 0.383406005167634 
1291	 0.383509449256813 
1292	 0.383590211502887 
1293	 0.383643137917111 
1294	 0.383704536642167 
1295	 0.383771009902811 
1296	 0.383820688932064 
1297	 0.38386181884381 
1298	 0.383893057170494 
1299	 0.383909584032542 
1300	 0.383919799436974 
1301	 0.383918842943894 
1302	 0.383917433514031 
1303	 0.383913001507924 
1304	 0.383901000168425 
1305	 0.383884750273489 
1306	 0.383852419678949 
1307	 0.383791076162222 
1308	 0.383732906604223 
1309	 0.383673999587192 
1310	 0.383606509419838 
1311	 0.383536972297853 
1312	 0.38347023565347 
1313	 0.383399231416689 
1314	 0.383319227699718 
1315	 0.383245546755776 
1316	 0.383173655351708 
1317	 0.383099371564863 
1318	 0.38302091822381 
1319	 0.382947144650059 
1320	 0.38287684046229 
1321	 0.382810878384848 
1322	 0.382742029435824 
1323	 0.382686049311228 
1324	 0.38265143205798 
1325	 0.382597340063198 
1326	 0.382558586359352 
1327	 0.382519457064469 
1328	 0.382465111782242 
1329	 0.382433483298222 
1330	 0.38239055286002 
1331	 0.382355028282973 
1332	 0.382298113562291 
1333	 0.382243197201583 
1334	 0.382154431352931 
1335	 0.382014590479954 
1336	 0.381931393763778 
1337	 0.381836536518954 
1338	 0.381780896651985 
1339	 0.381786102334421 
1340	 0.38176479695673 
1341	 0.381752091996603 
1342	 0.381726801246822 
1343	 0.381688383304419 
1344	 0.381659825772702 
1345	 0.381622875889346 
1346	 0.381597703876827 
1347	 0.381591243665318 
1348	 0.381566315462455 
1349	 0.381505796227454 
1350	 0.38143825238543 
1351	 0.381378140385995 
1352	 0.381293821863157 
1353	 0.38123006052001 
1354	 0.381186785686021 
1355	 0.381137171754718 
1356	 0.381089573694434 
1357	 0.381028128756017 
1358	 0.380959399732202 
1359	 0.380901954195404 
1360	 0.380825243714813 
1361	 0.380776243442396 
1362	 0.380764313258773 
1363	 0.380732075074429 
1364	 0.380695280243327 
1365	 0.380662772134472 
1366	 0.380627861054435 
1367	 0.380584407544984 
1368	 0.380575963560218 
1369	 0.380576696094812 
1370	 0.380536318259033 
1371	 0.380492456644291 
1372	 0.380438006342757 
1373	 0.380355726102151 
1374	 0.380265318046516 
1375	 0.380186239623796 
1376	 0.380064140982157 
1377	 0.379904239745286 
1378	 0.379735762290005 
1379	 0.37953592978778 
1380	 0.379359425257391 
1381	 0.379173626868478 
1382	 0.378989953654969 
1383	 0.378850544504946 
1384	 0.378637755077998 
1385	 0.378407706406428 
1386	 0.378136183678341 
1387	 0.377813685898386 
1388	 0.377468424547683 
1389	 0.377101087598434 
1390	 0.376692493509933 
1391	 0.376248255229226 
1392	 0.375749039239345 
1393	 0.375189298550461 
1394	 0.37459203408726 
1395	 0.373946541145827 
1396	 0.373303167008455 
1397	 0.372676413375399 
1398	 0.372041345980999 
1399	 0.371421527091912 
1400	 0.370816741227311 
1401	 0.370219074723713 
1402	 0.36960080052207 
1403	 0.369050628924059 
1404	 0.368523846643976 
1405	 0.368039072363711 
1406	 0.367611200818969 
1407	 0.367194208466199 
1408	 0.366766792218667 
1409	 0.366437082119596 
1410	 0.366099469318245 
1411	 0.365922358551486 
1412	 0.365852551216865 
1413	 0.365878228341797 
1414	 0.366048941817688 
1415	 0.366289059123615 
1416	 0.36660303650007 
1417	 0.366997207679944 
1418	 0.367401342224664 
1419	 0.367830477856494 
1420	 0.368275719886846 
1421	 0.368675086075899 
1422	 0.369026531430259 
1423	 0.369329564866899 
1424	 0.369552596615585 
1425	 0.369675704974964 
1426	 0.369812361594709 
1427	 0.369884816041104 
1428	 0.369982693826107 
1429	 0.370080237495169 
1430	 0.370164077155993 
1431	 0.370256003482099 
1432	 0.370305076502544 
1433	 0.370323886549498 
1434	 0.370338879427273 
1435	 0.370302501921544 
1436	 0.37030581085743 
1437	 0.370328921737216 
1438	 0.370345882888744 
1439	 0.37037542320724 
1440	 0.370406310026087 
1441	 0.370413155289875 
1442	 0.370403233851489 
1443	 0.370371101239996 
1444	 0.370332869696303 
1445	 0.370302934367166 
1446	 0.370274187971345 
1447	 0.370270997730111 
1448	 0.370280370725292 
1449	 0.370254730871067 
1450	 0.370217951430527 
1451	 0.370181990099533 
1452	 0.370120418449746 
1453	 0.370077433642146 
1454	 0.370045660117805 
1455	 0.370014418255094 
1456	 0.369989061754124 
1457	 0.36995103495255 
1458	 0.369913544362728 
1459	 0.369873161902268 
1460	 0.369814356427606 
1461	 0.369774247417678 
1462	 0.369737286288332 
1463	 0.369714378616476 
1464	 0.369724815864793 
1465	 0.369696494170022 
1466	 0.369644284363001 
1467	 0.369617521412078 
1468	 0.369547518331024 
1469	 0.369541590227984 
1470	 0.369588626745531 
1471	 0.369653305303517 
1472	 0.369720901781081 
1473	 0.369792442729893 
1474	 0.369834680100321 
1475	 0.369887745346089 
1476	 0.369948093194881 
1477	 0.370010880046896 
1478	 0.370074508033183 
1479	 0.370131372478128 
1480	 0.370212023431466 
1481	 0.370289588033086 
1482	 0.370374467540316 
1483	 0.370484317573129 
1484	 0.370573254101133 
1485	 0.3706479880761 
1486	 0.3707364671057 
1487	 0.37081865985641 
1488	 0.370919503235143 
1489	 0.371049705485633 
1490	 0.371143238501138 
1491	 0.371245454853292 
1492	 0.371311996549694 
1493	 0.371324494754657 
1494	 0.371370686248192 
1495	 0.37141761463667 
1496	 0.371463972293431 
1497	 0.371526343687262 
1498	 0.371572688513695 
1499	 0.371605443769102 
1500	 0.371638725333843 
1501	 0.37166740202507 
1502	 0.37169994090161 
1503	 0.371731807078598 
1504	 0.37175596121834 
1505	 0.371803095432916 
1506	 0.371867105987272 
1507	 0.371923939278567 
1508	 0.371988144628721 
1509	 0.372045442287279 
1510	 0.372062806980497 
1511	 0.372072255941283 
1512	 0.372090550733512 
1513	 0.372092073282529 
1514	 0.372112493291584 
1515	 0.372144875706119 
1516	 0.372169865265772 
1517	 0.372204001442436 
1518	 0.37224266055704 
1519	 0.372286185904256 
1520	 0.372346066199801 
1521	 0.372378450686965 
1522	 0.372397448672569 
1523	 0.372427910783374 
1524	 0.372442394415192 
1525	 0.372474301141318 
1526	 0.372532661241761 
1527	 0.372573783197845 
1528	 0.372610536650088 
1529	 0.372642958947916 
1530	 0.372674415943994 
1531	 0.372689815730577 
1532	 0.372679542928865 
1533	 0.372695932189488 
1534	 0.372721567088358 
1535	 0.37274447710103 
1536	 0.372783280437326 
1537	 0.37281195962276 
1538	 0.372822689701629 
1539	 0.372842796400385 
1540	 0.37288154605116 
1541	 0.37290121760398 
1542	 0.37291318061661 
1543	 0.372921244696408 
1544	 0.372905920245719 
1545	 0.372906435309478 
1546	 0.372917160505826 
1547	 0.372925354925169 
1548	 0.372927598183065 
1549	 0.372927099311533 
1550	 0.372909739035127 
1551	 0.37290715182654 
1552	 0.37292441276662 
1553	 0.372948242628256 
1554	 0.372969944840099 
1555	 0.372970572617964 
1556	 0.37295835074518 
1557	 0.37295505283616 
1558	 0.372974304754217 
1559	 0.373009710132058 
1560	 0.37303381037674 
1561	 0.373075722223947 
1562	 0.373080955861051 
1563	 0.373054965295749 
1564	 0.373061093054885 
1565	 0.37307119559369 
1566	 0.37307122971955 
1567	 0.373085307328798 
1568	 0.37308515485541 
1569	 0.373051580257179 
1570	 0.373053673473026 
1571	 0.373089109737257 
1572	 0.373088435930898 
1573	 0.373077878112892 
1574	 0.373080379025076 
1575	 0.373070176152334 
1576	 0.373060787257015 
1577	 0.373070481994481 
1578	 0.37306190274878 
1579	 0.373022110944613 
1580	 0.373012523762349 
1581	 0.373007954970065 
1582	 0.373021017585784 
1583	 0.373072148372366 
1584	 0.373090961295687 
1585	 0.373115744702925 
1586	 0.37311598079767 
1587	 0.373080183104965 
1588	 0.37305407185955 
1589	 0.373010418899468 
1590	 0.372990891806455 
1591	 0.372996014989157 
1592	 0.372979144331896 
1593	 0.37294264462441 
1594	 0.372940837362157 
1595	 0.372943018356709 
1596	 0.372951096397779 
1597	 0.37300219316243 
1598	 0.373032274087002 
1599	 0.373061448460041 
1600	 0.373065361857626 
1601	 0.37304843345107 
1602	 0.373038864870797 
1603	 0.37298519654666 
1604	 0.372971989230944 
1605	 0.373003570056098 
1606	 0.373016374472818 
1607	 0.373041842727272 
1608	 0.373063882889231 
1609	 0.373061772886648 
1610	 0.373043151069016 
1611	 0.373000853196686 
1612	 0.372983367917068 
1613	 0.372961482939591 
1614	 0.372909903264551 
1615	 0.372889622086103 
1616	 0.37286454698927 
1617	 0.372822579745097 
1618	 0.372807618076567 
1619	 0.372819468127397 
1620	 0.372811464382859 
1621	 0.37280245514569 
1622	 0.372817838403882 
1623	 0.372785679274606 
1624	 0.372712358596649 
1625	 0.372669554799069 
1626	 0.372614567420198 
1627	 0.372583030723627 
1628	 0.372567039229776 
1629	 0.372560643363164 
1630	 0.372564348773964 
1631	 0.372575593787497 
1632	 0.372606418997843 
1633	 0.372620327565686 
1634	 0.372640228611006 
1635	 0.372638509198782 
1636	 0.372623188042142 
1637	 0.372607974841304 
1638	 0.372572657673267 
1639	 0.372562993544116 
1640	 0.372562290212281 
1641	 0.372559614238712 
1642	 0.372573746306251 
1643	 0.372567090307488 
1644	 0.372537263016577 
1645	 0.37254266381149 
1646	 0.372568717376748 
1647	 0.372565119276388 
1648	 0.372573902140078 
1649	 0.372560343026599 
1650	 0.372501415813515 
1651	 0.37248192672872 
1652	 0.372486251746963 
1653	 0.372469192622171 
1654	 0.372448848819031 
1655	 0.372433697780962 
1656	 0.372414895627906 
1657	 0.372390298120189 
1658	 0.372379362862904 
1659	 0.372342147305094 
1660	 0.372272644478055 
1661	 0.372228560507735 
1662	 0.37218531812132 
1663	 0.372144353407775 
1664	 0.372117596630372 
1665	 0.372080047072435 
1666	 0.372019774232519 
1667	 0.371998893997752 
1668	 0.372008990195727 
1669	 0.371990051844441 
1670	 0.371988656880038 
1671	 0.371960365017785 
1672	 0.371889883205724 
1673	 0.371847518496118 
1674	 0.371813315547656 
1675	 0.371777886166677 
1676	 0.371733284702365 
1677	 0.371721060879238 
1678	 0.371733340326711 
1679	 0.371729681577477 
1680	 0.371746714661517 
1681	 0.371746288127262 
1682	 0.371714046262807 
1683	 0.371711929256356 
1684	 0.371734706106316 
1685	 0.371735503124229 
1686	 0.371745036207779 
1687	 0.371730836688969 
1688	 0.371685252134071 
1689	 0.371658669666485 
1690	 0.371631799952319 
1691	 0.371603087863512 
1692	 0.371582366329159 
1693	 0.371553552711028 
1694	 0.371507650471055 
1695	 0.371481671284497 
1696	 0.371460559977269 
1697	 0.371449660005982 
1698	 0.371454398267011 
1699	 0.371455837982753 
1700	 0.371470561476993 
1701	 0.371466382797161 
1702	 0.371459194829252 
1703	 0.371444011340049 
1704	 0.371419573834273 
1705	 0.371380174149041 
1706	 0.371329784283068 
1707	 0.371272513542857 
1708	 0.371181978138211 
1709	 0.371135137120793 
1710	 0.371107142873491 
1711	 0.371078474438329 
1712	 0.371077872447266 
1713	 0.371052114027185 
1714	 0.37101725217061 
1715	 0.370973139313934 
1716	 0.370920336975063 
1717	 0.370864118495513 
1718	 0.370780883683524 
1719	 0.370740104766662 
1720	 0.37071102118163 
1721	 0.370693409918348 
1722	 0.370718095304306 
1723	 0.370708031972576 
1724	 0.370696773981079 
1725	 0.370659905557971 
1726	 0.370594568222716 
1727	 0.370541599198224 
1728	 0.370477333977387 
1729	 0.370420511629782 
1730	 0.370370703308623 
1731	 0.370321330633639 
1732	 0.37026882108655 
1733	 0.370217112599743 
1734	 0.370188360271185 
1735	 0.370101263118852 
1736	 0.369981705409136 
1737	 0.369876703610464 
1738	 0.369730048211592 
1739	 0.369636829070153 
1740	 0.369569271384841 
1741	 0.369508550927116 
1742	 0.369478894303616 
1743	 0.369427119010317 
1744	 0.369388968671461 
1745	 0.369315267312069 
1746	 0.369205165461983 
1747	 0.369111224449085 
1748	 0.369035600090928 
1749	 0.368977124788337 
1750	 0.368918724559556 
1751	 0.368857724938952 
1752	 0.368794632765078 
1753	 0.368732328537497 
1754	 0.368672707510532 
1755	 0.368589139725617 
1756	 0.368466270471654 
1757	 0.368326436553207 
1758	 0.368213991758461 
1759	 0.368136894323311 
1760	 0.368099021177274 
1761	 0.368091361137186 
1762	 0.368079892483179 
1763	 0.368030199328327 
1764	 0.367965720052413 
1765	 0.367900221503646 
1766	 0.367781840842176 
1767	 0.367657697623975 
1768	 0.367548258066098 
1769	 0.367445384683588 
1770	 0.367396912312828 
1771	 0.367383450220007 
1772	 0.367359524825551 
1773	 0.367308086333552 
1774	 0.367252464663602 
1775	 0.367224041992102 
1776	 0.367192304825485 
1777	 0.367161065988939 
1778	 0.367131324534732 
1779	 0.367037210659017 
1780	 0.366951314369057 
1781	 0.366891765961453 
1782	 0.366829736129026 
1783	 0.366787951594452 
1784	 0.366761867501928 
1785	 0.366781495171965 
1786	 0.366750358526219 
1787	 0.366707812510909 
1788	 0.3666672033951 
1789	 0.366581559642291 
1790	 0.366539081903773 
1791	 0.366521815479888 
1792	 0.366494137287736 
1793	 0.366478832758299 
1794	 0.366459810794196 
1795	 0.366438496426933 
1796	 0.366424249137948 
1797	 0.366416544082854 
1798	 0.366394829364568 
1799	 0.366381358692504 
1800	 0.366350434366689 
1801	 0.366292174518428 
1802	 0.366504504232459 
1803	 0.366721244421532 
1804	 0.36696974963392 
1805	 0.36725364939467 
1806	 0.367508971262601 
1807	 0.367742226615327 
1808	 0.367933634788594 
1809	 0.368099227911062 
1810	 0.368225844358325 
1811	 0.368305761386204 
1812	 0.368385328425258 
1813	 0.368430786324967 
1814	 0.368450126589447 
1815	 0.368446520074056 
1816	 0.36843385818046 
1817	 0.368417123746861 
1818	 0.368375727457677 
1819	 0.368350149355821 
1820	 0.368324733014783 
1821	 0.368305568777179 
1822	 0.368290655007198 
1823	 0.368287574526084 
1824	 0.368280923396705 
1825	 0.368249048653795 
1826	 0.368241099874554 
1827	 0.368257331312514 
1828	 0.368228986464717 
1829	 0.3682036287481 
1830	 0.368140951162788 
1831	 0.368033957592573 
1832	 0.367912681652399 
1833	 0.36780667558868 
1834	 0.367709646986457 
1835	 0.367657711409375 
1836	 0.367611090380739 
1837	 0.367557370179126 
1838	 0.367527156371904 
1839	 0.367496340270659 
1840	 0.367468702956396 
1841	 0.367431586021927 
1842	 0.367410523253423 
1843	 0.367413690217754 
1844	 0.36739304121267 
1845	 0.367337828326719 
1846	 0.367294437076859 
1847	 0.367245098113698 
1848	 0.367197288835712 
1849	 0.367188401677051 
1850	 0.367180013827663 
1851	 0.367185936513461 
1852	 0.367173799148451 
1853	 0.367192349801061 
1854	 0.367209749743899 
1855	 0.367203319150574 
1856	 0.367199675569226 
1857	 0.367183448236009 
1858	 0.367148319529847 
1859	 0.367106037626037 
1860	 0.367035786625023 
1861	 0.366947458967017 
1862	 0.366825459431327 
1863	 0.366708491930801 
1864	 0.366589219172841 
1865	 0.366456981706017 
1866	 0.366323506928327 
1867	 0.366169982418014 
1868	 0.365974448142765 
1869	 0.365786860095008 
1870	 0.365601951232512 
1871	 0.365393580763516 
1872	 0.365165423580279 
1873	 0.364939686408357 
1874	 0.364696592038897 
1875	 0.364442876619146 
1876	 0.364169705166467 
1877	 0.363877561208249 
1878	 0.363549918235473 
1879	 0.363169416439475 
1880	 0.362717200377033 
1881	 0.362212424253365 
1882	 0.361634762867124 
1883	 0.36099482808206 
1884	 0.360268557357412 
1885	 0.359485834552615 
1886	 0.358638264063679 
1887	 0.357711696468765 
1888	 0.35673293072614 
1889	 0.355714146813245 
1890	 0.354656781669542 
1891	 0.353590926669401 
1892	 0.35249523800766 
1893	 0.351385461881151 
1894	 0.35024904149291 
1895	 0.349119876314806 
1896	 0.347949507939066 
1897	 0.346794984345642 
1898	 0.345663982014231 
1899	 0.344540594923312 
1900	 0.343485653633116 
1901	 0.342506574895996 
1902	 0.341581438240108 
1903	 0.340739478925339 
1904	 0.339924606579875 
1905	 0.339157273899516 
1906	 0.338429082562428 
1907	 0.337768970030011 
1908	 0.337147396515973 
1909	 0.336560664977475 
1910	 0.336009957768503 
1911	 0.335491273638891 
1912	 0.334984534716645 
1913	 0.334498248313177 
1914	 0.334042610861041 
1915	 0.333610068412109 
1916	 0.333182850449084 
1917	 0.33279438791628 
1918	 0.33246296550221 
1919	 0.332143149855639 
1920	 0.331831033768072 
1921	 0.331528163051447 
1922	 0.331254183141135 
1923	 0.331017249129411 
1924	 0.330816940160107 
1925	 0.330684475175503 
1926	 0.330543717798937 
1927	 0.330419692380047 
1928	 0.330310182705878 
1929	 0.330225462495322 
1930	 0.330150860820568 
1931	 0.330089228846216 
1932	 0.33005941843231 
1933	 0.330055710408362 
1934	 0.330037451914784 
1935	 0.330040585255233 
1936	 0.330060624356543 
1937	 0.330097505558218 
1938	 0.330147806484301 
1939	 0.330214016139237 
1940	 0.330312425633341 
1941	 0.330395829067338 
1942	 0.330480544500391 
1943	 0.330578462264812 
1944	 0.330693877503477 
1945	 0.330826260036223 
1946	 0.330955650101499 
1947	 0.331083514747647 
1948	 0.331239671449335 
1949	 0.331416847822765 
1950	 0.33158502476677 
1951	 0.331770982946506 
1952	 0.331964119034483 
1953	 0.332116134519112 
1954	 0.332287521220936 
1955	 0.332507293252591 
1956	 0.332715753469072 
1957	 0.332932321605594 
1958	 0.333177628159542 
1959	 0.333399010284863 
1960	 0.333595822084553 
1961	 0.333824290038103 
1962	 0.334068691187678 
1963	 0.334309943759994 
1964	 0.334561037896266 
1965	 0.334809808770967 
1966	 0.335073484218062 
1967	 0.335336263560776 
1968	 0.335598792655576 
1969	 0.335875562877665 
1970	 0.336138324846242 
1971	 0.336385806918687 
1972	 0.336646550757044 
1973	 0.336918219783788 
1974	 0.337181700633844 
1975	 0.337438943851736 
1976	 0.337697478398623 
1977	 0.337984726348415 
1978	 0.338276053845 
1979	 0.338590880670003 
1980	 0.338898508700321 
1981	 0.339174740299801 
1982	 0.339411210876265 
1983	 0.339679310894103 
1984	 0.339931712707988 
1985	 0.340207434577378 
1986	 0.340510001626938 
1987	 0.340801442132925 
1988	 0.341103345792974 
1989	 0.341397406380993 
1990	 0.341667471952031 
1991	 0.341946961354103 
1992	 0.342206798008506 
1993	 0.342433831821261 
1994	 0.342690099736004 
1995	 0.34294281777588 
1996	 0.343217009537644 
1997	 0.343510599573092 
1998	 0.343804349595669 
1999	 0.344122371150044 
2000	 0.344424796024365 
2001	 0.344727776238951 
2002	 0.345015376989725 
2003	 0.34532767601432 
2004	 0.345607818456967 
2005	 0.345877538056344 
2006	 0.346144854731279 
2007	 0.346394634974281 
2008	 0.346600136938496 
2009	 0.34684029652265 
2010	 0.347091182799124 
2011	 0.347336567615135 
2012	 0.347606234260003 
2013	 0.347847304271949 
2014	 0.348071892643677 
2015	 0.348284811040322 
2016	 0.348483829931832 
2017	 0.348689632213424 
2018	 0.348923105593312 
2019	 0.349171137264477 
2020	 0.349429489206468 
2021	 0.349723240393017 
2022	 0.349995829799762 
2023	 0.350252542727775 
2024	 0.350532941805502 
2025	 0.350839742912579 
2026	 0.351118984331902 
2027	 0.351396891655491 
2028	 0.351684781322638 
2029	 0.35194178891589 
2030	 0.352163249738813 
2031	 0.352404657228748 
2032	 0.352647996221898 
2033	 0.352876206650948 
2034	 0.353107973421159 
2035	 0.353316069569853 
2036	 0.353513974686317 
2037	 0.353693887706817 
2038	 0.353838586912582 
2039	 0.353994139272615 
2040	 0.354142640442343 
2041	 0.354284960815068 
2042	 0.354413778624483 
2043	 0.354569504439898 
2044	 0.354723393803393 
2045	 0.354868208387767 
2046	 0.355033411315353 
2047	 0.355235397754732 
2048	 0.355401813697928 
2049	 0.355576908214308 
2050	 0.35571296468338 
2051	 0.355817083907124 
2052	 0.355913507791102 
2053	 0.355955057476975 
2054	 0.356038819348147 
2055	 0.356117320218679 
2056	 0.356239391002001 
2057	 0.356349488714793 
2058	 0.356487291766247 
2059	 0.356603672208009 
2060	 0.356708433495409 
2061	 0.356818225520872 
2062	 0.356944280247858 
2063	 0.357043736392358 
2064	 0.357127258242358 
2065	 0.357210594344612 
2066	 0.357260559400891 
2067	 0.357337451540714 
2068	 0.357412758045772 
2069	 0.357525199966856 
2070	 0.357626083464587 
2071	 0.357746611079022 
2072	 0.357843899929724 
2073	 0.357929406796 
2074	 0.358025224923763 
2075	 0.358122409116416 
2076	 0.358210985771005 
2077	 0.358289416227403 
2078	 0.358388238125336 
2079	 0.358492069145883 
2080	 0.358591853986564 
2081	 0.358700488708403 
2082	 0.35881785830369 
2083	 0.358927582890019 
2084	 0.359051540634252 
2085	 0.359169091843871 
2086	 0.359311195009051 
2087	 0.359418452414945 
2088	 0.359498938204674 
2089	 0.359593516554359 
2090	 0.359683608771886 
2091	 0.359771665686903 
2092	 0.359870349542394 
2093	 0.359948681630641 
2094	 0.359994995455231 
2095	 0.360072278197343 
2096	 0.36015464965567 
2097	 0.360240089092902 
2098	 0.360343101453105 
2099	 0.360454294353571 
2100	 0.36054939865716 
2101	 0.360631672600877 
2102	 0.360723940896776 
2103	 0.360816396330696 
2104	 0.360910537148485 
2105	 0.361007280858291 
2106	 0.361104100928736 
2107	 0.361198596448422 
2108	 0.36130051309385 
2109	 0.361390078343296 
2110	 0.361510348546349 
2111	 0.361663468529256 
2112	 0.361799104687034 
2113	 0.361928951733437 
2114	 0.362094622433692 
2115	 0.362237663670316 
2116	 0.36236733941605 
2117	 0.362499666905217 
2118	 0.362639208744162 
2119	 0.362769973464023 
2120	 0.362892514357873 
2121	 0.363010727342531 
2122	 0.363129646752104 
2123	 0.363239309053492 
2124	 0.363343302821675 
2125	 0.363434309933801 
2126	 0.363514612748425 
2127	 0.363593053337133 
2128	 0.363671805985597 
2129	 0.363726054233038 
2130	 0.36377597393602 
2131	 0.363807760062612 
2132	 0.363811070478987 
2133	 0.363772954511258 
2134	 0.363757024884737 
2135	 0.363735900901979 
2136	 0.363700101120923 
2137	 0.363677693181833 
2138	 0.363609535652712 
2139	 0.363511548104623 
2140	 0.363397215597328 
2141	 0.36325035430693 
2142	 0.363099440404051 
2143	 0.362943435893649 
2144	 0.362756677988709 
2145	 0.362541343647777 
2146	 0.362323206020181 
2147	 0.362079289498751 
2148	 0.361831105562582 
2149	 0.361575056904757 
2150	 0.361320382660216 
2151	 0.36104391210126 
2152	 0.36075010234542 
2153	 0.360446848307473 
2154	 0.360133491691748 
2155	 0.35980717783526 
2156	 0.359492335271227 
2157	 0.35911632687912 
2158	 0.358696328588244 
2159	 0.358272933207317 
2160	 0.357802757398124 
2161	 0.35733496815841 
2162	 0.356852916273357 
2163	 0.356383599420661 
2164	 0.355894717051513 
2165	 0.355428013782557 
2166	 0.354966778414464 
2167	 0.354539830303476 
2168	 0.354062753399227 
2169	 0.353564949294278 
2170	 0.353077118324792 
2171	 0.352588823248081 
2172	 0.352065113350554 
2173	 0.351546637964011 
2174	 0.350985416738945 
2175	 0.350367160571721 
2176	 0.3497553694816 
2177	 0.349150229678446 
2178	 0.348497760325664 
2179	 0.34780563894362 
2180	 0.347108265355027 
2181	 0.346382905676853 
2182	 0.345638765601082 
2183	 0.344859375643171 
2184	 0.344100169777957 
2185	 0.343344168203856 
2186	 0.342554894124084 
2187	 0.341824357606548 
2188	 0.341129530454775 
2189	 0.340440771343525 
2190	 0.339746347674911 
2191	 0.339123952654808 
2192	 0.338541063980922 
2193	 0.337988360376952 
2194	 0.337478623455169 
2195	 0.337013015987846 
2196	 0.336554048326885 
2197	 0.336180874163471 
2198	 0.335896763581479 
2199	 0.335637523501292 
2200	 0.335455454806646 
2201	 0.335279040115532 
2202	 0.335119462746799 
2203	 0.334984018025178 
2204	 0.334924398629639 
2205	 0.334885269023423 
2206	 0.334953787668758 
2207	 0.335115712636097 
2208	 0.335315208422367 
2209	 0.335577702155922 
2210	 0.335904863656826 
2211	 0.336339346681495 
2212	 0.336726650807935 
2213	 0.337153096838609 
2214	 0.337587208416519 
2215	 0.338037419472811 
2216	 0.338448266955252 
2217	 0.33888916823919 
2218	 0.339284935942013 
2219	 0.339617573359808 
2220	 0.33994604820176 
2221	 0.340268767968411 
2222	 0.340579640658445 
2223	 0.340836543928588 
2224	 0.341073867212696 
2225	 0.341302256688364 
2226	 0.341526558390565 
2227	 0.341682286669391 
2228	 0.341805772668964 
2229	 0.341898983222585 
2230	 0.341922717063206 
2231	 0.341955671831176 
2232	 0.341973621733113 
2233	 0.341993776889967 
2234	 0.341992992050861 
2235	 0.341995417524611 
2236	 0.342023036660251 
2237	 0.341997508805558 
2238	 0.341926828810234 
2239	 0.341870088435267 
2240	 0.341794585143025 
2241	 0.341712702977433 
2242	 0.341628797877827 
2243	 0.341546826598748 
2244	 0.341456482667538 
2245	 0.341365910552743 
2246	 0.34124708915303 
2247	 0.341126244259611 
2248	 0.340989346780868 
2249	 0.340814709729646 
2250	 0.340659830188692 
2251	 0.340508367367828 
2252	 0.340358111407832 
2253	 0.340183008235589 
2254	 0.340062003455336 
2255	 0.339975597761942 
2256	 0.339885039292668 
2257	 0.339813238078158 
2258	 0.339759005275803 
2259	 0.339701482399602 
2260	 0.339672845049179 
2261	 0.339716118695783 
2262	 0.339701749664044 
2263	 0.339652056519807 
2264	 0.339629010526182 
2265	 0.339567385905883 
2266	 0.339554718776587 
2267	 0.339584344478789 
2268	 0.339636288260814 
2269	 0.339718686911604 
2270	 0.339826357000724 
2271	 0.339918448954568 
2272	 0.34001290112653 
2273	 0.340117755352684 
2274	 0.340189546055119 
2275	 0.3402769727545 
2276	 0.340360818762426 
2277	 0.340489962440921 
2278	 0.340637883941707 
2279	 0.340773497554381 
2280	 0.340959058118812 
2281	 0.341086800944559 
2282	 0.341152931812002 
2283	 0.341276206821816 
2284	 0.34142012486239 
2285	 0.341543818909892 
2286	 0.34170411182004 
2287	 0.341810247747425 
2288	 0.341853862899667 
2289	 0.341934765447437 
2290	 0.34200563043595 
2291	 0.342088211310873 
2292	 0.342210683536586 
2293	 0.342299299202251 
2294	 0.342369087084738 
2295	 0.342432863017425 
2296	 0.342469448920336 
2297	 0.342523201764799 
2298	 0.342591977071795 
2299	 0.342635367035857 
2300	 0.342680495565089 
2301	 0.34272250036866 
2302	 0.342727181087953 
2303	 0.342723900188399 
2304	 0.342676102136847 
2305	 0.342613283272736 
2306	 0.342570261215875 
2307	 0.342506313401117 
2308	 0.342470699662137 
2309	 0.34247713972415 
2310	 0.342431116956197 
2311	 0.342369021171482 
2312	 0.342307673171672 
2313	 0.342211042603414 
2314	 0.342154473654818 
2315	 0.342125641890841 
2316	 0.342063597222263 
2317	 0.342006473610965 
2318	 0.341935672770486 
2319	 0.341840259541701 
2320	 0.341749894250477 
2321	 0.341682006939873 
2322	 0.34157515416144 
2323	 0.341429574410218 
2324	 0.341292337152357 
2325	 0.341122631953573 
2326	 0.340970657332009 
2327	 0.340818199211749 
2328	 0.340695713373194 
2329	 0.340571828468926 
2330	 0.34048234170158 
2331	 0.340421368787165 
2332	 0.340363692082516 
2333	 0.340356572757607 
2334	 0.340337585048819 
2335	 0.340291278453606 
2336	 0.340292691328555 
2337	 0.340270264473101 
2338	 0.340208025505148 
2339	 0.340111197804173 
2340	 0.33995819040169 
2341	 0.339835927740481 
2342	 0.339690797242369 
2343	 0.339548948060936 
2344	 0.339454426705787 
2345	 0.339357672132394 
2346	 0.339253355597587 
2347	 0.339142410663027 
2348	 0.339073443352697 
2349	 0.338944972928455 
2350	 0.33876152539121 
2351	 0.338590164886806 
2352	 0.338361803636895 
2353	 0.338238546977519 
2354	 0.338143103400587 
2355	 0.338068248747261 
2356	 0.338129112240542 
2357	 0.338081406578911 
2358	 0.337945287748355 
2359	 0.337899526492023 
2360	 0.33787339866625 
2361	 0.337823853278 
2362	 0.337848553811015 
2363	 0.337789317914786 
2364	 0.337634480492682 
2365	 0.337514792304666 
2366	 0.337403461291742 
2367	 0.337268739925961 
2368	 0.337110728353829 
2369	 0.336968950913977 
2370	 0.336826588562289 
2371	 0.336657460157982 
2372	 0.33650182474766 
2373	 0.336371412802876 
2374	 0.336213112252953 
2375	 0.336042885417318 
2376	 0.335869076306478 
2377	 0.335682820484838 
2378	 0.33548851875551 
2379	 0.335252314441838 
2380	 0.334970765896654 
2381	 0.334710826333573 
2382	 0.334477637570792 
2383	 0.334223418404766 
2384	 0.333983322004266 
2385	 0.333738516450647 
2386	 0.33345272592743 
2387	 0.333145286912253 
2388	 0.332839616035052 
2389	 0.332623416131588 
2390	 0.332384612759735 
2391	 0.332103263732583 
2392	 0.331948575735195 
2393	 0.331694708683383 
2394	 0.331396878993415 
2395	 0.331247134409804 
2396	 0.331020549632004 
2397	 0.330787722364199 
2398	 0.330472186542768 
2399	 0.330103103844329 
2400	 0.329854935133989 
2401	 0.329534417741969 
2402	 0.329289253921034 
2403	 0.329066419607476 
2404	 0.328677477803958 
2405	 0.328318687066853 
2406	 0.328040189462097 
2407	 0.327782458212872 
2408	 0.327479373551785 
2409	 0.327140370395745 
2410	 0.326783229470995 
2411	 0.326333559904863 
2412	 0.325893598016007 
2413	 0.325476648179333 
2414	 0.324978398986102 
2415	 0.324548089704145 
2416	 0.324200073874231 
2417	 0.323952314524964 
2418	 0.323647393428725 
2419	 0.323416994540506 
2420	 0.323096673096318 
2421	 0.322711373056054 
2422	 0.322323869467821 
2423	 0.321934604266269 
2424	 0.321492867498126 
2425	 0.320984855328096 
2426	 0.320471645602569 
2427	 0.319887900601924 
2428	 0.319412327046609 
2429	 0.319012616952895 
2430	 0.318591790526924 
2431	 0.318198854716776 
2432	 0.317825498781694 
2433	 0.317395859606312 
2434	 0.316978662729593 
2435	 0.316647920045833 
2436	 0.316314265237732 
2437	 0.315973256875398 
2438	 0.315658902976267 
2439	 0.315400063919407 
2440	 0.315001850546896 
2441	 0.314504913914722 
2442	 0.314172751450457 
2443	 0.313849071679028 
2444	 0.313552349861161 
2445	 0.313397249773232 
2446	 0.313084239981171 
2447	 0.312671696073 
2448	 0.312328034757906 
2449	 0.311971817600199 
2450	 0.311633562955138 
2451	 0.311287364121147 
2452	 0.310952816549427 
2453	 0.310633000265881 
2454	 0.310350245250873 
2455	 0.310148366522955 
2456	 0.309851199695197 
2457	 0.309534321998195 
2458	 0.309226704289834 
2459	 0.308768987223823 
2460	 0.308501424557791 
2461	 0.308427556179788 
2462	 0.308187238856501 
2463	 0.307971007515154 
2464	 0.307787501021909 
2465	 0.307479901536469 
2466	 0.307185749086556 
2467	 0.306904991139086 
2468	 0.306660486083922 
2469	 0.306444767590323 
2470	 0.30620343373461 
2471	 0.306142927413093 
2472	 0.305959264963655 
2473	 0.30572473381279 
2474	 0.305559556547433 
2475	 0.305198883788291 
2476	 0.305066887915364 
2477	 0.305119454861067 
2478	 0.304921981048065 
2479	 0.304755019526918 
2480	 0.304460455053969 
2481	 0.303910561508909 
2482	 0.303528515320633 
2483	 0.303459622834703 
2484	 0.303353991585142 
2485	 0.302859840625113 
2486	 0.302420450854116 
2487	 0.302010268271372 
2488	 0.30148054115285 
2489	 0.301263213394624 
2490	 0.301119200338786 
2491	 0.300721476862433 
2492	 0.300242681702704 
2493	 0.299860370655352 
2494	 0.29947595134118 
2495	 0.299083674452464 
2496	 0.2989062707656 
2497	 0.298795835342858 
2498	 0.298523845033075 
2499	 0.298445349382397 
2500	 0.298441234762944 
