Wavelength	mm1700002.asd
350	 9.60293012118784E-02 
351	 9.99619836344256E-02 
352	 9.19161458873582E-02 
353	 0.081466892446416 
354	 8.63376054123904E-02 
355	 8.85536720932697E-02 
356	 8.72305598417015E-02 
357	 8.66468844223407E-02 
358	 9.23805639861814E-02 
359	 9.24646642368643E-02 
360	 8.88756325876666E-02 
361	 9.13310474282493E-02 
362	 8.69503465497087E-02 
363	 8.53520582010324E-02 
364	 9.01291196879156E-02 
365	 9.19599979211359E-02 
366	 8.98758835159772E-02 
367	 8.82669486767846E-02 
368	 9.14348210536172E-02 
369	 9.75584545267652E-02 
370	 9.84585246989866E-02 
371	 9.63928940198393E-02 
372	 9.98317537798566E-02 
373	 0.100338768131234 
374	 9.99565763986709E-02 
375	 0.100480433173338 
376	 0.100787007912284 
377	 0.103499228659313 
378	 0.106723461300202 
379	 0.107887415181411 
380	 0.108095064817102 
381	 0.107237128393294 
382	 0.107897759505035 
383	 0.113688372047894 
384	 0.115639586138723 
385	 0.115234036409093 
386	 0.115601517293959 
387	 0.120188751378899 
388	 0.122665047459319 
389	 0.122774044423911 
390	 0.122386403986357 
391	 0.122721357512337 
392	 0.124975904394075 
393	 0.128347965611175 
394	 0.130589497274986 
395	 0.134505587553572 
396	 0.137232648728726 
397	 0.137953989144989 
398	 0.142594946452485 
399	 0.143771737996665 
400	 0.144218679074909 
401	 0.14863416733024 
402	 0.150537318068017 
403	 0.151621874651847 
404	 0.153018721802378 
405	 0.154749514438285 
406	 0.156090391562875 
407	 0.158135224168753 
408	 0.161122842001067 
409	 0.162220187033987 
410	 0.163160130535221 
411	 0.164718186556324 
412	 0.166899144069317 
413	 0.167816319443465 
414	 0.168377297840079 
415	 0.169282437451051 
416	 0.170662216892619 
417	 0.170830192895571 
418	 0.170857829124853 
419	 0.171745888836552 
420	 0.171813911858389 
421	 0.172019120183419 
422	 0.172577259942617 
423	 0.173157371591343 
424	 0.173440360814257 
425	 0.172834803085769 
426	 0.17173581432472 
427	 0.17240452589963 
428	 0.172593440342214 
429	 0.171996052372757 
430	 0.171134472201081 
431	 0.171252438089766 
432	 0.171174086616114 
433	 0.170655853748743 
434	 0.170446579841308 
435	 0.170727419491722 
436	 0.171433602629284 
437	 0.172261569075883 
438	 0.172353838817878 
439	 0.173219989677109 
440	 0.174608654702601 
441	 0.175527532731163 
442	 0.176872369306292 
443	 0.178359488908686 
444	 0.179727344111184 
445	 0.180918245431663 
446	 0.181975382273106 
447	 0.183154769216788 
448	 0.184620775383056 
449	 0.185908546323202 
450	 0.187300987540118 
451	 0.188769734212668 
452	 0.190023132987139 
453	 0.191145231089829 
454	 0.19212321046238 
455	 0.193086048114311 
456	 0.19461528172868 
457	 0.19566608679592 
458	 0.196313464966966 
459	 0.197135565702286 
460	 0.198218266047249 
461	 0.19912554936674 
462	 0.199752564263609 
463	 0.200522523763628 
464	 0.201034129926503 
465	 0.201632524688445 
466	 0.202627774527786 
467	 0.203385129250093 
468	 0.204062033933877 
469	 0.204623765046512 
470	 0.204909548837118 
471	 0.20551525289522 
472	 0.206077477045974 
473	 0.2064084406928 
474	 0.207164277132971 
475	 0.20768178317148 
476	 0.20796771926177 
477	 0.208333556484546 
478	 0.208964777560422 
479	 0.209527738755294 
480	 0.209950823959979 
481	 0.210593689308125 
482	 0.210993792395391 
483	 0.211399702372959 
484	 0.212087435273921 
485	 0.212656077512119 
486	 0.212948215863193 
487	 0.213242101467499 
488	 0.21410256890845 
489	 0.214707718946935 
490	 0.214988489377641 
491	 0.215168081772283 
492	 0.215882266186273 
493	 0.216156818311641 
494	 0.216280652990411 
495	 0.217002350340296 
496	 0.217633488780886 
497	 0.218091066318105 
498	 0.218448909641306 
499	 0.218919698780251 
500	 0.219366080524556 
501	 0.219740890560419 
502	 0.220077542528891 
503	 0.22066842561417 
504	 0.221074641513406 
505	 0.221315129832294 
506	 0.221821687699742 
507	 0.222237618710827 
508	 0.222597436786542 
509	 0.222959743483171 
510	 0.22322707465312 
511	 0.223564764493987 
512	 0.223983329760585 
513	 0.224402092402509 
514	 0.224752593152684 
515	 0.225082980582123 
516	 0.225457525637117 
517	 0.225957434529963 
518	 0.226351557017871 
519	 0.226650954255249 
520	 0.226965906268719 
521	 0.227448184570503 
522	 0.227880958519518 
523	 0.228192307504382 
524	 0.228484083757644 
525	 0.228880700437957 
526	 0.229229533112277 
527	 0.229439848206277 
528	 0.229832571515305 
529	 0.23015613907549 
530	 0.230490873797056 
531	 0.231080569617524 
532	 0.231334462782789 
533	 0.23156249952698 
534	 0.231963431241011 
535	 0.232227617206713 
536	 0.232518498999979 
537	 0.232917026926563 
538	 0.233424955481526 
539	 0.233724564559512 
540	 0.234063638040267 
541	 0.234496227000332 
542	 0.234758137517685 
543	 0.235082461396301 
544	 0.235495153137649 
545	 0.235935902203741 
546	 0.236239280210681 
547	 0.236597654646883 
548	 0.237047442805341 
549	 0.237484634923398 
550	 0.237904911560555 
551	 0.238275834705014 
552	 0.238610775889782 
553	 0.239054271175921 
554	 0.239433182723393 
555	 0.239825221662588 
556	 0.240407746298776 
557	 0.240982028761177 
558	 0.241510517792922 
559	 0.242023498671451 
560	 0.242643634771842 
561	 0.243160015944001 
562	 0.243627362771673 
563	 0.244172444805522 
564	 0.244768161640974 
565	 0.245299243287687 
566	 0.245741646350543 
567	 0.2461787316952 
568	 0.246632097856791 
569	 0.247180933264685 
570	 0.247896042977598 
571	 0.248822900679813 
572	 0.249687792395664 
573	 0.250403470476948 
574	 0.251027567919922 
575	 0.251546037366236 
576	 0.252239370087701 
577	 0.253199313276636 
578	 0.254031231595993 
579	 0.25482345730679 
580	 0.255541395196276 
581	 0.256130935899484 
582	 0.256659302861403 
583	 0.257265414881547 
584	 0.258012438838797 
585	 0.258857889784093 
586	 0.259762378240276 
587	 0.260698652692358 
588	 0.261642598548159 
589	 0.262560669019142 
590	 0.263494907021809 
591	 0.264432585425491 
592	 0.265311727895564 
593	 0.266095915289437 
594	 0.266762802237078 
595	 0.267314101468666 
596	 0.267773153439951 
597	 0.268320032990279 
598	 0.268947358893622 
599	 0.269555748817557 
600	 0.270240740528744 
601	 0.270979274605376 
602	 0.271731095866166 
603	 0.272456775356051 
604	 0.273123580866503 
605	 0.273798632821223 
606	 0.27456500607121 
607	 0.275374148688453 
608	 0.276141470520541 
609	 0.276851434564609 
610	 0.277569024092912 
611	 0.27817258165415 
612	 0.278705246885245 
613	 0.279206826351405 
614	 0.279549741873015 
615	 0.279946760726566 
616	 0.28042490137025 
617	 0.280874523215557 
618	 0.281284719763929 
619	 0.28167103497595 
620	 0.282049374804598 
621	 0.282418051856427 
622	 0.28280544060591 
623	 0.283175419431997 
624	 0.283483799110167 
625	 0.283819880133253 
626	 0.284157892966872 
627	 0.284490361385278 
628	 0.284845876270091 
629	 0.285180366548485 
630	 0.285517711126926 
631	 0.285871143746403 
632	 0.286125460944811 
633	 0.286427060181664 
634	 0.286772680899919 
635	 0.287042262849753 
636	 0.287365939867395 
637	 0.28770803129346 
638	 0.288013399088109 
639	 0.288239407042294 
640	 0.288533301919712 
641	 0.288847166532855 
642	 0.289072236634357 
643	 0.289413031067404 
644	 0.289734066498745 
645	 0.289972173935789 
646	 0.290213120083894 
647	 0.290459620662063 
648	 0.290752339000216 
649	 0.291105011093039 
650	 0.29139543462347 
651	 0.291657238138577 
652	 0.2919262182857 
653	 0.292232352628226 
654	 0.292528405345169 
655	 0.292799941100006 
656	 0.293071868787186 
657	 0.293456153279001 
658	 0.293831427596104 
659	 0.294123049675844 
660	 0.294318259456505 
661	 0.294673553345687 
662	 0.295059565933889 
663	 0.295372076351141 
664	 0.295594787075318 
665	 0.295954794945935 
666	 0.296349706581037 
667	 0.296640986729195 
668	 0.296974796972997 
669	 0.297338766738688 
670	 0.297704642603166 
671	 0.298037571311406 
672	 0.298384289354927 
673	 0.298744167208654 
674	 0.299108906337881 
675	 0.299476035004896 
676	 0.299814308975728 
677	 0.300140787635791 
678	 0.300495275977627 
679	 0.300899221304178 
680	 0.30131871584276 
681	 0.301722177424534 
682	 0.302088143514222 
683	 0.302486368708655 
684	 0.302909910094358 
685	 0.303326983042787 
686	 0.303697390355407 
687	 0.304091612950065 
688	 0.304504293238645 
689	 0.30488152046175 
690	 0.30530357652991 
691	 0.305703942762015 
692	 0.306070649555049 
693	 0.306556447199073 
694	 0.30692542923393 
695	 0.307278018758672 
696	 0.307771905099975 
697	 0.308147312497647 
698	 0.308529072440963 
699	 0.308946788104909 
700	 0.309311811236205 
701	 0.309793263202995 
702	 0.310276462429895 
703	 0.310654248323946 
704	 0.311011304627211 
705	 0.311358890350463 
706	 0.31173073622082 
707	 0.312156439427591 
708	 0.312559493061678 
709	 0.312971609752633 
710	 0.313389139733512 
711	 0.313742497604991 
712	 0.314062717711792 
713	 0.314388338218236 
714	 0.314755979516095 
715	 0.315197797235047 
716	 0.315541294694767 
717	 0.315805121812466 
718	 0.316149123700085 
719	 0.316609447659098 
720	 0.316980032912974 
721	 0.317185735507426 
722	 0.317466242030948 
723	 0.317774239038614 
724	 0.318058946171446 
725	 0.318291922886347 
726	 0.318595250899718 
727	 0.318891671888752 
728	 0.319141130215132 
729	 0.319351568825044 
730	 0.319592554867358 
731	 0.319793805556933 
732	 0.319931969908323 
733	 0.320166302337891 
734	 0.320339773941093 
735	 0.320446344911623 
736	 0.320550899628973 
737	 0.320731374825401 
738	 0.320903372713902 
739	 0.321020221000729 
740	 0.321093778355748 
741	 0.321221905150205 
742	 0.321305800813235 
743	 0.321285272722607 
744	 0.321317713275012 
745	 0.321377600406444 
746	 0.321432494574808 
747	 0.321451214932186 
748	 0.32147110587534 
749	 0.321431335245811 
750	 0.321357537936549 
751	 0.321383965880851 
752	 0.321352460894988 
753	 0.321224277413335 
754	 0.321051533211928 
755	 0.321064243970885 
756	 0.321063870645247 
757	 0.320957455261563 
758	 0.320744891449224 
759	 0.320637630894517 
760	 0.320581619171578 
761	 0.320500359252017 
762	 0.320328075853313 
763	 0.320203256252095 
764	 0.320056860912507 
765	 0.319837910272265 
766	 0.319696495384127 
767	 0.319563221245516 
768	 0.319400309331679 
769	 0.319196204484057 
770	 0.319004608045531 
771	 0.318823219442215 
772	 0.31863667838663 
773	 0.318422318385807 
774	 0.318219140152031 
775	 0.318026130438938 
776	 0.317818358400302 
777	 0.317518834767338 
778	 0.317305016381727 
779	 0.317162700540857 
780	 0.316989538854608 
781	 0.316766087232105 
782	 0.31655354244119 
783	 0.316346589715946 
784	 0.316069196707295 
785	 0.315831949912974 
786	 0.315609792718657 
787	 0.31537679241213 
788	 0.315170755136867 
789	 0.314990098935613 
790	 0.31477555829042 
791	 0.314487776683555 
792	 0.314312208829312 
793	 0.314084046691686 
794	 0.313804154234287 
795	 0.313614077921071 
796	 0.313312135139643 
797	 0.313060807438713 
798	 0.312937046693896 
799	 0.312762597290746 
800	 0.312575731208246 
801	 0.312373688139372 
802	 0.312148101179344 
803	 0.311890628945244 
804	 0.311696508584887 
805	 0.311531074101039 
806	 0.311295618197799 
807	 0.311117061207636 
808	 0.310943635671839 
809	 0.3107419607584 
810	 0.310527989856996 
811	 0.310290432973154 
812	 0.31007979633348 
813	 0.309932574471348 
814	 0.30981454130211 
815	 0.309734608766594 
816	 0.309600176396988 
817	 0.309331987364264 
818	 0.309128470115982 
819	 0.309018355102263 
820	 0.308906754223481 
821	 0.30863366600929 
822	 0.308475989446943 
823	 0.30829333545885 
824	 0.308052435037641 
825	 0.307995006703738 
826	 0.307958564220751 
827	 0.307835825514698 
828	 0.307611707324247 
829	 0.307511882523967 
830	 0.307344487742868 
831	 0.30715439265317 
832	 0.307075656168341 
833	 0.307030316392647 
834	 0.30689488817282 
835	 0.306684406197244 
836	 0.306544833460732 
837	 0.306508404284404 
838	 0.306467551786918 
839	 0.306355067867999 
840	 0.306216750624402 
841	 0.306053195212173 
842	 0.305903159533175 
843	 0.305801102408558 
844	 0.305739709924699 
845	 0.305731280277694 
846	 0.30569748360516 
847	 0.305564907075418 
848	 0.305533557348296 
849	 0.305462069419415 
850	 0.305362626557242 
851	 0.305369360476285 
852	 0.305267947753025 
853	 0.305146233892011 
854	 0.305089883771797 
855	 0.305113660632361 
856	 0.305151952559101 
857	 0.305152412581241 
858	 0.305106165081182 
859	 0.305097947561814 
860	 0.30509193340088 
861	 0.30504852284252 
862	 0.304948770146949 
863	 0.304854428738177 
864	 0.304862853658128 
865	 0.304937736240612 
866	 0.304967819008606 
867	 0.304979594264879 
868	 0.304940928651151 
869	 0.304883472639426 
870	 0.30489677745263 
871	 0.304902694392506 
872	 0.304987246909258 
873	 0.305146106450211 
874	 0.305196682861944 
875	 0.305235807039965 
876	 0.305234675327842 
877	 0.305185569368304 
878	 0.305205830499932 
879	 0.305259816142894 
880	 0.305321361590843 
881	 0.305382035891376 
882	 0.305504389774583 
883	 0.305612611769236 
884	 0.305705297474135 
885	 0.3058126120669 
886	 0.305865710296972 
887	 0.305932828709685 
888	 0.306007018203145 
889	 0.306023364516669 
890	 0.306076662232273 
891	 0.306207553172259 
892	 0.306379048724243 
893	 0.306479809414661 
894	 0.306645090849786 
895	 0.306807368259152 
896	 0.306917932730939 
897	 0.307032011130702 
898	 0.307182917642159 
899	 0.30734589735259 
900	 0.307485015330071 
901	 0.307578520518332 
902	 0.307712004929128 
903	 0.307890670074966 
904	 0.308077305231258 
905	 0.308202781233796 
906	 0.308339891223208 
907	 0.308555171068994 
908	 0.308868868121874 
909	 0.309129124389789 
910	 0.309349315367361 
911	 0.309498272369708 
912	 0.309547433895896 
913	 0.309680462003062 
914	 0.309942649100983 
915	 0.310252893848725 
916	 0.310460193999131 
917	 0.310729486421116 
918	 0.310988396256011 
919	 0.311184739144623 
920	 0.311335734778644 
921	 0.311612959513731 
922	 0.311889526474504 
923	 0.312097357500427 
924	 0.312332453516954 
925	 0.312581464884963 
926	 0.312856082209451 
927	 0.313154989748883 
928	 0.313447861979303 
929	 0.313791821196084 
930	 0.314114591875135 
931	 0.314368442944259 
932	 0.314639218787885 
933	 0.314880666558332 
934	 0.31514963784159 
935	 0.315503278311216 
936	 0.315930999096524 
937	 0.316235737692529 
938	 0.316460575684067 
939	 0.316726356363344 
940	 0.317083492873757 
941	 0.317464651481137 
942	 0.317890677256619 
943	 0.318363975437848 
944	 0.318678592863212 
945	 0.318994027488124 
946	 0.31930687706743 
947	 0.31956438888166 
948	 0.319856603646305 
949	 0.320215408189927 
950	 0.320629803824039 
951	 0.321070942581213 
952	 0.321571415314203 
953	 0.32189288837663 
954	 0.322190594864125 
955	 0.322741706153726 
956	 0.323187216141024 
957	 0.323511512219904 
958	 0.323802919997923 
959	 0.324165426320025 
960	 0.324432079130644 
961	 0.324928351020337 
962	 0.325580683784016 
963	 0.326069401345893 
964	 0.326406724016345 
965	 0.326847656242385 
966	 0.327334327946931 
967	 0.327646511518043 
968	 0.328016102447117 
969	 0.328477599034216 
970	 0.328981485969764 
971	 0.329441853129584 
972	 0.329875220524405 
973	 0.330419620359024 
974	 0.330999668786279 
975	 0.331439910240541 
976	 0.331923931820107 
977	 0.33229613982087 
978	 0.332699057655235 
979	 0.333387576828312 
980	 0.334078199988466 
981	 0.334529957654997 
982	 0.3347712635775 
983	 0.335019996325889 
984	 0.335455945056632 
985	 0.335927565012959 
986	 0.336415029413797 
987	 0.336977675560275 
988	 0.33762715667355 
989	 0.338037878186975 
990	 0.338325859243807 
991	 0.338795437996468 
992	 0.339411974134516 
993	 0.339956431788349 
994	 0.340403619260967 
995	 0.340803813077749 
996	 0.341039286538236 
997	 0.341573230923041 
998	 0.342189067340988 
999	 0.342571728289344 
1000	 0.343114721881341 
1001	 0.336533796513776 
1002	 0.336901568641691 
1003	 0.33720512389063 
1004	 0.337565909443185 
1005	 0.337982054674742 
1006	 0.338393494769736 
1007	 0.338823153087394 
1008	 0.339243094643926 
1009	 0.339615355925597 
1010	 0.339953578306528 
1011	 0.340296008397325 
1012	 0.340643923558527 
1013	 0.340998612694295 
1014	 0.341333578113192 
1015	 0.341681842478869 
1016	 0.341996334089694 
1017	 0.342324883369314 
1018	 0.342655963662984 
1019	 0.343037676918885 
1020	 0.343337962359501 
1021	 0.343618843845572 
1022	 0.34395569108128 
1023	 0.34423529527482 
1024	 0.344531812736604 
1025	 0.34489462524049 
1026	 0.345200156229094 
1027	 0.345500668307896 
1028	 0.34582582096599 
1029	 0.3461224248133 
1030	 0.346446398617055 
1031	 0.346761898339891 
1032	 0.347083548536511 
1033	 0.347366924810365 
1034	 0.34765613917055 
1035	 0.347899107884522 
1036	 0.348144633456273 
1037	 0.348465238018254 
1038	 0.348801698291754 
1039	 0.349166565886588 
1040	 0.349490172466937 
1041	 0.349794971021097 
1042	 0.350139954972766 
1043	 0.350443648246222 
1044	 0.350760799613932 
1045	 0.3511140077974 
1046	 0.351446048905584 
1047	 0.351690539727104 
1048	 0.351968833660968 
1049	 0.352280783691781 
1050	 0.352586656765851 
1051	 0.352907633834484 
1052	 0.353225205003602 
1053	 0.353515163588789 
1054	 0.353819358813081 
1055	 0.354157718925103 
1056	 0.354514119640773 
1057	 0.354832559787915 
1058	 0.355133273661551 
1059	 0.355431738065741 
1060	 0.355698699912366 
1061	 0.355972201829157 
1062	 0.356310444695274 
1063	 0.35662981423404 
1064	 0.356906009376355 
1065	 0.357186584007132 
1066	 0.357430885410778 
1067	 0.357663091292669 
1068	 0.357910197709822 
1069	 0.358116212078235 
1070	 0.358359246152559 
1071	 0.358623522549341 
1072	 0.358869655179049 
1073	 0.359135041196012 
1074	 0.359384953759431 
1075	 0.359632287636528 
1076	 0.359814243699026 
1077	 0.359988554482288 
1078	 0.360177490729803 
1079	 0.36036120026186 
1080	 0.360542302502197 
1081	 0.360759367246265 
1082	 0.360964902947883 
1083	 0.361148338358631 
1084	 0.36130849560511 
1085	 0.361471532005607 
1086	 0.361629593350549 
1087	 0.361788660625237 
1088	 0.361936636432164 
1089	 0.362096088355832 
1090	 0.362267171348723 
1091	 0.362394332533779 
1092	 0.362578198093112 
1093	 0.362765367548601 
1094	 0.362932138908353 
1095	 0.363131719001571 
1096	 0.363284742382791 
1097	 0.363424938629139 
1098	 0.363583825878641 
1099	 0.363760595166122 
1100	 0.363909272563937 
1101	 0.364049362332475 
1102	 0.36419925784111 
1103	 0.364354111686235 
1104	 0.364456417883846 
1105	 0.364624645681103 
1106	 0.364787427001674 
1107	 0.364919343764667 
1108	 0.365102517976818 
1109	 0.365266624914495 
1110	 0.365441873999872 
1111	 0.365615580396904 
1112	 0.365808795272252 
1113	 0.365967166434804 
1114	 0.366101254725585 
1115	 0.36625494614681 
1116	 0.366398045546441 
1117	 0.366553208177338 
1118	 0.366731549170487 
1119	 0.366883321504974 
1120	 0.367052106889706 
1121	 0.367254254919123 
1122	 0.367443037321919 
1123	 0.367651034794878 
1124	 0.367845714827077 
1125	 0.368041251582874 
1126	 0.368207232699782 
1127	 0.36835623405998 
1128	 0.368511760634514 
1129	 0.368638836555081 
1130	 0.36879855669188 
1131	 0.368998509269812 
1132	 0.369156429789511 
1133	 0.369293857493471 
1134	 0.369440948564715 
1135	 0.369546869948315 
1136	 0.369708368921758 
1137	 0.36989501577239 
1138	 0.370067766260246 
1139	 0.370243070399522 
1140	 0.37043146929802 
1141	 0.370591497624593 
1142	 0.370738620016436 
1143	 0.370891687113213 
1144	 0.371045881747549 
1145	 0.371175110116397 
1146	 0.371275633247972 
1147	 0.37140221103518 
1148	 0.371529742739772 
1149	 0.371650354659503 
1150	 0.371765465011298 
1151	 0.37192646130316 
1152	 0.372060305522911 
1153	 0.37217531121815 
1154	 0.372307123949582 
1155	 0.372457855266057 
1156	 0.372592675157024 
1157	 0.372732383356191 
1158	 0.372843083580277 
1159	 0.372933363616733 
1160	 0.373035664877813 
1161	 0.373113524178285 
1162	 0.3732116080385 
1163	 0.373335913157951 
1164	 0.373446661824644 
1165	 0.373540502661673 
1166	 0.373659778140023 
1167	 0.373780877752861 
1168	 0.373888310489198 
1169	 0.374016251240501 
1170	 0.374162487388643 
1171	 0.374291889947403 
1172	 0.374435221483697 
1173	 0.374547522851405 
1174	 0.374629346247676 
1175	 0.374733285449211 
1176	 0.374836662240605 
1177	 0.37493137736686 
1178	 0.375025387620131 
1179	 0.375129666910332 
1180	 0.375229696498055 
1181	 0.375329658044991 
1182	 0.375448852027112 
1183	 0.375558347260005 
1184	 0.375654987885806 
1185	 0.37572964975135 
1186	 0.37582417919997 
1187	 0.375922692750163 
1188	 0.376017517579225 
1189	 0.376113156745545 
1190	 0.376214638220657 
1191	 0.376320510810538 
1192	 0.376417442426569 
1193	 0.376515893310405 
1194	 0.376614991272124 
1195	 0.376715024618841 
1196	 0.376800765610668 
1197	 0.376874603819579 
1198	 0.376959984378649 
1199	 0.377044798795485 
1200	 0.377115980796471 
1201	 0.377201703146388 
1202	 0.377304680236582 
1203	 0.377396349140525 
1204	 0.377480812311478 
1205	 0.377571998211388 
1206	 0.377663491929628 
1207	 0.377762841540945 
1208	 0.377880244086621 
1209	 0.377972731296196 
1210	 0.378065046056268 
1211	 0.378144768225779 
1212	 0.378191163539621 
1213	 0.378255370621806 
1214	 0.378321220618253 
1215	 0.378392540631902 
1216	 0.378468998862049 
1217	 0.378555009065759 
1218	 0.378634639867608 
1219	 0.378720188427727 
1220	 0.378793844771235 
1221	 0.378853357211694 
1222	 0.378932127211475 
1223	 0.379019969838868 
1224	 0.37909641284793 
1225	 0.379175175752962 
1226	 0.379256958466758 
1227	 0.379330446133024 
1228	 0.37940687123127 
1229	 0.379503229237281 
1230	 0.379581547846716 
1231	 0.379643122378908 
1232	 0.379707327417974 
1233	 0.379768589539543 
1234	 0.379822150432126 
1235	 0.379883594421467 
1236	 0.379949840882983 
1237	 0.380006984024596 
1238	 0.380063239638344 
1239	 0.380117128848115 
1240	 0.380153610920132 
1241	 0.380215627754086 
1242	 0.380299486159976 
1243	 0.380363239505962 
1244	 0.380437267372215 
1245	 0.380497642124403 
1246	 0.380516935610794 
1247	 0.380573120857277 
1248	 0.380658034047804 
1249	 0.380726641835388 
1250	 0.380799043625386 
1251	 0.380879746555095 
1252	 0.380935762325426 
1253	 0.380961481787674 
1254	 0.381009848098266 
1255	 0.381064991579834 
1256	 0.381107987161552 
1257	 0.381155226382031 
1258	 0.381187788067641 
1259	 0.381192653334333 
1260	 0.381225208875952 
1261	 0.381254177259208 
1262	 0.381303805922675 
1263	 0.381389411223057 
1264	 0.38145316177989 
1265	 0.381521414004012 
1266	 0.381583302339113 
1267	 0.381636777062871 
1268	 0.381685387000323 
1269	 0.381723288958608 
1270	 0.381743717221678 
1271	 0.381795486514439 
1272	 0.381846445777505 
1273	 0.381911695014842 
1274	 0.382016000576501 
1275	 0.382085396726131 
1276	 0.382116247474835 
1277	 0.382197880658936 
1278	 0.382288294771936 
1279	 0.382397284001808 
1280	 0.382567448092624 
1281	 0.382697953099758 
1282	 0.382817611559377 
1283	 0.382931478271243 
1284	 0.383028604686647 
1285	 0.383120284621246 
1286	 0.383239018904455 
1287	 0.383347656043953 
1288	 0.383446355114284 
1289	 0.383548704917893 
1290	 0.383640669933313 
1291	 0.383711659297593 
1292	 0.383797701691131 
1293	 0.383909179480566 
1294	 0.383970671708019 
1295	 0.384002734787467 
1296	 0.384045554273731 
1297	 0.384068538769665 
1298	 0.384091936284298 
1299	 0.384128798213043 
1300	 0.384147061297597 
1301	 0.384140229144072 
1302	 0.384133547024376 
1303	 0.38412833103699 
1304	 0.384115692419587 
1305	 0.384068316464864 
1306	 0.384027658763215 
1307	 0.383979819989724 
1308	 0.383928477217631 
1309	 0.383868075551144 
1310	 0.383805366808401 
1311	 0.383747929224728 
1312	 0.383676961380465 
1313	 0.383612774902452 
1314	 0.383569462317185 
1315	 0.383503085094411 
1316	 0.383417536201796 
1317	 0.383348539786938 
1318	 0.383280246702392 
1319	 0.383209152843105 
1320	 0.383135094306206 
1321	 0.383070604746011 
1322	 0.382999277268733 
1323	 0.38295466646199 
1324	 0.382900276171409 
1325	 0.382849175259424 
1326	 0.382800931628446 
1327	 0.382736069088737 
1328	 0.382690246571822 
1329	 0.382660635595961 
1330	 0.382614169722041 
1331	 0.38256948855556 
1332	 0.382510510847541 
1333	 0.382437303307931 
1334	 0.382369903715063 
1335	 0.382290737002965 
1336	 0.382225990179263 
1337	 0.382156205471087 
1338	 0.382110128164756 
1339	 0.382094164968191 
1340	 0.38205831027732 
1341	 0.382031821731878 
1342	 0.381998098392224 
1343	 0.381954579759108 
1344	 0.381894780060443 
1345	 0.381859964961978 
1346	 0.381829940612423 
1347	 0.381802065770776 
1348	 0.381771759913826 
1349	 0.381713121248916 
1350	 0.381660293927314 
1351	 0.381614818774971 
1352	 0.381562575812338 
1353	 0.381517514116721 
1354	 0.381499345523686 
1355	 0.381440065457845 
1356	 0.381350114284433 
1357	 0.381283793518022 
1358	 0.381204198666181 
1359	 0.38114339668972 
1360	 0.381105529942099 
1361	 0.381059446667731 
1362	 0.381023905372562 
1363	 0.380972925965378 
1364	 0.380890708259912 
1365	 0.380846067165766 
1366	 0.380813723624258 
1367	 0.380784684329361 
1368	 0.380779201843238 
1369	 0.380790436157265 
1370	 0.38074422839753 
1371	 0.38068788282501 
1372	 0.380644977029293 
1373	 0.38056961325865 
1374	 0.380488533947155 
1375	 0.380418572836574 
1376	 0.380305421342061 
1377	 0.380160851360043 
1378	 0.380006143672241 
1379	 0.379819374683071 
1380	 0.379645584447368 
1381	 0.37946444714714 
1382	 0.379268940291089 
1383	 0.379087875450259 
1384	 0.378869120425287 
1385	 0.378644210995548 
1386	 0.378371189477199 
1387	 0.378068417905276 
1388	 0.377734062002254 
1389	 0.377371119093632 
1390	 0.376950258848141 
1391	 0.376516534831524 
1392	 0.376024417522641 
1393	 0.375464508486143 
1394	 0.374900298071528 
1395	 0.374259613316358 
1396	 0.373595863996616 
1397	 0.372971553358841 
1398	 0.372336411911256 
1399	 0.371710295297517 
1400	 0.371116572776598 
1401	 0.370504109853128 
1402	 0.369840637135728 
1403	 0.36926778846441 
1404	 0.368726069207665 
1405	 0.368227997517007 
1406	 0.367785567608653 
1407	 0.36736003542603 
1408	 0.366919130805579 
1409	 0.366589403798809 
1410	 0.366280467380039 
1411	 0.366107764279234 
1412	 0.366030708541798 
1413	 0.366061176483689 
1414	 0.366228083356205 
1415	 0.36648031578228 
1416	 0.36681687457818 
1417	 0.367216448381942 
1418	 0.367613534212755 
1419	 0.368020301564542 
1420	 0.368454428049255 
1421	 0.368845449129592 
1422	 0.369184664778624 
1423	 0.369507556024676 
1424	 0.369742580850617 
1425	 0.369886663778109 
1426	 0.37003048081214 
1427	 0.370109205684061 
1428	 0.370203668259864 
1429	 0.37028270114489 
1430	 0.370358722772051 
1431	 0.370450750466356 
1432	 0.370488061496626 
1433	 0.370480523509401 
1434	 0.370491977431023 
1435	 0.37045185231259 
1436	 0.370460851738781 
1437	 0.370517280457101 
1438	 0.370548976186551 
1439	 0.370587559721205 
1440	 0.370627636279864 
1441	 0.370628544138045 
1442	 0.370624386236777 
1443	 0.370610673114515 
1444	 0.370584209235113 
1445	 0.370568811254905 
1446	 0.370559591593805 
1447	 0.370549354559634 
1448	 0.370530931123866 
1449	 0.370478568916137 
1450	 0.370421044804698 
1451	 0.370386070685661 
1452	 0.370346188896051 
1453	 0.3703147297834 
1454	 0.370313506839668 
1455	 0.370289719784252 
1456	 0.370251366674274 
1457	 0.370216524288312 
1458	 0.370179696898185 
1459	 0.370144892058485 
1460	 0.370110166769477 
1461	 0.370068733897143 
1462	 0.370029019061623 
1463	 0.369987571668445 
1464	 0.369934225868174 
1465	 0.369888145196643 
1466	 0.369830121221242 
1467	 0.369803571740175 
1468	 0.369772053527346 
1469	 0.369783334321242 
1470	 0.369839927273768 
1471	 0.36990568459234 
1472	 0.369984550535094 
1473	 0.370072956542352 
1474	 0.370130066441514 
1475	 0.370202306539981 
1476	 0.370251756700507 
1477	 0.370291783566736 
1478	 0.370356916304879 
1479	 0.3704090982343 
1480	 0.370496838123428 
1481	 0.37060743162731 
1482	 0.370696305741751 
1483	 0.370795364132051 
1484	 0.370868543257074 
1485	 0.370907168372204 
1486	 0.37098475550692 
1487	 0.371059267777321 
1488	 0.371158643687247 
1489	 0.371309451139326 
1490	 0.371406862673158 
1491	 0.371507262975856 
1492	 0.371572552689391 
1493	 0.371579847794628 
1494	 0.371620729731484 
1495	 0.371656469249135 
1496	 0.371693204025199 
1497	 0.371751227945436 
1498	 0.371790989459447 
1499	 0.371810398997755 
1500	 0.371841109605637 
1501	 0.371868263992946 
1502	 0.371903856384136 
1503	 0.371942371573564 
1504	 0.371987798679942 
1505	 0.372061435519067 
1506	 0.372127076588184 
1507	 0.372187802331933 
1508	 0.372267360078322 
1509	 0.372311683338602 
1510	 0.372330033982782 
1511	 0.372348993950594 
1512	 0.37236254484208 
1513	 0.37238049306549 
1514	 0.372411490362315 
1515	 0.372457820206905 
1516	 0.37250149022414 
1517	 0.372542678362348 
1518	 0.372591388964017 
1519	 0.372629571677375 
1520	 0.372660856770678 
1521	 0.372689362533537 
1522	 0.372708170723364 
1523	 0.372737576563401 
1524	 0.372766937642532 
1525	 0.372800803141846 
1526	 0.372844627398166 
1527	 0.372882905792827 
1528	 0.372920130512616 
1529	 0.372953710183639 
1530	 0.372990718384874 
1531	 0.373018592340423 
1532	 0.373039818429698 
1533	 0.373055845392036 
1534	 0.37305645399623 
1535	 0.373073716325707 
1536	 0.373094928773412 
1537	 0.373115576575625 
1538	 0.373145468387494 
1539	 0.373172139155051 
1540	 0.373200402489123 
1541	 0.373223895151077 
1542	 0.373248566321527 
1543	 0.373266596220483 
1544	 0.373280365230559 
1545	 0.373284863626624 
1546	 0.373284644782451 
1547	 0.3732802690254 
1548	 0.373255314832152 
1549	 0.373214592259492 
1550	 0.373178414864153 
1551	 0.373174167700793 
1552	 0.373192551617031 
1553	 0.373220371475168 
1554	 0.373268487715081 
1555	 0.373288877874686 
1556	 0.373285984485338 
1557	 0.373290562227627 
1558	 0.373310033493939 
1559	 0.373324025862136 
1560	 0.373331669133649 
1561	 0.373358681920169 
1562	 0.373358803121969 
1563	 0.373324547302579 
1564	 0.373322388636101 
1565	 0.37332828131307 
1566	 0.373331418699744 
1567	 0.373347751249151 
1568	 0.373349096804196 
1569	 0.373335851086962 
1570	 0.373341743926244 
1571	 0.373361987133143 
1572	 0.373356484576325 
1573	 0.373346593564236 
1574	 0.373337533128799 
1575	 0.373311144364222 
1576	 0.373289765195444 
1577	 0.373273761057342 
1578	 0.373262452447774 
1579	 0.373235096008117 
1580	 0.373232488085294 
1581	 0.373246824358376 
1582	 0.373272132977824 
1583	 0.373330034636252 
1584	 0.373355168125302 
1585	 0.373385384886287 
1586	 0.373395566356095 
1587	 0.3733696235078 
1588	 0.373356451148075 
1589	 0.373338992866407 
1590	 0.373327123952099 
1591	 0.373314279736575 
1592	 0.373307102180645 
1593	 0.373304405615523 
1594	 0.373302842195552 
1595	 0.373298307867993 
1596	 0.373312036733088 
1597	 0.373342127246401 
1598	 0.373366153353399 
1599	 0.373428230733539 
1600	 0.373436611120503 
1601	 0.37339891876352 
1602	 0.373378939329731 
1603	 0.37331495306511 
1604	 0.373288676312674 
1605	 0.373291362372055 
1606	 0.373301450718738 
1607	 0.373328983835419 
1608	 0.373373566398562 
1609	 0.373398812934723 
1610	 0.373423506973635 
1611	 0.373417786390721 
1612	 0.373376773810541 
1613	 0.373320951821968 
1614	 0.373271995103481 
1615	 0.3732341880972 
1616	 0.373206758267162 
1617	 0.373208367471828 
1618	 0.37320132931698 
1619	 0.373189536819145 
1620	 0.373189573208615 
1621	 0.373171507236738 
1622	 0.373148352190286 
1623	 0.373115305325293 
1624	 0.373069727447124 
1625	 0.373023494218754 
1626	 0.372966373002573 
1627	 0.372922342251808 
1628	 0.372870521904777 
1629	 0.372852345631497 
1630	 0.37284911940026 
1631	 0.372860369716253 
1632	 0.372897807674806 
1633	 0.372928532463498 
1634	 0.372985906706145 
1635	 0.372989646445938 
1636	 0.372982496804159 
1637	 0.372950311314085 
1638	 0.372856353126095 
1639	 0.372825716350104 
1640	 0.372803725150456 
1641	 0.37280115624981 
1642	 0.372842477079085 
1643	 0.372845869597781 
1644	 0.372840543173304 
1645	 0.372840723843729 
1646	 0.372831120083537 
1647	 0.372826499946877 
1648	 0.372837109237766 
1649	 0.372823111094702 
1650	 0.372788573125288 
1651	 0.372770173517027 
1652	 0.372745889336498 
1653	 0.372730409270803 
1654	 0.372723419516427 
1655	 0.37272176460157 
1656	 0.372735843597253 
1657	 0.372720458310988 
1658	 0.372697340818532 
1659	 0.372676384255468 
1660	 0.372640413510873 
1661	 0.372598356394147 
1662	 0.372556555268376 
1663	 0.37251890804551 
1664	 0.372469808605916 
1665	 0.372419045918645 
1666	 0.372376846476172 
1667	 0.372333139969611 
1668	 0.372270020513441 
1669	 0.372227138405523 
1670	 0.372204902328175 
1671	 0.372174827110952 
1672	 0.37214268920033 
1673	 0.3721164507485 
1674	 0.372088804053756 
1675	 0.372076256722513 
1676	 0.372075455815941 
1677	 0.372072728434627 
1678	 0.372086978055719 
1679	 0.372083137304898 
1680	 0.372068972275499 
1681	 0.372057260740279 
1682	 0.372039908853416 
1683	 0.372023097004529 
1684	 0.371999875638361 
1685	 0.37199228753052 
1686	 0.372000467956025 
1687	 0.371986160967033 
1688	 0.371969038781089 
1689	 0.371952513652921 
1690	 0.371920579376939 
1691	 0.371892569031086 
1692	 0.371867810583451 
1693	 0.371854057664211 
1694	 0.371838230044417 
1695	 0.3718238453945 
1696	 0.371827038980517 
1697	 0.371820035787039 
1698	 0.371794335997926 
1699	 0.371793005340642 
1700	 0.371816559849626 
1701	 0.371812454996243 
1702	 0.371809936251008 
1703	 0.371792830283365 
1704	 0.371759308960235 
1705	 0.371715119144368 
1706	 0.371657852128896 
1707	 0.371603610536609 
1708	 0.371526783258293 
1709	 0.371475678707156 
1710	 0.371438928149368 
1711	 0.371403754843345 
1712	 0.37137993231852 
1713	 0.371348715530245 
1714	 0.371324995889263 
1715	 0.371286798887424 
1716	 0.371231549911591 
1717	 0.371198693324883 
1718	 0.371160249675714 
1719	 0.371142584109173 
1720	 0.371157275859022 
1721	 0.371146646475309 
1722	 0.371138736573491 
1723	 0.371119440607849 
1724	 0.371093515679752 
1725	 0.371047296550848 
1726	 0.370978351965183 
1727	 0.370925873040745 
1728	 0.370864245801889 
1729	 0.370804645399079 
1730	 0.370769336045929 
1731	 0.37070040090845 
1732	 0.370596650526809 
1733	 0.370523885956562 
1734	 0.370453593383043 
1735	 0.370383900164358 
1736	 0.370332517860586 
1737	 0.370263796584269 
1738	 0.370183140997419 
1739	 0.370098114568986 
1740	 0.370003074036461 
1741	 0.369924698594477 
1742	 0.369841495408203 
1743	 0.369783259444861 
1744	 0.369762530145544 
1745	 0.369679817688303 
1746	 0.369573796399744 
1747	 0.369474320165828 
1748	 0.369393253349655 
1749	 0.369346842543451 
1750	 0.369292062235203 
1751	 0.369238292737581 
1752	 0.369168669777393 
1753	 0.369080434866186 
1754	 0.368981179507322 
1755	 0.368882270026406 
1756	 0.3687769092198 
1757	 0.368653242421202 
1758	 0.368563963030979 
1759	 0.368476201518592 
1760	 0.368400105594006 
1761	 0.36840008897814 
1762	 0.368385487755688 
1763	 0.368347681672506 
1764	 0.36831208448444 
1765	 0.368223118248781 
1766	 0.368114063207844 
1767	 0.368006387034163 
1768	 0.367878693823949 
1769	 0.367768188667262 
1770	 0.367706662150302 
1771	 0.367666828996108 
1772	 0.367642113777298 
1773	 0.367646169264049 
1774	 0.36763598271146 
1775	 0.367598958026125 
1776	 0.36755371183966 
1777	 0.367480194780992 
1778	 0.367392094809076 
1779	 0.367311800427586 
1780	 0.367230360502948 
1781	 0.367141776533349 
1782	 0.367073219187032 
1783	 0.367036567222445 
1784	 0.367008500698307 
1785	 0.367017416052475 
1786	 0.36701131294597 
1787	 0.367015195625616 
1788	 0.366997232196956 
1789	 0.366961144167461 
1790	 0.366927059329578 
1791	 0.366866644931626 
1792	 0.366830407510824 
1793	 0.366808378982499 
1794	 0.366799854037677 
1795	 0.366813192866982 
1796	 0.36681814782748 
1797	 0.366842486018881 
1798	 0.366817833109283 
1799	 0.366761541958154 
1800	 0.366722950856002 
1801	 0.366533296055696 
1802	 0.366757789239776 
1803	 0.367021168722566 
1804	 0.36728777390302 
1805	 0.367556744788191 
1806	 0.367806164016188 
1807	 0.368030497972007 
1808	 0.368221972825002 
1809	 0.368399911528307 
1810	 0.368530986742517 
1811	 0.368608870705404 
1812	 0.368702594239926 
1813	 0.36877207243692 
1814	 0.368772944248767 
1815	 0.368780855199385 
1816	 0.368774655826369 
1817	 0.368762180910196 
1818	 0.368715348792125 
1819	 0.368705030516653 
1820	 0.36870986707027 
1821	 0.368704882807086 
1822	 0.368706372500922 
1823	 0.368704103785413 
1824	 0.368694562583471 
1825	 0.368685609843684 
1826	 0.368667190891674 
1827	 0.368641938814343 
1828	 0.368599886001211 
1829	 0.368553558861519 
1830	 0.368472893825537 
1831	 0.368356246667047 
1832	 0.368255584721393 
1833	 0.368144072969601 
1834	 0.368012475755609 
1835	 0.367952453926768 
1836	 0.367912333780903 
1837	 0.367855702521975 
1838	 0.36782191692546 
1839	 0.367790146183481 
1840	 0.367765154254341 
1841	 0.367713748838032 
1842	 0.367675578027933 
1843	 0.367663625160145 
1844	 0.367631609351648 
1845	 0.36758587482381 
1846	 0.36754570366643 
1847	 0.367502437439491 
1848	 0.367456161169747 
1849	 0.367416648978591 
1850	 0.367407175777519 
1851	 0.367420079100614 
1852	 0.367452854891182 
1853	 0.367507102326011 
1854	 0.367564005704097 
1855	 0.367594893461829 
1856	 0.367578299175457 
1857	 0.367537168585108 
1858	 0.367496394049599 
1859	 0.367427253087331 
1860	 0.367338895172097 
1861	 0.367238213000611 
1862	 0.367112920938935 
1863	 0.366973238723332 
1864	 0.366842766200407 
1865	 0.366728596097774 
1866	 0.366610204843016 
1867	 0.366454922596473 
1868	 0.366290961500931 
1869	 0.36610564466486 
1870	 0.365889063083653 
1871	 0.36567865766128 
1872	 0.36547205467928 
1873	 0.365251015829961 
1874	 0.365000521518064 
1875	 0.364735015611984 
1876	 0.364446267766761 
1877	 0.364129245786668 
1878	 0.363761993452603 
1879	 0.363375010193053 
1880	 0.362910751416542 
1881	 0.36238072485016 
1882	 0.361790703590372 
1883	 0.361158044270511 
1884	 0.360413575717691 
1885	 0.359628506429204 
1886	 0.358802057774312 
1887	 0.357884146695742 
1888	 0.356929024240932 
1889	 0.355909087554778 
1890	 0.354828602314465 
1891	 0.353739163347373 
1892	 0.35258957770965 
1893	 0.35145946657249 
1894	 0.350309959883232 
1895	 0.349176513294687 
1896	 0.348047068634888 
1897	 0.346912932600361 
1898	 0.345783663247587 
1899	 0.344677538274839 
1900	 0.343622490394183 
1901	 0.342636803154882 
1902	 0.341706643129662 
1903	 0.340867641490968 
1904	 0.340047890392944 
1905	 0.339258498262999 
1906	 0.338529974687409 
1907	 0.337875082128674 
1908	 0.337250801832587 
1909	 0.336659232666751 
1910	 0.336096579964706 
1911	 0.335547964468209 
1912	 0.335026285299981 
1913	 0.334542166393351 
1914	 0.334102614417535 
1915	 0.333677670904593 
1916	 0.333276048091093 
1917	 0.332909638337534 
1918	 0.332559997439707 
1919	 0.332229634701528 
1920	 0.331939387202977 
1921	 0.331641890125749 
1922	 0.331363948310263 
1923	 0.331133864090588 
1924	 0.330926231753779 
1925	 0.330739944562791 
1926	 0.3305930369895 
1927	 0.330485791998066 
1928	 0.330397394094718 
1929	 0.330331198980385 
1930	 0.330288180540672 
1931	 0.330249136495704 
1932	 0.330216271477613 
1933	 0.330192983799657 
1934	 0.330154860064447 
1935	 0.330145284361351 
1936	 0.330140234141868 
1937	 0.330166694310509 
1938	 0.330221694131688 
1939	 0.330287869421095 
1940	 0.330383901734435 
1941	 0.330470869873667 
1942	 0.330568697575649 
1943	 0.330684044072969 
1944	 0.330789723833876 
1945	 0.330913814842584 
1946	 0.331053950073797 
1947	 0.33120627799439 
1948	 0.331367600959642 
1949	 0.331556782439806 
1950	 0.331731332752444 
1951	 0.331903521460784 
1952	 0.332079268443625 
1953	 0.332248388554373 
1954	 0.332454897879268 
1955	 0.332682242660264 
1956	 0.332897466404249 
1957	 0.333114828143354 
1958	 0.333337308464751 
1959	 0.333561875386165 
1960	 0.333780357438068 
1961	 0.334010670318359 
1962	 0.3342560468864 
1963	 0.334498231601798 
1964	 0.33473092565252 
1965	 0.334979004363531 
1966	 0.335261752054171 
1967	 0.335543102021303 
1968	 0.335812588976252 
1969	 0.336093896817453 
1970	 0.336366296806468 
1971	 0.336609170728715 
1972	 0.336878243897064 
1973	 0.337178039213399 
1974	 0.337455996461211 
1975	 0.33772441340748 
1976	 0.338001694652173 
1977	 0.338279481626762 
1978	 0.338534862354369 
1979	 0.338801943231399 
1980	 0.339091484052948 
1981	 0.339359476706452 
1982	 0.339615758030277 
1983	 0.33988347621891 
1984	 0.340135975943184 
1985	 0.340412531226065 
1986	 0.340710866207534 
1987	 0.341000445145758 
1988	 0.341309375212512 
1989	 0.341606371633591 
1990	 0.341848672506208 
1991	 0.342120792562425 
1992	 0.342404328902038 
1993	 0.342682769363702 
1994	 0.342966045938023 
1995	 0.343279081563092 
1996	 0.343571744401415 
1997	 0.343844544257864 
1998	 0.344134442020378 
1999	 0.344429944825046 
2000	 0.344731425041282 
2001	 0.345056623137317 
2002	 0.34534774458719 
2003	 0.345641714718276 
2004	 0.345936846321397 
2005	 0.346215416599623 
2006	 0.346480235694385 
2007	 0.346734894279737 
2008	 0.346967320991522 
2009	 0.347219784183601 
2010	 0.347476514180756 
2011	 0.347717505191132 
2012	 0.347975203739093 
2013	 0.348206910021505 
2014	 0.348400870007333 
2015	 0.348596175781794 
2016	 0.348826020313419 
2017	 0.34904956129619 
2018	 0.349289892560036 
2019	 0.349562359500693 
2020	 0.349812736051756 
2021	 0.350051464551118 
2022	 0.350308452253638 
2023	 0.350560293715126 
2024	 0.350835602844793 
2025	 0.351162418731675 
2026	 0.351438060217929 
2027	 0.351709616308142 
2028	 0.351958838426344 
2029	 0.352199908826692 
2030	 0.352400448170202 
2031	 0.352624911007812 
2032	 0.352853440476002 
2033	 0.353084103130868 
2034	 0.353319819398461 
2035	 0.353541213997048 
2036	 0.353786529176741 
2037	 0.353985868736982 
2038	 0.354139906562296 
2039	 0.354303314997374 
2040	 0.354452879312486 
2041	 0.354582039317298 
2042	 0.354721729118532 
2043	 0.35489051589878 
2044	 0.355052927325829 
2045	 0.355217092539792 
2046	 0.355387485843381 
2047	 0.355576517080268 
2048	 0.355745013905357 
2049	 0.355930697807801 
2050	 0.356068163366972 
2051	 0.3561708920608 
2052	 0.356271877232004 
2053	 0.356315919466593 
2054	 0.356402158119553 
2055	 0.356499097828169 
2056	 0.356622408463391 
2057	 0.356726984233311 
2058	 0.35684183785579 
2059	 0.356956542016045 
2060	 0.357063837783626 
2061	 0.357167367143787 
2062	 0.357288434358285 
2063	 0.357388141313343 
2064	 0.357450920447564 
2065	 0.357546349600889 
2066	 0.357662990284326 
2067	 0.357762421133889 
2068	 0.357856860778046 
2069	 0.357971646903824 
2070	 0.358066674461558 
2071	 0.358141728307305 
2072	 0.35822989410198 
2073	 0.358316525186554 
2074	 0.358417729317967 
2075	 0.358537850893801 
2076	 0.358630148391845 
2077	 0.358720999824989 
2078	 0.358810088233843 
2079	 0.358862818337502 
2080	 0.358946565565585 
2081	 0.359053375046966 
2082	 0.359156481393645 
2083	 0.359255751212989 
2084	 0.359384583012072 
2085	 0.359497069067466 
2086	 0.359618600571213 
2087	 0.359716589902619 
2088	 0.359795393046985 
2089	 0.359894606888272 
2090	 0.359993523857864 
2091	 0.360084409193382 
2092	 0.360194299377932 
2093	 0.360278369737495 
2094	 0.360327404466711 
2095	 0.360396563304647 
2096	 0.360465330655668 
2097	 0.3605403140937 
2098	 0.360627615160577 
2099	 0.360701902020269 
2100	 0.360798822179844 
2101	 0.360909110284271 
2102	 0.361005069621452 
2103	 0.36111167861687 
2104	 0.361208306160545 
2105	 0.361281379982685 
2106	 0.361379775236933 
2107	 0.361483352593581 
2108	 0.361600812730583 
2109	 0.361731925892039 
2110	 0.361868468329305 
2111	 0.362020514743586 
2112	 0.362172528373143 
2113	 0.362328540917321 
2114	 0.362499503756485 
2115	 0.362642004851291 
2116	 0.362783090083887 
2117	 0.362904129315706 
2118	 0.362990916809493 
2119	 0.363109122421562 
2120	 0.36322986500242 
2121	 0.363352514669272 
2122	 0.363497287960274 
2123	 0.36361916509526 
2124	 0.363733987841823 
2125	 0.363838889494507 
2126	 0.363942467773988 
2127	 0.364022712919233 
2128	 0.364089312671214 
2129	 0.364139159213171 
2130	 0.364175447539868 
2131	 0.36418295337083 
2132	 0.364182827837273 
2133	 0.364173804588025 
2134	 0.364135082604695 
2135	 0.36405492240428 
2136	 0.364006728929043 
2137	 0.363967916251885 
2138	 0.363891050312711 
2139	 0.363832479037249 
2140	 0.363723131204293 
2141	 0.36354269180056 
2142	 0.363383216018318 
2143	 0.363231328537053 
2144	 0.363042873512153 
2145	 0.362846756514058 
2146	 0.362619103082036 
2147	 0.362337884869985 
2148	 0.362059618245448 
2149	 0.361783289239806 
2150	 0.361484200035921 
2151	 0.361219930616509 
2152	 0.36098407613251 
2153	 0.36071631553375 
2154	 0.360461932245595 
2155	 0.360171421765009 
2156	 0.359880232521179 
2157	 0.359525634321421 
2158	 0.35912961423284 
2159	 0.358713223086881 
2160	 0.358223302249865 
2161	 0.357751257061334 
2162	 0.357269749625988 
2163	 0.356790798734367 
2164	 0.356283342237495 
2165	 0.355822174150723 
2166	 0.355346398150513 
2167	 0.354876244487277 
2168	 0.354397481571098 
2169	 0.353924789044379 
2170	 0.353436867395769 
2171	 0.352952786154388 
2172	 0.35243520435179 
2173	 0.351900531477765 
2174	 0.351348422829096 
2175	 0.350771524443935 
2176	 0.350178950763089 
2177	 0.349587827665692 
2178	 0.348949075023579 
2179	 0.348272296588425 
2180	 0.347576383494467 
2181	 0.346824754848702 
2182	 0.346087993472576 
2183	 0.34535138038462 
2184	 0.344586506349191 
2185	 0.343835347079072 
2186	 0.343084605860743 
2187	 0.342330812498623 
2188	 0.341559499910572 
2189	 0.340824880830347 
2190	 0.340061372268666 
2191	 0.339403146283016 
2192	 0.338794786240299 
2193	 0.338234204935305 
2194	 0.3377535723344 
2195	 0.33729434784912 
2196	 0.336866939732887 
2197	 0.336483292694452 
2198	 0.336135437796695 
2199	 0.33584545195578 
2200	 0.335608339723926 
2201	 0.33541085442822 
2202	 0.335273035319079 
2203	 0.335171611622472 
2204	 0.335104160342737 
2205	 0.335045325585762 
2206	 0.335110778713206 
2207	 0.335238651143701 
2208	 0.335443433630292 
2209	 0.335764266408438 
2210	 0.336101940901355 
2211	 0.336515439023259 
2212	 0.33692511731513 
2213	 0.337394592267339 
2214	 0.337837788850188 
2215	 0.338311147560106 
2216	 0.338727284445051 
2217	 0.339095089068719 
2218	 0.339501898227166 
2219	 0.339918471910003 
2220	 0.340292580166381 
2221	 0.340702080923416 
2222	 0.341055577810268 
2223	 0.341309612401574 
2224	 0.341543372943785 
2225	 0.341740438087061 
2226	 0.341896068154285 
2227	 0.342022749117569 
2228	 0.342095156516115 
2229	 0.342189934859667 
2230	 0.342264059047413 
2231	 0.342337703214828 
2232	 0.342436613988245 
2233	 0.342473478206804 
2234	 0.3424555541297 
2235	 0.342460848217401 
2236	 0.342450734315499 
2237	 0.342429710779227 
2238	 0.342430647728961 
2239	 0.34238666540495 
2240	 0.342294105267607 
2241	 0.342209020147049 
2242	 0.342091630956744 
2243	 0.341994171882632 
2244	 0.341926413525407 
2245	 0.341816657608886 
2246	 0.341701156118769 
2247	 0.34159890843514 
2248	 0.341457718823744 
2249	 0.341273844445681 
2250	 0.341129739238736 
2251	 0.340983261003408 
2252	 0.340842189437784 
2253	 0.340711394294 
2254	 0.34058560524825 
2255	 0.340449150619827 
2256	 0.340342992816535 
2257	 0.340250402831849 
2258	 0.340186562397384 
2259	 0.340154501270633 
2260	 0.340120292084262 
2261	 0.340118542777825 
2262	 0.34010356659749 
2263	 0.340083648881323 
2264	 0.340063263980404 
2265	 0.340033726534528 
2266	 0.34002072455012 
2267	 0.339992948205706 
2268	 0.340008859421904 
2269	 0.34005114081914 
2270	 0.340117864670993 
2271	 0.34021879115123 
2272	 0.340344842287 
2273	 0.340485799604396 
2274	 0.340596212233162 
2275	 0.340690446036204 
2276	 0.340756153438554 
2277	 0.34085020076478 
2278	 0.34092419489228 
2279	 0.341041005180003 
2280	 0.341212433399035 
2281	 0.341330247634321 
2282	 0.341429851897769 
2283	 0.341558003114667 
2284	 0.341669885079617 
2285	 0.341802686694672 
2286	 0.342002252426656 
2287	 0.342118338120824 
2288	 0.342185976087679 
2289	 0.342271666899449 
2290	 0.342329019776479 
2291	 0.342389868622206 
2292	 0.342454104229466 
2293	 0.34251583994516 
2294	 0.342575826218465 
2295	 0.342618451523011 
2296	 0.342662958433767 
2297	 0.342680454299991 
2298	 0.342744735206734 
2299	 0.342795907152152 
2300	 0.342834281197518 
2301	 0.342957212749523 
2302	 0.3429723293453 
2303	 0.342932183147243 
2304	 0.342959272713347 
2305	 0.342965350346117 
2306	 0.342928719560566 
2307	 0.342879918939833 
2308	 0.342826745991746 
2309	 0.342709145389722 
2310	 0.342628158603931 
2311	 0.342587953766102 
2312	 0.342518650115162 
2313	 0.34242320125329 
2314	 0.342342328892197 
2315	 0.342277589231881 
2316	 0.34218339265859 
2317	 0.342063725796782 
2318	 0.341972703409657 
2319	 0.341871137687078 
2320	 0.341790205572783 
2321	 0.341775197642466 
2322	 0.341672037011867 
2323	 0.341507937157035 
2324	 0.34138626988219 
2325	 0.341218215920423 
2326	 0.341095461985945 
2327	 0.341048704747229 
2328	 0.340952853318251 
2329	 0.340810717384102 
2330	 0.340744149127247 
2331	 0.340711814827258 
2332	 0.340655375297451 
2333	 0.340594144568434 
2334	 0.340507641036984 
2335	 0.340410980232351 
2336	 0.340354568516039 
2337	 0.340333790277973 
2338	 0.340295156732199 
2339	 0.340280691421502 
2340	 0.340230242645409 
2341	 0.340106400391523 
2342	 0.340040645602691 
2343	 0.339934825178726 
2344	 0.339792629940595 
2345	 0.339667333062365 
2346	 0.339546837150629 
2347	 0.339438855126768 
2348	 0.339335030111879 
2349	 0.339234310468702 
2350	 0.339179522889197 
2351	 0.339065664456501 
2352	 0.338876565900023 
2353	 0.338757199827017 
2354	 0.338649826322527 
2355	 0.338561493648048 
2356	 0.338535483266911 
2357	 0.338486989197953 
2358	 0.338401769002272 
2359	 0.338360392383364 
2360	 0.338388685291719 
2361	 0.338323911875395 
2362	 0.338234480305998 
2363	 0.338154318235821 
2364	 0.337985565057675 
2365	 0.337894240201073 
2366	 0.337917866781271 
2367	 0.337812466615807 
2368	 0.3376415588076 
2369	 0.337497085214108 
2370	 0.337286281761602 
2371	 0.337117673171261 
2372	 0.336986538322865 
2373	 0.336828057603768 
2374	 0.336603794468763 
2375	 0.336359527106009 
2376	 0.336152687302566 
2377	 0.335968215496228 
2378	 0.335859626277839 
2379	 0.335692031561888 
2380	 0.33542739659801 
2381	 0.335206735100012 
2382	 0.334942423023675 
2383	 0.334704222541398 
2384	 0.334504178091318 
2385	 0.334224686832246 
2386	 0.333963009259691 
2387	 0.333710581772738 
2388	 0.333441198731716 
2389	 0.333263924196152 
2390	 0.333112877167199 
2391	 0.332818333719511 
2392	 0.332459418407787 
2393	 0.332118443319053 
2394	 0.331778179188202 
2395	 0.331505440430474 
2396	 0.331354231498049 
2397	 0.331199302878105 
2398	 0.330940025893969 
2399	 0.330672933007244 
2400	 0.330335267127617 
2401	 0.329916557806186 
2402	 0.329589751435014 
2403	 0.329309562523794 
2404	 0.329007384609153 
2405	 0.328832511772322 
2406	 0.328640902002447 
2407	 0.328305585041383 
2408	 0.328018633102484 
2409	 0.32758230036421 
2410	 0.326972897233644 
2411	 0.326514570872027 
2412	 0.326147131529388 
2413	 0.325797589966165 
2414	 0.325509910384281 
2415	 0.325160705478292 
2416	 0.324756713414016 
2417	 0.324152404333389 
2418	 0.323760363456676 
2419	 0.323530141640942 
2420	 0.323160206023216 
2421	 0.322793796855257 
2422	 0.322442750493113 
2423	 0.321971136910221 
2424	 0.321528833799368 
2425	 0.321161357973565 
2426	 0.320737959960497 
2427	 0.320332759204849 
2428	 0.319874730303939 
2429	 0.319322853306103 
2430	 0.318932299253068 
2431	 0.318517216028697 
2432	 0.31814015157884 
2433	 0.31796227593168 
2434	 0.317616219516711 
2435	 0.317136919817845 
2436	 0.316807097207736 
2437	 0.316528778317562 
2438	 0.316218538221946 
2439	 0.315996323843356 
2440	 0.31561789221988 
2441	 0.315078862671172 
2442	 0.314715567624753 
2443	 0.314417363029107 
2444	 0.314093771331991 
2445	 0.313851196666174 
2446	 0.31347382103308 
2447	 0.312911715671754 
2448	 0.312539252036381 
2449	 0.312244397680252 
2450	 0.311991944593605 
2451	 0.311889513710696 
2452	 0.311628420232705 
2453	 0.311268185583488 
2454	 0.310972604927436 
2455	 0.310663366818419 
2456	 0.310417911621682 
2457	 0.31028650775224 
2458	 0.310033717577108 
2459	 0.309703083423376 
2460	 0.309426058240666 
2461	 0.309090102007699 
2462	 0.308780905383081 
2463	 0.30858618448492 
2464	 0.308296798805967 
2465	 0.307925789740528 
2466	 0.307674682793566 
2467	 0.307415666907215 
2468	 0.307071755271563 
2469	 0.306732938841648 
2470	 0.306391343690249 
2471	 0.30620113698521 
2472	 0.305964587510795 
2473	 0.305783683216718 
2474	 0.3056695712803 
2475	 0.305449866598961 
2476	 0.305325700084453 
2477	 0.305260570049173 
2478	 0.305119250491021 
2479	 0.30488503497635 
2480	 0.304721013655051 
2481	 0.304455249320688 
2482	 0.303897091179426 
2483	 0.303464879160524 
2484	 0.303103492360146 
2485	 0.302759530806171 
2486	 0.302620023861975 
2487	 0.3024606677619 
2488	 0.302122780296618 
2489	 0.3018209968242 
2490	 0.301691541994403 
2491	 0.3014536582348 
2492	 0.301166999506159 
2493	 0.300890964496322 
2494	 0.300443173600949 
2495	 0.300048722036834 
2496	 0.299886979833264 
2497	 0.299778209810112 
2498	 0.299542209916454 
2499	 0.299323448008288 
2500	 0.299119250671358 
