Wavelength	mm1700005.asd
350	 9.31738224719865E-02 
351	 9.71395183028419E-02 
352	 8.93495771525501E-02 
353	 0.081181294241331 
354	 8.49430265469826E-02 
355	 8.75745980356356E-02 
356	 8.79622809521315E-02 
357	 8.81390311963118E-02 
358	 8.85053055798788E-02 
359	 8.85213652328507E-02 
360	 8.70357893110718E-02 
361	 0.083218467950573 
362	 0.082576252336504 
363	 8.57712727689994E-02 
364	 9.07630143917995E-02 
365	 9.28186883891656E-02 
366	 9.28787549436035E-02 
367	 9.32698085006672E-02 
368	 9.54506430873109E-02 
369	 9.57868891924243E-02 
370	 9.55884388790041E-02 
371	 9.59581094295623E-02 
372	 9.75239592726529E-02 
373	 9.83312668493104E-02 
374	 0.100629399557109 
375	 0.103425007972243 
376	 9.87522370575076E-02 
377	 9.94761355143469E-02 
378	 0.104400454787597 
379	 0.108275732582894 
380	 0.109057868466273 
381	 0.109101370139168 
382	 0.109516374836454 
383	 0.110348101452928 
384	 0.11276551492904 
385	 0.115267766416527 
386	 0.116724445961987 
387	 0.117306872615674 
388	 0.119691302463531 
389	 0.120954186301445 
390	 0.118614562193527 
391	 0.120855198123733 
392	 0.1258019356772 
393	 0.130454679219483 
394	 0.131643245235198 
395	 0.13225188293951 
396	 0.13480686945388 
397	 0.139372419444529 
398	 0.141122669489021 
399	 0.143006239915921 
400	 0.145541698445768 
401	 0.148204960350545 
402	 0.149781091225908 
403	 0.151281525029138 
404	 0.153149121068204 
405	 0.155123420055466 
406	 0.156536949479417 
407	 0.157860323607864 
408	 0.159546278771694 
409	 0.161452714963988 
410	 0.162834924498056 
411	 0.164397797098027 
412	 0.167063578271765 
413	 0.168172400516422 
414	 0.168861018663544 
415	 0.169707559805412 
416	 0.170138983002886 
417	 0.170125559104112 
418	 0.170451269966659 
419	 0.17156430757769 
420	 0.172251909012364 
421	 0.172414262042427 
422	 0.172399225393062 
423	 0.172742797967082 
424	 0.172836631035186 
425	 0.172560935897571 
426	 0.172107373926236 
427	 0.172124360046296 
428	 0.171868689169458 
429	 0.171551494837691 
430	 0.171507826367766 
431	 0.17107973402385 
432	 0.170547465871047 
433	 0.170428322693421 
434	 0.171332090949005 
435	 0.171265992039295 
436	 0.171150966842567 
437	 0.171848548259143 
438	 0.172497966864733 
439	 0.173479809219814 
440	 0.174677849388911 
441	 0.175762761692201 
442	 0.176791171104215 
443	 0.178084118428333 
444	 0.179581453152406 
445	 0.180617927933729 
446	 0.181686417925532 
447	 0.183100377887228 
448	 0.184858718571404 
449	 0.185875082465971 
450	 0.187213028146575 
451	 0.188935660483771 
452	 0.190238264580921 
453	 0.191373942472474 
454	 0.192344257235218 
455	 0.193216758964899 
456	 0.194287534952021 
457	 0.195472423052545 
458	 0.196584176754437 
459	 0.197433951843088 
460	 0.198280901046694 
461	 0.199016284002733 
462	 0.199653632195108 
463	 0.200413435827158 
464	 0.201364998961517 
465	 0.202261448530069 
466	 0.20286921335086 
467	 0.203365874992013 
468	 0.203987839175141 
469	 0.204687206886841 
470	 0.205205668239842 
471	 0.205826477215393 
472	 0.206361301574897 
473	 0.206709672020008 
474	 0.207139049935809 
475	 0.207668971399183 
476	 0.208187700585591 
477	 0.208572845937423 
478	 0.209141465682902 
479	 0.209728299847116 
480	 0.21021578823418 
481	 0.210605192927079 
482	 0.211270851776604 
483	 0.211959822134594 
484	 0.212375187222074 
485	 0.212797095082291 
486	 0.213354887993476 
487	 0.213864461304065 
488	 0.213944438239416 
489	 0.214380617890361 
490	 0.214981632005946 
491	 0.21547725655331 
492	 0.215837711939276 
493	 0.216244343010579 
494	 0.216724878727339 
495	 0.217237620261983 
496	 0.217874110998057 
497	 0.218293118517249 
498	 0.218494995635931 
499	 0.219038448194516 
500	 0.219501426510187 
501	 0.219914431543718 
502	 0.220388892296963 
503	 0.220806309984742 
504	 0.221158866873247 
505	 0.22152809239661 
506	 0.222052756933302 
507	 0.222334306252775 
508	 0.222678190223161 
509	 0.22325762152355 
510	 0.223516011157442 
511	 0.223783563247711 
512	 0.224162072233744 
513	 0.224616414399238 
514	 0.225039076915435 
515	 0.225397276983105 
516	 0.225727549597358 
517	 0.226162460558139 
518	 0.226658864919819 
519	 0.227082026515716 
520	 0.227335621353657 
521	 0.227674131706584 
522	 0.228092811430289 
523	 0.228489683325668 
524	 0.228686793387035 
525	 0.229045457336178 
526	 0.229369746084574 
527	 0.229524082654291 
528	 0.22998181730396 
529	 0.230401090457726 
530	 0.230737759881018 
531	 0.231138526410051 
532	 0.231517978439237 
533	 0.231838631424736 
534	 0.232119041268509 
535	 0.232475179505175 
536	 0.232887639620869 
537	 0.233269134626577 
538	 0.233541298421366 
539	 0.233904928188717 
540	 0.234221816889995 
541	 0.234498238518264 
542	 0.234967025741194 
543	 0.235367603302355 
544	 0.235692968640572 
545	 0.236020681530118 
546	 0.236465148300461 
547	 0.236923444432201 
548	 0.237339892337183 
549	 0.237709511279628 
550	 0.238085819045149 
551	 0.238482898861168 
552	 0.238902213700596 
553	 0.239346405864775 
554	 0.239720516562662 
555	 0.240103891687242 
556	 0.240645265767643 
557	 0.241209705224505 
558	 0.241746510707048 
559	 0.242251637465942 
560	 0.242783157507976 
561	 0.243295910304215 
562	 0.243823888371587 
563	 0.244412997737045 
564	 0.245037018077053 
565	 0.245569483103291 
566	 0.245964400405139 
567	 0.246273643966083 
568	 0.246705728236948 
569	 0.247325122714789 
570	 0.248131916810562 
571	 0.249114340647577 
572	 0.249957182598988 
573	 0.250616144824579 
574	 0.251246189738113 
575	 0.251801051017718 
576	 0.252469815702461 
577	 0.253328239894243 
578	 0.254154582696949 
579	 0.254912136448693 
580	 0.255598507885991 
581	 0.256235474574082 
582	 0.25679037278603 
583	 0.257394893752336 
584	 0.258120980633534 
585	 0.258942850481801 
586	 0.259867755521679 
587	 0.260844001910775 
588	 0.261799919200339 
589	 0.262657739589949 
590	 0.263553061718456 
591	 0.264494626303259 
592	 0.26537185355079 
593	 0.266155283758743 
594	 0.266813175813698 
595	 0.26736047107963 
596	 0.267913606723096 
597	 0.268481177701253 
598	 0.269051578310335 
599	 0.269614364274582 
600	 0.270281270583873 
601	 0.27102745800636 
602	 0.271798701100463 
603	 0.27252743432992 
604	 0.273189719883378 
605	 0.27385667528685 
606	 0.274619198382103 
607	 0.275466995661544 
608	 0.276223515094534 
609	 0.276880220180905 
610	 0.277626988320379 
611	 0.278254137370527 
612	 0.278785412715713 
613	 0.279271580371917 
614	 0.279646267271394 
615	 0.28003627563643 
616	 0.280488669863943 
617	 0.280979383646717 
618	 0.281412345880255 
619	 0.281786986425742 
620	 0.282138891706761 
621	 0.282546822693429 
622	 0.282930361785271 
623	 0.283259586492639 
624	 0.283547562857849 
625	 0.283936673287769 
626	 0.284331019231323 
627	 0.284680892925982 
628	 0.285023521163829 
629	 0.285302360114637 
630	 0.285595725116377 
631	 0.285967974317198 
632	 0.286277886133017 
633	 0.286606523069754 
634	 0.286934170087054 
635	 0.287168282879125 
636	 0.287461585375412 
637	 0.287806369345126 
638	 0.288152768899477 
639	 0.288417901275234 
640	 0.288709812875438 
641	 0.289003449618342 
642	 0.289230024172043 
643	 0.289490831890253 
644	 0.289791028897159 
645	 0.290114867340474 
646	 0.290433873032695 
647	 0.29064429735641 
648	 0.290878013518258 
649	 0.291257941106463 
650	 0.291564542516204 
651	 0.291800094456017 
652	 0.292034999296827 
653	 0.292381505079709 
654	 0.292687797221796 
655	 0.292966222284283 
656	 0.293260025913774 
657	 0.293615028145472 
658	 0.293952384991264 
659	 0.294232137032197 
660	 0.294460507923866 
661	 0.294824446767436 
662	 0.295195067301444 
663	 0.295493901504304 
664	 0.295756384496652 
665	 0.296144359495433 
666	 0.296537736891042 
667	 0.296807713463463 
668	 0.297159248125272 
669	 0.29752616205516 
670	 0.297869112066137 
671	 0.298181416123946 
672	 0.298530745142703 
673	 0.298894992225837 
674	 0.299254807149402 
675	 0.299638992028205 
676	 0.300024132321001 
677	 0.300383534793462 
678	 0.300704101900911 
679	 0.301065305325283 
680	 0.301454280094873 
681	 0.301859721997356 
682	 0.302284319720447 
683	 0.302684740165637 
684	 0.303061079830198 
685	 0.303435576490029 
686	 0.303862961744686 
687	 0.304283144032055 
688	 0.304674422662767 
689	 0.305050633919065 
690	 0.305493843740846 
691	 0.305910176584885 
692	 0.306259192993131 
693	 0.306659665084504 
694	 0.307042436149332 
695	 0.307470781051712 
696	 0.307995164715577 
697	 0.30833432981373 
698	 0.308706116910622 
699	 0.309160707153915 
700	 0.309545500532462 
701	 0.309959340520276 
702	 0.310410790780202 
703	 0.310864785738784 
704	 0.311213692792773 
705	 0.311572066832097 
706	 0.311963324831626 
707	 0.312359860136284 
708	 0.312747075391801 
709	 0.313176319511388 
710	 0.313624814554634 
711	 0.31395497912863 
712	 0.314279371708296 
713	 0.31462647227309 
714	 0.315003572419149 
715	 0.315444347388462 
716	 0.315791780963805 
717	 0.316050589479797 
718	 0.316351580962997 
719	 0.316789350789653 
720	 0.317165176511367 
721	 0.317393509384757 
722	 0.317688389773981 
723	 0.317992120421521 
724	 0.318266401220378 
725	 0.318501335096294 
726	 0.318819454497826 
727	 0.319113787192654 
728	 0.319350755578256 
729	 0.319575500108523 
730	 0.319787467013037 
731	 0.319979562591571 
732	 0.32016135591768 
733	 0.320398241505742 
734	 0.320549991656881 
735	 0.320650027489785 
736	 0.320791760852662 
737	 0.320937949837602 
738	 0.321087858464271 
739	 0.321220543793001 
740	 0.321294670436331 
741	 0.321391607126337 
742	 0.321463521866798 
743	 0.321483220427632 
744	 0.32156061765417 
745	 0.321598127205449 
746	 0.321612805715956 
747	 0.321660357729848 
748	 0.321655983586436 
749	 0.321615924476567 
750	 0.321577130185116 
751	 0.321587499399368 
752	 0.321563687076546 
753	 0.321449276859545 
754	 0.321271065300307 
755	 0.321275318819948 
756	 0.321254742938068 
757	 0.321135999998959 
758	 0.320943369830917 
759	 0.32083666559203 
760	 0.320781527430291 
761	 0.32069879554687 
762	 0.320485243446242 
763	 0.320378537662512 
764	 0.320248747302015 
765	 0.319993743441823 
766	 0.319855659551469 
767	 0.319742875070881 
768	 0.319607515964192 
769	 0.31942725546409 
770	 0.319204982650081 
771	 0.31901114808459 
772	 0.318845325595738 
773	 0.318618938987053 
774	 0.318410785343621 
775	 0.318213169995893 
776	 0.31800006855376 
777	 0.317740803266141 
778	 0.317538424698098 
779	 0.317388174702469 
780	 0.317224473647311 
781	 0.316962015994051 
782	 0.316734832208931 
783	 0.31655256167185 
784	 0.316284514824382 
785	 0.316094291455678 
786	 0.315889282171003 
787	 0.315611583927522 
788	 0.31540372271879 
789	 0.315221029042119 
790	 0.314999072429563 
791	 0.314701419710812 
792	 0.314487764370222 
793	 0.314256992318559 
794	 0.31401084551504 
795	 0.313836562831074 
796	 0.313563022906883 
797	 0.313324566276164 
798	 0.313185987675246 
799	 0.312999603454625 
800	 0.312813370606627 
801	 0.312616183363056 
802	 0.312393613552 
803	 0.312172821073848 
804	 0.311979018934783 
805	 0.311789477693792 
806	 0.31155927932327 
807	 0.311324947162314 
808	 0.311150991071075 
809	 0.311008102165301 
810	 0.310749060712322 
811	 0.310545455608793 
812	 0.310361571196661 
813	 0.310166931602143 
814	 0.310085453583555 
815	 0.309973250504097 
816	 0.309786814074365 
817	 0.309545206897789 
818	 0.309319432969199 
819	 0.309229186355126 
820	 0.309181555730833 
821	 0.308933182944902 
822	 0.308726324379041 
823	 0.308520354604685 
824	 0.30831767063257 
825	 0.308256988568445 
826	 0.308214405677569 
827	 0.308099433756164 
828	 0.307889542473756 
829	 0.307738227674619 
830	 0.307538980365221 
831	 0.307346930378019 
832	 0.307272165704013 
833	 0.307263460029655 
834	 0.307146480617828 
835	 0.306932462658723 
836	 0.306808263759096 
837	 0.306754529804885 
838	 0.306689274272359 
839	 0.306569654609007 
840	 0.306441681538623 
841	 0.306294608731561 
842	 0.306155714899214 
843	 0.306049211108263 
844	 0.305960313379145 
845	 0.305899613451993 
846	 0.305848560810349 
847	 0.305783726526457 
848	 0.305738450330502 
849	 0.305667937421655 
850	 0.305599487057538 
851	 0.305604011922211 
852	 0.305493978302575 
853	 0.305391303369481 
854	 0.305361144399514 
855	 0.305322174925631 
856	 0.305346514293135 
857	 0.305375159285761 
858	 0.305353083862312 
859	 0.305312271411129 
860	 0.305266807437263 
861	 0.305217428826673 
862	 0.305162916795776 
863	 0.305115834526695 
864	 0.305114167660436 
865	 0.305147461139086 
866	 0.305177668268326 
867	 0.305223600534441 
868	 0.305199312454755 
869	 0.305134058363478 
870	 0.305164502784148 
871	 0.305116182948923 
872	 0.305166598472085 
873	 0.30534829083429 
874	 0.305380155523501 
875	 0.305407772333795 
876	 0.305426017199377 
877	 0.305418481962124 
878	 0.305425457732579 
879	 0.305466725787735 
880	 0.305524572445491 
881	 0.305579810866215 
882	 0.305672433232779 
883	 0.305800398910017 
884	 0.305896630508846 
885	 0.305903771084934 
886	 0.306039767730788 
887	 0.306177161373178 
888	 0.306240640353284 
889	 0.306242338365945 
890	 0.306335389064715 
891	 0.306467261768302 
892	 0.306586434806499 
893	 0.306685676557414 
894	 0.306862520210387 
895	 0.307032748188111 
896	 0.307139413772626 
897	 0.307238679896293 
898	 0.307456422544123 
899	 0.30763424943909 
900	 0.307665908780702 
901	 0.307784869893732 
902	 0.307956010430812 
903	 0.308115798444925 
904	 0.308218688425287 
905	 0.30833394535834 
906	 0.308548279973509 
907	 0.308846884187605 
908	 0.309151325719599 
909	 0.309379492465378 
910	 0.309540812454582 
911	 0.309659501297632 
912	 0.309771931399329 
913	 0.309929313165572 
914	 0.310175395121469 
915	 0.310445378407549 
916	 0.310609665034001 
917	 0.310828847770231 
918	 0.311109364994731 
919	 0.311375060054936 
920	 0.31150840946817 
921	 0.311834673617415 
922	 0.312130550681214 
923	 0.312293814109609 
924	 0.31253308890451 
925	 0.312795613790695 
926	 0.313072655236822 
927	 0.313348387405489 
928	 0.313584300276449 
929	 0.313939875302141 
930	 0.314322364368254 
931	 0.314614115695583 
932	 0.314798596094761 
933	 0.315071876389259 
934	 0.31542039052921 
935	 0.315779616232027 
936	 0.316157017149492 
937	 0.316449791958824 
938	 0.316685445016205 
939	 0.316947616734869 
940	 0.317331720578031 
941	 0.317664674580904 
942	 0.318060356533766 
943	 0.318612626400678 
944	 0.318878954649861 
945	 0.319119118035857 
946	 0.319417382601672 
947	 0.319744458257192 
948	 0.319990639533508 
949	 0.320317166633534 
950	 0.320761895371937 
951	 0.321261366396239 
952	 0.32166762543845 
953	 0.322014369493928 
954	 0.322376633747339 
955	 0.322825188166383 
956	 0.323320690163133 
957	 0.323764453759791 
958	 0.324047397032294 
959	 0.324158596182684 
960	 0.324553455153585 
961	 0.325076920857831 
962	 0.325632331565006 
963	 0.326164819617606 
964	 0.326467850149155 
965	 0.326929712261538 
966	 0.327465803118438 
967	 0.32775693335999 
968	 0.328288162186411 
969	 0.328777064355119 
970	 0.329144038743175 
971	 0.329503788721983 
972	 0.329978449561407 
973	 0.33057049013591 
974	 0.331168991313727 
975	 0.331629023071731 
976	 0.332017673415063 
977	 0.332429140317803 
978	 0.332906603262658 
979	 0.333446746238559 
980	 0.334053091065977 
981	 0.334563179387048 
982	 0.334875242683448 
983	 0.335029862357534 
984	 0.33544887543777 
985	 0.336020145940961 
986	 0.336650244532496 
987	 0.337267341858999 
988	 0.337798142493073 
989	 0.338098986554362 
990	 0.338412258032689 
991	 0.339025815327659 
992	 0.339500232244941 
993	 0.339979868311047 
994	 0.340524296046658 
995	 0.341093918665758 
996	 0.341485203117319 
997	 0.341778132827221 
998	 0.342056540256836 
999	 0.342454872643522 
1000	 0.34330521063914 
1001	 0.336593448040675 
1002	 0.336985657387867 
1003	 0.337356618615291 
1004	 0.337760927537327 
1005	 0.338263925712622 
1006	 0.338709152610532 
1007	 0.339170709091341 
1008	 0.339496420236463 
1009	 0.339836144354874 
1010	 0.340183658856917 
1011	 0.340453729803291 
1012	 0.340818742374778 
1013	 0.341257484584189 
1014	 0.341600141792502 
1015	 0.341939025487518 
1016	 0.342300920032294 
1017	 0.342630028959264 
1018	 0.342904112517486 
1019	 0.343240985196282 
1020	 0.343615511561512 
1021	 0.343962332468515 
1022	 0.344385250756829 
1023	 0.344726723695956 
1024	 0.34494324950664 
1025	 0.345198174751256 
1026	 0.345418365665526 
1027	 0.345665608194729 
1028	 0.346070570153461 
1029	 0.34646353048332 
1030	 0.346796339695506 
1031	 0.347116627043087 
1032	 0.347421753339161 
1033	 0.347641864953842 
1034	 0.34787448030502 
1035	 0.348194897087564 
1036	 0.34848006722536 
1037	 0.348751442704279 
1038	 0.349078012339502 
1039	 0.349366829949872 
1040	 0.349676834848046 
1041	 0.350033642593735 
1042	 0.350378254047413 
1043	 0.35070974516176 
1044	 0.351029515702391 
1045	 0.351347882661862 
1046	 0.351658230282052 
1047	 0.351942264599685 
1048	 0.352229862687918 
1049	 0.352560806497298 
1050	 0.352901649422808 
1051	 0.353224236555177 
1052	 0.35355744815734 
1053	 0.353853691384348 
1054	 0.354119790068478 
1055	 0.354422764379721 
1056	 0.354746342116823 
1057	 0.355070269433169 
1058	 0.355460230715327 
1059	 0.35576038380284 
1060	 0.356017541869653 
1061	 0.356242110327683 
1062	 0.356508713573843 
1063	 0.35678947441211 
1064	 0.357102567521691 
1065	 0.357442039880965 
1066	 0.35766168972928 
1067	 0.357851357670627 
1068	 0.358075629166464 
1069	 0.358300970939371 
1070	 0.358558002257401 
1071	 0.358881428738546 
1072	 0.359152860833746 
1073	 0.359432997189593 
1074	 0.359673554378682 
1075	 0.359874678456328 
1076	 0.360094361614772 
1077	 0.360295194128613 
1078	 0.360460884561237 
1079	 0.360676536341395 
1080	 0.360893225735601 
1081	 0.361042820682988 
1082	 0.361192417634668 
1083	 0.361367863424764 
1084	 0.361520704860477 
1085	 0.361685005137276 
1086	 0.361890841903254 
1087	 0.362089202776474 
1088	 0.362274882179459 
1089	 0.362465498016731 
1090	 0.362663365990802 
1091	 0.362795405870111 
1092	 0.362912076829124 
1093	 0.36304012220301 
1094	 0.363171234638042 
1095	 0.363337343535362 
1096	 0.363516883278678 
1097	 0.363678817142798 
1098	 0.363853160438398 
1099	 0.364048478970836 
1100	 0.36422408011797 
1101	 0.364402279171829 
1102	 0.364559889751964 
1103	 0.364700509850279 
1104	 0.364843188347731 
1105	 0.3649647760622 
1106	 0.36509535927416 
1107	 0.365247209235512 
1108	 0.365377494341929 
1109	 0.365520927991425 
1110	 0.365682119671309 
1111	 0.365853695593551 
1112	 0.366039615620934 
1113	 0.366221967830365 
1114	 0.366444152657016 
1115	 0.366601783370533 
1116	 0.366700798349447 
1117	 0.366859214711459 
1118	 0.367015037371204 
1119	 0.367164216223975 
1120	 0.367393172361113 
1121	 0.36758949335889 
1122	 0.367741636905206 
1123	 0.367901386824761 
1124	 0.368082195166729 
1125	 0.368276750291807 
1126	 0.368441038280127 
1127	 0.368601778876636 
1128	 0.368776715435922 
1129	 0.368925690738398 
1130	 0.369100554543039 
1131	 0.36933330123105 
1132	 0.36951031788379 
1133	 0.369653590603637 
1134	 0.369809081080407 
1135	 0.369946876498532 
1136	 0.370089814281372 
1137	 0.370244021145473 
1138	 0.370374811443057 
1139	 0.370531011731303 
1140	 0.370688843150345 
1141	 0.370857266077189 
1142	 0.371058022046097 
1143	 0.371221304645053 
1144	 0.371380047607064 
1145	 0.371511919000943 
1146	 0.371601387048613 
1147	 0.371722376211968 
1148	 0.371852085516817 
1149	 0.371966167610159 
1150	 0.372067900985217 
1151	 0.372200271092576 
1152	 0.372329087942681 
1153	 0.372452110779856 
1154	 0.37257898255465 
1155	 0.37272939441282 
1156	 0.372854077647572 
1157	 0.372957646134775 
1158	 0.373073590991919 
1159	 0.373201031435529 
1160	 0.373315054387048 
1161	 0.373407248789307 
1162	 0.373521080735504 
1163	 0.37364423173007 
1164	 0.373759254626001 
1165	 0.373866272709803 
1166	 0.374013483479835 
1167	 0.374125842557461 
1168	 0.374240377549781 
1169	 0.37436604309763 
1170	 0.374507174624525 
1171	 0.37462680334628 
1172	 0.374743382153226 
1173	 0.374859484259705 
1174	 0.374961474973517 
1175	 0.375074234461498 
1176	 0.375207420442199 
1177	 0.375312596009184 
1178	 0.37539889247897 
1179	 0.375495036116428 
1180	 0.375585434971211 
1181	 0.37567116421105 
1182	 0.375749882360469 
1183	 0.375844253105459 
1184	 0.375942649766001 
1185	 0.376033684249061 
1186	 0.376137713013213 
1187	 0.376268555838953 
1188	 0.376375169997526 
1189	 0.376469222541827 
1190	 0.376569789968149 
1191	 0.376669949302294 
1192	 0.376767179054293 
1193	 0.376864456459748 
1194	 0.37696203248527 
1195	 0.37705423842752 
1196	 0.377148409979756 
1197	 0.377260411624489 
1198	 0.377348010538794 
1199	 0.377424680210966 
1200	 0.377489950953725 
1201	 0.377561358362821 
1202	 0.377606663996465 
1203	 0.377691635764968 
1204	 0.377802741948167 
1205	 0.377900448594928 
1206	 0.378006113404572 
1207	 0.378113079423812 
1208	 0.378231730790577 
1209	 0.378324808777457 
1210	 0.378424191377357 
1211	 0.37849824504513 
1212	 0.378509082382861 
1213	 0.378569532966164 
1214	 0.378650074278288 
1215	 0.378726176366112 
1216	 0.378811752275104 
1217	 0.378936604439639 
1218	 0.37900987974107 
1219	 0.379049435816867 
1220	 0.379118796083133 
1221	 0.379180839152414 
1222	 0.379254463732971 
1223	 0.379349195472183 
1224	 0.379433206956899 
1225	 0.379517829681557 
1226	 0.379594579882459 
1227	 0.379671865127492 
1228	 0.379741969453352 
1229	 0.379797044835004 
1230	 0.379858399339004 
1231	 0.37992085019032 
1232	 0.379982595718771 
1233	 0.380044437487763 
1234	 0.380106141817746 
1235	 0.380170766610451 
1236	 0.380231376443397 
1237	 0.380304530738789 
1238	 0.380392841517877 
1239	 0.380465027299472 
1240	 0.3805304987973 
1241	 0.38060743367176 
1242	 0.380693936086426 
1243	 0.380758198254648 
1244	 0.380829201084386 
1245	 0.380884061704212 
1246	 0.380890169033737 
1247	 0.380931123183332 
1248	 0.380983003408516 
1249	 0.38104623422612 
1250	 0.381112317779552 
1251	 0.381190439880623 
1252	 0.381250544113016 
1253	 0.381299244060652 
1254	 0.381353156001587 
1255	 0.381410676851451 
1256	 0.381452608554965 
1257	 0.381487471724693 
1258	 0.381523204396915 
1259	 0.381539661515517 
1260	 0.381572686247528 
1261	 0.381620894105861 
1262	 0.38165874715953 
1263	 0.381685092461308 
1264	 0.38173082640344 
1265	 0.381788285991548 
1266	 0.381838936072145 
1267	 0.381899838954448 
1268	 0.381961857427899 
1269	 0.382016359612741 
1270	 0.382051253631757 
1271	 0.382117233754031 
1272	 0.382203702383703 
1273	 0.382270599302423 
1274	 0.382340205813888 
1275	 0.382408606323556 
1276	 0.382444369146046 
1277	 0.38253348142771 
1278	 0.38266215023645 
1279	 0.382774974327615 
1280	 0.382906870702741 
1281	 0.383036892690789 
1282	 0.383167301957461 
1283	 0.383287792822156 
1284	 0.383424511501007 
1285	 0.383533828380785 
1286	 0.383624918279464 
1287	 0.383721491847156 
1288	 0.383818233979723 
1289	 0.38391944740876 
1290	 0.384006333878718 
1291	 0.384089313425085 
1292	 0.384164255252452 
1293	 0.384235696617066 
1294	 0.384290814658021 
1295	 0.384326789603456 
1296	 0.384370724945794 
1297	 0.384416965248331 
1298	 0.384438082278555 
1299	 0.384450306125291 
1300	 0.384460925179838 
1301	 0.384441352166472 
1302	 0.38443441394258 
1303	 0.384440765418043 
1304	 0.384445306690714 
1305	 0.38442289402652 
1306	 0.38439794016397 
1307	 0.384357122279458 
1308	 0.384295371247811 
1309	 0.384243012429857 
1310	 0.384184680884926 
1311	 0.384127090613647 
1312	 0.384076199951491 
1313	 0.384014830780852 
1314	 0.383949569997905 
1315	 0.383878840200048 
1316	 0.383793499926676 
1317	 0.383716501270673 
1318	 0.383637575985991 
1319	 0.383565055771322 
1320	 0.383498808075492 
1321	 0.383433831375545 
1322	 0.38337134366779 
1323	 0.383312236717586 
1324	 0.383250469949515 
1325	 0.38318594632544 
1326	 0.383128648497198 
1327	 0.383072913476226 
1328	 0.38302947412822 
1329	 0.382995185673654 
1330	 0.382950777893507 
1331	 0.382912932572151 
1332	 0.382857576383371 
1333	 0.382792564117978 
1334	 0.382721583923428 
1335	 0.382625210634533 
1336	 0.382561429533715 
1337	 0.382496132651208 
1338	 0.382453428882251 
1339	 0.382453351861052 
1340	 0.382422004547937 
1341	 0.382394658658335 
1342	 0.382356454068321 
1343	 0.382295432825504 
1344	 0.382241060958128 
1345	 0.382204798636536 
1346	 0.382150466085746 
1347	 0.382116634144524 
1348	 0.382088250891786 
1349	 0.382034567059719 
1350	 0.381983861994977 
1351	 0.381939909328991 
1352	 0.38189437972022 
1353	 0.381845684058455 
1354	 0.381812340851346 
1355	 0.381754145230109 
1356	 0.381671221826821 
1357	 0.381599516434853 
1358	 0.38151613139947 
1359	 0.381453879113898 
1360	 0.381397409378479 
1361	 0.38135005482368 
1362	 0.381330233466682 
1363	 0.381290309084484 
1364	 0.381233879141469 
1365	 0.381201625921206 
1366	 0.381180040240584 
1367	 0.38114387254485 
1368	 0.381134431039062 
1369	 0.381135936412556 
1370	 0.381104167014507 
1371	 0.381056386470478 
1372	 0.380989461001566 
1373	 0.380911331307985 
1374	 0.380824594755931 
1375	 0.380728661132287 
1376	 0.380616060194088 
1377	 0.380498901883419 
1378	 0.380346733670265 
1379	 0.380162076961926 
1380	 0.379988505907874 
1381	 0.379795731811002 
1382	 0.379601392723592 
1383	 0.379431330877225 
1384	 0.37921026056493 
1385	 0.378975921923992 
1386	 0.378703223928226 
1387	 0.378402072435123 
1388	 0.378058592393423 
1389	 0.377687100795382 
1390	 0.377263235945715 
1391	 0.376804637694447 
1392	 0.376313713002205 
1393	 0.37575340364444 
1394	 0.375168200413145 
1395	 0.374520690976418 
1396	 0.373856666778001 
1397	 0.373232308881418 
1398	 0.372612498342243 
1399	 0.371985980489883 
1400	 0.371380518357342 
1401	 0.370766016150996 
1402	 0.370101224783588 
1403	 0.369526706996869 
1404	 0.36897508876554 
1405	 0.368486302160672 
1406	 0.368072271256949 
1407	 0.367661007906147 
1408	 0.367253019787981 
1409	 0.366931818351643 
1410	 0.36659515798135 
1411	 0.366414096697831 
1412	 0.366333429696285 
1413	 0.366358975015064 
1414	 0.366509460653255 
1415	 0.366746078295484 
1416	 0.367076300764108 
1417	 0.367467871485976 
1418	 0.367873611194617 
1419	 0.368304194012121 
1420	 0.368742568420609 
1421	 0.369130384097596 
1422	 0.36947373302887 
1423	 0.369784459718814 
1424	 0.37001730150605 
1425	 0.370164895608438 
1426	 0.370306870770626 
1427	 0.370383292822359 
1428	 0.370476634309843 
1429	 0.370550693539366 
1430	 0.370618483601238 
1431	 0.370695737549827 
1432	 0.370734673815356 
1433	 0.370740013523837 
1434	 0.370748253645084 
1435	 0.370708982489987 
1436	 0.37071971274441 
1437	 0.370758955472547 
1438	 0.37079017186796 
1439	 0.370851757483215 
1440	 0.370895186726007 
1441	 0.370892707250755 
1442	 0.370883354386204 
1443	 0.370856545757088 
1444	 0.370815612586428 
1445	 0.370791383242719 
1446	 0.370779022177775 
1447	 0.370777840229217 
1448	 0.370775589631357 
1449	 0.370743132873593 
1450	 0.370709846586355 
1451	 0.370684908548224 
1452	 0.370646925435106 
1453	 0.370616681147055 
1454	 0.37060757699241 
1455	 0.370575693146029 
1456	 0.370530703809102 
1457	 0.370483692916969 
1458	 0.370431533663696 
1459	 0.370380481510355 
1460	 0.37030866342592 
1461	 0.370265761191111 
1462	 0.370234920680359 
1463	 0.370207790956215 
1464	 0.370208381927693 
1465	 0.370191119717202 
1466	 0.370161165088966 
1467	 0.370144158548747 
1468	 0.370102008377417 
1469	 0.370103754754935 
1470	 0.370125337415117 
1471	 0.370182678530594 
1472	 0.370260206125926 
1473	 0.370351524582606 
1474	 0.370414953509639 
1475	 0.370461088004602 
1476	 0.370491945489386 
1477	 0.370529491235048 
1478	 0.370597897734598 
1479	 0.370668172955632 
1480	 0.370758365368124 
1481	 0.37085434924712 
1482	 0.37094826387542 
1483	 0.371048621096823 
1484	 0.371137324494535 
1485	 0.371222723514848 
1486	 0.371307308965176 
1487	 0.371374664973165 
1488	 0.371465500392209 
1489	 0.371587482312106 
1490	 0.371670218528105 
1491	 0.371743270151482 
1492	 0.371811444891295 
1493	 0.371848696623082 
1494	 0.371901433611631 
1495	 0.371968405864763 
1496	 0.372021173123188 
1497	 0.372068735323097 
1498	 0.372109737651449 
1499	 0.372141672837674 
1500	 0.372176816763165 
1501	 0.372196443785119 
1502	 0.372234681115033 
1503	 0.372281599552592 
1504	 0.372331774936172 
1505	 0.372393901698421 
1506	 0.372467405208547 
1507	 0.372544016259621 
1508	 0.372607696425095 
1509	 0.372662728073253 
1510	 0.372700731539974 
1511	 0.372704525361405 
1512	 0.372713875941687 
1513	 0.37273346136903 
1514	 0.372754612651817 
1515	 0.372785885081306 
1516	 0.372828911382524 
1517	 0.372875623186484 
1518	 0.372929103338294 
1519	 0.372977318958819 
1520	 0.373036445323182 
1521	 0.37307772660394 
1522	 0.373105510584538 
1523	 0.373134212057045 
1524	 0.373156138675558 
1525	 0.373184174779154 
1526	 0.37320847682827 
1527	 0.373239921961472 
1528	 0.373283729244137 
1529	 0.373314987041346 
1530	 0.373340588635155 
1531	 0.373370234459088 
1532	 0.373395189042775 
1533	 0.373418104888038 
1534	 0.373452261287686 
1535	 0.373471206919438 
1536	 0.373471895635329 
1537	 0.373486230518682 
1538	 0.373498204255184 
1539	 0.373511843743935 
1540	 0.373533000284245 
1541	 0.373551152937601 
1542	 0.373566770037991 
1543	 0.37358243705745 
1544	 0.373608445850415 
1545	 0.373623938018246 
1546	 0.373641195637182 
1547	 0.373635926598993 
1548	 0.373624382895651 
1549	 0.373599969564928 
1550	 0.373574432906415 
1551	 0.373575524705116 
1552	 0.373566370780861 
1553	 0.373578014582623 
1554	 0.373619575109545 
1555	 0.373628047734559 
1556	 0.373635800635197 
1557	 0.373644866101846 
1558	 0.373637880218211 
1559	 0.37364613773879 
1560	 0.37366434285238 
1561	 0.373713814973034 
1562	 0.373727136055931 
1563	 0.373727478278651 
1564	 0.373735449402652 
1565	 0.373738808564594 
1566	 0.37373399582501 
1567	 0.373725662795485 
1568	 0.373722359102224 
1569	 0.373701113497459 
1570	 0.373704008886482 
1571	 0.373738171116277 
1572	 0.373742711594295 
1573	 0.373739161198081 
1574	 0.373740178543702 
1575	 0.373728673571104 
1576	 0.373722781033976 
1577	 0.373724553955845 
1578	 0.373722738539441 
1579	 0.373708974606107 
1580	 0.373711582221952 
1581	 0.373731426071108 
1582	 0.373740264185417 
1583	 0.373754980736971 
1584	 0.373758941868011 
1585	 0.373739610741218 
1586	 0.373744437196785 
1587	 0.373777304793338 
1588	 0.373775270432229 
1589	 0.373761760424465 
1590	 0.373755171791307 
1591	 0.373718053490126 
1592	 0.373701959716092 
1593	 0.373703628584343 
1594	 0.373712048509632 
1595	 0.373730503831619 
1596	 0.373745585113222 
1597	 0.373781470394063 
1598	 0.373796706306333 
1599	 0.373805046264794 
1600	 0.373795255843072 
1601	 0.373758018611245 
1602	 0.373736509864365 
1603	 0.373688479776961 
1604	 0.373671697098309 
1605	 0.373691237682739 
1606	 0.37370044680755 
1607	 0.373714466895381 
1608	 0.373744445658309 
1609	 0.37376793970678 
1610	 0.37377237081797 
1611	 0.373753231026822 
1612	 0.373729509348036 
1613	 0.373683633142638 
1614	 0.373630658104786 
1615	 0.373602963783704 
1616	 0.373572280898177 
1617	 0.373543224947835 
1618	 0.373530984450486 
1619	 0.373515997274424 
1620	 0.373501493518909 
1621	 0.373483282967226 
1622	 0.373472876372977 
1623	 0.373431873618463 
1624	 0.373372471066203 
1625	 0.373326171464988 
1626	 0.37325642695891 
1627	 0.373227923864918 
1628	 0.373225935376659 
1629	 0.373212757659898 
1630	 0.373205971319962 
1631	 0.373214867964559 
1632	 0.373230178798963 
1633	 0.373246562103976 
1634	 0.373292284871751 
1635	 0.373296489652847 
1636	 0.373280747368118 
1637	 0.373261541329159 
1638	 0.373217793976542 
1639	 0.373195107668958 
1640	 0.373165023052806 
1641	 0.373166394951458 
1642	 0.37319120448512 
1643	 0.373208695301353 
1644	 0.373250737249116 
1645	 0.373263200347818 
1646	 0.37326379898921 
1647	 0.373258491617699 
1648	 0.37323839395322 
1649	 0.373222946066133 
1650	 0.373198753086702 
1651	 0.373184346917426 
1652	 0.373180244679905 
1653	 0.373159191443684 
1654	 0.373128864387195 
1655	 0.373111532478731 
1656	 0.373093449288272 
1657	 0.373068434107723 
1658	 0.373054248890822 
1659	 0.37302735556875 
1660	 0.372986249801158 
1661	 0.372941596436941 
1662	 0.372891437095329 
1663	 0.372847261366719 
1664	 0.372788652982361 
1665	 0.372749565170582 
1666	 0.372724089206544 
1667	 0.372703630282022 
1668	 0.372697204227101 
1669	 0.37267900630657 
1670	 0.372671237558386 
1671	 0.372643622272678 
1672	 0.372591872349728 
1673	 0.372559604840369 
1674	 0.372522730296119 
1675	 0.372500347065909 
1676	 0.372488580430947 
1677	 0.37248649338261 
1678	 0.372508727615712 
1679	 0.372500906549164 
1680	 0.372487948513655 
1681	 0.37247524684802 
1682	 0.372426970905796 
1683	 0.372423459928306 
1684	 0.372465836522555 
1685	 0.372465581761975 
1686	 0.372471663107251 
1687	 0.372452114190872 
1688	 0.372381223435923 
1689	 0.372351096532297 
1690	 0.372331932136285 
1691	 0.372315132587127 
1692	 0.372322702453409 
1693	 0.372306377625175 
1694	 0.372271559778436 
1695	 0.372254240290675 
1696	 0.372234095333072 
1697	 0.372222639067833 
1698	 0.372232148923764 
1699	 0.372226423399072 
1700	 0.372214562011124 
1701	 0.372198292819419 
1702	 0.372177071315666 
1703	 0.372153291324283 
1704	 0.372135263351996 
1705	 0.372096751806909 
1706	 0.372044124772383 
1707	 0.371989344269774 
1708	 0.371899205209335 
1709	 0.371859397609489 
1710	 0.371846193033364 
1711	 0.37182645960034 
1712	 0.371841953011744 
1713	 0.371816903755746 
1714	 0.371764460022174 
1715	 0.371728347670606 
1716	 0.371675691818922 
1717	 0.371649913239722 
1718	 0.371654248476034 
1719	 0.371626764535232 
1720	 0.371602598511699 
1721	 0.371559076416412 
1722	 0.371470400534641 
1723	 0.371436677557668 
1724	 0.371429546819743 
1725	 0.371404791867877 
1726	 0.371417841272738 
1727	 0.371365628485415 
1728	 0.371252165795641 
1729	 0.37119266527093 
1730	 0.371136199684483 
1731	 0.371069417816088 
1732	 0.371030018633791 
1733	 0.370965088309797 
1734	 0.370865738625577 
1735	 0.370784510111771 
1736	 0.370712197880536 
1737	 0.370633358716292 
1738	 0.370546426209243 
1739	 0.370462641165734 
1740	 0.370372743909347 
1741	 0.370313192948759 
1742	 0.370267582974881 
1743	 0.370218830593494 
1744	 0.370210819658479 
1745	 0.370136119209679 
1746	 0.37001884008609 
1747	 0.36989289369516 
1748	 0.369796034452311 
1749	 0.369724897741369 
1750	 0.369660615635071 
1751	 0.369635016388459 
1752	 0.369557958554054 
1753	 0.369473877262492 
1754	 0.369407067988052 
1755	 0.369302425814475 
1756	 0.369201064541533 
1757	 0.369076430198357 
1758	 0.368980061832082 
1759	 0.368927285768097 
1760	 0.36887426518621 
1761	 0.368876460499877 
1762	 0.368860092329674 
1763	 0.368810461134955 
1764	 0.368770561279441 
1765	 0.368654974313967 
1766	 0.36850905235869 
1767	 0.368382645160134 
1768	 0.368265540470153 
1769	 0.368189329823727 
1770	 0.368138048026244 
1771	 0.368088490063293 
1772	 0.368036063158083 
1773	 0.367998689024265 
1774	 0.36800041057514 
1775	 0.368006494314549 
1776	 0.367951108149613 
1777	 0.367873707651213 
1778	 0.36778500894418 
1779	 0.367671368358586 
1780	 0.367594582266254 
1781	 0.367529763268814 
1782	 0.367464986732457 
1783	 0.367433704618202 
1784	 0.367393694750296 
1785	 0.367351753846015 
1786	 0.367333521665324 
1787	 0.36733210379055 
1788	 0.367310026932909 
1789	 0.367315723851243 
1790	 0.367295682596256 
1791	 0.367235347282063 
1792	 0.367195008896257 
1793	 0.367138819394673 
1794	 0.367125032878091 
1795	 0.367139518592992 
1796	 0.367145609502916 
1797	 0.367189272046849 
1798	 0.367186906567927 
1799	 0.367165074578029 
1800	 0.367126905912519 
1801	 0.367017110799625 
1802	 0.367225226935693 
1803	 0.367451764180371 
1804	 0.367677992307806 
1805	 0.367970650396196 
1806	 0.368214102333919 
1807	 0.368430965386125 
1808	 0.368619036850306 
1809	 0.368779184850599 
1810	 0.368905430533377 
1811	 0.368995563589946 
1812	 0.369092757106069 
1813	 0.369157373636006 
1814	 0.369169357662683 
1815	 0.369158166838981 
1816	 0.369124971884666 
1817	 0.369093524630009 
1818	 0.369028966497749 
1819	 0.368998154561242 
1820	 0.368978246816721 
1821	 0.368956046428149 
1822	 0.368951153832792 
1823	 0.368950577564879 
1824	 0.36895766139003 
1825	 0.368966900134602 
1826	 0.368966062558044 
1827	 0.368944012218416 
1828	 0.368907083069365 
1829	 0.368846840865074 
1830	 0.368783835428777 
1831	 0.368707218980719 
1832	 0.368635084484695 
1833	 0.368524549432724 
1834	 0.368437418547792 
1835	 0.368380410079604 
1836	 0.368309608849658 
1837	 0.368284135673059 
1838	 0.368271076097001 
1839	 0.368243102180215 
1840	 0.368207599530833 
1841	 0.368178276084058 
1842	 0.368137812254132 
1843	 0.368106313768771 
1844	 0.368075319255978 
1845	 0.368034872151164 
1846	 0.36798230211251 
1847	 0.367913201006393 
1848	 0.367864938178352 
1849	 0.367836905065476 
1850	 0.367826550466782 
1851	 0.367845157087557 
1852	 0.367882160448711 
1853	 0.367914844470928 
1854	 0.367935066762533 
1855	 0.367927950138573 
1856	 0.36789317074137 
1857	 0.367836025176928 
1858	 0.367771289325869 
1859	 0.36769790918603 
1860	 0.36762380647961 
1861	 0.367555080034998 
1862	 0.36747950062553 
1863	 0.367373033733773 
1864	 0.367247847564591 
1865	 0.367108553877078 
1866	 0.3669674637241 
1867	 0.366816389921504 
1868	 0.36664902344901 
1869	 0.366473739166818 
1870	 0.366269118414463 
1871	 0.366057734489574 
1872	 0.365832324391649 
1873	 0.36560766232644 
1874	 0.365353558446953 
1875	 0.365105840030889 
1876	 0.36484391548156 
1877	 0.364505311183287 
1878	 0.364108180401651 
1879	 0.363690322683615 
1880	 0.363205809763424 
1881	 0.362656413305487 
1882	 0.362055313654436 
1883	 0.36143129897474 
1884	 0.360679980593047 
1885	 0.359872296241311 
1886	 0.359022739308475 
1887	 0.358093248924309 
1888	 0.357112313984019 
1889	 0.356058393304916 
1890	 0.354970481556097 
1891	 0.353874237962811 
1892	 0.352729001032291 
1893	 0.351591561103728 
1894	 0.350447863819055 
1895	 0.34928811761587 
1896	 0.348111953100488 
1897	 0.346978700226422 
1898	 0.345846985245169 
1899	 0.344737185822711 
1900	 0.343680085775673 
1901	 0.342669810140285 
1902	 0.341728206270927 
1903	 0.340858278252518 
1904	 0.340038279279937 
1905	 0.339277188532255 
1906	 0.338575939911233 
1907	 0.337904187374812 
1908	 0.337307949263234 
1909	 0.336742590733179 
1910	 0.336152406401047 
1911	 0.335621788344348 
1912	 0.335099138736026 
1913	 0.334590533113212 
1914	 0.334078904128731 
1915	 0.333635027819927 
1916	 0.333222232591314 
1917	 0.332835728937024 
1918	 0.332525993988458 
1919	 0.332235232953915 
1920	 0.331944070106544 
1921	 0.331666406728999 
1922	 0.331386201488706 
1923	 0.331147800344395 
1924	 0.330944907650374 
1925	 0.330783859210324 
1926	 0.330641106532368 
1927	 0.330529354398245 
1928	 0.330443382889143 
1929	 0.330376771104299 
1930	 0.330317216784687 
1931	 0.330277392013453 
1932	 0.330241848455886 
1933	 0.33021529367063 
1934	 0.330202716423228 
1935	 0.33020955361905 
1936	 0.330238176746978 
1937	 0.33027061477055 
1938	 0.330298919343825 
1939	 0.33037600398478 
1940	 0.33049264708023 
1941	 0.330597463974098 
1942	 0.330728413836799 
1943	 0.330858557955685 
1944	 0.330960591404611 
1945	 0.331073857233794 
1946	 0.331204883151898 
1947	 0.331346649084989 
1948	 0.331505488526347 
1949	 0.33169204057957 
1950	 0.331869291822112 
1951	 0.332049512834283 
1952	 0.332245332574341 
1953	 0.332438519484989 
1954	 0.332627704040479 
1955	 0.33285098912982 
1956	 0.333066304045859 
1957	 0.333298261379533 
1958	 0.33355576026496 
1959	 0.333792729499957 
1960	 0.334034937630205 
1961	 0.334270182786208 
1962	 0.334471338553381 
1963	 0.334707587950754 
1964	 0.334951817109339 
1965	 0.335216663854646 
1966	 0.335494745161576 
1967	 0.335798506277401 
1968	 0.336089114923291 
1969	 0.336386668077956 
1970	 0.336669684713007 
1971	 0.336942828339086 
1972	 0.337218717458834 
1973	 0.337496217196073 
1974	 0.337765141489495 
1975	 0.338008252526648 
1976	 0.338299007874047 
1977	 0.338599705818643 
1978	 0.338867477125378 
1979	 0.339158493596622 
1980	 0.339458440085974 
1981	 0.339727711005815 
1982	 0.339959031530786 
1983	 0.340220426711088 
1984	 0.340471200951085 
1985	 0.340739526534276 
1986	 0.341024978400992 
1987	 0.341314487681018 
1988	 0.34160610021481 
1989	 0.341923500699161 
1990	 0.342230502310076 
1991	 0.342547714241237 
1992	 0.342841613519021 
1993	 0.343124519950894 
1994	 0.343401542508492 
1995	 0.343654162786163 
1996	 0.343925131337508 
1997	 0.344193817380143 
1998	 0.344479275727988 
1999	 0.344780396756069 
2000	 0.345082175081606 
2001	 0.34540493972267 
2002	 0.34571115180459 
2003	 0.346014355511633 
2004	 0.346294232872099 
2005	 0.346554273167496 
2006	 0.34677381993317 
2007	 0.347029340897408 
2008	 0.347278019882938 
2009	 0.347535474214903 
2010	 0.347827682085104 
2011	 0.348087268019618 
2012	 0.34833665137494 
2013	 0.348572953160498 
2014	 0.348794630811402 
2015	 0.348999483678795 
2016	 0.349197960238357 
2017	 0.349419074626396 
2018	 0.349660810224763 
2019	 0.34992427163143 
2020	 0.350190538203094 
2021	 0.350490846107609 
2022	 0.350759897435207 
2023	 0.351011951195956 
2024	 0.351280822013836 
2025	 0.351561977961999 
2026	 0.351821405901275 
2027	 0.352089296552447 
2028	 0.352336682917253 
2029	 0.352570700057041 
2030	 0.352770382376212 
2031	 0.352993444860689 
2032	 0.353220521067136 
2033	 0.35343920696943 
2034	 0.353661348635732 
2035	 0.353871184662677 
2036	 0.354076493401207 
2037	 0.354271503215903 
2038	 0.354467265575736 
2039	 0.354635730854811 
2040	 0.354779258445202 
2041	 0.354915624645374 
2042	 0.355044802448354 
2043	 0.355179238649101 
2044	 0.355336409970469 
2045	 0.355516312343702 
2046	 0.355689802663837 
2047	 0.355886599422059 
2048	 0.356058489262663 
2049	 0.356231028885309 
2050	 0.356379903214241 
2051	 0.356508512521376 
2052	 0.356628436267217 
2053	 0.356712994053889 
2054	 0.356822724582764 
2055	 0.356924765156057 
2056	 0.35705674022818 
2057	 0.357175335033974 
2058	 0.357306305530099 
2059	 0.357431304747497 
2060	 0.357546696129376 
2061	 0.357669564563264 
2062	 0.357810224184489 
2063	 0.357930128091745 
2064	 0.358045516120773 
2065	 0.358147205074008 
2066	 0.358236949003278 
2067	 0.35831896339966 
2068	 0.35837599176162 
2069	 0.358448562043076 
2070	 0.358526105913748 
2071	 0.358602480644189 
2072	 0.358683024803812 
2073	 0.358774418788192 
2074	 0.358864935386767 
2075	 0.358961515488845 
2076	 0.359040690295388 
2077	 0.359114167676652 
2078	 0.359190377815044 
2079	 0.359242419876158 
2080	 0.359320216392973 
2081	 0.359408639516258 
2082	 0.359511612362139 
2083	 0.359642173081352 
2084	 0.359754852497111 
2085	 0.359884432042795 
2086	 0.360037299279646 
2087	 0.360164948485689 
2088	 0.360299492367615 
2089	 0.360402338618186 
2090	 0.360480793428483 
2091	 0.360557125633563 
2092	 0.360603843365091 
2093	 0.360668811509148 
2094	 0.360735896320959 
2095	 0.360805795176639 
2096	 0.360877031673377 
2097	 0.360956251704145 
2098	 0.361038242049332 
2099	 0.361124888071513 
2100	 0.36122048050054 
2101	 0.361328641636207 
2102	 0.361428209474219 
2103	 0.36153395033006 
2104	 0.361633541148886 
2105	 0.361720771586913 
2106	 0.36182528170238 
2107	 0.361935349767091 
2108	 0.362047405807496 
2109	 0.36215644023174 
2110	 0.362289734460051 
2111	 0.3624436977785 
2112	 0.362589875160157 
2113	 0.362739998690572 
2114	 0.362921395659185 
2115	 0.363065895034311 
2116	 0.363189207441202 
2117	 0.363324811102953 
2118	 0.363452966691998 
2119	 0.363588805744597 
2120	 0.363734861120487 
2121	 0.36386750698895 
2122	 0.364005028897953 
2123	 0.36412543536016 
2124	 0.364243200472282 
2125	 0.364335140091506 
2126	 0.364401105381004 
2127	 0.364467149301877 
2128	 0.36452285618384 
2129	 0.364561619413503 
2130	 0.364600426301498 
2131	 0.364618368317312 
2132	 0.364612182758669 
2133	 0.364575275372817 
2134	 0.364540628182273 
2135	 0.364489087290347 
2136	 0.364434448904882 
2137	 0.364382401272558 
2138	 0.364297930993305 
2139	 0.364192571862424 
2140	 0.364079876280982 
2141	 0.363955527589285 
2142	 0.363804102751684 
2143	 0.363645759978181 
2144	 0.363455560803575 
2145	 0.363213530805486 
2146	 0.362979448552218 
2147	 0.362725145093894 
2148	 0.362479844831976 
2149	 0.362218913705622 
2150	 0.361947422723439 
2151	 0.361687808667469 
2152	 0.361427107589771 
2153	 0.361157401484985 
2154	 0.360913847043784 
2155	 0.360614769795374 
2156	 0.360302017697064 
2157	 0.359940811391445 
2158	 0.359526063520666 
2159	 0.359109152108455 
2160	 0.358647381389525 
2161	 0.358191088824312 
2162	 0.357725194991929 
2163	 0.357258748745164 
2164	 0.356765155274172 
2165	 0.356306971051011 
2166	 0.355841270438596 
2167	 0.35538623751293 
2168	 0.35490907579534 
2169	 0.354424617081753 
2170	 0.353946371519415 
2171	 0.353477010017636 
2172	 0.352965347570223 
2173	 0.352465589758948 
2174	 0.351908745494921 
2175	 0.351281670132722 
2176	 0.350667601157365 
2177	 0.350040102487198 
2178	 0.349388214013975 
2179	 0.348738423183572 
2180	 0.3480427006833 
2181	 0.347297222229966 
2182	 0.346548466854171 
2183	 0.345745522110685 
2184	 0.344962075885673 
2185	 0.344201637813658 
2186	 0.343444959906435 
2187	 0.342707409700751 
2188	 0.341990482489749 
2189	 0.341285043722583 
2190	 0.340551215325127 
2191	 0.339920119359731 
2192	 0.339346312282514 
2193	 0.33879962291725 
2194	 0.338312517125475 
2195	 0.337860921909174 
2196	 0.337433541270446 
2197	 0.33705392532486 
2198	 0.336729169026441 
2199	 0.336448070080626 
2200	 0.336199000360499 
2201	 0.336000574296345 
2202	 0.335846680632477 
2203	 0.335766757818759 
2204	 0.335711916971294 
2205	 0.33567839819267 
2206	 0.335758685021298 
2207	 0.335913698957941 
2208	 0.336107807300874 
2209	 0.336389332451563 
2210	 0.336708229414915 
2211	 0.337084778870975 
2212	 0.337473178962649 
2213	 0.337944277751813 
2214	 0.338379470622662 
2215	 0.338821138027111 
2216	 0.339242872371126 
2217	 0.339680578347855 
2218	 0.340078542313503 
2219	 0.340459198272566 
2220	 0.340802316763313 
2221	 0.341109976943987 
2222	 0.341398471440297 
2223	 0.341649085167861 
2224	 0.341872675585446 
2225	 0.342065673420777 
2226	 0.342226471105701 
2227	 0.342366023927993 
2228	 0.342465470650536 
2229	 0.342574104361733 
2230	 0.342669253248991 
2231	 0.342754684264422 
2232	 0.34283624274243 
2233	 0.342892709600155 
2234	 0.342935851766407 
2235	 0.342954289477841 
2236	 0.342953262705207 
2237	 0.342933597255175 
2238	 0.342862928073718 
2239	 0.34282324428846 
2240	 0.34281251197115 
2241	 0.342750635054929 
2242	 0.34266868658149 
2243	 0.342588260553935 
2244	 0.34248490775699 
2245	 0.342352337957409 
2246	 0.342225232493939 
2247	 0.342097593557575 
2248	 0.341949853189495 
2249	 0.341762381207223 
2250	 0.341600472941947 
2251	 0.341452179709413 
2252	 0.341287915472655 
2253	 0.341098548025645 
2254	 0.34094585740488 
2255	 0.340792203871265 
2256	 0.340671676053208 
2257	 0.340579908024089 
2258	 0.340510806426705 
2259	 0.340461238701995 
2260	 0.340430076210311 
2261	 0.340444177815103 
2262	 0.340439335617037 
2263	 0.340457117705502 
2264	 0.340452335939624 
2265	 0.340392767428779 
2266	 0.340397001148753 
2267	 0.340413255891644 
2268	 0.340454909228366 
2269	 0.340536242614934 
2270	 0.340667551130155 
2271	 0.340770990278145 
2272	 0.340888819562848 
2273	 0.340996691592798 
2274	 0.341070579698476 
2275	 0.34114381673911 
2276	 0.341182089535109 
2277	 0.341269842639041 
2278	 0.341378873826275 
2279	 0.34147282649999 
2280	 0.341567397986942 
2281	 0.341684505834691 
2282	 0.341799757523975 
2283	 0.341934582357528 
2284	 0.342128810805503 
2285	 0.342276556222293 
2286	 0.342414645382447 
2287	 0.342518043160947 
2288	 0.342565871579999 
2289	 0.342656408356221 
2290	 0.342762510008139 
2291	 0.34283927310809 
2292	 0.342933084983182 
2293	 0.343005120784582 
2294	 0.343022973908667 
2295	 0.343063325784917 
2296	 0.343112260338881 
2297	 0.343162902222864 
2298	 0.34322673706217 
2299	 0.343270693628109 
2300	 0.343323301261586 
2301	 0.343365752730378 
2302	 0.343366977521325 
2303	 0.343397376152833 
2304	 0.343418429619475 
2305	 0.343397823405121 
2306	 0.343369867370742 
2307	 0.343319057517069 
2308	 0.343278119381807 
2309	 0.343225939231178 
2310	 0.3431814801285 
2311	 0.343156683968608 
2312	 0.343086811708855 
2313	 0.342980346224256 
2314	 0.342899092432016 
2315	 0.342797213886619 
2316	 0.342723876718626 
2317	 0.342697825105628 
2318	 0.342618536699126 
2319	 0.342505834341568 
2320	 0.342423872501537 
2321	 0.342345762497772 
2322	 0.342254115874 
2323	 0.34220538656515 
2324	 0.342089759968905 
2325	 0.34187191115645 
2326	 0.341728170815097 
2327	 0.341586647873781 
2328	 0.34146405458798 
2329	 0.341396821322601 
2330	 0.341319629083021 
2331	 0.341260565654022 
2332	 0.341211641805588 
2333	 0.341147092237048 
2334	 0.341159010723209 
2335	 0.34110220747313 
2336	 0.341012054546552 
2337	 0.340943973676346 
2338	 0.340846726799979 
2339	 0.340797602166825 
2340	 0.34070575665381 
2341	 0.340598116889976 
2342	 0.340459988092666 
2343	 0.340233706856837 
2344	 0.340063005072835 
2345	 0.339913004832423 
2346	 0.339768094251705 
2347	 0.339654701782228 
2348	 0.339586313763308 
2349	 0.33950506634742 
2350	 0.339457116126657 
2351	 0.339368738076086 
2352	 0.339258587303476 
2353	 0.339164191778922 
2354	 0.339038892713616 
2355	 0.338962698885995 
2356	 0.338949588124713 
2357	 0.338877364308656 
2358	 0.338771138910269 
2359	 0.338704551703657 
2360	 0.338640130731361 
2361	 0.338573312043127 
2362	 0.338561940535761 
2363	 0.338493959852432 
2364	 0.338349769527156 
2365	 0.338250601935343 
2366	 0.338178690767014 
2367	 0.338085372155048 
2368	 0.338020600349047 
2369	 0.337880213985185 
2370	 0.337682303204326 
2371	 0.337480830870824 
2372	 0.337249935778004 
2373	 0.337077649833963 
2374	 0.336946558257652 
2375	 0.336798898682156 
2376	 0.336593234587108 
2377	 0.33640134237068 
2378	 0.336214084357199 
2379	 0.335952587202055 
2380	 0.335747707977831 
2381	 0.335595139504607 
2382	 0.335417122689219 
2383	 0.33520644258817 
2384	 0.334949248212442 
2385	 0.334648736950442 
2386	 0.33429083098928 
2387	 0.333954706174202 
2388	 0.333660278590879 
2389	 0.333366499494582 
2390	 0.333138174581369 
2391	 0.332913045634207 
2392	 0.33270772422165 
2393	 0.332504929202755 
2394	 0.332207188267252 
2395	 0.331907168016178 
2396	 0.331647039739544 
2397	 0.3314124231184 
2398	 0.331153744738387 
2399	 0.330939362068734 
2400	 0.330671166180039 
2401	 0.330287750553188 
2402	 0.329939418776605 
2403	 0.329618193305983 
2404	 0.329352196577401 
2405	 0.329007004150348 
2406	 0.328598125975492 
2407	 0.328244626200669 
2408	 0.327792124938252 
2409	 0.327376443269311 
2410	 0.327078763158482 
2411	 0.326701274828767 
2412	 0.326352087558948 
2413	 0.325992524700043 
2414	 0.325562631105744 
2415	 0.325234399590638 
2416	 0.32489634060754 
2417	 0.324577642200098 
2418	 0.32420567274637 
2419	 0.323825222077568 
2420	 0.323464500857191 
2421	 0.323068135164493 
2422	 0.322702656015745 
2423	 0.322399131271081 
2424	 0.321995502592461 
2425	 0.321520289682929 
2426	 0.321090124130571 
2427	 0.320680527953194 
2428	 0.320245871061749 
2429	 0.31978576878947 
2430	 0.31939361833088 
2431	 0.318976567473093 
2432	 0.318583718933164 
2433	 0.31830557486061 
2434	 0.31789294801887 
2435	 0.317401513756323 
2436	 0.317006701662791 
2437	 0.316597596244415 
2438	 0.316214745546316 
2439	 0.315883470321711 
2440	 0.315488911960704 
2441	 0.314982438075682 
2442	 0.314695503079418 
2443	 0.3146117797463 
2444	 0.314320301258655 
2445	 0.31406684448742 
2446	 0.313807054196357 
2447	 0.313333271322752 
2448	 0.313025759227932 
2449	 0.31291144024851 
2450	 0.312647386808156 
2451	 0.312291816004679 
2452	 0.312013030340337 
2453	 0.311787747573189 
2454	 0.311498196480002 
2455	 0.311204619100756 
2456	 0.310881097141729 
2457	 0.310410760681739 
2458	 0.31007632893286 
2459	 0.309837063296592 
2460	 0.309623911067821 
2461	 0.3095832899517 
2462	 0.309365064028041 
2463	 0.308994725925209 
2464	 0.308683854136026 
2465	 0.308253894657858 
2466	 0.307972339375851 
2467	 0.307937081200013 
2468	 0.307700700378744 
2469	 0.307352010863589 
2470	 0.307174082875183 
2471	 0.306930446822286 
2472	 0.306757648741993 
2473	 0.306562925246386 
2474	 0.306163600540141 
2475	 0.305822579199747 
2476	 0.305678045450165 
2477	 0.305639090184049 
2478	 0.305630620590295 
2479	 0.305403650551791 
2480	 0.305073470665345 
2481	 0.304614812037459 
2482	 0.304115769603991 
2483	 0.303998255471152 
2484	 0.30376034695337 
2485	 0.303328126615199 
2486	 0.303058954749709 
2487	 0.302678854457465 
2488	 0.302408686170839 
2489	 0.302386447463985 
2490	 0.302347234045095 
2491	 0.302185382800097 
2492	 0.301743104957884 
2493	 0.301221411700153 
2494	 0.300697628571994 
2495	 0.300163490108279 
2496	 0.299924648173428 
2497	 0.299805240423096 
2498	 0.299839722881417 
2499	 0.299934264107845 
2500	 0.29980289637357 
