Wavelength	mm1700007.asd
350	 7.86655879561239E-02 
351	 7.59426192087067E-02 
352	 7.47567121819137E-02 
353	 0.074341562254699 
354	 8.12512952712136E-02 
355	 8.81219925285409E-02 
356	 8.80493019781001E-02 
357	 8.01118267597733E-02 
358	 8.13917773756113E-02 
359	 8.60928078772616E-02 
360	 8.90777835206462E-02 
361	 8.69531979625598E-02 
362	 8.42166396801491E-02 
363	 0.085457900079715 
364	 9.00833440916506E-02 
365	 8.99311414936688E-02 
366	 0.090116051717261 
367	 9.03800048151148E-02 
368	 9.04824681923579E-02 
369	 9.65778157451874E-02 
370	 9.82772671050937E-02 
371	 9.50608839862202E-02 
372	 9.35354884591629E-02 
373	 9.56671555389231E-02 
374	 9.78901798202751E-02 
375	 9.85513216617572E-02 
376	 0.100716567522608 
377	 0.100665266577475 
378	 0.101407286260093 
379	 0.105824024358465 
380	 0.107963786851397 
381	 0.108046717607838 
382	 0.108202285815252 
383	 0.111232981598509 
384	 0.111696518011772 
385	 0.111036898514812 
386	 0.111640937327266 
387	 0.115894916173025 
388	 0.119558576314208 
389	 0.121469527292509 
390	 0.122015372364654 
391	 0.123428378730414 
392	 0.124554504640001 
393	 0.126717590656792 
394	 0.132764057557604 
395	 0.133457663612322 
396	 0.133717813966853 
397	 0.137473151969802 
398	 0.141997790989513 
399	 0.143429271932537 
400	 0.14353716248147 
401	 0.145780735080269 
402	 0.149752644008058 
403	 0.150930397172183 
404	 0.150168660105717 
405	 0.153600622610032 
406	 0.156895409690647 
407	 0.159047199645869 
408	 0.160099927113301 
409	 0.160777992367641 
410	 0.161785596146428 
411	 0.16370898994304 
412	 0.166589388175565 
413	 0.167697041828392 
414	 0.167859837618597 
415	 0.168077219145146 
416	 0.169107454517613 
417	 0.169511874491912 
418	 0.170002713084696 
419	 0.171279806057255 
420	 0.17234153670086 
421	 0.17217715055329 
422	 0.172005348773582 
423	 0.173927609372047 
424	 0.173044900465919 
425	 0.171717578060342 
426	 0.171710365372803 
427	 0.1721544951802 
428	 0.171822340340014 
429	 0.171209840488908 
430	 0.171146783566474 
431	 0.170874443536381 
432	 0.170514432268325 
433	 0.17034274264492 
434	 0.170704932055665 
435	 0.170990166920075 
436	 0.171368409477523 
437	 0.171987050054681 
438	 0.172470316978117 
439	 0.173329336337776 
440	 0.174546509010119 
441	 0.175804597214315 
442	 0.17675701315127 
443	 0.177875959385794 
444	 0.179286049193892 
445	 0.180458958748464 
446	 0.182049591636738 
447	 0.183444736372991 
448	 0.184138005402701 
449	 0.185622048507649 
450	 0.187179508087363 
451	 0.188588761093667 
452	 0.19009113843101 
453	 0.19127344041835 
454	 0.192322902668304 
455	 0.193418581247753 
456	 0.19445025937862 
457	 0.195421092672158 
458	 0.19638447482439 
459	 0.19739034496403 
460	 0.198317426503764 
461	 0.198945821892023 
462	 0.199408706797261 
463	 0.200332552362461 
464	 0.2010718463807 
465	 0.201783504713389 
466	 0.202651050797313 
467	 0.203010431543564 
468	 0.203587428662507 
469	 0.204424910455421 
470	 0.205010234791569 
471	 0.205609865713581 
472	 0.206067088839865 
473	 0.206355797401932 
474	 0.206896300223926 
475	 0.207530956063341 
476	 0.208082190243128 
477	 0.208455471262478 
478	 0.209296783529335 
479	 0.210001658434609 
480	 0.210306309852582 
481	 0.210554608117342 
482	 0.21097408136743 
483	 0.211590353202412 
484	 0.212289461669855 
485	 0.212748738228095 
486	 0.213185859304155 
487	 0.213625704006099 
488	 0.213942528726239 
489	 0.214457772353784 
490	 0.215039678935175 
491	 0.215539625210439 
492	 0.215978097688741 
493	 0.216296847765923 
494	 0.216658442151085 
495	 0.217245966257962 
496	 0.217519396881797 
497	 0.217895686954188 
498	 0.218527654539052 
499	 0.219053190139492 
500	 0.219522133039877 
501	 0.219958923965424 
502	 0.220376016780932 
503	 0.220708997821953 
504	 0.221084767928841 
505	 0.221530568584776 
506	 0.221972669676416 
507	 0.222223403038162 
508	 0.222594221532821 
509	 0.223223669733254 
510	 0.223529352254951 
511	 0.223830031745116 
512	 0.224198910299232 
513	 0.224581541789468 
514	 0.224982109407651 
515	 0.225455166995871 
516	 0.225964878878479 
517	 0.226310003780212 
518	 0.22668425911096 
519	 0.227001626600225 
520	 0.227176366400059 
521	 0.22758863294749 
522	 0.228116539625272 
523	 0.228580421527013 
524	 0.228782717517753 
525	 0.229070545404736 
526	 0.229437587414123 
527	 0.22979869014143 
528	 0.230106273930767 
529	 0.230323979265004 
530	 0.230604480591692 
531	 0.231173473277356 
532	 0.231574497898154 
533	 0.231862368793706 
534	 0.232151276934155 
535	 0.23251776350327 
536	 0.232863091364081 
537	 0.233234464698789 
538	 0.233688055501674 
539	 0.233926899972268 
540	 0.234236769636835 
541	 0.234698396393379 
542	 0.235064579929932 
543	 0.235375930167462 
544	 0.23571994375071 
545	 0.236154196641929 
546	 0.23655312033039 
547	 0.236916393500435 
548	 0.23728911101307 
549	 0.237744499892501 
550	 0.238200409688617 
551	 0.238555364542291 
552	 0.238811902756637 
553	 0.239244883288139 
554	 0.239659791019017 
555	 0.240085990738435 
556	 0.240650270082624 
557	 0.241260689230648 
558	 0.24178554856933 
559	 0.242230466952053 
560	 0.242850226914637 
561	 0.243410157162111 
562	 0.243909921644091 
563	 0.244426145067052 
564	 0.244994283129503 
565	 0.245498334339096 
566	 0.245906144664301 
567	 0.246289754685963 
568	 0.246759617078633 
569	 0.247365404692569 
570	 0.248119504512735 
571	 0.249016273958552 
572	 0.249859105710811 
573	 0.250568538509172 
574	 0.251168845866803 
575	 0.251788113490811 
576	 0.252526199927488 
577	 0.253384766196159 
578	 0.254184543341152 
579	 0.254927265334177 
580	 0.255599097567449 
581	 0.256202750573129 
582	 0.256819768683337 
583	 0.25745106004484 
584	 0.258131699903288 
585	 0.258961637783607 
586	 0.259857201381825 
587	 0.260778190514933 
588	 0.261702732610376 
589	 0.262646129191387 
590	 0.263543708031469 
591	 0.26442537522971 
592	 0.265398354424774 
593	 0.266221165821821 
594	 0.26687004264795 
595	 0.267395722665827 
596	 0.26789935184785 
597	 0.268422093313083 
598	 0.268994957350558 
599	 0.26963408095615 
600	 0.270296956885294 
601	 0.271004253431074 
602	 0.271745627297661 
603	 0.272445682435932 
604	 0.273131294762628 
605	 0.273840154128971 
606	 0.274606585090238 
607	 0.275423142025376 
608	 0.276165357785791 
609	 0.276834657020158 
610	 0.277579884560625 
611	 0.278201828577726 
612	 0.278716450760005 
613	 0.279181044651008 
614	 0.27959620440797 
615	 0.280032970706525 
616	 0.280485577587888 
617	 0.280896991925473 
618	 0.281337140049886 
619	 0.281752390642632 
620	 0.282124142999374 
621	 0.282550710701462 
622	 0.282943376649188 
623	 0.283280833690405 
624	 0.283582274639973 
625	 0.283931985088707 
626	 0.284289398269109 
627	 0.284631733694145 
628	 0.284973749685471 
629	 0.285280052479501 
630	 0.28557948878935 
631	 0.285907372768879 
632	 0.286247180569931 
633	 0.286594140425214 
634	 0.286933659474048 
635	 0.287244491381382 
636	 0.287519731604703 
637	 0.287803277398389 
638	 0.288106434533344 
639	 0.2883330051009 
640	 0.288597266669377 
641	 0.288918547650439 
642	 0.289259499190961 
643	 0.289536442234985 
644	 0.289779524796054 
645	 0.290042263499096 
646	 0.290397371302405 
647	 0.290631911957939 
648	 0.290867022132417 
649	 0.2912448491166 
650	 0.291560615060457 
651	 0.291813598863108 
652	 0.292055987451605 
653	 0.292373545555144 
654	 0.292668604777194 
655	 0.292954945231825 
656	 0.293257101842206 
657	 0.293568915971706 
658	 0.293932713330102 
659	 0.294281688340876 
660	 0.294525642056161 
661	 0.294824755023283 
662	 0.295190215313387 
663	 0.295555196399882 
664	 0.295758667198943 
665	 0.296100017281206 
666	 0.296482011713963 
667	 0.296762251745174 
668	 0.297122269097647 
669	 0.297494654396937 
670	 0.297854703033805 
671	 0.29821696436942 
672	 0.298565679326117 
673	 0.29891131825103 
674	 0.299261483199023 
675	 0.299602498098921 
676	 0.29997200701761 
677	 0.30034982797455 
678	 0.300703818029843 
679	 0.301112517904638 
680	 0.301518044593233 
681	 0.301897211369762 
682	 0.30228717909508 
683	 0.30263733720591 
684	 0.303033464660614 
685	 0.30352443306152 
686	 0.303904454846507 
687	 0.304272076325339 
688	 0.304669668777815 
689	 0.305090793338094 
690	 0.30549169559141 
691	 0.305871514891748 
692	 0.306247981671002 
693	 0.306666037600994 
694	 0.307043057719942 
695	 0.307447001501995 
696	 0.307946246866891 
697	 0.308288276784552 
698	 0.308658066343847 
699	 0.309107874324924 
700	 0.309525641032087 
701	 0.309970225830039 
702	 0.310431684574033 
703	 0.310866914957045 
704	 0.311164218105526 
705	 0.311530558640977 
706	 0.31195997029343 
707	 0.312341895317139 
708	 0.312732797269631 
709	 0.313149407048272 
710	 0.313572718223913 
711	 0.313941099510945 
712	 0.314219194228563 
713	 0.314527538641869 
714	 0.314966746215451 
715	 0.31540162344116 
716	 0.315731573957807 
717	 0.315999673592809 
718	 0.316348891188929 
719	 0.316771719555026 
720	 0.317139898309707 
721	 0.317399408053388 
722	 0.317667277271027 
723	 0.317984511630542 
724	 0.318283924619462 
725	 0.318502168847366 
726	 0.318820912073834 
727	 0.31909855927947 
728	 0.319301717194583 
729	 0.319511252962473 
730	 0.319735566054103 
731	 0.319947562287991 
732	 0.320135063636003 
733	 0.320346464474727 
734	 0.320509052887972 
735	 0.320623445145477 
736	 0.320731075605059 
737	 0.320908647860606 
738	 0.321077737855727 
739	 0.321202264526697 
740	 0.32130656791701 
741	 0.321412073232522 
742	 0.321491324948565 
743	 0.32152386208433 
744	 0.321532533244229 
745	 0.321562110164822 
746	 0.321597703093624 
747	 0.321603842967179 
748	 0.321641631639933 
749	 0.321612810019583 
750	 0.321540717356266 
751	 0.321604596106179 
752	 0.321566457303752 
753	 0.321414849424674 
754	 0.321238296310387 
755	 0.321254598064565 
756	 0.321233195096242 
757	 0.32111758090015 
758	 0.320959327959744 
759	 0.32085308763321 
760	 0.32079211068184 
761	 0.320717635373662 
762	 0.320525754349061 
763	 0.320403477979813 
764	 0.320254023176189 
765	 0.320009040307742 
766	 0.319886939988556 
767	 0.319771030777435 
768	 0.319606594326314 
769	 0.319385498159579 
770	 0.319183358550981 
771	 0.319021538958081 
772	 0.31886874202925 
773	 0.318642569081479 
774	 0.318447480123509 
775	 0.318254274191433 
776	 0.318019098513708 
777	 0.317727691827758 
778	 0.317539250652711 
779	 0.317410682789293 
780	 0.317213775643973 
781	 0.31695817178708 
782	 0.316728287282068 
783	 0.316534596625103 
784	 0.316305143328453 
785	 0.316064490904897 
786	 0.315840019964992 
787	 0.315637902620335 
788	 0.3154086037603 
789	 0.315214968823937 
790	 0.315007263472767 
791	 0.314728214262453 
792	 0.314514225202155 
793	 0.314281420357114 
794	 0.314034529322428 
795	 0.313850709474459 
796	 0.313572483566737 
797	 0.313327211786261 
798	 0.313184194832266 
799	 0.313028891621041 
800	 0.312848000274851 
801	 0.312632627528377 
802	 0.31239172097634 
803	 0.312170009609553 
804	 0.311980441748901 
805	 0.311797524225777 
806	 0.311582104601246 
807	 0.311401241174059 
808	 0.311205560284191 
809	 0.31098188966267 
810	 0.310778567763835 
811	 0.310561092542768 
812	 0.310353215839533 
813	 0.310184863742835 
814	 0.310072327390671 
815	 0.309971617821865 
816	 0.309804633241787 
817	 0.309532567040927 
818	 0.309369664083847 
819	 0.309285320461474 
820	 0.309187532853894 
821	 0.308963573918897 
822	 0.308745036993218 
823	 0.308518750968221 
824	 0.30832765019135 
825	 0.308340631665468 
826	 0.308263866076322 
827	 0.308096447182798 
828	 0.30791417036813 
829	 0.307747816932316 
830	 0.307552470420304 
831	 0.307378312414412 
832	 0.307301127935983 
833	 0.307267904232885 
834	 0.307140713234314 
835	 0.306945329505382 
836	 0.306854656923386 
837	 0.306786088174888 
838	 0.306719388800336 
839	 0.306631120760738 
840	 0.306479812978819 
841	 0.306291634042357 
842	 0.306151806548081 
843	 0.306105720723048 
844	 0.306031226879663 
845	 0.30596750659198 
846	 0.305891249511481 
847	 0.305780506196784 
848	 0.305783212991824 
849	 0.305738367076927 
850	 0.305649173579137 
851	 0.305649554476397 
852	 0.305513465126362 
853	 0.305393195163633 
854	 0.305366600366346 
855	 0.305326921868129 
856	 0.305365964466972 
857	 0.305409443878207 
858	 0.305392838808358 
859	 0.305375856666613 
860	 0.305341159792927 
861	 0.305272532744137 
862	 0.305174095324325 
863	 0.305124650304919 
864	 0.305137608839359 
865	 0.305177992095196 
866	 0.305190112727363 
867	 0.305203972109417 
868	 0.305186564118262 
869	 0.305153967732157 
870	 0.305169246931948 
871	 0.30516443570848 
872	 0.305220789075801 
873	 0.305339250763786 
874	 0.305360066227708 
875	 0.305433435629027 
876	 0.305462796823109 
877	 0.305389572310258 
878	 0.305403485409666 
879	 0.305496612883017 
880	 0.305576446064826 
881	 0.305576099817983 
882	 0.305677261705328 
883	 0.305815460244661 
884	 0.305902818913114 
885	 0.305890291173044 
886	 0.306012108618965 
887	 0.306123279264046 
888	 0.306188002951704 
889	 0.306281643750404 
890	 0.306356114386581 
891	 0.306477595555541 
892	 0.306628162247925 
893	 0.306683898148143 
894	 0.306862640370747 
895	 0.307049602212042 
896	 0.307155140880548 
897	 0.307253267049266 
898	 0.307456894052909 
899	 0.307605172052527 
900	 0.307611577627161 
901	 0.30778262032235 
902	 0.30798133969393 
903	 0.308126471205558 
904	 0.308204828222645 
905	 0.308387275332587 
906	 0.308560913008597 
907	 0.308768501607956 
908	 0.309083642959261 
909	 0.309339826504243 
910	 0.309589391835703 
911	 0.309760050278905 
912	 0.309756684301252 
913	 0.309908903428204 
914	 0.310169208610056 
915	 0.310461373073776 
916	 0.31071962961261 
917	 0.310920903954988 
918	 0.311143892316422 
919	 0.311383442155089 
920	 0.311541792083395 
921	 0.311873295057457 
922	 0.312137293757536 
923	 0.312258771962175 
924	 0.312515735596801 
925	 0.312761305345513 
926	 0.313034806398178 
927	 0.313340004573697 
928	 0.313552756417462 
929	 0.313897571954936 
930	 0.314292280661619 
931	 0.314619977125843 
932	 0.314880582635547 
933	 0.315136833339882 
934	 0.315429682139082 
935	 0.315781802385882 
936	 0.316210342532181 
937	 0.31647582136174 
938	 0.316662046760156 
939	 0.316926241925243 
940	 0.317233886231017 
941	 0.317646225239776 
942	 0.318101073355554 
943	 0.318504223575299 
944	 0.318853369055641 
945	 0.319158911304639 
946	 0.319468507466926 
947	 0.319811307907988 
948	 0.320066649614208 
949	 0.320345038529758 
950	 0.320712824132613 
951	 0.321183366983539 
952	 0.321706665577646 
953	 0.322009391282761 
954	 0.322310443731324 
955	 0.322957521900399 
956	 0.323399956397173 
957	 0.323718100366059 
958	 0.324017410335421 
959	 0.324376733404064 
960	 0.324730695334336 
961	 0.32515726425255 
962	 0.3256778317879 
963	 0.32622699875402 
964	 0.326523237493781 
965	 0.326979358306709 
966	 0.327501601770149 
967	 0.327737811809589 
968	 0.328149713835004 
969	 0.328638451284692 
970	 0.329083214151502 
971	 0.329438451487637 
972	 0.330015610524779 
973	 0.330625737899286 
974	 0.331146305195117 
975	 0.331552598176394 
976	 0.331903590121837 
977	 0.332335409328683 
978	 0.332864829795801 
979	 0.333419882889301 
980	 0.33397563451959 
981	 0.334436347562413 
982	 0.334866346093709 
983	 0.335359146141725 
984	 0.33557300082835 
985	 0.335999261252276 
986	 0.336605884822494 
987	 0.337096704881538 
988	 0.337675552272598 
989	 0.338020436826405 
990	 0.338387446590888 
991	 0.339121709630718 
992	 0.339525646783326 
993	 0.339888103537488 
994	 0.340396570662184 
995	 0.341028058813948 
996	 0.341221140299706 
997	 0.341727298814031 
998	 0.342260275918494 
999	 0.342434512833424 
1000	 0.343088072142327 
1001	 0.336621140554726 
1002	 0.337049249069138 
1003	 0.337408338647282 
1004	 0.337762515001974 
1005	 0.338068710431402 
1006	 0.338469434775989 
1007	 0.338902990191481 
1008	 0.339334911095833 
1009	 0.339776655585781 
1010	 0.340122184046294 
1011	 0.340418722659916 
1012	 0.340713454178175 
1013	 0.341099015032571 
1014	 0.341524326948169 
1015	 0.341860258276097 
1016	 0.342223144963089 
1017	 0.342590904909811 
1018	 0.342943292638928 
1019	 0.343240003480603 
1020	 0.343628072267497 
1021	 0.34398717351737 
1022	 0.344280243189032 
1023	 0.344630739947373 
1024	 0.344882327411283 
1025	 0.345135573957177 
1026	 0.345455874673609 
1027	 0.345703445338104 
1028	 0.346039732420009 
1029	 0.346449345711488 
1030	 0.346771194956117 
1031	 0.347062325544907 
1032	 0.347325616059594 
1033	 0.347585662437022 
1034	 0.347866483297241 
1035	 0.348204440031859 
1036	 0.348580766905273 
1037	 0.348970329447509 
1038	 0.349261522553198 
1039	 0.349490648242942 
1040	 0.349790101621191 
1041	 0.350050949711034 
1042	 0.350323058762373 
1043	 0.35066550791849 
1044	 0.350976178290266 
1045	 0.351267619042808 
1046	 0.351573065025767 
1047	 0.351910547004193 
1048	 0.352256152938781 
1049	 0.352589940962086 
1050	 0.352922461949407 
1051	 0.353265083500575 
1052	 0.353550043827366 
1053	 0.353853554951603 
1054	 0.354233337426683 
1055	 0.354536348848913 
1056	 0.354739051958296 
1057	 0.35501451742739 
1058	 0.3552823783992 
1059	 0.355564025070113 
1060	 0.355836663954695 
1061	 0.35625822470663 
1062	 0.356662136005938 
1063	 0.356920380621997 
1064	 0.357217969904977 
1065	 0.357495359024353 
1066	 0.357665475447842 
1067	 0.357918568972012 
1068	 0.358198321958717 
1069	 0.358409011790705 
1070	 0.358661381483075 
1071	 0.358958676848924 
1072	 0.359206859533304 
1073	 0.359436791098718 
1074	 0.359673822078743 
1075	 0.359900211794011 
1076	 0.360120939285259 
1077	 0.360306638717189 
1078	 0.360506844070993 
1079	 0.360710538556102 
1080	 0.36085279220531 
1081	 0.361009762464548 
1082	 0.361220205092464 
1083	 0.361407042766558 
1084	 0.36156864955621 
1085	 0.361760708997358 
1086	 0.361988208690542 
1087	 0.362172958203764 
1088	 0.362336429435668 
1089	 0.362524475120479 
1090	 0.362733680168835 
1091	 0.362903553910839 
1092	 0.363062303592267 
1093	 0.363252168273397 
1094	 0.363391880237709 
1095	 0.363522449264152 
1096	 0.363672938413933 
1097	 0.363814021957596 
1098	 0.363963510789256 
1099	 0.364119378939511 
1100	 0.364253673682895 
1101	 0.364377226996539 
1102	 0.364524591571169 
1103	 0.36468876338379 
1104	 0.364793846060519 
1105	 0.364936757653522 
1106	 0.365116690814571 
1107	 0.365241348549762 
1108	 0.365421017999117 
1109	 0.365648747396396 
1110	 0.3658097361479 
1111	 0.365977692527298 
1112	 0.366153587162904 
1113	 0.366309804066703 
1114	 0.366432031635648 
1115	 0.366585123145109 
1116	 0.366736772014798 
1117	 0.366904498665143 
1118	 0.367105531225301 
1119	 0.367266644827686 
1120	 0.367434836485965 
1121	 0.367616728103198 
1122	 0.367779514601688 
1123	 0.367964533950197 
1124	 0.368139707805273 
1125	 0.368325704026553 
1126	 0.368484322295643 
1127	 0.368611319725288 
1128	 0.368776176140501 
1129	 0.368943136226992 
1130	 0.369122804036747 
1131	 0.369364994634466 
1132	 0.369537673022915 
1133	 0.369647286820019 
1134	 0.369803395067396 
1135	 0.369961584239497 
1136	 0.370095949038082 
1137	 0.370274824740206 
1138	 0.370474751141715 
1139	 0.370646614469695 
1140	 0.370800923544438 
1141	 0.370959557986158 
1142	 0.371115414077079 
1143	 0.371270438296418 
1144	 0.371433945392954 
1145	 0.371567236584655 
1146	 0.371677734345772 
1147	 0.371802950896118 
1148	 0.371904611886872 
1149	 0.372024371448009 
1150	 0.372158972156285 
1151	 0.37231751307326 
1152	 0.372432212161019 
1153	 0.37254591232379 
1154	 0.37267037281781 
1155	 0.372787808875839 
1156	 0.372909211274067 
1157	 0.373042802552641 
1158	 0.373169570775034 
1159	 0.373297703925082 
1160	 0.37341457984446 
1161	 0.373522686025018 
1162	 0.373640357081414 
1163	 0.3737440904049 
1164	 0.373860590890699 
1165	 0.373988466647599 
1166	 0.374137200054027 
1167	 0.374242669340937 
1168	 0.374340489200429 
1169	 0.374454445074897 
1170	 0.374559187679738 
1171	 0.374669751368255 
1172	 0.374805771134912 
1173	 0.374915142839676 
1174	 0.374997321320771 
1175	 0.375097218213542 
1176	 0.375203594858729 
1177	 0.375305017022011 
1178	 0.375408267659803 
1179	 0.375512892360793 
1180	 0.375612173321478 
1181	 0.375714327433914 
1182	 0.375823415851757 
1183	 0.375929377106664 
1184	 0.376031236859647 
1185	 0.376128812640535 
1186	 0.376232639356912 
1187	 0.376341494942258 
1188	 0.376435809767824 
1189	 0.376520476291566 
1190	 0.376620080000878 
1191	 0.376720820535502 
1192	 0.37681489568591 
1193	 0.37691932596423 
1194	 0.377017295842145 
1195	 0.37709582098548 
1196	 0.377186187534542 
1197	 0.377296897877247 
1198	 0.377390191197161 
1199	 0.377477015594869 
1200	 0.377554296636676 
1201	 0.377643160453211 
1202	 0.377723622548624 
1203	 0.37781770817074 
1204	 0.377931662753501 
1205	 0.378026663456873 
1206	 0.378113549168655 
1207	 0.378206981056051 
1208	 0.378297524724347 
1209	 0.378388866514331 
1210	 0.378497154446128 
1211	 0.378581591527869 
1212	 0.378631761340211 
1213	 0.37871301727411 
1214	 0.378805931646708 
1215	 0.378890020117209 
1216	 0.378978315009652 
1217	 0.379101363969842 
1218	 0.379165509951318 
1219	 0.379182235360376 
1220	 0.379244640983673 
1221	 0.379298223245718 
1222	 0.379369025246975 
1223	 0.379484230788983 
1224	 0.379559685647084 
1225	 0.379609548338862 
1226	 0.379675595669675 
1227	 0.37973745135074 
1228	 0.379801130510104 
1229	 0.379877981118036 
1230	 0.379945578673078 
1231	 0.380000804383162 
1232	 0.3800621658722 
1233	 0.38012489173933 
1234	 0.380181516265803 
1235	 0.38026061690729 
1236	 0.380363774299708 
1237	 0.380433344824263 
1238	 0.380501620801289 
1239	 0.380565476100021 
1240	 0.380601415742513 
1241	 0.380656206145522 
1242	 0.38072848870744 
1243	 0.380789182772856 
1244	 0.380842527812307 
1245	 0.380900594020429 
1246	 0.380953274454016 
1247	 0.381016021613204 
1248	 0.381093142733578 
1249	 0.381157680343367 
1250	 0.381220444278147 
1251	 0.38130029848867 
1252	 0.381372181857635 
1253	 0.38144771869565 
1254	 0.38150427415738 
1255	 0.381561457473663 
1256	 0.381599246712338 
1257	 0.381612588561687 
1258	 0.381632053727413 
1259	 0.381629718512794 
1260	 0.381656269070397 
1261	 0.381688544400441 
1262	 0.381730600429522 
1263	 0.381808807411753 
1264	 0.381863389065936 
1265	 0.381905528982207 
1266	 0.381953940491949 
1267	 0.381996971912359 
1268	 0.38204198470192 
1269	 0.382083406089431 
1270	 0.382123538729829 
1271	 0.382179063015207 
1272	 0.38222832240847 
1273	 0.382296174828336 
1274	 0.382388697786796 
1275	 0.38247292423166 
1276	 0.382556226857911 
1277	 0.382654490979102 
1278	 0.382765075720909 
1279	 0.382869525359082 
1280	 0.382979041258322 
1281	 0.383088399503484 
1282	 0.383191872394158 
1283	 0.383305476515164 
1284	 0.383432716579478 
1285	 0.383555005387175 
1286	 0.38367240250426 
1287	 0.383786156764571 
1288	 0.383891871099209 
1289	 0.383995545777974 
1290	 0.384076062531237 
1291	 0.384136590548926 
1292	 0.384210535332813 
1293	 0.384274448913748 
1294	 0.384336968078132 
1295	 0.384413256355211 
1296	 0.384469447859113 
1297	 0.384524301264138 
1298	 0.384544007885291 
1299	 0.384524811943576 
1300	 0.384529796275465 
1301	 0.384520075242195 
1302	 0.384509700119955 
1303	 0.384515076049713 
1304	 0.384520143272611 
1305	 0.384505583239707 
1306	 0.38447755685281 
1307	 0.384431309968805 
1308	 0.384390961692473 
1309	 0.384341730220484 
1310	 0.384275204068881 
1311	 0.384203621746208 
1312	 0.384127746493044 
1313	 0.384060585180505 
1314	 0.383987286500623 
1315	 0.383910995892037 
1316	 0.383836652716207 
1317	 0.383768713125807 
1318	 0.383697412344736 
1319	 0.383626814753472 
1320	 0.383561959886411 
1321	 0.383506419172673 
1322	 0.383454498725574 
1323	 0.383391159159547 
1324	 0.383344871085306 
1325	 0.383317756103468 
1326	 0.38327438935003 
1327	 0.383215934401931 
1328	 0.383161345256898 
1329	 0.383125690415845 
1330	 0.383084750706105 
1331	 0.383056778568259 
1332	 0.382999139631531 
1333	 0.382928007868528 
1334	 0.382862622004566 
1335	 0.382767334597216 
1336	 0.382715687462002 
1337	 0.382695944792676 
1338	 0.382654572399405 
1339	 0.382623540582551 
1340	 0.382582701852065 
1341	 0.382527340304571 
1342	 0.382483740734952 
1343	 0.382443168599191 
1344	 0.382409654856909 
1345	 0.382369237149041 
1346	 0.382317180319318 
1347	 0.382267257555445 
1348	 0.382210798834284 
1349	 0.382151046682519 
1350	 0.38209362885573 
1351	 0.382048433872231 
1352	 0.38201983570666 
1353	 0.381958654049768 
1354	 0.381891803539318 
1355	 0.381822357624362 
1356	 0.381721059590869 
1357	 0.381651705375765 
1358	 0.381599159089098 
1359	 0.381551558809806 
1360	 0.381512617783118 
1361	 0.381467418714825 
1362	 0.381437024758635 
1363	 0.381394797451667 
1364	 0.381336525492765 
1365	 0.381291901799403 
1366	 0.381243710986283 
1367	 0.381206378549226 
1368	 0.381193837070087 
1369	 0.381181804620231 
1370	 0.381147245493266 
1371	 0.381099169330599 
1372	 0.381026136549702 
1373	 0.380947719702412 
1374	 0.380870717464973 
1375	 0.380810964180609 
1376	 0.380699275224078 
1377	 0.380569764289294 
1378	 0.38041435219018 
1379	 0.380211906366221 
1380	 0.380026837820193 
1381	 0.379833953783447 
1382	 0.379631811330492 
1383	 0.379434426148441 
1384	 0.3792154951586 
1385	 0.379006238217374 
1386	 0.378744530266534 
1387	 0.378462179264912 
1388	 0.378134212385154 
1389	 0.377767621787785 
1390	 0.377355215449429 
1391	 0.376905173269095 
1392	 0.37642226306718 
1393	 0.375866999943654 
1394	 0.375265723038646 
1395	 0.374620198725026 
1396	 0.373951418335876 
1397	 0.373315385350876 
1398	 0.372676255351025 
1399	 0.372046326124729 
1400	 0.371431193778343 
1401	 0.370824344070538 
1402	 0.370195354209097 
1403	 0.369627697912257 
1404	 0.369075415321535 
1405	 0.368586139741461 
1406	 0.368152864167035 
1407	 0.367739554437634 
1408	 0.367341132741868 
1409	 0.367024387693522 
1410	 0.366698778257473 
1411	 0.366522485045368 
1412	 0.366442032460819 
1413	 0.366468008385221 
1414	 0.366614800914137 
1415	 0.366845316493941 
1416	 0.367165388501309 
1417	 0.367548951923222 
1418	 0.367961873645909 
1419	 0.368397663607931 
1420	 0.368818838632138 
1421	 0.36919943391585 
1422	 0.369542218678595 
1423	 0.369833683608902 
1424	 0.370059135937938 
1425	 0.370210476172985 
1426	 0.370358693948264 
1427	 0.370440959779345 
1428	 0.370544295613842 
1429	 0.370646932989995 
1430	 0.370725721344696 
1431	 0.37079068115498 
1432	 0.370841300785929 
1433	 0.370874210471827 
1434	 0.370896693617251 
1435	 0.370885346044871 
1436	 0.370906049020185 
1437	 0.370935820432331 
1438	 0.370954509424521 
1439	 0.370990543349987 
1440	 0.371019880899689 
1441	 0.3709995995805 
1442	 0.370972307676474 
1443	 0.370947360866439 
1444	 0.370909570008364 
1445	 0.370891273286482 
1446	 0.370891863863526 
1447	 0.370882406336385 
1448	 0.370867769304758 
1449	 0.370827457543379 
1450	 0.370774317587106 
1451	 0.370739205527394 
1452	 0.370698846295063 
1453	 0.370670583730666 
1454	 0.370669232631283 
1455	 0.370636337102262 
1456	 0.370591842352822 
1457	 0.370548262815761 
1458	 0.370483135205869 
1459	 0.370442053355429 
1460	 0.370409218551509 
1461	 0.370380655456414 
1462	 0.370367647196209 
1463	 0.37034451547261 
1464	 0.370332666896998 
1465	 0.370300417173886 
1466	 0.370234126386653 
1467	 0.370202489324913 
1468	 0.370146875956335 
1469	 0.370148792480628 
1470	 0.370197624351632 
1471	 0.370269720895263 
1472	 0.370355086795662 
1473	 0.370437998444667 
1474	 0.370487731475403 
1475	 0.370542699968972 
1476	 0.3705913363973 
1477	 0.370638391419878 
1478	 0.370704746239731 
1479	 0.370779392600105 
1480	 0.37087186204771 
1481	 0.370968210591035 
1482	 0.371061052381437 
1483	 0.37116273841496 
1484	 0.371241792347712 
1485	 0.371304213935342 
1486	 0.371393597121128 
1487	 0.371477545756605 
1488	 0.371575139017115 
1489	 0.371707239801036 
1490	 0.371799903472875 
1491	 0.371886760754354 
1492	 0.37195275368605 
1493	 0.371992081195845 
1494	 0.372040920194517 
1495	 0.372069843189258 
1496	 0.372110715098641 
1497	 0.372166794119163 
1498	 0.372206844386062 
1499	 0.372239315716428 
1500	 0.372277159296034 
1501	 0.372296472766396 
1502	 0.372337537370469 
1503	 0.37239377438484 
1504	 0.372448904415304 
1505	 0.372524627406632 
1506	 0.372606610746454 
1507	 0.372672616112778 
1508	 0.372752374831863 
1509	 0.372804056278048 
1510	 0.37283683272821 
1511	 0.372861470683427 
1512	 0.372858927534155 
1513	 0.372866493604574 
1514	 0.372900234589991 
1515	 0.372937378384644 
1516	 0.372978955304766 
1517	 0.37302345918339 
1518	 0.373076994644387 
1519	 0.373114184226901 
1520	 0.37314820863398 
1521	 0.373187668485887 
1522	 0.373214407776924 
1523	 0.373251214009178 
1524	 0.373306235043985 
1525	 0.373341279488336 
1526	 0.373368847031086 
1527	 0.373399406586941 
1528	 0.373418484684897 
1529	 0.373445564145175 
1530	 0.373484241847419 
1531	 0.373508122010592 
1532	 0.373523045764383 
1533	 0.373541133084496 
1534	 0.373554558724021 
1535	 0.373568157958388 
1536	 0.373583032082038 
1537	 0.373603353219965 
1538	 0.373629428525803 
1539	 0.37363654524621 
1540	 0.3736369422206 
1541	 0.373643222092679 
1542	 0.373619516853103 
1543	 0.373630482658842 
1544	 0.373690001188625 
1545	 0.373711456607885 
1546	 0.373716657525138 
1547	 0.373744729403148 
1548	 0.373761493040056 
1549	 0.373734364292308 
1550	 0.373717544249203 
1551	 0.373730398307898 
1552	 0.373740114435001 
1553	 0.373761710842006 
1554	 0.373802457094943 
1555	 0.373809943710606 
1556	 0.373779134634357 
1557	 0.373759673096865 
1558	 0.373770683903135 
1559	 0.373786904480033 
1560	 0.37380523245986 
1561	 0.373863012751892 
1562	 0.373864623132835 
1563	 0.373824696799137 
1564	 0.373824714370475 
1565	 0.37381955412728 
1566	 0.373822580610519 
1567	 0.373855515029434 
1568	 0.373861638161823 
1569	 0.373842989913028 
1570	 0.373849596191523 
1571	 0.373873960593644 
1572	 0.373873579116697 
1573	 0.373871186141105 
1574	 0.373864289254915 
1575	 0.373829246030731 
1576	 0.373821933602148 
1577	 0.373837703095444 
1578	 0.373836900238609 
1579	 0.37383925603199 
1580	 0.373831962055676 
1581	 0.373800243673464 
1582	 0.373798211764843 
1583	 0.373809084124397 
1584	 0.373820423697655 
1585	 0.373851037188712 
1586	 0.373871253543514 
1587	 0.373900712476776 
1588	 0.373900716433955 
1589	 0.373879457574625 
1590	 0.373866108942415 
1591	 0.373823777259638 
1592	 0.373806491756864 
1593	 0.373809206429951 
1594	 0.373811503896909 
1595	 0.373815922429532 
1596	 0.373830913347553 
1597	 0.373861580124123 
1598	 0.373883470536388 
1599	 0.373941524840231 
1600	 0.373943262292146 
1601	 0.37388978435118 
1602	 0.373861291683653 
1603	 0.373781230065759 
1604	 0.373752820127711 
1605	 0.373783681297206 
1606	 0.373798480441242 
1607	 0.37381993806268 
1608	 0.373857772990655 
1609	 0.373898484167523 
1610	 0.373931406351872 
1611	 0.373941997023291 
1612	 0.373919442094257 
1613	 0.373841111974255 
1614	 0.373767215082446 
1615	 0.373748952939475 
1616	 0.373732685396803 
1617	 0.373723517846995 
1618	 0.373711142032273 
1619	 0.373671823214447 
1620	 0.373644745834241 
1621	 0.373616167653142 
1622	 0.373605301195468 
1623	 0.373562461259876 
1624	 0.373496815671462 
1625	 0.373451788365694 
1626	 0.373397869740703 
1627	 0.373363868004268 
1628	 0.373345577540235 
1629	 0.373331618560516 
1630	 0.373317264700929 
1631	 0.373329393816069 
1632	 0.373365963163899 
1633	 0.373389702925926 
1634	 0.373444450649484 
1635	 0.37343540045442 
1636	 0.373390893125429 
1637	 0.373358779227976 
1638	 0.373279782973484 
1639	 0.373265158329613 
1640	 0.373284203998678 
1641	 0.373299239934176 
1642	 0.373349182096892 
1643	 0.373362088256877 
1644	 0.373358179976999 
1645	 0.37336678598797 
1646	 0.373374351872351 
1647	 0.373365692383762 
1648	 0.373364131885829 
1649	 0.373341479224336 
1650	 0.373276392429327 
1651	 0.373254834028721 
1652	 0.373253428714268 
1653	 0.373234224040657 
1654	 0.373225301581841 
1655	 0.373208340745416 
1656	 0.373175066717407 
1657	 0.37314932605401 
1658	 0.373133335925496 
1659	 0.37310787244594 
1660	 0.373082928667927 
1661	 0.373037280142653 
1662	 0.372970167706072 
1663	 0.372925852238877 
1664	 0.372867101312577 
1665	 0.372833532720323 
1666	 0.372837343486 
1667	 0.37281514509621 
1668	 0.372788542350771 
1669	 0.372759879178647 
1670	 0.372721716278951 
1671	 0.372690135885436 
1672	 0.372656368004197 
1673	 0.372631550213778 
1674	 0.372608978095033 
1675	 0.372595633309238 
1676	 0.37259505499231 
1677	 0.372590174677946 
1678	 0.372586793442201 
1679	 0.372588252482392 
1680	 0.372597967898927 
1681	 0.372593999830026 
1682	 0.372584634200438 
1683	 0.372583481210556 
1684	 0.372572571592636 
1685	 0.372573573939792 
1686	 0.372612439052623 
1687	 0.372594723351286 
1688	 0.372539741160335 
1689	 0.372507899250582 
1690	 0.372445793706585 
1691	 0.372413162471826 
1692	 0.372421539041262 
1693	 0.372398838708632 
1694	 0.372351775679716 
1695	 0.37233953119072 
1696	 0.37232276581846 
1697	 0.372338163840525 
1698	 0.372418535058305 
1699	 0.37243111710005 
1700	 0.372439653639079 
1701	 0.372416558578969 
1702	 0.372327322526522 
1703	 0.372279048685268 
1704	 0.37224293679432 
1705	 0.372190866317933 
1706	 0.372136283508435 
1707	 0.372091095993433 
1708	 0.372031589008506 
1709	 0.371991749344956 
1710	 0.371979565661133 
1711	 0.371950758938084 
1712	 0.371917470884841 
1713	 0.371886311919532 
1714	 0.37184732817206 
1715	 0.371819775175744 
1716	 0.371803345976784 
1717	 0.371777441500471 
1718	 0.371761364272465 
1719	 0.371724405998114 
1720	 0.371664710197036 
1721	 0.371628329923387 
1722	 0.371587003172086 
1723	 0.371560586745616 
1724	 0.37156639758174 
1725	 0.371528112948423 
1726	 0.371473268911536 
1727	 0.37142528208248 
1728	 0.371360333716096 
1729	 0.371297760130329 
1730	 0.371242616094447 
1731	 0.371177326145744 
1732	 0.371099088806727 
1733	 0.371024581906777 
1734	 0.370952262627725 
1735	 0.370870059067109 
1736	 0.370778819835579 
1737	 0.370696838111703 
1738	 0.370608481330925 
1739	 0.370537662511391 
1740	 0.370476949455078 
1741	 0.370416797086372 
1742	 0.370371418300885 
1743	 0.370325744634931 
1744	 0.370281682933485 
1745	 0.370218968851787 
1746	 0.370156347088481 
1747	 0.370048915095558 
1748	 0.369970264089716 
1749	 0.369896328151994 
1750	 0.369825583848609 
1751	 0.369786937506339 
1752	 0.369734917741895 
1753	 0.369665956010978 
1754	 0.369581642877649 
1755	 0.369477066851517 
1756	 0.369379058104464 
1757	 0.369262767011022 
1758	 0.369153778352803 
1759	 0.36907916514651 
1760	 0.369025206569873 
1761	 0.369017677419468 
1762	 0.369011022932856 
1763	 0.36896042385571 
1764	 0.368887868513057 
1765	 0.368804979906608 
1766	 0.368705706194498 
1767	 0.368606724791538 
1768	 0.368512802263443 
1769	 0.368435106277107 
1770	 0.368387559890556 
1771	 0.36832818408022 
1772	 0.368291424327517 
1773	 0.368245676695657 
1774	 0.368176869314719 
1775	 0.368168577646315 
1776	 0.368132627722591 
1777	 0.368074950641964 
1778	 0.368023975544311 
1779	 0.367914291436334 
1780	 0.367807373771952 
1781	 0.367683274966218 
1782	 0.367564791774889 
1783	 0.367514138043163 
1784	 0.367484485464457 
1785	 0.367533132747929 
1786	 0.36752762661799 
1787	 0.367511431405736 
1788	 0.367489236275373 
1789	 0.367437015438465 
1790	 0.36740109463901 
1791	 0.367375832370399 
1792	 0.367338714979681 
1793	 0.367277795892883 
1794	 0.367264419321236 
1795	 0.367275899760062 
1796	 0.367262406973687 
1797	 0.367277181076106 
1798	 0.367269747678602 
1799	 0.36724254976978 
1800	 0.36720398640378 
1801	 0.367069992771257 
1802	 0.367268810472298 
1803	 0.367499526324748 
1804	 0.367782744630825 
1805	 0.36806164962121 
1806	 0.368325264381932 
1807	 0.36859789452307 
1808	 0.368791095518508 
1809	 0.368918774546713 
1810	 0.369035845404385 
1811	 0.369115824118368 
1812	 0.369171749231124 
1813	 0.369208663170363 
1814	 0.369244765176167 
1815	 0.36923132417769 
1816	 0.369199570762784 
1817	 0.369181673128129 
1818	 0.369145227737867 
1819	 0.369133358469188 
1820	 0.369139075263199 
1821	 0.369133113631666 
1822	 0.369154714048183 
1823	 0.369145666497974 
1824	 0.369126029882274 
1825	 0.369126183841272 
1826	 0.369114896018308 
1827	 0.369105387035675 
1828	 0.369077879351173 
1829	 0.369074304200068 
1830	 0.369009706837657 
1831	 0.368899405548245 
1832	 0.368787994896158 
1833	 0.368652348766641 
1834	 0.368484710774986 
1835	 0.368412830461761 
1836	 0.368344512704401 
1837	 0.368275215055979 
1838	 0.368255346316918 
1839	 0.368239170369655 
1840	 0.368232146734754 
1841	 0.368216783809483 
1842	 0.368199691733622 
1843	 0.368190010485187 
1844	 0.368128489178861 
1845	 0.368045900838128 
1846	 0.367994173256721 
1847	 0.367932179160605 
1848	 0.367867912282281 
1849	 0.367816914596334 
1850	 0.367790509830586 
1851	 0.367775209011453 
1852	 0.367788346505354 
1853	 0.367823934977364 
1854	 0.367847439836661 
1855	 0.367862872330567 
1856	 0.367861551956592 
1857	 0.367836117887819 
1858	 0.367815898488009 
1859	 0.367785264908616 
1860	 0.367717675993714 
1861	 0.367612682934258 
1862	 0.367506917666492 
1863	 0.367418978622316 
1864	 0.367272689607017 
1865	 0.367154456205628 
1866	 0.367047252652438 
1867	 0.366870053396059 
1868	 0.366697813897277 
1869	 0.366498228692317 
1870	 0.366271774688655 
1871	 0.366056882732129 
1872	 0.365841520418356 
1873	 0.365627190819145 
1874	 0.365395993100631 
1875	 0.365129457037371 
1876	 0.364842734980162 
1877	 0.364522043868904 
1878	 0.364143663497177 
1879	 0.363734429562138 
1880	 0.363267027273141 
1881	 0.362747421017331 
1882	 0.362160815329453 
1883	 0.36153655483364 
1884	 0.360813472954424 
1885	 0.360026630037948 
1886	 0.359155442829552 
1887	 0.358218356901771 
1888	 0.357242944908719 
1889	 0.356193863011 
1890	 0.355097239563829 
1891	 0.353991826517818 
1892	 0.352828204264199 
1893	 0.351675072080045 
1894	 0.350509259506736 
1895	 0.349342656469455 
1896	 0.348157096943567 
1897	 0.347005254941007 
1898	 0.345867081808602 
1899	 0.344764736907846 
1900	 0.343716116551932 
1901	 0.342720413835596 
1902	 0.34178915196737 
1903	 0.340945072823355 
1904	 0.340118632973285 
1905	 0.339332736878912 
1906	 0.338598891660673 
1907	 0.337926982905668 
1908	 0.337276676945402 
1909	 0.336670435266254 
1910	 0.336101430176697 
1911	 0.33553419037313 
1912	 0.335004238623075 
1913	 0.334504446457609 
1914	 0.334034219494057 
1915	 0.333599419655268 
1916	 0.333198114237544 
1917	 0.332824775507265 
1918	 0.332487634355006 
1919	 0.332159942663583 
1920	 0.33186579504929 
1921	 0.331583075843914 
1922	 0.331319622761331 
1923	 0.331105120758097 
1924	 0.330905827838867 
1925	 0.330720516562126 
1926	 0.330578116857709 
1927	 0.33047422085327 
1928	 0.330384491897595 
1929	 0.33031922246501 
1930	 0.330300071392529 
1931	 0.33025966873387 
1932	 0.330205235404232 
1933	 0.330189386530186 
1934	 0.330137102547834 
1935	 0.3301199103383 
1936	 0.330113686066326 
1937	 0.330145404625741 
1938	 0.330207680045499 
1939	 0.330280754136203 
1940	 0.330386488187332 
1941	 0.330491386362155 
1942	 0.330602887068391 
1943	 0.330713729033677 
1944	 0.3308416119175 
1945	 0.330972435890251 
1946	 0.331110918444688 
1947	 0.331251101200402 
1948	 0.331408166565253 
1949	 0.331581345859307 
1950	 0.33175412302831 
1951	 0.331937983807943 
1952	 0.332118994319457 
1953	 0.332300694474857 
1954	 0.332510405867158 
1955	 0.332740796465232 
1956	 0.332999992531513 
1957	 0.33325391853682 
1958	 0.333526092445975 
1959	 0.333788843106899 
1960	 0.334043624998975 
1961	 0.334306964827192 
1962	 0.33459984738685 
1963	 0.334860503123029 
1964	 0.335090618512111 
1965	 0.335352333986213 
1966	 0.335611192814933 
1967	 0.335858761526959 
1968	 0.336131221515143 
1969	 0.336432394125101 
1970	 0.336730910818467 
1971	 0.337044021464671 
1972	 0.337336648117486 
1973	 0.337650350769451 
1974	 0.337927170992181 
1975	 0.338167055332539 
1976	 0.338405862122736 
1977	 0.33865550905397 
1978	 0.338921253426875 
1979	 0.339198733567435 
1980	 0.339484123445812 
1981	 0.339758781835285 
1982	 0.340017538662061 
1983	 0.340294432597491 
1984	 0.340586475276803 
1985	 0.340862756851206 
1986	 0.341146727813839 
1987	 0.341421341246703 
1988	 0.341673107021742 
1989	 0.341938052979814 
1990	 0.342214739813395 
1991	 0.342474368249068 
1992	 0.342744820247163 
1993	 0.343018088195681 
1994	 0.343293347661634 
1995	 0.343567176543871 
1996	 0.343852215957751 
1997	 0.344143285528219 
1998	 0.344440196415735 
1999	 0.344758318111269 
2000	 0.345060045775654 
2001	 0.345363672692076 
2002	 0.345649479433442 
2003	 0.345948870186197 
2004	 0.346239013786858 
2005	 0.346523919547886 
2006	 0.346821767549294 
2007	 0.347089462475606 
2008	 0.347324340565307 
2009	 0.347581931656156 
2010	 0.347839033305008 
2011	 0.348088100508384 
2012	 0.348349228706885 
2013	 0.348591656940965 
2014	 0.348797350778076 
2015	 0.349034046564008 
2016	 0.349281525742449 
2017	 0.349517083526202 
2018	 0.34975880511376 
2019	 0.350007760805742 
2020	 0.350261526977717 
2021	 0.350518586598901 
2022	 0.350770651762158 
2023	 0.351023028081347 
2024	 0.351284529239885 
2025	 0.351553135571678 
2026	 0.35180959729392 
2027	 0.352078898879397 
2028	 0.35233299029366 
2029	 0.352574824303854 
2030	 0.352792032853309 
2031	 0.353017708646195 
2032	 0.353239460269656 
2033	 0.353463995198125 
2034	 0.353689251717658 
2035	 0.353910759663686 
2036	 0.35413649481114 
2037	 0.354351535366432 
2038	 0.354581227931805 
2039	 0.354762265781614 
2040	 0.354908534746288 
2041	 0.355053792338293 
2042	 0.355156685938539 
2043	 0.355287552664171 
2044	 0.355449705851942 
2045	 0.35565449460986 
2046	 0.355830370546198 
2047	 0.356031816487675 
2048	 0.356198436445632 
2049	 0.356349214516606 
2050	 0.356482191462265 
2051	 0.356587681389915 
2052	 0.356700622521463 
2053	 0.356787393979753 
2054	 0.356892119892811 
2055	 0.357003711650262 
2056	 0.357129689569462 
2057	 0.357247688200419 
2058	 0.357371243400902 
2059	 0.357491115230641 
2060	 0.357609498007127 
2061	 0.357723074081435 
2062	 0.357841667144278 
2063	 0.35794772587466 
2064	 0.358034942709056 
2065	 0.35813589387181 
2066	 0.35825266991245 
2067	 0.35834239447069 
2068	 0.358410858843613 
2069	 0.358501912310217 
2070	 0.35857897687585 
2071	 0.358630575400381 
2072	 0.358706305578065 
2073	 0.358794651647929 
2074	 0.358884096850707 
2075	 0.358977088240012 
2076	 0.359071733147302 
2077	 0.359173233285736 
2078	 0.359276180336258 
2079	 0.359373629524014 
2080	 0.359482445361811 
2081	 0.359614246820085 
2082	 0.359727008457905 
2083	 0.359831840939951 
2084	 0.359937495481202 
2085	 0.360055093376154 
2086	 0.360170481513621 
2087	 0.36028856101002 
2088	 0.360437305677584 
2089	 0.360539821128103 
2090	 0.360618465834183 
2091	 0.360687636303842 
2092	 0.360723898543506 
2093	 0.360779496822581 
2094	 0.360821203719216 
2095	 0.360885320916125 
2096	 0.360967739642986 
2097	 0.361048549982462 
2098	 0.361135168301435 
2099	 0.361236480602341 
2100	 0.361324252538445 
2101	 0.36140394592352 
2102	 0.361497465791384 
2103	 0.361587585011867 
2104	 0.361696528320463 
2105	 0.361834929663414 
2106	 0.361944531007756 
2107	 0.362035044252467 
2108	 0.362154086411465 
2109	 0.362266428449375 
2110	 0.362396869042258 
2111	 0.362570111760215 
2112	 0.362724505637052 
2113	 0.362880020414158 
2114	 0.363024985927647 
2115	 0.363161045182344 
2116	 0.363279623904404 
2117	 0.363429787625797 
2118	 0.363585961159808 
2119	 0.363737031673758 
2120	 0.363929323537359 
2121	 0.364060867492242 
2122	 0.364142525205082 
2123	 0.364250908718225 
2124	 0.364361013638506 
2125	 0.364444189762335 
2126	 0.364527187476297 
2127	 0.364595984636898 
2128	 0.364616123184006 
2129	 0.364659043919408 
2130	 0.364728408223084 
2131	 0.364783310955543 
2132	 0.364796577540803 
2133	 0.364795713325991 
2134	 0.364776335468865 
2135	 0.364708415316891 
2136	 0.364658458387735 
2137	 0.364634961207222 
2138	 0.364544034093031 
2139	 0.364413272499858 
2140	 0.364281465967032 
2141	 0.364108776135599 
2142	 0.363935910475606 
2143	 0.363770756997365 
2144	 0.363578181628926 
2145	 0.363357747825141 
2146	 0.363129687234025 
2147	 0.362884994808998 
2148	 0.362630895302721 
2149	 0.362372716355726 
2150	 0.362098932605664 
2151	 0.361833967481577 
2152	 0.361567773689582 
2153	 0.361300895685469 
2154	 0.36105033786266 
2155	 0.360760553225178 
2156	 0.360483025409929 
2157	 0.360138241923916 
2158	 0.359746183234607 
2159	 0.359332545111806 
2160	 0.35886827154024 
2161	 0.358390967008896 
2162	 0.357858923150732 
2163	 0.357358974352678 
2164	 0.356834037961058 
2165	 0.356345895311199 
2166	 0.355875784726084 
2167	 0.355445244934888 
2168	 0.354993030562342 
2169	 0.354577233221717 
2170	 0.354084546651708 
2171	 0.353557867969934 
2172	 0.353026428238305 
2173	 0.35243240222155 
2174	 0.351877567172592 
2175	 0.351370773031998 
2176	 0.350793984375762 
2177	 0.350221138646981 
2178	 0.349577406989909 
2179	 0.348848593335569 
2180	 0.348124475422875 
2181	 0.347334593103911 
2182	 0.346575333030273 
2183	 0.345810640662634 
2184	 0.345064271540132 
2185	 0.344326973391073 
2186	 0.343610575372283 
2187	 0.342874984661962 
2188	 0.342121165875592 
2189	 0.341413721587605 
2190	 0.340683559951668 
2191	 0.340045184578744 
2192	 0.339462768140012 
2193	 0.338923929845244 
2194	 0.338442298491019 
2195	 0.337997233765511 
2196	 0.337610016098829 
2197	 0.337239916976377 
2198	 0.3368888632267 
2199	 0.336601910826108 
2200	 0.33635943776578 
2201	 0.336154600697896 
2202	 0.336014915882405 
2203	 0.335898211253457 
2204	 0.335832288431411 
2205	 0.335781844240689 
2206	 0.335829996388225 
2207	 0.335940236725446 
2208	 0.336128525547338 
2209	 0.3364007583849 
2210	 0.33672322981039 
2211	 0.337155687340981 
2212	 0.337552649145338 
2213	 0.337994237123929 
2214	 0.338429615079367 
2215	 0.338887802866402 
2216	 0.339309259168011 
2217	 0.339741424257658 
2218	 0.340136386877181 
2219	 0.340473160797347 
2220	 0.340826555260461 
2221	 0.3411760656765 
2222	 0.341535751084674 
2223	 0.341853754475175 
2224	 0.342112859995495 
2225	 0.342330400301523 
2226	 0.342485772236833 
2227	 0.342617749907821 
2228	 0.342709480795947 
2229	 0.342786167809967 
2230	 0.342803663728704 
2231	 0.342854489505266 
2232	 0.342896689466098 
2233	 0.342946967561612 
2234	 0.343033388268273 
2235	 0.343062726195273 
2236	 0.343075630948173 
2237	 0.343061650097773 
2238	 0.342980897084903 
2239	 0.34292980303578 
2240	 0.342887749900148 
2241	 0.342831464706466 
2242	 0.34279051001831 
2243	 0.342717094853501 
2244	 0.342633571138492 
2245	 0.34250426119095 
2246	 0.342352994161621 
2247	 0.342205955004852 
2248	 0.342040387650143 
2249	 0.341845967388077 
2250	 0.341683873120216 
2251	 0.341523590247985 
2252	 0.341362735766322 
2253	 0.34120416751746 
2254	 0.341064314788646 
2255	 0.3409220609398 
2256	 0.340805552379366 
2257	 0.340709168193344 
2258	 0.340644616488265 
2259	 0.340605972562526 
2260	 0.340567226749033 
2261	 0.340570675517632 
2262	 0.340551050976466 
2263	 0.340521123357382 
2264	 0.340492018980038 
2265	 0.340428179492705 
2266	 0.340425118847308 
2267	 0.340446304914992 
2268	 0.340484608460349 
2269	 0.340564235053489 
2270	 0.340676589543864 
2271	 0.340744631833985 
2272	 0.3408649301088 
2273	 0.341017925417898 
2274	 0.341123931179266 
2275	 0.341221916176807 
2276	 0.341324788242799 
2277	 0.341397288610656 
2278	 0.341401268811732 
2279	 0.341492102312711 
2280	 0.341597220024709 
2281	 0.341733679035372 
2282	 0.341955825961966 
2283	 0.342113051029624 
2284	 0.342268281085122 
2285	 0.342396791607475 
2286	 0.342494663519061 
2287	 0.342574433165531 
2288	 0.342607040171269 
2289	 0.342689024044651 
2290	 0.342782695121042 
2291	 0.342868819358404 
2292	 0.342999567198865 
2293	 0.343088737642252 
2294	 0.343144837117507 
2295	 0.343185794382827 
2296	 0.343193236295178 
2297	 0.343219328557112 
2298	 0.343251140825174 
2299	 0.343288387519864 
2300	 0.343345260392648 
2301	 0.343375282399373 
2302	 0.34333640921844 
2303	 0.343293144835869 
2304	 0.343277970703452 
2305	 0.343280244685008 
2306	 0.34328300898773 
2307	 0.34333464810224 
2308	 0.343328294071028 
2309	 0.343289371818078 
2310	 0.343241815768657 
2311	 0.343174830360791 
2312	 0.343117283209767 
2313	 0.343061776477724 
2314	 0.342981678141623 
2315	 0.342870854767979 
2316	 0.342785630647617 
2317	 0.342700684642501 
2318	 0.342600449625889 
2319	 0.342515962706677 
2320	 0.342425109704374 
2321	 0.34229489682615 
2322	 0.34219532550196 
2323	 0.342134834279082 
2324	 0.342046713489009 
2325	 0.341962475409215 
2326	 0.341845369736388 
2327	 0.341675208393531 
2328	 0.341553993772568 
2329	 0.34142589072556 
2330	 0.341358330723694 
2331	 0.341361122798347 
2332	 0.341324821649002 
2333	 0.34126026060528 
2334	 0.341194252174261 
2335	 0.341156419443469 
2336	 0.34111220891596 
2337	 0.341054004869535 
2338	 0.340980425819306 
2339	 0.340839998704581 
2340	 0.340648546570381 
2341	 0.340481603722565 
2342	 0.34037035591895 
2343	 0.340267825579222 
2344	 0.340187842536655 
2345	 0.340097813819623 
2346	 0.340029585306316 
2347	 0.339914470301964 
2348	 0.339760474368367 
2349	 0.339657366574637 
2350	 0.33957052735527 
2351	 0.339451774949072 
2352	 0.33932854232564 
2353	 0.339224706332481 
2354	 0.339094672657989 
2355	 0.338978875573863 
2356	 0.33894301477992 
2357	 0.338833972298187 
2358	 0.338610504337904 
2359	 0.338525321469744 
2360	 0.338501698419066 
2361	 0.338446993121028 
2362	 0.338492645155547 
2363	 0.338457450466195 
2364	 0.33831756132585 
2365	 0.33822661550622 
2366	 0.338187337944832 
2367	 0.338072369200859 
2368	 0.33792142358203 
2369	 0.337778102486854 
2370	 0.337597463521424 
2371	 0.33739063140839 
2372	 0.337214269590971 
2373	 0.337045552771436 
2374	 0.336856991406979 
2375	 0.336693767077021 
2376	 0.336531288219213 
2377	 0.336372056718548 
2378	 0.336195026396568 
2379	 0.335936353157008 
2380	 0.335629818656546 
2381	 0.335345186284567 
2382	 0.335142992904277 
2383	 0.334930109328545 
2384	 0.334724260463252 
2385	 0.334552290082163 
2386	 0.334241020829404 
2387	 0.333932010414863 
2388	 0.333683437169938 
2389	 0.333385160152564 
2390	 0.333158173569394 
2391	 0.332910292784248 
2392	 0.332612129344255 
2393	 0.332340536753124 
2394	 0.332047559846144 
2395	 0.331763575204089 
2396	 0.331528451667409 
2397	 0.331401640894296 
2398	 0.3311778644465 
2399	 0.330906928296713 
2400	 0.330684298232487 
2401	 0.330272011803001 
2402	 0.329874491801625 
2403	 0.329613198703042 
2404	 0.329263785754749 
2405	 0.328922628405219 
2406	 0.328728648226927 
2407	 0.328446543029792 
2408	 0.328072430717228 
2409	 0.327737165865526 
2410	 0.327359118789636 
2411	 0.326965521323846 
2412	 0.326568422958352 
2413	 0.326131147679513 
2414	 0.325731271802857 
2415	 0.325316178819691 
2416	 0.324922610745504 
2417	 0.324617312883961 
2418	 0.324281444853499 
2419	 0.323924743496233 
2420	 0.323550989922782 
2421	 0.323197147361231 
2422	 0.322784283381979 
2423	 0.322286255863617 
2424	 0.321835763218731 
2425	 0.321421025648801 
2426	 0.320937381776458 
2427	 0.320403422988512 
2428	 0.319953463141571 
2429	 0.31947138991768 
2430	 0.319028580100391 
2431	 0.318683703624747 
2432	 0.318303799966058 
2433	 0.317911003862176 
2434	 0.317543547451624 
2435	 0.317215161279537 
2436	 0.316849792259912 
2437	 0.316466140606802 
2438	 0.316108407143444 
2439	 0.315691669367397 
2440	 0.315354706629957 
2441	 0.315073630578343 
2442	 0.314780223852481 
2443	 0.314627965128883 
2444	 0.314342212653141 
2445	 0.313945563291958 
2446	 0.313619865829949 
2447	 0.31325021172829 
2448	 0.312833651755168 
2449	 0.312400597143251 
2450	 0.312076841142427 
2451	 0.311772421746999 
2452	 0.311515087010253 
2453	 0.311403270280604 
2454	 0.311253182571538 
2455	 0.311046443544643 
2456	 0.310751570139326 
2457	 0.310442647448295 
2458	 0.310163882448704 
2459	 0.309774229813078 
2460	 0.30955125584276 
2461	 0.309600920112902 
2462	 0.309335528752635 
2463	 0.308910235945114 
2464	 0.308544437011649 
2465	 0.307989355709934 
2466	 0.307627502598708 
2467	 0.307452923577656 
2468	 0.30724388753224 
2469	 0.307017973745685 
2470	 0.306905280224014 
2471	 0.306735836585547 
2472	 0.306609247386686 
2473	 0.306527316547461 
2474	 0.306169831809733 
2475	 0.305781490619867 
2476	 0.305419413226103 
2477	 0.3050658644771 
2478	 0.304860234496605 
2479	 0.304761153039877 
2480	 0.304583155927213 
2481	 0.304317911558324 
2482	 0.304142716548067 
2483	 0.303773760844113 
2484	 0.303321586533004 
2485	 0.303023716286173 
2486	 0.302667238725252 
2487	 0.302536289350845 
2488	 0.302508198652993 
2489	 0.30226548080582 
2490	 0.302141212099142 
2491	 0.301790178721383 
2492	 0.301157266301613 
2493	 0.300885725295836 
2494	 0.300611692589154 
2495	 0.300291007192862 
2496	 0.300322760838155 
2497	 0.300198305633529 
2498	 0.299790727407849 
2499	 0.299406295611087 
2500	 0.298959337376793 
