Wavelength	mm1700001.asd
350	 8.32904691112863E-02 
351	 9.30251514579843E-02 
352	 9.54539127444218E-02 
353	 8.55763385030544E-02 
354	 8.54641517988932E-02 
355	 8.48479999502962E-02 
356	 8.52643871687715E-02 
357	 0.088373366091242 
358	 8.53315510907121E-02 
359	 0.08359166754561 
360	 8.48691966200557E-02 
361	 8.67026694794585E-02 
362	 8.70963826942079E-02 
363	 8.95337601729455E-02 
364	 9.36285535951831E-02 
365	 9.20483715313497E-02 
366	 9.02624277270852E-02 
367	 9.16194050721014E-02 
368	 9.63430909536857E-02 
369	 9.61227514910958E-02 
370	 9.32066351622172E-02 
371	 9.23344179566383E-02 
372	 9.83106778634265E-02 
373	 9.98558741001992E-02 
374	 9.96857665797735E-02 
375	 9.99035880451877E-02 
376	 0.097943184971692 
377	 9.90579519359619E-02 
378	 0.102015189917937 
379	 0.104182374062914 
380	 0.106511801028933 
381	 0.108569492184741 
382	 0.110076751097436 
383	 0.110965789623047 
384	 0.111296891498104 
385	 0.112761776368504 
386	 0.115322326810109 
387	 0.11509326151129 
388	 0.117403487927846 
389	 0.120513988554054 
390	 0.121408811099253 
391	 0.122215669789378 
392	 0.125573490970367 
393	 0.129931573215412 
394	 0.130722027121209 
395	 0.134415754218676 
396	 0.138036407850377 
397	 0.139265121028553 
398	 0.140317879137308 
399	 0.14258901078606 
400	 0.145579508402996 
401	 0.148015708892685 
402	 0.149196477871597 
403	 0.150448790115727 
404	 0.152347548436001 
405	 0.154587122258779 
406	 0.156555325961354 
407	 0.15906285003065 
408	 0.162022188380536 
409	 0.162175834270509 
410	 0.162565327146683 
411	 0.164115917687603 
412	 0.166402808269403 
413	 0.167518171661351 
414	 0.167847720887701 
415	 0.168219937491716 
416	 0.169726454346948 
417	 0.170196947750434 
418	 0.170555450046201 
419	 0.171692377342394 
420	 0.171671692967439 
421	 0.171720851773194 
422	 0.172296346864384 
423	 0.173178046612937 
424	 0.172892552822543 
425	 0.172633255908952 
426	 0.172886524140419 
427	 0.172231872193921 
428	 0.171494364350834 
429	 0.171033136851456 
430	 0.170923712146505 
431	 0.170623409625757 
432	 0.170141817404753 
433	 0.169859347922589 
434	 0.170416330411413 
435	 0.170704703137757 
436	 0.171093006816333 
437	 0.171885925631126 
438	 0.172393978138814 
439	 0.173258421924885 
440	 0.174426264344531 
441	 0.175533403717931 
442	 0.176794508426691 
443	 0.178101146142394 
444	 0.179395407423658 
445	 0.180738634571698 
446	 0.182026695717501 
447	 0.18332873761151 
448	 0.184670049985744 
449	 0.185609731632246 
450	 0.187014039445454 
451	 0.188784452073434 
452	 0.190025726598227 
453	 0.191179614149744 
454	 0.192271120917879 
455	 0.193298359974044 
456	 0.194345636896634 
457	 0.195439974045422 
458	 0.196429428026939 
459	 0.197156251201607 
460	 0.198094278053987 
461	 0.198989464221399 
462	 0.199741659631421 
463	 0.200559072927112 
464	 0.201223795082619 
465	 0.20178642864244 
466	 0.202387564019743 
467	 0.203233547571986 
468	 0.203868442013803 
469	 0.204265238932472 
470	 0.20475138219092 
471	 0.205297258329651 
472	 0.205890251141627 
473	 0.206490496368318 
474	 0.207004838599645 
475	 0.207449873516112 
476	 0.207882366813072 
477	 0.20837336130554 
478	 0.208928053744136 
479	 0.20948862264938 
480	 0.209983394668132 
481	 0.210325020982484 
482	 0.21087351154412 
483	 0.211474221916578 
484	 0.211924752056095 
485	 0.212470090343152 
486	 0.213019439858144 
487	 0.213470207168283 
488	 0.213745490910672 
489	 0.214231680042805 
490	 0.214861811907 
491	 0.215446043935456 
492	 0.215680461968595 
493	 0.216019929244492 
494	 0.216512830987864 
495	 0.217005869471404 
496	 0.217445559065278 
497	 0.217742583747534 
498	 0.218023490107034 
499	 0.218741284375781 
500	 0.21935450540466 
501	 0.2197585007881 
502	 0.220042069503521 
503	 0.220507252829161 
504	 0.220908677875659 
505	 0.221230840247131 
506	 0.2216743869861 
507	 0.222086800394007 
508	 0.222536115144702 
509	 0.223016093780533 
510	 0.223182383380898 
511	 0.223482084155313 
512	 0.223919121041529 
513	 0.224274357342134 
514	 0.224649481148268 
515	 0.225057209482429 
516	 0.225487536623643 
517	 0.225917130206372 
518	 0.226240272878191 
519	 0.226518543587548 
520	 0.226869967671239 
521	 0.227397465020611 
522	 0.227747042263579 
523	 0.227939103257327 
524	 0.228397397866968 
525	 0.228746450333819 
526	 0.229027497539274 
527	 0.229340056998063 
528	 0.229665376693097 
529	 0.229974646419921 
530	 0.230322483422465 
531	 0.230793069165012 
532	 0.231136206043402 
533	 0.231407797293652 
534	 0.231709893715214 
535	 0.232160469093456 
536	 0.232528597065529 
537	 0.232873045987388 
538	 0.233324001715888 
539	 0.233653028864676 
540	 0.233930257327286 
541	 0.234246035804027 
542	 0.234685117133272 
543	 0.235081911096984 
544	 0.235470429181003 
545	 0.235893159101161 
546	 0.236183118570273 
547	 0.236513448202778 
548	 0.236943797772116 
549	 0.237422866756599 
550	 0.237842281780108 
551	 0.238161506325649 
552	 0.238441157516527 
553	 0.238978557047622 
554	 0.239388554208469 
555	 0.239736390368364 
556	 0.240296392882211 
557	 0.240917267508202 
558	 0.241470631655925 
559	 0.241955981309195 
560	 0.242601393293496 
561	 0.243094641393817 
562	 0.243518602803079 
563	 0.244067422343185 
564	 0.244745519622034 
565	 0.245284961993907 
566	 0.245645276737773 
567	 0.246054921280215 
568	 0.24654024436723 
569	 0.247146137393727 
570	 0.247900825335049 
571	 0.248829524275817 
572	 0.249673901369133 
573	 0.25033803553906 
574	 0.250872546608112 
575	 0.251521833148923 
576	 0.252326434416554 
577	 0.253222423016273 
578	 0.254010001417419 
579	 0.254767777802286 
580	 0.255461872860868 
581	 0.256042791620719 
582	 0.256636480428338 
583	 0.257269845880894 
584	 0.257975099979024 
585	 0.258811236019814 
586	 0.259740528664404 
587	 0.260682400778193 
588	 0.261578787986787 
589	 0.26253419835059 
590	 0.263478028101493 
591	 0.264391951471509 
592	 0.265307103167189 
593	 0.266080694442952 
594	 0.266704752661696 
595	 0.267231936726195 
596	 0.267783939187956 
597	 0.268334047628983 
598	 0.268906564615528 
599	 0.269544783927253 
600	 0.270192614742102 
601	 0.270935201420393 
602	 0.271763022083233 
603	 0.272475663854643 
604	 0.273147064985931 
605	 0.273814207985293 
606	 0.274515662912619 
607	 0.275341587433962 
608	 0.276124802600909 
609	 0.276811841166592 
610	 0.277496221428738 
611	 0.27810531979013 
612	 0.278651391949562 
613	 0.279145164997649 
614	 0.279515450572291 
615	 0.279903399278318 
616	 0.280353911386747 
617	 0.28082952297577 
618	 0.281229850477253 
619	 0.281598664807282 
620	 0.281985928861543 
621	 0.282408780163811 
622	 0.282785377855765 
623	 0.283138735078922 
624	 0.283519236556415 
625	 0.283838331811909 
626	 0.284123742441714 
627	 0.284418971360104 
628	 0.284774443444745 
629	 0.285129471057185 
630	 0.285474539972652 
631	 0.285807966689926 
632	 0.286090803375592 
633	 0.286407941954777 
634	 0.286741263392534 
635	 0.286997469018594 
636	 0.287325730909815 
637	 0.287647901287087 
638	 0.287903992240474 
639	 0.288171006780192 
640	 0.288476627155333 
641	 0.288792723761251 
642	 0.289069886070065 
643	 0.289344712936362 
644	 0.289633215846981 
645	 0.289930182017091 
646	 0.290204234745908 
647	 0.29038955152602 
648	 0.290638884495029 
649	 0.291067140450314 
650	 0.291360413072484 
651	 0.291588223849892 
652	 0.291830146334004 
653	 0.292155803061724 
654	 0.292445493676874 
655	 0.292729602323843 
656	 0.293044006375375 
657	 0.293363770995934 
658	 0.293721934022296 
659	 0.294043693398374 
660	 0.294244769234817 
661	 0.294582452679952 
662	 0.294953781326032 
663	 0.29525576174401 
664	 0.295429773490927 
665	 0.29582738073104 
666	 0.296284413265242 
667	 0.296578134743825 
668	 0.296922639164858 
669	 0.297286366491281 
670	 0.297646534304177 
671	 0.297989259300868 
672	 0.29825188942423 
673	 0.298575516792922 
674	 0.299024605672177 
675	 0.299408044468478 
676	 0.299763278794995 
677	 0.300097933915398 
678	 0.30042315889842 
679	 0.30081276136425 
680	 0.301233450625621 
681	 0.301637197016743 
682	 0.301970187393795 
683	 0.302391263030049 
684	 0.30282290925849 
685	 0.303184990044321 
686	 0.303635978260034 
687	 0.304042899418561 
688	 0.304394131845818 
689	 0.304769624429063 
690	 0.305222106033433 
691	 0.305629301531601 
692	 0.305959808699529 
693	 0.306422451480844 
694	 0.306833198549248 
695	 0.307237980663354 
696	 0.307717001913998 
697	 0.30805376772417 
698	 0.30843790205479 
699	 0.308889243599951 
700	 0.309232850294364 
701	 0.309662049091337 
702	 0.31014762856505 
703	 0.310606553597539 
704	 0.310942334403823 
705	 0.31124831767092 
706	 0.311611513371432 
707	 0.312086023463433 
708	 0.312509412623947 
709	 0.312920439407182 
710	 0.313332022276131 
711	 0.313690012201961 
712	 0.313973550073747 
713	 0.314280924106985 
714	 0.314692519810824 
715	 0.315095340194839 
716	 0.315448821661504 
717	 0.315770744369328 
718	 0.316122025980354 
719	 0.316543738041314 
720	 0.316879922573775 
721	 0.317082450877148 
722	 0.317357920848235 
723	 0.317694809404631 
724	 0.318004319767844 
725	 0.318213318115279 
726	 0.31849608637649 
727	 0.31878565406178 
728	 0.319045907000462 
729	 0.319281753120575 
730	 0.319512846534065 
731	 0.319697080456959 
732	 0.319837102457998 
733	 0.320076395508328 
734	 0.320260777829446 
735	 0.320383306524631 
736	 0.320500502362391 
737	 0.320641938597711 
738	 0.32080831728688 
739	 0.320962960008592 
740	 0.3210362665857 
741	 0.321096303362277 
742	 0.321157290180797 
743	 0.321218711390181 
744	 0.321272873056156 
745	 0.321334517954465 
746	 0.321374200675647 
747	 0.321357424160797 
748	 0.321375680482109 
749	 0.321339105176607 
750	 0.321262312334021 
751	 0.321299445951328 
752	 0.321287999726072 
753	 0.321174345171749 
754	 0.320996936108143 
755	 0.320980422894262 
756	 0.320954007850969 
757	 0.320846042264328 
758	 0.320660817879979 
759	 0.320525376633865 
760	 0.320473466023373 
761	 0.320440318836066 
762	 0.320259017665255 
763	 0.32015144139264 
764	 0.320002823953341 
765	 0.319739703292481 
766	 0.319653098558452 
767	 0.319519538162629 
768	 0.319312881369125 
769	 0.31910935163621 
770	 0.31892959366049 
771	 0.318754480318148 
772	 0.318561864928824 
773	 0.318333944800097 
774	 0.318134360087329 
775	 0.317932483831841 
776	 0.317691688650172 
777	 0.317406099002866 
778	 0.317218524727473 
779	 0.317104049897241 
780	 0.316950805652312 
781	 0.316667550242762 
782	 0.31642676924533 
783	 0.316255423129396 
784	 0.316010154982071 
785	 0.315768882976308 
786	 0.315534002726597 
787	 0.315302405448704 
788	 0.315091062066242 
789	 0.31489099583941 
790	 0.314678839185425 
791	 0.314437677618642 
792	 0.314213198890077 
793	 0.313969492571271 
794	 0.313727287232149 
795	 0.313546894473573 
796	 0.313288185278592 
797	 0.31305204200631 
798	 0.312893488125269 
799	 0.312716708836959 
800	 0.312521309883671 
801	 0.312310427368405 
802	 0.312091086152325 
803	 0.311863919898001 
804	 0.311654664116455 
805	 0.311441446354147 
806	 0.311188566500894 
807	 0.311012757481076 
808	 0.310843551171089 
809	 0.310639866747557 
810	 0.310426801463453 
811	 0.310216540219568 
812	 0.310022880921528 
813	 0.309861032570641 
814	 0.309755679446981 
815	 0.309676353269981 
816	 0.309528024433727 
817	 0.309242300767842 
818	 0.309008359847665 
819	 0.308890403050783 
820	 0.308807661938359 
821	 0.308585161611923 
822	 0.308398445371638 
823	 0.308203194502724 
824	 0.30800405179874 
825	 0.307936283758408 
826	 0.307860408382959 
827	 0.30775555503919 
828	 0.307628440320203 
829	 0.307463809698929 
830	 0.307243448946565 
831	 0.307046529767521 
832	 0.306970586399263 
833	 0.30693390150152 
834	 0.306808093518325 
835	 0.306604816101609 
836	 0.306469159544731 
837	 0.306447126492186 
838	 0.306422361960584 
839	 0.306309978771224 
840	 0.306128994997931 
841	 0.305966530365695 
842	 0.305844046151179 
843	 0.305753496899113 
844	 0.305667311548955 
845	 0.305633503597764 
846	 0.305579241682658 
847	 0.305431306183081 
848	 0.305449033605503 
849	 0.305429602732092 
850	 0.305335462456717 
851	 0.305283677582732 
852	 0.305178620339601 
853	 0.30508967304926 
854	 0.305059856197897 
855	 0.305060752651505 
856	 0.305059869549979 
857	 0.305070956409218 
858	 0.305089570510961 
859	 0.305031045456718 
860	 0.3049777195225 
861	 0.304913644959285 
862	 0.304815346185571 
863	 0.304774019122593 
864	 0.304810985649838 
865	 0.304863761992914 
866	 0.304843856231785 
867	 0.304871143602724 
868	 0.304848198852021 
869	 0.304793456323568 
870	 0.304845004765863 
871	 0.304851823232521 
872	 0.30491512886074 
873	 0.305060771277409 
874	 0.305133765513233 
875	 0.305168580442891 
876	 0.305157869871145 
877	 0.305116333645093 
878	 0.305126837813613 
879	 0.305186105852282 
880	 0.305243365689604 
881	 0.305267393815711 
882	 0.305384864315794 
883	 0.305529299047753 
884	 0.305621970268436 
885	 0.305621550948569 
886	 0.305715502403201 
887	 0.305841197755714 
888	 0.305924015131402 
889	 0.305920465706234 
890	 0.305999979988247 
891	 0.306136813553292 
892	 0.30628784701184 
893	 0.306425148013511 
894	 0.306545196940824 
895	 0.306648404666303 
896	 0.306757101263222 
897	 0.306926535229639 
898	 0.307115592333067 
899	 0.307254970165332 
900	 0.307338707333404 
901	 0.307543343388267 
902	 0.30774214121737 
903	 0.307887302159413 
904	 0.307983818086344 
905	 0.308116996125021 
906	 0.308267669322628 
907	 0.308475979014842 
908	 0.308782338888461 
909	 0.309113016964082 
910	 0.309312442163274 
911	 0.30939681287225 
912	 0.309494975650015 
913	 0.309589610894058 
914	 0.309850841174955 
915	 0.310191870988751 
916	 0.310336170097407 
917	 0.310556435366937 
918	 0.310809526658331 
919	 0.311031353599705 
920	 0.311196939062952 
921	 0.311540151092286 
922	 0.311830177502292 
923	 0.312002633969997 
924	 0.312337398677835 
925	 0.312553753459873 
926	 0.312801160914803 
927	 0.313140829516463 
928	 0.313312209715825 
929	 0.313634395650504 
930	 0.31399867926262 
931	 0.314277121202676 
932	 0.314561642612846 
933	 0.314836353875086 
934	 0.315140067093764 
935	 0.315499444229636 
936	 0.315877809936909 
937	 0.316176973579269 
938	 0.316402710840019 
939	 0.316628067165381 
940	 0.316992080932334 
941	 0.317387873270528 
942	 0.317792149177355 
943	 0.318204099351427 
944	 0.318575229125362 
945	 0.318882724565962 
946	 0.319170724920737 
947	 0.319494957370226 
948	 0.319812540888999 
949	 0.32015262404625 
950	 0.320531606573746 
951	 0.320949686505684 
952	 0.321384295242862 
953	 0.321742839985599 
954	 0.322119754141682 
955	 0.32265632245722 
956	 0.3231631594842 
957	 0.323509724869935 
958	 0.323753114674821 
959	 0.324053491136427 
960	 0.324413110836433 
961	 0.324883521833763 
962	 0.325423265420369 
963	 0.325931954440553 
964	 0.326366117629642 
965	 0.326819538462104 
966	 0.327218256210513 
967	 0.327451660767189 
968	 0.327899979330464 
969	 0.328451120020817 
970	 0.328933983522483 
971	 0.329248613166537 
972	 0.329771067161325 
973	 0.330319831649955 
974	 0.330813455802664 
975	 0.331281733728211 
976	 0.331805256387182 
977	 0.332227234180519 
978	 0.332631939136823 
979	 0.333205252160693 
980	 0.333719211847253 
981	 0.334194452631824 
982	 0.334659424283185 
983	 0.335113338874007 
984	 0.335410465865639 
985	 0.335760931528719 
986	 0.336317602072192 
987	 0.337069871104844 
988	 0.33756191549096 
989	 0.337945961866275 
990	 0.338311463053264 
991	 0.338726923651124 
992	 0.33939627565012 
993	 0.339834470010576 
994	 0.340193619306109 
995	 0.340786873279258 
996	 0.341252320535927 
997	 0.341679788186893 
998	 0.342067713240451 
999	 0.342457387554985 
1000	 0.343163967444381 
1001	 0.336413169267056 
1002	 0.336818431117794 
1003	 0.33723942189796 
1004	 0.337641032709092 
1005	 0.338039605021189 
1006	 0.338446520684746 
1007	 0.338875754650415 
1008	 0.339238158217234 
1009	 0.339565716530327 
1010	 0.339916501661007 
1011	 0.340216496550513 
1012	 0.340503912450673 
1013	 0.340935432987051 
1014	 0.341333049624129 
1015	 0.341680077047552 
1016	 0.342056659245115 
1017	 0.342399060851569 
1018	 0.342661885454014 
1019	 0.342968461051221 
1020	 0.343322701236999 
1021	 0.343619551982212 
1022	 0.343938632707793 
1023	 0.344261392993796 
1024	 0.344561314387118 
1025	 0.344899959727673 
1026	 0.345225454827254 
1027	 0.345513606080904 
1028	 0.34584052037479 
1029	 0.346159234800291 
1030	 0.346460199534885 
1031	 0.346777890353705 
1032	 0.347105351302685 
1033	 0.347408423107701 
1034	 0.34768248898819 
1035	 0.347920724176143 
1036	 0.34810883614083 
1037	 0.348394326224857 
1038	 0.348778503009123 
1039	 0.349133042693953 
1040	 0.349548650626655 
1041	 0.349902983312842 
1042	 0.350156339245012 
1043	 0.350456566852556 
1044	 0.350759648105446 
1045	 0.351072022704621 
1046	 0.35134963874239 
1047	 0.351642300879013 
1048	 0.351959113618127 
1049	 0.352245070361603 
1050	 0.352579467683736 
1051	 0.352933314986403 
1052	 0.35324275952266 
1053	 0.353580561460743 
1054	 0.353901930187688 
1055	 0.354208776146928 
1056	 0.354513742333167 
1057	 0.354823796940899 
1058	 0.355154918234653 
1059	 0.355445578089298 
1060	 0.35570002701253 
1061	 0.355998829731743 
1062	 0.356282549195053 
1063	 0.356539667927844 
1064	 0.356824936245702 
1065	 0.357075189552107 
1066	 0.357331600308912 
1067	 0.357608590170496 
1068	 0.357842763709416 
1069	 0.358100090733793 
1070	 0.358385662317338 
1071	 0.358692773673672 
1072	 0.358957001831008 
1073	 0.359255253684384 
1074	 0.359502236003514 
1075	 0.359686260024993 
1076	 0.359885571124959 
1077	 0.360094533884616 
1078	 0.360299285805277 
1079	 0.360497914398429 
1080	 0.360646917246327 
1081	 0.360771870291741 
1082	 0.360954569490625 
1083	 0.3611240300585 
1084	 0.36126886437434 
1085	 0.36145752596826 
1086	 0.361699066266921 
1087	 0.361891559931483 
1088	 0.362083105206863 
1089	 0.362283174711004 
1090	 0.362411056098615 
1091	 0.36249538229771 
1092	 0.362640471413226 
1093	 0.362829649867412 
1094	 0.363019946810652 
1095	 0.363204173018873 
1096	 0.363347241288959 
1097	 0.363457164003854 
1098	 0.363593288202438 
1099	 0.363761590987942 
1100	 0.363888943155815 
1101	 0.363967197252712 
1102	 0.364108224881684 
1103	 0.364283122004628 
1104	 0.364405741456359 
1105	 0.364549191883596 
1106	 0.364734503342996 
1107	 0.36487378087776 
1108	 0.365049255815277 
1109	 0.365264574163685 
1110	 0.365476689070991 
1111	 0.365656653206488 
1112	 0.365809817642097 
1113	 0.365973241486327 
1114	 0.366112422816851 
1115	 0.366273150764561 
1116	 0.366452584343742 
1117	 0.366623670903487 
1118	 0.366788960180286 
1119	 0.36697649886422 
1120	 0.367133351408748 
1121	 0.367311368787287 
1122	 0.367493651314973 
1123	 0.367655575912926 
1124	 0.367830991705721 
1125	 0.368024800187369 
1126	 0.368183265279103 
1127	 0.368319317591858 
1128	 0.368477382985627 
1129	 0.368623480696488 
1130	 0.368785819531921 
1131	 0.368980989018487 
1132	 0.369145767561732 
1133	 0.369298898509632 
1134	 0.369449543472983 
1135	 0.369581727807898 
1136	 0.36972729516981 
1137	 0.369866931976568 
1138	 0.370000875195435 
1139	 0.370159523159308 
1140	 0.370331568499214 
1141	 0.370498339040651 
1142	 0.370694951478219 
1143	 0.370853940733772 
1144	 0.370988843627301 
1145	 0.371124958817122 
1146	 0.371240073467307 
1147	 0.371369928950646 
1148	 0.371507981294328 
1149	 0.371641236465733 
1150	 0.371778315816102 
1151	 0.371913993764198 
1152	 0.37203514881109 
1153	 0.372163579799965 
1154	 0.372278497146188 
1155	 0.372378496423868 
1156	 0.372496367007457 
1157	 0.372611460823402 
1158	 0.37273654806804 
1159	 0.372882204740607 
1160	 0.373010383741401 
1161	 0.373143036731713 
1162	 0.373256462897579 
1163	 0.37335064972104 
1164	 0.373454841935276 
1165	 0.373546015349127 
1166	 0.3736413883328 
1167	 0.373780223723022 
1168	 0.373917046622274 
1169	 0.3740300766903 
1170	 0.374145489804184 
1171	 0.374255384812696 
1172	 0.374338189453197 
1173	 0.374437625878585 
1174	 0.374552901128874 
1175	 0.374658225126236 
1176	 0.374749837620298 
1177	 0.374852533850512 
1178	 0.374965599125635 
1179	 0.375074141963794 
1180	 0.375195525894223 
1181	 0.375298213606166 
1182	 0.375394899687437 
1183	 0.375474687034178 
1184	 0.3755594567209 
1185	 0.3756219252022 
1186	 0.375721004280997 
1187	 0.375841536648632 
1188	 0.375944857228751 
1189	 0.376064666550852 
1190	 0.376163629993796 
1191	 0.376239303766237 
1192	 0.37632949238811 
1193	 0.376422421875406 
1194	 0.376511696549629 
1195	 0.376596009698576 
1196	 0.376689483495746 
1197	 0.37678851770382 
1198	 0.376884797698048 
1199	 0.376982666152078 
1200	 0.377094425058545 
1201	 0.377178720138598 
1202	 0.377246169275482 
1203	 0.377323299522881 
1204	 0.37738719132156 
1205	 0.377466483218458 
1206	 0.377549562993581 
1207	 0.377645125372282 
1208	 0.3777697142123 
1209	 0.377858817406058 
1210	 0.377943248734872 
1211	 0.378021047062925 
1212	 0.378060104445323 
1213	 0.378122537700932 
1214	 0.378191034269884 
1215	 0.378271830277239 
1216	 0.378362091606595 
1217	 0.378469657559112 
1218	 0.378556407401756 
1219	 0.378653263116046 
1220	 0.378727678057283 
1221	 0.378775488432308 
1222	 0.378840331446541 
1223	 0.378895082549116 
1224	 0.37897095972276 
1225	 0.379075087278527 
1226	 0.37915079060283 
1227	 0.379227087787203 
1228	 0.37929573853123 
1229	 0.379328180670106 
1230	 0.379387192173506 
1231	 0.379470590695606 
1232	 0.379540599378037 
1233	 0.379609792257778 
1234	 0.379686879640514 
1235	 0.379751267459745 
1236	 0.379799687894321 
1237	 0.379861917147322 
1238	 0.379927222196339 
1239	 0.379993509410398 
1240	 0.380068379429248 
1241	 0.380131568140692 
1242	 0.380190639407641 
1243	 0.380249876581182 
1244	 0.380302088228163 
1245	 0.380356860523888 
1246	 0.380404394577211 
1247	 0.380465522545747 
1248	 0.380531890601136 
1249	 0.380604015280001 
1250	 0.380687597870032 
1251	 0.380767769813056 
1252	 0.380837086104559 
1253	 0.380902448344539 
1254	 0.380956841387042 
1255	 0.381003430056814 
1256	 0.381043934586123 
1257	 0.381077846814257 
1258	 0.381098298169348 
1259	 0.381085619540489 
1260	 0.381112687254933 
1261	 0.381154997995794 
1262	 0.381189362734367 
1263	 0.381245510527955 
1264	 0.381293964729741 
1265	 0.381313764114926 
1266	 0.381358329498003 
1267	 0.381426444931954 
1268	 0.381500063262135 
1269	 0.381551835530479 
1270	 0.38159935743107 
1271	 0.381651020163569 
1272	 0.381680599836502 
1273	 0.381739138739782 
1274	 0.381819244796396 
1275	 0.38189413777273 
1276	 0.381957741358597 
1277	 0.382060209601066 
1278	 0.382195441542449 
1279	 0.382314317174903 
1280	 0.382460610828614 
1281	 0.382586777237334 
1282	 0.382694440832108 
1283	 0.382798062497248 
1284	 0.3828957436855 
1285	 0.382995932993055 
1286	 0.383078026328967 
1287	 0.383163484522342 
1288	 0.383257814394944 
1289	 0.383357139078367 
1290	 0.383454990577373 
1291	 0.383563857377276 
1292	 0.383656035282342 
1293	 0.38375149741225 
1294	 0.383822101862462 
1295	 0.383877013169636 
1296	 0.383919810367359 
1297	 0.383938873689833 
1298	 0.383960447873134 
1299	 0.383970802533201 
1300	 0.383985992961785 
1301	 0.384009193273868 
1302	 0.384012548066458 
1303	 0.384005178120725 
1304	 0.384001307274675 
1305	 0.383965144189699 
1306	 0.383910843925089 
1307	 0.383874911021988 
1308	 0.383818223491638 
1309	 0.383768298948166 
1310	 0.383731491137511 
1311	 0.383668400352229 
1312	 0.383580270721399 
1313	 0.3835158961633 
1314	 0.383453444385272 
1315	 0.383386824850097 
1316	 0.383334261139136 
1317	 0.383266908870973 
1318	 0.383183547067801 
1319	 0.383103405786568 
1320	 0.383006757130433 
1321	 0.382938972278301 
1322	 0.382878281941328 
1323	 0.382833528533301 
1324	 0.382805119344959 
1325	 0.38276928148847 
1326	 0.382739880752456 
1327	 0.382694585606559 
1328	 0.382645310375721 
1329	 0.382636410687026 
1330	 0.382589806046497 
1331	 0.382531415886866 
1332	 0.382462510776775 
1333	 0.382374052377596 
1334	 0.382289865948348 
1335	 0.382183075763688 
1336	 0.382122967044007 
1337	 0.382076025387744 
1338	 0.382039216567799 
1339	 0.382056137758172 
1340	 0.382024757846543 
1341	 0.381965959901316 
1342	 0.381925266840381 
1343	 0.381879696857972 
1344	 0.381826571698552 
1345	 0.381785176204372 
1346	 0.381740133885488 
1347	 0.381688766485863 
1348	 0.3816433908023 
1349	 0.381582832237598 
1350	 0.381537715524576 
1351	 0.381495868146298 
1352	 0.381455088362946 
1353	 0.381400095928255 
1354	 0.381350696371691 
1355	 0.381293046650155 
1356	 0.381212303439244 
1357	 0.381149848258884 
1358	 0.381096768681681 
1359	 0.381047534078562 
1360	 0.381000848275931 
1361	 0.380953353356734 
1362	 0.380917265198912 
1363	 0.380873273300998 
1364	 0.380808628430983 
1365	 0.380771538272893 
1366	 0.380746994521067 
1367	 0.380727458844222 
1368	 0.380722797869717 
1369	 0.380714568900989 
1370	 0.380666410688925 
1371	 0.380603176747939 
1372	 0.380545198265373 
1373	 0.38046993297679 
1374	 0.380374340577971 
1375	 0.380274912343741 
1376	 0.380152312857184 
1377	 0.379998795854253 
1378	 0.379838526130756 
1379	 0.379663002920791 
1380	 0.379489173291362 
1381	 0.379291729937103 
1382	 0.379109558352651 
1383	 0.378964256475757 
1384	 0.378764622303749 
1385	 0.378575170405098 
1386	 0.378317545649492 
1387	 0.378001787280552 
1388	 0.377661777621385 
1389	 0.377294114944628 
1390	 0.37686766120506 
1391	 0.37641108514162 
1392	 0.3759268009618 
1393	 0.375369696196539 
1394	 0.37479242370971 
1395	 0.374168668049922 
1396	 0.373513951263141 
1397	 0.372887400564933 
1398	 0.372244467774919 
1399	 0.371618531234436 
1400	 0.371015384999707 
1401	 0.37040652276103 
1402	 0.369771959518076 
1403	 0.369198419527296 
1404	 0.368624417419322 
1405	 0.368122569948385 
1406	 0.367676169655543 
1407	 0.367262523202738 
1408	 0.366879973538154 
1409	 0.366568330011339 
1410	 0.366253240645984 
1411	 0.366080195850986 
1412	 0.365982637471667 
1413	 0.366009860065519 
1414	 0.366175788255297 
1415	 0.36642785233442 
1416	 0.36677542982339 
1417	 0.367179067126721 
1418	 0.367593191482601 
1419	 0.368013802367498 
1420	 0.368434692551571 
1421	 0.368811654923898 
1422	 0.369151994999232 
1423	 0.369471307130299 
1424	 0.36969961405055 
1425	 0.369847803106898 
1426	 0.369985184433839 
1427	 0.370038286665987 
1428	 0.370127099091484 
1429	 0.370208994486275 
1430	 0.370284199255478 
1431	 0.370374479750103 
1432	 0.370421435182085 
1433	 0.370443778563256 
1434	 0.37045933611643 
1435	 0.370414228525308 
1436	 0.370422570476023 
1437	 0.370460904255244 
1438	 0.370487407727513 
1439	 0.370538395711393 
1440	 0.370581273896268 
1441	 0.370575693594227 
1442	 0.370540242721718 
1443	 0.37050415230914 
1444	 0.370484341393835 
1445	 0.370482157557743 
1446	 0.370486155984149 
1447	 0.370483085113164 
1448	 0.370450332231916 
1449	 0.370383938312758 
1450	 0.370326680618271 
1451	 0.370289037733561 
1452	 0.370249020515195 
1453	 0.370220259899143 
1454	 0.370226607726616 
1455	 0.37020249274653 
1456	 0.370162023856214 
1457	 0.370127000732066 
1458	 0.370090112598926 
1459	 0.370049560273915 
1460	 0.369996614554039 
1461	 0.369966501152333 
1462	 0.369953786289159 
1463	 0.369920035934466 
1464	 0.369893570115087 
1465	 0.369853215769402 
1466	 0.369768243761744 
1467	 0.369731772494154 
1468	 0.369701352434535 
1469	 0.369704802832114 
1470	 0.369749119614711 
1471	 0.369799591174895 
1472	 0.369869204591359 
1473	 0.36994700269265 
1474	 0.370009842782687 
1475	 0.370072010264924 
1476	 0.370117607622039 
1477	 0.370172779751209 
1478	 0.370230020042484 
1479	 0.370304015143207 
1480	 0.370410120517012 
1481	 0.370496452233166 
1482	 0.370574657547901 
1483	 0.370651244318123 
1484	 0.370728161306044 
1485	 0.370786902198018 
1486	 0.37086714269009 
1487	 0.370961916148565 
1488	 0.37105664015614 
1489	 0.371163382017861 
1490	 0.371250750297504 
1491	 0.371349009784834 
1492	 0.371416857337505 
1493	 0.37145277729655 
1494	 0.3714949038077 
1495	 0.371509338927841 
1496	 0.371551224478622 
1497	 0.371611449407059 
1498	 0.371662415174936 
1499	 0.371731115864212 
1500	 0.37177982908149 
1501	 0.371805532997988 
1502	 0.371843797883712 
1503	 0.371871475907127 
1504	 0.371920073462168 
1505	 0.371984380419508 
1506	 0.37203105129286 
1507	 0.372099940686912 
1508	 0.372155533834327 
1509	 0.372183767670272 
1510	 0.372226389493849 
1511	 0.37223721620643 
1512	 0.372234411697087 
1513	 0.372263742282987 
1514	 0.37228858032918 
1515	 0.372308984695584 
1516	 0.372359709600181 
1517	 0.372402270426153 
1518	 0.372440970028669 
1519	 0.372478637735212 
1520	 0.372530717093951 
1521	 0.372562266867302 
1522	 0.372568539721509 
1523	 0.372604720028461 
1524	 0.372654204569528 
1525	 0.37268441972001 
1526	 0.372723752725424 
1527	 0.372753675614801 
1528	 0.372758496970679 
1529	 0.372783379511209 
1530	 0.372823160775112 
1531	 0.37285117769804 
1532	 0.372878728334479 
1533	 0.372902480385592 
1534	 0.372915965643355 
1535	 0.372940861912339 
1536	 0.37296527310518 
1537	 0.3729969427466 
1538	 0.373051830931622 
1539	 0.373080828113333 
1540	 0.373099879581668 
1541	 0.373118189480025 
1542	 0.373118243776519 
1543	 0.373120932710269 
1544	 0.373127501283656 
1545	 0.373135544419253 
1546	 0.373141868988713 
1547	 0.37314851314134 
1548	 0.373150812682761 
1549	 0.373123919256855 
1550	 0.373099951331863 
1551	 0.373092104500562 
1552	 0.37310580088759 
1553	 0.373150348769079 
1554	 0.373181670971346 
1555	 0.373190485728169 
1556	 0.373191158493802 
1557	 0.37319292431657 
1558	 0.373226277540987 
1559	 0.373266894424245 
1560	 0.373280937743422 
1561	 0.373297518596101 
1562	 0.373293555800766 
1563	 0.373246949687965 
1564	 0.37324733939899 
1565	 0.373276710459202 
1566	 0.373271031493459 
1567	 0.373263428309698 
1568	 0.37326203738343 
1569	 0.373236263026459 
1570	 0.373228669483752 
1571	 0.373248548049707 
1572	 0.373245111046766 
1573	 0.373226886157129 
1574	 0.373217370779427 
1575	 0.373211436073057 
1576	 0.373197459547359 
1577	 0.373174818122449 
1578	 0.373162995479518 
1579	 0.373139222852085 
1580	 0.373144558125002 
1581	 0.373172629200257 
1582	 0.373199159473986 
1583	 0.373258659382622 
1584	 0.373282122354567 
1585	 0.373295550133641 
1586	 0.373293786138618 
1587	 0.373263290115549 
1588	 0.37323935887349 
1589	 0.373199440235514 
1590	 0.37317721392948 
1591	 0.373160309318527 
1592	 0.373147763960245 
1593	 0.373145296949588 
1594	 0.373145887703396 
1595	 0.373142820245014 
1596	 0.373153143112864 
1597	 0.373188906328909 
1598	 0.373205976280194 
1599	 0.373234266445227 
1600	 0.373238860431254 
1601	 0.373214730429186 
1602	 0.373195576299334 
1603	 0.373142742811118 
1604	 0.373130064172881 
1605	 0.373138361830269 
1606	 0.373151629913899 
1607	 0.373199834914863 
1608	 0.373238642718934 
1609	 0.373271658319344 
1610	 0.373292330548079 
1611	 0.373253859720158 
1612	 0.373219333299816 
1613	 0.373180468804772 
1614	 0.373124163114326 
1615	 0.373088647627461 
1616	 0.37307104932421 
1617	 0.373042802417655 
1618	 0.37301892606667 
1619	 0.373028060130658 
1620	 0.373036168402826 
1621	 0.373028913307121 
1622	 0.373027848116343 
1623	 0.372994856923865 
1624	 0.372938284307373 
1625	 0.372882406345265 
1626	 0.372801851406647 
1627	 0.372754050984063 
1628	 0.37270126970995 
1629	 0.372690878247541 
1630	 0.372712459759236 
1631	 0.372733206161696 
1632	 0.372786462882425 
1633	 0.372809545709314 
1634	 0.372831601769706 
1635	 0.372836925752568 
1636	 0.37282776986567 
1637	 0.372815552479549 
1638	 0.372792011499554 
1639	 0.372767985726385 
1640	 0.372728880902126 
1641	 0.372715547117426 
1642	 0.372711484628081 
1643	 0.3727039538163 
1644	 0.372712496206871 
1645	 0.372708826847747 
1646	 0.372695602280893 
1647	 0.372684873788242 
1648	 0.37267621506211 
1649	 0.372665600864737 
1650	 0.372647691100251 
1651	 0.372637159438407 
1652	 0.372632784010249 
1653	 0.372624199902575 
1654	 0.372612928582622 
1655	 0.372609205716144 
1656	 0.372612749092107 
1657	 0.372603507158902 
1658	 0.372609278287943 
1659	 0.372573965784843 
1660	 0.372505885605387 
1661	 0.372447517761588 
1662	 0.372354550162485 
1663	 0.372303802947262 
1664	 0.37227332222523 
1665	 0.37224592117641 
1666	 0.372243003698282 
1667	 0.372225580583752 
1668	 0.372211072617087 
1669	 0.372186080963336 
1670	 0.372154636705686 
1671	 0.372121037754021 
1672	 0.372075693732599 
1673	 0.372041104966111 
1674	 0.372001716887096 
1675	 0.371981006541183 
1676	 0.371977378050092 
1677	 0.371965347606127 
1678	 0.371969562692455 
1679	 0.371951579925877 
1680	 0.371916955988671 
1681	 0.371888358236801 
1682	 0.371843379988026 
1683	 0.371822060680748 
1684	 0.371808889634516 
1685	 0.371806112635027 
1686	 0.371839268234865 
1687	 0.371828554217785 
1688	 0.371790511446588 
1689	 0.371781465287439 
1690	 0.371759783230836 
1691	 0.371751299099698 
1692	 0.371785322285965 
1693	 0.371780466908284 
1694	 0.371748061028939 
1695	 0.371727346632321 
1696	 0.371692076351459 
1697	 0.371681736816579 
1698	 0.371684802106557 
1699	 0.371687215268426 
1700	 0.371723015158207 
1701	 0.371707867500159 
1702	 0.371653309292993 
1703	 0.371632653062287 
1704	 0.37161833099922 
1705	 0.371572189215706 
1706	 0.371534873665612 
1707	 0.371479891919217 
1708	 0.371360303805073 
1709	 0.371302948878948 
1710	 0.371284047686536 
1711	 0.37125097824714 
1712	 0.371228240593024 
1713	 0.371210134771421 
1714	 0.371200430139174 
1715	 0.371174392266598 
1716	 0.371146705630916 
1717	 0.371122216539575 
1718	 0.371080241196703 
1719	 0.371057812709212 
1720	 0.3710642887106 
1721	 0.371039107280988 
1722	 0.37099652942583 
1723	 0.370968043328599 
1724	 0.370932280248695 
1725	 0.370903632339768 
1726	 0.370905679562712 
1727	 0.370853401753234 
1728	 0.370766027692254 
1729	 0.370696625791834 
1730	 0.37059730591189 
1731	 0.370532147936783 
1732	 0.370496501450806 
1733	 0.370447703778336 
1734	 0.370409175768012 
1735	 0.370347478609668 
1736	 0.370283224562659 
1737	 0.370196456598728 
1738	 0.370077808209824 
1739	 0.369982490263227 
1740	 0.369875037799048 
1741	 0.369800381123048 
1742	 0.369750427692869 
1743	 0.369688834468567 
1744	 0.369644106834035 
1745	 0.369571945488899 
1746	 0.369487731338422 
1747	 0.36940255218497 
1748	 0.36931886478697 
1749	 0.369260100064209 
1750	 0.369195151576777 
1751	 0.369135393715436 
1752	 0.369058564196248 
1753	 0.368979082873357 
1754	 0.368879195261856 
1755	 0.36877213595487 
1756	 0.368690743821465 
1757	 0.368589121420068 
1758	 0.368514087968479 
1759	 0.368461894234882 
1760	 0.368419280989398 
1761	 0.368404428310728 
1762	 0.368363012447711 
1763	 0.368304005053634 
1764	 0.368218644983532 
1765	 0.368120411896304 
1766	 0.368035208683808 
1767	 0.367921910747959 
1768	 0.367823903007068 
1769	 0.36773514822587 
1770	 0.367649505571029 
1771	 0.367632445030402 
1772	 0.367601295835642 
1773	 0.367544777592538 
1774	 0.367523261662995 
1775	 0.367494855345948 
1776	 0.367459038908179 
1777	 0.367436317858439 
1778	 0.367388624047396 
1779	 0.367285926553603 
1780	 0.367170065008495 
1781	 0.367089495197289 
1782	 0.367028140199778 
1783	 0.366994548987564 
1784	 0.366971682869601 
1785	 0.366955980142392 
1786	 0.366928395024008 
1787	 0.366920594521492 
1788	 0.366886207626421 
1789	 0.366838315053053 
1790	 0.366795290500706 
1791	 0.366725859112077 
1792	 0.366677142633481 
1793	 0.36662543318431 
1794	 0.366612791002003 
1795	 0.366640337078492 
1796	 0.366646714489363 
1797	 0.366680634198017 
1798	 0.366673932110667 
1799	 0.366641311402978 
1800	 0.366594838415838 
1801	 0.366494380867209 
1802	 0.366705351820375 
1803	 0.366923123132397 
1804	 0.367142691616792 
1805	 0.367430386080491 
1806	 0.367697706668328 
1807	 0.367942743297398 
1808	 0.368141424427888 
1809	 0.368314944189118 
1810	 0.368454555906763 
1811	 0.368556257188473 
1812	 0.368626893310429 
1813	 0.368708478282961 
1814	 0.368733146426184 
1815	 0.368710908359542 
1816	 0.36868215029787 
1817	 0.368635535445579 
1818	 0.36851675176305 
1819	 0.368476406971351 
1820	 0.368453144914744 
1821	 0.36844799057881 
1822	 0.368485198495658 
1823	 0.368510191506372 
1824	 0.368529367472507 
1825	 0.368539140325856 
1826	 0.368524095242946 
1827	 0.36850746745061 
1828	 0.368462138240607 
1829	 0.368396228739867 
1830	 0.368315252872798 
1831	 0.368206971797808 
1832	 0.368083661877881 
1833	 0.367980347575442 
1834	 0.367891267645129 
1835	 0.367845706342054 
1836	 0.367802884475794 
1837	 0.367775657652069 
1838	 0.367760455604841 
1839	 0.367730102323369 
1840	 0.367688270788215 
1841	 0.367674524317707 
1842	 0.367623806719569 
1843	 0.367554355335793 
1844	 0.367512377588709 
1845	 0.367435302945642 
1846	 0.367380540077978 
1847	 0.367359842242137 
1848	 0.367322508526175 
1849	 0.367301835417925 
1850	 0.36729778458358 
1851	 0.367317462259086 
1852	 0.367323941886125 
1853	 0.367345081533335 
1854	 0.36737018841726 
1855	 0.367364417467707 
1856	 0.367352023344231 
1857	 0.3673239613866 
1858	 0.367287849623167 
1859	 0.367251599886587 
1860	 0.367182331008514 
1861	 0.367090141087336 
1862	 0.3669778858817 
1863	 0.366875238034672 
1864	 0.366759713366513 
1865	 0.366635120131851 
1866	 0.366516931508075 
1867	 0.366351776014256 
1868	 0.366146092475889 
1869	 0.365953877816028 
1870	 0.365757192345401 
1871	 0.36555550829556 
1872	 0.365353462487242 
1873	 0.365155360553618 
1874	 0.364935405250783 
1875	 0.364689189835336 
1876	 0.364410966397038 
1877	 0.364097182691782 
1878	 0.363735785102635 
1879	 0.363341412835512 
1880	 0.362867409474319 
1881	 0.36233029543476 
1882	 0.361738364530829 
1883	 0.361094991589529 
1884	 0.360344226544209 
1885	 0.359575314623141 
1886	 0.358737276891372 
1887	 0.357816173307575 
1888	 0.356860830395016 
1889	 0.355822107760959 
1890	 0.354758616233001 
1891	 0.353688316042536 
1892	 0.352577037686661 
1893	 0.35145771951377 
1894	 0.350327563794932 
1895	 0.349185469593861 
1896	 0.348014339858979 
1897	 0.346867082622869 
1898	 0.345734348899128 
1899	 0.344636174425708 
1900	 0.343586312276898 
1901	 0.342583308964357 
1902	 0.341657180232288 
1903	 0.340826472338649 
1904	 0.340010614817504 
1905	 0.33923450428532 
1906	 0.338528825098482 
1907	 0.337870618950602 
1908	 0.337238841084515 
1909	 0.336655324887755 
1910	 0.336107432425094 
1911	 0.335561777917808 
1912	 0.335018848191975 
1913	 0.334514838579483 
1914	 0.334027983839888 
1915	 0.333579615290012 
1916	 0.333156705799851 
1917	 0.332787761683281 
1918	 0.332441192111019 
1919	 0.33212464506775 
1920	 0.331834713616352 
1921	 0.33154927259741 
1922	 0.331296409440518 
1923	 0.331063120829567 
1924	 0.3308564577847 
1925	 0.330672526246477 
1926	 0.33052581833277 
1927	 0.33039945026366 
1928	 0.330319985426116 
1929	 0.330277269823381 
1930	 0.330238896468372 
1931	 0.33021483870505 
1932	 0.330186505768729 
1933	 0.330168856930367 
1934	 0.330147174272093 
1935	 0.330137378372673 
1936	 0.330123110908951 
1937	 0.330146299715377 
1938	 0.330188501548271 
1939	 0.330249644696195 
1940	 0.330351259470919 
1941	 0.330438637336877 
1942	 0.330531130259554 
1943	 0.330617050513694 
1944	 0.330722214165285 
1945	 0.3308564676209 
1946	 0.330984759210691 
1947	 0.331121085247827 
1948	 0.331272992895388 
1949	 0.331427231863304 
1950	 0.331590917099008 
1951	 0.331763475898567 
1952	 0.33197469943534 
1953	 0.332158176613371 
1954	 0.332343821813556 
1955	 0.332567568700332 
1956	 0.33278516433189 
1957	 0.333001598957368 
1958	 0.333221308345057 
1959	 0.333453924074728 
1960	 0.33369269619934 
1961	 0.333924293729242 
1962	 0.334170623393166 
1963	 0.334417172835563 
1964	 0.334648841994551 
1965	 0.334878498899695 
1966	 0.335162058768632 
1967	 0.335452624810005 
1968	 0.33572284372535 
1969	 0.336004366836223 
1970	 0.336274121010625 
1971	 0.336505685457249 
1972	 0.336772920494648 
1973	 0.337084857924063 
1974	 0.337350953786467 
1975	 0.337586648837272 
1976	 0.337859077525345 
1977	 0.33810100918799 
1978	 0.338348115758929 
1979	 0.338666684443609 
1980	 0.338975908425893 
1981	 0.33925788293008 
1982	 0.339527502098731 
1983	 0.339807028068211 
1984	 0.340052491736573 
1985	 0.340335530352048 
1986	 0.340669119714706 
1987	 0.340968000740221 
1988	 0.341264429535312 
1989	 0.341551559999995 
1990	 0.341825131282889 
1991	 0.342077179554116 
1992	 0.34232765626841 
1993	 0.342555324813365 
1994	 0.342818775771663 
1995	 0.343085281350207 
1996	 0.343358707154866 
1997	 0.343660083187611 
1998	 0.343953745812555 
1999	 0.344236179497747 
2000	 0.344535951384872 
2001	 0.344867002277176 
2002	 0.34517082110705 
2003	 0.345480276874348 
2004	 0.345762849713461 
2005	 0.346035910891724 
2006	 0.34628457927447 
2007	 0.346540654889011 
2008	 0.3467770256835 
2009	 0.347038646688723 
2010	 0.347325056831164 
2011	 0.347582992686195 
2012	 0.347849116245196 
2013	 0.348091184779505 
2014	 0.348293609033586 
2015	 0.348503789841731 
2016	 0.348725008352217 
2017	 0.348951119451098 
2018	 0.349195602377436 
2019	 0.349468926048187 
2020	 0.349720566526035 
2021	 0.349977978768311 
2022	 0.350228829362483 
2023	 0.350453059156847 
2024	 0.350708087099225 
2025	 0.35098449169859 
2026	 0.351253487886244 
2027	 0.351548713699631 
2028	 0.351821992757205 
2029	 0.352074373410676 
2030	 0.352311120559762 
2031	 0.352533411175021 
2032	 0.352717126624321 
2033	 0.352941047456707 
2034	 0.353179132025103 
2035	 0.353399289011709 
2036	 0.353643780173392 
2037	 0.353855310558041 
2038	 0.354032313293315 
2039	 0.354211180495962 
2040	 0.354396979891955 
2041	 0.354550846150014 
2042	 0.354668738993493 
2043	 0.354802996961057 
2044	 0.354932372941843 
2045	 0.355024870870403 
2046	 0.355174905145317 
2047	 0.355369292472551 
2048	 0.355535196717344 
2049	 0.355743184620344 
2050	 0.355887578996953 
2051	 0.355984577465368 
2052	 0.35608691233816 
2053	 0.356146826121202 
2054	 0.356228192708599 
2055	 0.356313408149076 
2056	 0.356406057031735 
2057	 0.356507082346428 
2058	 0.356611476651693 
2059	 0.35673412561517 
2060	 0.356884438839096 
2061	 0.357009122464158 
2062	 0.35714499679267 
2063	 0.357256112884736 
2064	 0.357337634420867 
2065	 0.357429165662574 
2066	 0.357517983889556 
2067	 0.357604268394821 
2068	 0.357687647851777 
2069	 0.357770357352345 
2070	 0.357852651703587 
2071	 0.357925501450023 
2072	 0.358015868431831 
2073	 0.358108969731047 
2074	 0.358217073197401 
2075	 0.358361017295318 
2076	 0.358456701464705 
2077	 0.358533634693819 
2078	 0.358620474473768 
2079	 0.358673906117398 
2080	 0.358753401805986 
2081	 0.358869403241497 
2082	 0.358962818648917 
2083	 0.359036652803099 
2084	 0.359120338391126 
2085	 0.359231616555919 
2086	 0.359361938067056 
2087	 0.359466074650444 
2088	 0.35959016688307 
2089	 0.359694040664308 
2090	 0.359757712431737 
2091	 0.359846089790882 
2092	 0.359958954456232 
2093	 0.360049457119371 
2094	 0.360118307126416 
2095	 0.360206690822378 
2096	 0.360298018003781 
2097	 0.360390301193857 
2098	 0.360492491536221 
2099	 0.360599439226822 
2100	 0.360694977261402 
2101	 0.360790408528617 
2102	 0.360867196990675 
2103	 0.360920004773263 
2104	 0.361003940130286 
2105	 0.361080111028833 
2106	 0.361176225382076 
2107	 0.361302051601455 
2108	 0.361421531417116 
2109	 0.361538658315915 
2110	 0.361668352943454 
2111	 0.361812764681987 
2112	 0.361955859290395 
2113	 0.362113823415774 
2114	 0.362261528360478 
2115	 0.362397289042013 
2116	 0.362525942424435 
2117	 0.362656057068024 
2118	 0.362770773593642 
2119	 0.362898084778178 
2120	 0.363044595686463 
2121	 0.36316459361819 
2122	 0.363267426868642 
2123	 0.363381760163078 
2124	 0.363494483419006 
2125	 0.363594550259372 
2126	 0.363716128160445 
2127	 0.363799494087445 
2128	 0.363843152119017 
2129	 0.363891161923685 
2130	 0.363928184774668 
2131	 0.363953445739048 
2132	 0.363963518655748 
2133	 0.363970471022352 
2134	 0.363956552895116 
2135	 0.363914116481348 
2136	 0.363877135301187 
2137	 0.363845889983028 
2138	 0.363779605742711 
2139	 0.363713052420617 
2140	 0.363597689926998 
2141	 0.36342906922054 
2142	 0.363264861273407 
2143	 0.363082992926262 
2144	 0.362876995607193 
2145	 0.362652033071544 
2146	 0.362420412518482 
2147	 0.362164622713157 
2148	 0.361886847624239 
2149	 0.361628305584803 
2150	 0.361379652915886 
2151	 0.36111493573824 
2152	 0.360842640412736 
2153	 0.360574576110541 
2154	 0.360321248521211 
2155	 0.360019477022093 
2156	 0.359722166945955 
2157	 0.359372487786661 
2158	 0.358985338465721 
2159	 0.358554698785372 
2160	 0.358057108963521 
2161	 0.357572796393566 
2162	 0.357017257544538 
2163	 0.356516072618493 
2164	 0.356048745058656 
2165	 0.355598883419326 
2166	 0.35512106852807 
2167	 0.35465439827449 
2168	 0.354174346829052 
2169	 0.353668247876016 
2170	 0.353179190722026 
2171	 0.352719532043713 
2172	 0.352212478790895 
2173	 0.351698586089014 
2174	 0.3511425385421 
2175	 0.350534698608193 
2176	 0.349938572522774 
2177	 0.349344544961732 
2178	 0.348701774689571 
2179	 0.348044670785134 
2180	 0.347357445828532 
2181	 0.346602587912004 
2182	 0.345856088903833 
2183	 0.345087594820902 
2184	 0.344325434336902 
2185	 0.343575441074441 
2186	 0.342821901821079 
2187	 0.342075145371241 
2188	 0.341326236700734 
2189	 0.340619329871843 
2190	 0.339896017596488 
2191	 0.339257544071593 
2192	 0.338680742789634 
2193	 0.338130684919543 
2194	 0.33761864895062 
2195	 0.337159063676893 
2196	 0.336735922925291 
2197	 0.336368059726801 
2198	 0.336065756954295 
2199	 0.335799007262292 
2200	 0.335596450243901 
2201	 0.335407107227524 
2202	 0.335237052479736 
2203	 0.335105340054409 
2204	 0.335055371405136 
2205	 0.335038597670561 
2206	 0.335105530127415 
2207	 0.335260401917848 
2208	 0.335470702917979 
2209	 0.335742956933308 
2210	 0.33606731803986 
2211	 0.336499836914139 
2212	 0.336903916457937 
2213	 0.337352996363339 
2214	 0.337781227624337 
2215	 0.338228071503539 
2216	 0.338644474965378 
2217	 0.33906013673938 
2218	 0.339442932732613 
2219	 0.339801677162507 
2220	 0.340138424377273 
2221	 0.340452553051064 
2222	 0.340744169589597 
2223	 0.34099578051603 
2224	 0.341219047014225 
2225	 0.341437244726053 
2226	 0.341640206499414 
2227	 0.341785439662348 
2228	 0.341907858657952 
2229	 0.34200171915244 
2230	 0.342016796304518 
2231	 0.342075997735288 
2232	 0.342153128416256 
2233	 0.34219626840246 
2234	 0.342237875452482 
2235	 0.342248408964249 
2236	 0.342234333224419 
2237	 0.342196714363415 
2238	 0.342095506135684 
2239	 0.342042933649057 
2240	 0.342025945703779 
2241	 0.341960640027707 
2242	 0.341904425014888 
2243	 0.341825611347058 
2244	 0.341718696998933 
2245	 0.341538743259524 
2246	 0.341430534055589 
2247	 0.341334159436059 
2248	 0.341205864901059 
2249	 0.341085172084165 
2250	 0.340919893455579 
2251	 0.340698736682059 
2252	 0.340531669190358 
2253	 0.340343605755726 
2254	 0.340208730173575 
2255	 0.340126528664238 
2256	 0.340028509205055 
2257	 0.33992718115572 
2258	 0.339877198040762 
2259	 0.339856478512399 
2260	 0.339841704239937 
2261	 0.339888419913705 
2262	 0.339892375379473 
2263	 0.339866001472731 
2264	 0.339859394233581 
2265	 0.339841169942554 
2266	 0.339849162194834 
2267	 0.339883338370712 
2268	 0.339918581640748 
2269	 0.339946734963439 
2270	 0.340019019608212 
2271	 0.340092204429633 
2272	 0.34017550732362 
2273	 0.340320475828627 
2274	 0.340411429174098 
2275	 0.340510257769334 
2276	 0.340609067408549 
2277	 0.340709718361922 
2278	 0.340784613782642 
2279	 0.340900731710892 
2280	 0.341044422608181 
2281	 0.341178613178247 
2282	 0.341345462993392 
2283	 0.341476275136515 
2284	 0.341578492772515 
2285	 0.341693659789955 
2286	 0.341803385867406 
2287	 0.341900928913674 
2288	 0.342013868866404 
2289	 0.342099562321076 
2290	 0.342134367453875 
2291	 0.342211026874977 
2292	 0.342299102247408 
2293	 0.342381057361598 
2294	 0.342505336308524 
2295	 0.342589701129275 
2296	 0.342631616419301 
2297	 0.342698106624041 
2298	 0.34276702713609 
2299	 0.34277075739551 
2300	 0.342794888039542 
2301	 0.342803650987958 
2302	 0.342755883881475 
2303	 0.342736212827484 
2304	 0.342748986460549 
2305	 0.342757753853176 
2306	 0.34275125200591 
2307	 0.342778794210726 
2308	 0.342737827479832 
2309	 0.342627539816331 
2310	 0.342553790834566 
2311	 0.342467686735523 
2312	 0.342386693814169 
2313	 0.342323716662984 
2314	 0.342253262905736 
2315	 0.342165755145439 
2316	 0.342085278509272 
2317	 0.342006604883993 
2318	 0.341939580654252 
2319	 0.341882389856267 
2320	 0.341822679816456 
2321	 0.341788599644528 
2322	 0.341715861695938 
2323	 0.341622488381947 
2324	 0.341513880755978 
2325	 0.341361254832723 
2326	 0.341242390877511 
2327	 0.341128034776056 
2328	 0.341012029133488 
2329	 0.34090430913935 
2330	 0.340813045218341 
2331	 0.340764821223166 
2332	 0.340734412439874 
2333	 0.340696007895988 
2334	 0.340632899956488 
2335	 0.340525532215491 
2336	 0.340426695607377 
2337	 0.340391967073598 
2338	 0.34035601008335 
2339	 0.340262756412768 
2340	 0.340143763968642 
2341	 0.339989454792417 
2342	 0.339785801930189 
2343	 0.339619312953918 
2344	 0.339515488461738 
2345	 0.339402846908907 
2346	 0.339318237123388 
2347	 0.339236932691366 
2348	 0.33915828625297 
2349	 0.339072335980999 
2350	 0.339010902086099 
2351	 0.338908920418326 
2352	 0.338785476646394 
2353	 0.338673256733679 
2354	 0.338524854899675 
2355	 0.338412427423042 
2356	 0.338331346447849 
2357	 0.338231714541043 
2358	 0.338129620156532 
2359	 0.338056286193736 
2360	 0.337976447643708 
2361	 0.337919750669975 
2362	 0.337915167414902 
2363	 0.337877874291347 
2364	 0.337851569679283 
2365	 0.337796793373263 
2366	 0.337732850862262 
2367	 0.337633421294678 
2368	 0.337467688464087 
2369	 0.337345456245031 
2370	 0.337236437469314 
2371	 0.337092805977208 
2372	 0.336997114407082 
2373	 0.336842048539775 
2374	 0.336610675811762 
2375	 0.336357676771796 
2376	 0.33609187622239 
2377	 0.335894979120711 
2378	 0.335713747415637 
2379	 0.335569408705941 
2380	 0.335441506991913 
2381	 0.335249302865652 
2382	 0.335055567791125 
2383	 0.334835617115479 
2384	 0.334571837815293 
2385	 0.334266592865786 
2386	 0.333953789353909 
2387	 0.333659241835202 
2388	 0.3333447563796 
2389	 0.333141300690538 
2390	 0.332958081327814 
2391	 0.332660987285934 
2392	 0.332389165570009 
2393	 0.332139907806533 
2394	 0.331884970723941 
2395	 0.331652639164128 
2396	 0.331378626189176 
2397	 0.331025224774837 
2398	 0.330640753419621 
2399	 0.330298646887403 
2400	 0.330017229510736 
2401	 0.329793962397378 
2402	 0.329509343890806 
2403	 0.329241631176249 
2404	 0.329053289384797 
2405	 0.328743185255653 
2406	 0.328404958076568 
2407	 0.328051248363723 
2408	 0.327647572894591 
2409	 0.327264934963325 
2410	 0.326917297721972 
2411	 0.326598619602604 
2412	 0.326184931683597 
2413	 0.32575832905295 
2414	 0.325401164852529 
2415	 0.32499540717285 
2416	 0.324620243319381 
2417	 0.324281750659449 
2418	 0.323957740271205 
2419	 0.323684806115073 
2420	 0.323290560762801 
2421	 0.322883897267365 
2422	 0.322491941300096 
2423	 0.321998884798539 
2424	 0.321549280390625 
2425	 0.321119397337992 
2426	 0.320647472559116 
2427	 0.320125322576425 
2428	 0.319704323123522 
2429	 0.319421869968331 
2430	 0.319018960369008 
2431	 0.318518980867909 
2432	 0.318093600419633 
2433	 0.317598100024827 
2434	 0.317194525241918 
2435	 0.316957829021718 
2436	 0.316671235624759 
2437	 0.31644277363716 
2438	 0.316089860150722 
2439	 0.315618708653252 
2440	 0.315221866104412 
2441	 0.314712120014646 
2442	 0.314353323677146 
2443	 0.314245051530353 
2444	 0.31395994527303 
2445	 0.313568656994785 
2446	 0.31330086550542 
2447	 0.313052577123124 
2448	 0.312727543801076 
2449	 0.312403865645079 
2450	 0.312163461101269 
2451	 0.311891864782727 
2452	 0.31160994909388 
2453	 0.311523054339167 
2454	 0.311264367378701 
2455	 0.310756172205958 
2456	 0.310435257292374 
2457	 0.310190872797626 
2458	 0.309864751103023 
2459	 0.309595621670028 
2460	 0.309331689892845 
2461	 0.308964365142608 
2462	 0.30873243757275 
2463	 0.308634081339242 
2464	 0.308329162622631 
2465	 0.307953901340839 
2466	 0.307688697061175 
2467	 0.307376801362684 
2468	 0.307165334573943 
2469	 0.30711938534885 
2470	 0.306761171253293 
2471	 0.306449475841025 
2472	 0.30613021591547 
2473	 0.305958571514645 
2474	 0.305748978872102 
2475	 0.305466742808412 
2476	 0.305253532204541 
2477	 0.305027588357029 
2478	 0.304904713971891 
2479	 0.304663731785666 
2480	 0.304353472842774 
2481	 0.304127532568602 
2482	 0.303693717559919 
2483	 0.30330972194483 
2484	 0.302994095645319 
2485	 0.302500882978076 
2486	 0.302195967147925 
2487	 0.30208355738381 
2488	 0.301922063236549 
2489	 0.301818661344765 
2490	 0.301783126862594 
2491	 0.301651357844339 
2492	 0.301357246646536 
2493	 0.301042765513244 
2494	 0.300661480705377 
2495	 0.30020618336115 
2496	 0.300050274366464 
2497	 0.299913341145494 
2498	 0.299633429462216 
2499	 0.299437830982358 
2500	 0.299129712163913 
