Wavelength	mm1800007.asd
350	 6.01453692111907E-02 
351	 6.29038517786785E-02 
352	 6.00296289825991E-02 
353	 5.17889733057673E-02 
354	 6.19985008558178E-02 
355	 5.97895524866583E-02 
356	 5.38368375563359E-02 
357	 5.81905705587792E-02 
358	 0.068320009853786 
359	 6.49657020221212E-02 
360	 5.39965016431292E-02 
361	 5.56803530739688E-02 
362	 5.92047927145062E-02 
363	 5.94513015750327E-02 
364	 5.60494478941212E-02 
365	 5.44441176050332E-02 
366	 5.35694675565794E-02 
367	 5.49138120457591E-02 
368	 5.91742554468164E-02 
369	 6.28272214750546E-02 
370	 6.31427269093773E-02 
371	 6.16420647635712E-02 
372	 6.23532611370713E-02 
373	 6.26237551079732E-02 
374	 6.36649335424684E-02 
375	 6.56773024262573E-02 
376	 0.066401468804299 
377	 6.60435438215613E-02 
378	 6.58231682556693E-02 
379	 6.67734893891628E-02 
380	 6.77603615518939E-02 
381	 6.73516953523634E-02 
382	 6.77256034734148E-02 
383	 7.29304006149273E-02 
384	 7.58436640389385E-02 
385	 7.57263678251464E-02 
386	 7.43797156004741E-02 
387	 7.65208466863783E-02 
388	 7.79273727202328E-02 
389	 7.76912245574663E-02 
390	 7.66055107127972E-02 
391	 7.77345905637621E-02 
392	 8.08958608524393E-02 
393	 8.49445826164407E-02 
394	 8.80153386035417E-02 
395	 8.73138435673894E-02 
396	 8.70899281913044E-02 
397	 8.99452988091058E-02 
398	 9.30378779103531E-02 
399	 9.27817248375587E-02 
400	 9.23460926618586E-02 
401	 9.57225521245808E-02 
402	 9.58312165197608E-02 
403	 9.60524729520564E-02 
404	 9.75957276131227E-02 
405	 9.88586882541078E-02 
406	 9.88297181193216E-02 
407	 9.97065722505805E-02 
408	 0.102206527567281 
409	 0.101497601904879 
410	 0.101689863582471 
411	 0.103462467107194 
412	 0.105716881688423 
413	 0.107818233252856 
414	 0.107510791716352 
415	 0.105797575383538 
416	 0.107848812751318 
417	 0.108031774725681 
418	 0.107458866086652 
419	 0.108011202509053 
420	 0.108376862886122 
421	 0.108423892987318 
422	 0.108564561426721 
423	 0.109400770829173 
424	 0.109779528203473 
425	 0.109301523757269 
426	 0.108361477601151 
427	 0.108545051899194 
428	 0.108861052739128 
429	 0.109022854466547 
430	 0.108956080622453 
431	 0.108483006650751 
432	 0.108191357379161 
433	 0.108452695802265 
434	 0.109352487761815 
435	 0.109650569801295 
436	 0.109810397869035 
437	 0.110225463480557 
438	 0.11001995194283 
439	 0.110764344384889 
440	 0.112001772354793 
441	 0.112462791616162 
442	 0.113383172331566 
443	 0.114237355558492 
444	 0.114770309325886 
445	 0.115365340014634 
446	 0.11620379799461 
447	 0.117003712478584 
448	 0.1174875968803 
449	 0.117984719778856 
450	 0.118899790079105 
451	 0.119955073183811 
452	 0.120369926463472 
453	 0.121002710830748 
454	 0.121622533728865 
455	 0.122057507453204 
456	 0.122769276711044 
457	 0.123380473334554 
458	 0.123819159057735 
459	 0.124166921182899 
460	 0.12452322207423 
461	 0.124922486040197 
462	 0.125361536813637 
463	 0.125797403891335 
464	 0.126277995637924 
465	 0.126734521057985 
466	 0.127074569367722 
467	 0.12717738926716 
468	 0.127725472402821 
469	 0.128484010397035 
470	 0.128531379271521 
471	 0.128491280554874 
472	 0.128722059892305 
473	 0.129240425278455 
474	 0.129365682600087 
475	 0.129649171614503 
476	 0.130023464218664 
477	 0.130225491313925 
478	 0.130653908285812 
479	 0.131021929904255 
480	 0.131247890485114 
481	 0.13160966493577 
482	 0.132059907381925 
483	 0.132406877156781 
484	 0.132535316048952 
485	 0.132810965722804 
486	 0.133052906905089 
487	 0.133305579908775 
488	 0.133780127755841 
489	 0.134048649754554 
490	 0.13425858177695 
491	 0.134559071368076 
492	 0.13483928214884 
493	 0.135177780141281 
494	 0.135491303506594 
495	 0.135664561961005 
496	 0.135948145804274 
497	 0.136236287371411 
498	 0.136482703839006 
499	 0.136784931977623 
500	 0.137016823281229 
501	 0.137239589358704 
502	 0.137520164296235 
503	 0.137687648263447 
504	 0.137903717771854 
505	 0.138191646972509 
506	 0.13844736376863 
507	 0.138866341898243 
508	 0.139233797194177 
509	 0.139389533369593 
510	 0.139504058116627 
511	 0.13967926600952 
512	 0.139952501394675 
513	 0.140306693578425 
514	 0.14067286825814 
515	 0.140891226949703 
516	 0.14100569599166 
517	 0.141428826565959 
518	 0.141709773718566 
519	 0.141871208686673 
520	 0.142074724520468 
521	 0.142326166366438 
522	 0.142597400876812 
523	 0.142841171252757 
524	 0.142997422824665 
525	 0.143204107027447 
526	 0.143487603784953 
527	 0.143792934196447 
528	 0.143888255514554 
529	 0.144057298474169 
530	 0.144383910507864 
531	 0.144789477864978 
532	 0.14498089698927 
533	 0.145130831591988 
534	 0.145374123429891 
535	 0.145625329800281 
536	 0.145864346515961 
537	 0.146092323165937 
538	 0.146324664276758 
539	 0.146588426979697 
540	 0.146822694284595 
541	 0.147010928147739 
542	 0.147200411368714 
543	 0.147449131813081 
544	 0.147720104582399 
545	 0.147976779347524 
546	 0.14831889989885 
547	 0.148606294651647 
548	 0.148840965567431 
549	 0.149142140474057 
550	 0.149372522090386 
551	 0.149577779614375 
552	 0.149825434273183 
553	 0.150164088519426 
554	 0.150432877201092 
555	 0.150701646438131 
556	 0.15113062615388 
557	 0.151487535876268 
558	 0.151867414633556 
559	 0.152326963568029 
560	 0.152803321864087 
561	 0.153145452557766 
562	 0.153474188550652 
563	 0.153939599533534 
564	 0.154268480249141 
565	 0.154553638919535 
566	 0.154854362692696 
567	 0.155168092115278 
568	 0.155546977243451 
569	 0.156029483802334 
570	 0.156627923442757 
571	 0.157320128884399 
572	 0.157904439151313 
573	 0.15836710923699 
574	 0.158832578385301 
575	 0.159293789828171 
576	 0.159833864821296 
577	 0.160466552655499 
578	 0.161034337456892 
579	 0.16160059778435 
580	 0.162149232087896 
581	 0.162659093150585 
582	 0.163276659806784 
583	 0.16394862003812 
584	 0.16460690599367 
585	 0.165188098832496 
586	 0.165914598274389 
587	 0.166674413800077 
588	 0.16732159453248 
589	 0.168028509640219 
590	 0.168777876555869 
591	 0.169519444342508 
592	 0.170185649355469 
593	 0.170831547035976 
594	 0.171419867058903 
595	 0.17193336415213 
596	 0.172449144154923 
597	 0.172961690427348 
598	 0.173501426028959 
599	 0.174104507379838 
600	 0.174672551232557 
601	 0.175244969926317 
602	 0.175835240663714 
603	 0.176383147314657 
604	 0.176912664273113 
605	 0.17747945502035 
606	 0.178128190362203 
607	 0.178783055598148 
608	 0.179377288876609 
609	 0.179931343335742 
610	 0.180560669370592 
611	 0.181079961953479 
612	 0.181510795767403 
613	 0.181919402446908 
614	 0.182347384190616 
615	 0.182700775448541 
616	 0.183003855883462 
617	 0.183360579338067 
618	 0.183788270397328 
619	 0.184168876763291 
620	 0.184458832935943 
621	 0.184819898050847 
622	 0.185143166779987 
623	 0.185436508249743 
624	 0.185741831403814 
625	 0.185995611113453 
626	 0.186299101371985 
627	 0.186653194182799 
628	 0.186911398115111 
629	 0.187179258355551 
630	 0.187448654749791 
631	 0.1876903919566 
632	 0.187895365678889 
633	 0.188212054087335 
634	 0.18857842227835 
635	 0.188775888836573 
636	 0.189007077693001 
637	 0.189261243189767 
638	 0.189506672558939 
639	 0.189753325894465 
640	 0.189999656019744 
641	 0.19025544494378 
642	 0.190527751056635 
643	 0.190761912598877 
644	 0.191029345263034 
645	 0.19133039140932 
646	 0.19154440069807 
647	 0.191783364170796 
648	 0.192042285849075 
649	 0.192291187302961 
650	 0.192540571980159 
651	 0.19283407690083 
652	 0.193148537607411 
653	 0.193408152460559 
654	 0.193671415925685 
655	 0.193941094444064 
656	 0.194211881673976 
657	 0.194483752620516 
658	 0.194739991333442 
659	 0.194994956281343 
660	 0.195274721611196 
661	 0.195566752616923 
662	 0.195874731774151 
663	 0.196185576545765 
664	 0.196457713887943 
665	 0.196805480784001 
666	 0.197153419073588 
667	 0.197420705449476 
668	 0.197746053892312 
669	 0.198068650637611 
670	 0.198376031789387 
671	 0.198699139803238 
672	 0.199038849085594 
673	 0.199397758976674 
674	 0.19975657288271 
675	 0.200034522270165 
676	 0.200371413010354 
677	 0.200748197946822 
678	 0.20108974749979 
679	 0.201469187430742 
680	 0.201836254596554 
681	 0.202191771444575 
682	 0.202615876362205 
683	 0.202959561189803 
684	 0.203274887436085 
685	 0.203646818742987 
686	 0.204079042005546 
687	 0.204496256243124 
688	 0.204882315511317 
689	 0.205265128664133 
690	 0.20564015019234 
691	 0.206029427742981 
692	 0.206439490068998 
693	 0.206839283679842 
694	 0.207271103182062 
695	 0.207685743822761 
696	 0.208028767921747 
697	 0.208400689989443 
698	 0.208809732444226 
699	 0.2092418394738 
700	 0.209665695520199 
701	 0.210073753791148 
702	 0.210477730457069 
703	 0.210885636973264 
704	 0.211279294852268 
705	 0.211679301543876 
706	 0.212084112007754 
707	 0.212480672157911 
708	 0.212870522422745 
709	 0.213260514624793 
710	 0.213669088515866 
711	 0.214135341510041 
712	 0.21447084754065 
713	 0.214773506997773 
714	 0.215175693356805 
715	 0.215612957198497 
716	 0.215994671042188 
717	 0.216322860682059 
718	 0.216670752900371 
719	 0.217078287172537 
720	 0.217445268542857 
721	 0.217726593327768 
722	 0.218019390956263 
723	 0.218349462142366 
724	 0.218664878179541 
725	 0.218921379732431 
726	 0.219279562584746 
727	 0.219582146114009 
728	 0.21980304544179 
729	 0.220050876116817 
730	 0.220348029552301 
731	 0.220597511545764 
732	 0.220752926502464 
733	 0.220931223093501 
734	 0.221193103481012 
735	 0.221434866485392 
736	 0.221527943596291 
737	 0.221671616553315 
738	 0.221844065737915 
739	 0.222016460048969 
740	 0.222170236790969 
741	 0.222282105529761 
742	 0.222363166513704 
743	 0.222437060892327 
744	 0.222544925196346 
745	 0.222582788368903 
746	 0.222589629050718 
747	 0.222653358562269 
748	 0.22267346266015 
749	 0.222658801217821 
750	 0.222651579557055 
751	 0.222718306171492 
752	 0.222673833557195 
753	 0.222566799411427 
754	 0.22248714066282 
755	 0.222469248335482 
756	 0.222488347577279 
757	 0.22245287839049 
758	 0.222276979492607 
759	 0.222165176323427 
760	 0.22209944502256 
761	 0.222028030619256 
762	 0.221888393154524 
763	 0.221792734029396 
764	 0.221688291295921 
765	 0.22152335254413 
766	 0.221362918082053 
767	 0.221225929892937 
768	 0.221092641279424 
769	 0.22092991088665 
770	 0.220772738786343 
771	 0.220646441228632 
772	 0.220510288626037 
773	 0.220253212464331 
774	 0.220044268560707 
775	 0.219894591690447 
776	 0.219761216102848 
777	 0.219560308152321 
778	 0.219358907145712 
779	 0.219186500318981 
780	 0.219036463361785 
781	 0.218793904584927 
782	 0.218583693908678 
783	 0.218430393285394 
784	 0.218236890152932 
785	 0.218055716367734 
786	 0.217871057885218 
787	 0.217664863635279 
788	 0.217430321139772 
789	 0.21730447330573 
790	 0.217193595271534 
791	 0.216958344093009 
792	 0.216731255189189 
793	 0.216526572520621 
794	 0.216349621097857 
795	 0.216195470059577 
796	 0.21598278161529 
797	 0.215776332042276 
798	 0.215616208250318 
799	 0.2154543339872 
800	 0.215296804824939 
801	 0.215139444547265 
802	 0.214967763272839 
803	 0.214723408233094 
804	 0.214574503603541 
805	 0.214487474648674 
806	 0.214312834867826 
807	 0.214122610819166 
808	 0.213987597813749 
809	 0.213870532160844 
810	 0.213602847654873 
811	 0.21347428391118 
812	 0.213371396168385 
813	 0.213189691018373 
814	 0.213113983296523 
815	 0.213002795565472 
816	 0.212841921678682 
817	 0.212679355490543 
818	 0.212581068777166 
819	 0.212504009751571 
820	 0.212379150729247 
821	 0.212148608053465 
822	 0.212072011946957 
823	 0.211978592622723 
824	 0.211801332391668 
825	 0.211749759545333 
826	 0.21172540521428 
827	 0.211632124979767 
828	 0.211444185383903 
829	 0.211355025166596 
830	 0.211258460996488 
831	 0.211142013080414 
832	 0.211045741278215 
833	 0.211032846776993 
834	 0.210982504635843 
835	 0.210878922325125 
836	 0.210813180087968 
837	 0.210740055128534 
838	 0.210697180069941 
839	 0.210676030398217 
840	 0.210571358614067 
841	 0.210461359647874 
842	 0.210399495131832 
843	 0.210397301471286 
844	 0.210361505789609 
845	 0.210354218846747 
846	 0.210345344589693 
847	 0.210288860891739 
848	 0.210303636067752 
849	 0.210316399664413 
850	 0.210296337136439 
851	 0.210260727829591 
852	 0.210214263004815 
853	 0.210152069193107 
854	 0.210117212073109 
855	 0.210217284237617 
856	 0.210271568223954 
857	 0.21027110473421 
858	 0.210254460104159 
859	 0.210262467756152 
860	 0.210296452977738 
861	 0.210321428810537 
862	 0.210308979511725 
863	 0.210316399718972 
864	 0.210378012321619 
865	 0.210454354741276 
866	 0.210473787410239 
867	 0.210482120213735 
868	 0.210529903279951 
869	 0.210594084889269 
870	 0.210590511984654 
871	 0.210657615091549 
872	 0.210758551301654 
873	 0.210860719346314 
874	 0.210987114827031 
875	 0.211087269277725 
876	 0.211125362493334 
877	 0.211127048913087 
878	 0.211257499725401 
879	 0.21143493176641 
880	 0.211562183355245 
881	 0.211589357924401 
882	 0.211676782547433 
883	 0.211783589813463 
884	 0.211902419434222 
885	 0.212041702452439 
886	 0.212185206012781 
887	 0.212314416665643 
888	 0.212421970229686 
889	 0.212515327817252 
890	 0.212637316048782 
891	 0.212774866706121 
892	 0.212910182377477 
893	 0.213035047506433 
894	 0.213258020072496 
895	 0.213449015945502 
896	 0.213551526011761 
897	 0.213721428479311 
898	 0.213994306199805 
899	 0.214213066119745 
900	 0.214291783286752 
901	 0.214476048392517 
902	 0.214610704790214 
903	 0.214778651805084 
904	 0.215061939617927 
905	 0.215238685197491 
906	 0.215441161714753 
907	 0.21568549428898 
908	 0.21593675242807 
909	 0.216232829137844 
910	 0.216466224305795 
911	 0.216621678936195 
912	 0.216768197647387 
913	 0.217034448780601 
914	 0.217332724433332 
915	 0.217615610871499 
916	 0.217891104279937 
917	 0.218140317616124 
918	 0.218367902487144 
919	 0.218577727735523 
920	 0.218775576167976 
921	 0.219082982367589 
922	 0.219444380587308 
923	 0.219784533135472 
924	 0.220057304133235 
925	 0.220307239012699 
926	 0.220576319785984 
927	 0.220879262482569 
928	 0.221181898393145 
929	 0.221544132461349 
930	 0.221944195510093 
931	 0.222337210582056 
932	 0.222684387383197 
933	 0.222985644191614 
934	 0.223292743728894 
935	 0.223643641259417 
936	 0.223997027737964 
937	 0.224277016179753 
938	 0.224572518255002 
939	 0.224966884063557 
940	 0.225313639526559 
941	 0.225721961325589 
942	 0.22617781369934 
943	 0.226617131096435 
944	 0.226999514321853 
945	 0.227319909371573 
946	 0.227677217811434 
947	 0.228144314533932 
948	 0.228473881512992 
949	 0.228886048215822 
950	 0.229326828510804 
951	 0.229666394250691 
952	 0.230183013769865 
953	 0.230630959531504 
954	 0.231026249468548 
955	 0.231506371073329 
956	 0.231927037804691 
957	 0.232311087557368 
958	 0.232677229694441 
959	 0.233051409731341 
960	 0.233530025152058 
961	 0.234046068596052 
962	 0.23454826612443 
963	 0.235010015152489 
964	 0.235423954795291 
965	 0.235922693186813 
966	 0.236477093550944 
967	 0.236963348359705 
968	 0.237441500318621 
969	 0.237902588720036 
970	 0.238323818787562 
971	 0.238708440548657 
972	 0.239245887038669 
973	 0.239821366353192 
974	 0.240397768129408 
975	 0.240983254042606 
976	 0.241433293719314 
977	 0.241859475108109 
978	 0.24231973405238 
979	 0.242820974357968 
980	 0.243391472133463 
981	 0.243934714886142 
982	 0.244472383653518 
983	 0.245063054571774 
984	 0.245510836512607 
985	 0.246009818420697 
986	 0.246639340951576 
987	 0.247314674963049 
988	 0.247621549845698 
989	 0.248017445499572 
990	 0.248557666320677 
991	 0.249089351151943 
992	 0.249697406384145 
993	 0.250214160049375 
994	 0.250713931659828 
995	 0.25131899521583 
996	 0.251866050485503 
997	 0.252286596616175 
998	 0.252743499704954 
999	 0.253370742716875 
1000	 0.253882725088344 
1001	 0.250404453343946 
1002	 0.250858941784594 
1003	 0.25131773460737 
1004	 0.251769836145361 
1005	 0.252221542249666 
1006	 0.252677934961641 
1007	 0.253162736000822 
1008	 0.253589723687591 
1009	 0.25394828197212 
1010	 0.254314382520415 
1011	 0.254678556096916 
1012	 0.255037516616925 
1013	 0.255450467762068 
1014	 0.255916475886031 
1015	 0.256347549317466 
1016	 0.256710994489503 
1017	 0.25710256143546 
1018	 0.257495828700979 
1019	 0.257880620546755 
1020	 0.258244306440772 
1021	 0.258681314467105 
1022	 0.259097600323257 
1023	 0.259437599688375 
1024	 0.259814946245716 
1025	 0.260150586341955 
1026	 0.260464802920106 
1027	 0.260800392988285 
1028	 0.261115429176464 
1029	 0.261470305064507 
1030	 0.261826953467535 
1031	 0.262188974041506 
1032	 0.262574645588077 
1033	 0.262940328017839 
1034	 0.263252812520648 
1035	 0.263595634994286 
1036	 0.263893250880254 
1037	 0.264179143921992 
1038	 0.264559446759094 
1039	 0.264903402569059 
1040	 0.265183450155768 
1041	 0.265532862454616 
1042	 0.265886142591717 
1043	 0.266217861527237 
1044	 0.266552506085485 
1045	 0.266942003219762 
1046	 0.267260426467875 
1047	 0.26751565754082 
1048	 0.267825065266107 
1049	 0.268174994513767 
1050	 0.268555125522969 
1051	 0.268944896251133 
1052	 0.269294852473065 
1053	 0.269597944789178 
1054	 0.26991544744992 
1055	 0.27026625259895 
1056	 0.270586444276926 
1057	 0.270925216871746 
1058	 0.271289981161076 
1059	 0.271636342682561 
1060	 0.271963098199097 
1061	 0.272335979217954 
1062	 0.272665021100536 
1063	 0.272970225877924 
1064	 0.273302910456701 
1065	 0.273608718325893 
1066	 0.273943210626091 
1067	 0.27429551042285 
1068	 0.274616463090365 
1069	 0.274918878408924 
1070	 0.275216940039396 
1071	 0.275512975476413 
1072	 0.275782260654099 
1073	 0.276038653570282 
1074	 0.276273612633586 
1075	 0.276461286429766 
1076	 0.276668715609578 
1077	 0.276936699792825 
1078	 0.277222576682761 
1079	 0.27753189057348 
1080	 0.277811917691519 
1081	 0.277981705853142 
1082	 0.278172757205685 
1083	 0.278433339307643 
1084	 0.278737185788553 
1085	 0.279003455582969 
1086	 0.279339036050984 
1087	 0.279590545644757 
1088	 0.279771335869596 
1089	 0.279960372275496 
1090	 0.280173931250236 
1091	 0.280376643295945 
1092	 0.280566604821373 
1093	 0.280784816119518 
1094	 0.280988349278218 
1095	 0.28117765120458 
1096	 0.281392843107368 
1097	 0.28157895907254 
1098	 0.281792819400223 
1099	 0.282030083873969 
1100	 0.28225561179764 
1101	 0.282504743515424 
1102	 0.282708141091565 
1103	 0.282881998832389 
1104	 0.2830523022942 
1105	 0.283214800246894 
1106	 0.283423621057382 
1107	 0.283656868097404 
1108	 0.283849892058961 
1109	 0.284043535633279 
1110	 0.284224181918691 
1111	 0.284419246168995 
1112	 0.284627591300651 
1113	 0.284823520889812 
1114	 0.285021699718323 
1115	 0.285215846537096 
1116	 0.285385200358856 
1117	 0.285576605226915 
1118	 0.285775686527877 
1119	 0.285976018106857 
1120	 0.28621479527357 
1121	 0.28648163174667 
1122	 0.286703720729616 
1123	 0.286893196752951 
1124	 0.287104352909336 
1125	 0.28729973011278 
1126	 0.287485140605426 
1127	 0.287682153739808 
1128	 0.287874692016352 
1129	 0.28803229717426 
1130	 0.288208960141333 
1131	 0.288416355241452 
1132	 0.288604590567872 
1133	 0.288773342886202 
1134	 0.288953127203715 
1135	 0.28913376677593 
1136	 0.289314313816052 
1137	 0.289513029355514 
1138	 0.2896967784851 
1139	 0.289884679514357 
1140	 0.290080865780012 
1141	 0.290261463133286 
1142	 0.290440020955667 
1143	 0.290608300729762 
1144	 0.290764176971632 
1145	 0.290915229790244 
1146	 0.291057996825803 
1147	 0.291195062013693 
1148	 0.291324465159299 
1149	 0.291454614226968 
1150	 0.291574303800849 
1151	 0.291702824114037 
1152	 0.291841762410164 
1153	 0.291980539841652 
1154	 0.292114737832702 
1155	 0.292242061301755 
1156	 0.292394632723199 
1157	 0.292563687656724 
1158	 0.292708859318494 
1159	 0.292865021364567 
1160	 0.293012712543756 
1161	 0.293143206763619 
1162	 0.293268915299918 
1163	 0.293386982817889 
1164	 0.293515846693551 
1165	 0.293626579769407 
1166	 0.293758202547157 
1167	 0.293904382168369 
1168	 0.294086270384701 
1169	 0.294239407779875 
1170	 0.294393932200773 
1171	 0.294535395506001 
1172	 0.29465913833129 
1173	 0.294799399797969 
1174	 0.294941248190166 
1175	 0.295085559789056 
1176	 0.295252979441945 
1177	 0.295387797861737 
1178	 0.29548962948743 
1179	 0.295620973892109 
1180	 0.295756548378666 
1181	 0.295884655258532 
1182	 0.296027327241175 
1183	 0.296174062321157 
1184	 0.296297774042707 
1185	 0.296391844065918 
1186	 0.296513228515229 
1187	 0.296642602499118 
1188	 0.29676422847939 
1189	 0.296891052674542 
1190	 0.297012533130759 
1191	 0.297115184000008 
1192	 0.29724201726545 
1193	 0.297397127728966 
1194	 0.29752400260402 
1195	 0.297645275619017 
1196	 0.297768845432459 
1197	 0.297865634273317 
1198	 0.297980540404631 
1199	 0.298104913918629 
1200	 0.29825112779386 
1201	 0.298374867075486 
1202	 0.298492260016373 
1203	 0.298619321513816 
1204	 0.298746711556226 
1205	 0.298867672685818 
1206	 0.298999586718884 
1207	 0.299115278393902 
1208	 0.299211873682882 
1209	 0.299316231649706 
1210	 0.299418564346298 
1211	 0.299522111534419 
1212	 0.29961839958097 
1213	 0.299727188897016 
1214	 0.299852910381446 
1215	 0.29996504901194 
1216	 0.300074867989497 
1217	 0.300193011720998 
1218	 0.300292177434267 
1219	 0.300366555431457 
1220	 0.30046692304953 
1221	 0.30057597568035 
1222	 0.300676601902396 
1223	 0.300787380179116 
1224	 0.300887130935527 
1225	 0.300967350629435 
1226	 0.301064307009959 
1227	 0.301168091986924 
1228	 0.301272725916475 
1229	 0.301392077162781 
1230	 0.301497449722658 
1231	 0.301592150869515 
1232	 0.301692163059164 
1233	 0.301791316094042 
1234	 0.301888550586258 
1235	 0.301978349572763 
1236	 0.302069720576325 
1237	 0.302156724963889 
1238	 0.302233801519534 
1239	 0.302310716175393 
1240	 0.302388064766948 
1241	 0.302463618915579 
1242	 0.302526430817625 
1243	 0.302604285717244 
1244	 0.30268904455057 
1245	 0.302777300557881 
1246	 0.3028778175736 
1247	 0.30297147053211 
1248	 0.303066918402336 
1249	 0.303160818426999 
1250	 0.303249053155936 
1251	 0.303329404285716 
1252	 0.30340929509421 
1253	 0.303480697433652 
1254	 0.30356314657288 
1255	 0.303648569672201 
1256	 0.303733426537783 
1257	 0.3038293556006 
1258	 0.303908212473623 
1259	 0.303983467969253 
1260	 0.304047537678559 
1261	 0.30409707506061 
1262	 0.304147755593196 
1263	 0.30418408214517 
1264	 0.304231910888492 
1265	 0.304276718805183 
1266	 0.304333575807102 
1267	 0.304404507227013 
1268	 0.304475600153319 
1269	 0.304545518292923 
1270	 0.304615602748001 
1271	 0.304700119968645 
1272	 0.304789267425771 
1273	 0.304879633916325 
1274	 0.304982084736557 
1275	 0.305081508929333 
1276	 0.305173959940866 
1277	 0.305281172472853 
1278	 0.30539493063166 
1279	 0.305517317782933 
1280	 0.305660262370732 
1281	 0.30578570675756 
1282	 0.305912491677274 
1283	 0.306037174617985 
1284	 0.306161042939576 
1285	 0.306260492428302 
1286	 0.306370839997493 
1287	 0.306496921094681 
1288	 0.306617198453057 
1289	 0.306738887080347 
1290	 0.306854880448665 
1291	 0.306967809579862 
1292	 0.307089785569062 
1293	 0.307224984824577 
1294	 0.307330297959997 
1295	 0.307437724624097 
1296	 0.307517866806258 
1297	 0.307548645259976 
1298	 0.307610655490615 
1299	 0.30768464506161 
1300	 0.307744014960159 
1301	 0.307820318035456 
1302	 0.307866820379486 
1303	 0.307880658701304 
1304	 0.307896225768378 
1305	 0.307934603531194 
1306	 0.30795033042281 
1307	 0.307954926122711 
1308	 0.307945596638435 
1309	 0.307920512722404 
1310	 0.307848944762446 
1311	 0.307814239181203 
1312	 0.307792629850138 
1313	 0.307764523786624 
1314	 0.307742969940496 
1315	 0.307712398960542 
1316	 0.30767506480391 
1317	 0.307636137322174 
1318	 0.307587315306704 
1319	 0.30755154418035 
1320	 0.307524625251894 
1321	 0.307493428574924 
1322	 0.307471716406566 
1323	 0.30743682681505 
1324	 0.30740102442559 
1325	 0.30737464614609 
1326	 0.307357125524656 
1327	 0.307324317876371 
1328	 0.307279955716098 
1329	 0.30723459002519 
1330	 0.307179858995429 
1331	 0.307116914055513 
1332	 0.307049085437178 
1333	 0.306970600683006 
1334	 0.306898165353465 
1335	 0.306806374603287 
1336	 0.306745310523989 
1337	 0.30669810681631 
1338	 0.306662921138277 
1339	 0.306664991240018 
1340	 0.306634981860623 
1341	 0.30660363511089 
1342	 0.306560531523326 
1343	 0.306488046822109 
1344	 0.306427993982777 
1345	 0.306395514087368 
1346	 0.306351662237275 
1347	 0.306310110235746 
1348	 0.306276820914892 
1349	 0.306204958345799 
1350	 0.306139848925457 
1351	 0.306091883092276 
1352	 0.30604559158717 
1353	 0.30600304360239 
1354	 0.305989906251753 
1355	 0.305943046869835 
1356	 0.305876929488066 
1357	 0.305822749200541 
1358	 0.305755394240362 
1359	 0.305696836484843 
1360	 0.305635740102667 
1361	 0.305596846204527 
1362	 0.305587422081711 
1363	 0.305552839702788 
1364	 0.305523140525006 
1365	 0.30548494402502 
1366	 0.305419938403651 
1367	 0.305361862201389 
1368	 0.305341221494217 
1369	 0.305314366515587 
1370	 0.305251911294767 
1371	 0.30517865421748 
1372	 0.305064821552107 
1373	 0.304923900637247 
1374	 0.304788754950162 
1375	 0.304653766726354 
1376	 0.304488331337257 
1377	 0.304316739148902 
1378	 0.304109507593826 
1379	 0.303871684015309 
1380	 0.303627060207597 
1381	 0.303352854745105 
1382	 0.3030742150049 
1383	 0.302813343556012 
1384	 0.302488313155955 
1385	 0.302147378083667 
1386	 0.301757304173088 
1387	 0.301315492169449 
1388	 0.300836021467533 
1389	 0.300324414228968 
1390	 0.299765511624655 
1391	 0.299166070559434 
1392	 0.298515331072206 
1393	 0.297816609389386 
1394	 0.297089911203234 
1395	 0.296281157573894 
1396	 0.295469793200652 
1397	 0.294675479455992 
1398	 0.293857868995675 
1399	 0.293051380040114 
1400	 0.292269499654444 
1401	 0.291465988415053 
1402	 0.290625678927833 
1403	 0.289840570738924 
1404	 0.289059193741713 
1405	 0.28832876358615 
1406	 0.287637818661339 
1407	 0.286965634625623 
1408	 0.286303216568932 
1409	 0.285705971495483 
1410	 0.285105277286168 
1411	 0.284626082978405 
1412	 0.284204536323718 
1413	 0.283899664071113 
1414	 0.283729841470449 
1415	 0.283627075846518 
1416	 0.283637694364383 
1417	 0.283716946592762 
1418	 0.283819991938642 
1419	 0.283964297836103 
1420	 0.284107714029289 
1421	 0.284225147267827 
1422	 0.284329346561231 
1423	 0.28440825428722 
1424	 0.284440774221103 
1425	 0.284435042316574 
1426	 0.284416437084418 
1427	 0.284338029920169 
1428	 0.28429935815378 
1429	 0.284265467185381 
1430	 0.284226608817315 
1431	 0.284202303167122 
1432	 0.28415450106039 
1433	 0.284080146735749 
1434	 0.284026078072747 
1435	 0.28395970922482 
1436	 0.283923815710659 
1437	 0.283910159404724 
1438	 0.283901811219964 
1439	 0.283909045940805 
1440	 0.283927937336456 
1441	 0.283935317351112 
1442	 0.283942615650279 
1443	 0.283951662788359 
1444	 0.283934574914622 
1445	 0.283915498288026 
1446	 0.283900285832256 
1447	 0.283884734383759 
1448	 0.283874631533101 
1449	 0.283855414024447 
1450	 0.283842768119791 
1451	 0.283841152091461 
1452	 0.283843766023586 
1453	 0.283838142717787 
1454	 0.283845824347399 
1455	 0.283843173367754 
1456	 0.283821186679894 
1457	 0.283812809857604 
1458	 0.283814792431861 
1459	 0.283812428188675 
1460	 0.283798721169025 
1461	 0.283808665487554 
1462	 0.283822296209212 
1463	 0.283853993040671 
1464	 0.283922299417004 
1465	 0.28396665247161 
1466	 0.283995697239667 
1467	 0.284049918171479 
1468	 0.284086849967525 
1469	 0.28416288125709 
1470	 0.284269517016747 
1471	 0.284404900868363 
1472	 0.284563584340311 
1473	 0.284722265740973 
1474	 0.284868959549686 
1475	 0.285026496846701 
1476	 0.285154782599357 
1477	 0.285285371853146 
1478	 0.285440132833524 
1479	 0.285595781485995 
1480	 0.285780695599059 
1481	 0.285978019973112 
1482	 0.286157139091286 
1483	 0.286333025156898 
1484	 0.286515628133506 
1485	 0.28669341570651 
1486	 0.286869614909289 
1487	 0.287051827332164 
1488	 0.287235412686464 
1489	 0.287416430882955 
1490	 0.287589323483614 
1491	 0.287772448018943 
1492	 0.287937050528644 
1493	 0.288079746942214 
1494	 0.288228945759941 
1495	 0.288372365553409 
1496	 0.288520453095363 
1497	 0.288671951925565 
1498	 0.288816410351344 
1499	 0.288964910452002 
1500	 0.289102361586317 
1501	 0.289220768297777 
1502	 0.289354392277422 
1503	 0.289496186285367 
1504	 0.28962349040528 
1505	 0.289768346336084 
1506	 0.28990332661969 
1507	 0.290008003685111 
1508	 0.290139023514789 
1509	 0.290270898238436 
1510	 0.290383294922785 
1511	 0.290497316992147 
1512	 0.290602165424423 
1513	 0.290708553975773 
1514	 0.290822779945382 
1515	 0.290937386217537 
1516	 0.291061389596636 
1517	 0.291170814260896 
1518	 0.29126426140039 
1519	 0.291368100132518 
1520	 0.291473815020278 
1521	 0.29157573210339 
1522	 0.291674835219005 
1523	 0.291783611312936 
1524	 0.291899922435809 
1525	 0.292002421538718 
1526	 0.292108002481319 
1527	 0.292205015296948 
1528	 0.292282060744161 
1529	 0.292373351704735 
1530	 0.292474433185501 
1531	 0.292564143333048 
1532	 0.292647520286827 
1533	 0.292739173639813 
1534	 0.292830462163785 
1535	 0.292920543341143 
1536	 0.293022899630532 
1537	 0.29311197322396 
1538	 0.293186762540125 
1539	 0.293267656633145 
1540	 0.293344427936166 
1541	 0.293421269459378 
1542	 0.293503159848553 
1543	 0.293580793473993 
1544	 0.293656866341649 
1545	 0.29373263953655 
1546	 0.293807591532861 
1547	 0.293878135165797 
1548	 0.293947052329613 
1549	 0.294006707541055 
1550	 0.294054603202405 
1551	 0.294097190972254 
1552	 0.294147637553623 
1553	 0.294203365885039 
1554	 0.294271620650485 
1555	 0.294338771213799 
1556	 0.294389564914469 
1557	 0.294439781152081 
1558	 0.294494516388666 
1559	 0.294549144185431 
1560	 0.294605327327023 
1561	 0.294665682741559 
1562	 0.294732636474029 
1563	 0.294800391591541 
1564	 0.294869269794211 
1565	 0.294954570837205 
1566	 0.295015629262668 
1567	 0.295060721730907 
1568	 0.295117837264422 
1569	 0.295172203490077 
1570	 0.295219513351645 
1571	 0.295269200943499 
1572	 0.295317313190427 
1573	 0.295356755967085 
1574	 0.295398014552339 
1575	 0.295447295572454 
1576	 0.295485223436143 
1577	 0.295510496949867 
1578	 0.295539585628096 
1579	 0.295558604882783 
1580	 0.295595249875027 
1581	 0.295639731648814 
1582	 0.295689724080543 
1583	 0.295764951795391 
1584	 0.295813894719328 
1585	 0.29584949279905 
1586	 0.295886775499703 
1587	 0.295916516985758 
1588	 0.295945318281862 
1589	 0.295976294663319 
1590	 0.296000574138196 
1591	 0.296010503385886 
1592	 0.296027696458935 
1593	 0.296036417814177 
1594	 0.296063911214517 
1595	 0.296111516797801 
1596	 0.296148921392901 
1597	 0.296202676905065 
1598	 0.29623865992308 
1599	 0.296260241489597 
1600	 0.296275850187229 
1601	 0.296272514392606 
1602	 0.296282028488102 
1603	 0.296288209653179 
1604	 0.296300388583785 
1605	 0.296325482446739 
1606	 0.296349076501574 
1607	 0.296370072958929 
1608	 0.296396212958866 
1609	 0.296443553410496 
1610	 0.296478262757582 
1611	 0.296491465061402 
1612	 0.296497969524961 
1613	 0.296480385588703 
1614	 0.296464128871519 
1615	 0.296469197216573 
1616	 0.296486689115112 
1617	 0.296510474332129 
1618	 0.296527375588888 
1619	 0.296556262599944 
1620	 0.296582425997729 
1621	 0.296601369125401 
1622	 0.2966254221666 
1623	 0.29662847326225 
1624	 0.2966148762275 
1625	 0.29660484304863 
1626	 0.296586732737742 
1627	 0.296566587898248 
1628	 0.296531649701886 
1629	 0.296538222786704 
1630	 0.296553634351332 
1631	 0.296581928477286 
1632	 0.296660176313832 
1633	 0.29667480508975 
1634	 0.296667776747731 
1635	 0.296654584146919 
1636	 0.296611149496804 
1637	 0.296583248392925 
1638	 0.296552295153796 
1639	 0.296530055885298 
1640	 0.29649238724783 
1641	 0.296504783967773 
1642	 0.296554681803301 
1643	 0.296581051038656 
1644	 0.296632904826282 
1645	 0.296662061344574 
1646	 0.296670687231271 
1647	 0.29667935944882 
1648	 0.296696500922837 
1649	 0.296689379454465 
1650	 0.296652869409524 
1651	 0.296635241909072 
1652	 0.296613302224346 
1653	 0.296599774932901 
1654	 0.296601047979299 
1655	 0.296585376069219 
1656	 0.296569078033769 
1657	 0.296538807701068 
1658	 0.296491929716417 
1659	 0.296452231711079 
1660	 0.296405385739614 
1661	 0.296364354387424 
1662	 0.296319742326365 
1663	 0.296292380944343 
1664	 0.296270147863473 
1665	 0.296258746198354 
1666	 0.296271187468168 
1667	 0.296268102244472 
1668	 0.296275117554987 
1669	 0.296254906990997 
1670	 0.29621642190146 
1671	 0.296179795105944 
1672	 0.296114366434861 
1673	 0.296082562267607 
1674	 0.296067145955003 
1675	 0.296051225040108 
1676	 0.296052872916601 
1677	 0.296044588810212 
1678	 0.296029385799462 
1679	 0.296023087463409 
1680	 0.296029409542405 
1681	 0.296017107672388 
1682	 0.296000452969637 
1683	 0.295980136263663 
1684	 0.29593582729277 
1685	 0.295917516250055 
1686	 0.295920092497689 
1687	 0.295905172835521 
1688	 0.295900965823545 
1689	 0.295872366741641 
1690	 0.295814635422602 
1691	 0.295775161175932 
1692	 0.295731116122861 
1693	 0.295695518132902 
1694	 0.295666637571476 
1695	 0.295643598923343 
1696	 0.29561505295222 
1697	 0.29561261815754 
1698	 0.295646513376608 
1699	 0.29564643679725 
1700	 0.295660711031373 
1701	 0.295633811242293 
1702	 0.295558762666844 
1703	 0.295505142465439 
1704	 0.295447905074197 
1705	 0.29538142860434 
1706	 0.295309650970125 
1707	 0.295247033427172 
1708	 0.295176931688166 
1709	 0.295108628659027 
1710	 0.295051725281709 
1711	 0.294990801815185 
1712	 0.294916074097466 
1713	 0.294859543918669 
1714	 0.294823690723186 
1715	 0.294766234655834 
1716	 0.294688853134898 
1717	 0.294646004761854 
1718	 0.294616651116031 
1719	 0.294579802981919 
1720	 0.294570016648784 
1721	 0.294539931258865 
1722	 0.294487965625209 
1723	 0.294438551027986 
1724	 0.294392907117729 
1725	 0.294335809996501 
1726	 0.294269414017918 
1727	 0.294204090564131 
1728	 0.294128331560092 
1729	 0.294071880745871 
1730	 0.294025901541874 
1731	 0.293956429615797 
1732	 0.293895674507547 
1733	 0.293815848794654 
1734	 0.293703972907221 
1735	 0.293610711525156 
1736	 0.293523243658473 
1737	 0.293428348403292 
1738	 0.293339875700163 
1739	 0.293234756183758 
1740	 0.293111196480887 
1741	 0.293010743004523 
1742	 0.292904487349116 
1743	 0.29281156010872 
1744	 0.29274291143722 
1745	 0.292644541793794 
1746	 0.292531111969297 
1747	 0.292423943077275 
1748	 0.292348333673617 
1749	 0.292303606674655 
1750	 0.292256567935599 
1751	 0.292207820069206 
1752	 0.292128777218672 
1753	 0.292013646600331 
1754	 0.291904240778472 
1755	 0.291778171252252 
1756	 0.29164565481621 
1757	 0.291538596647419 
1758	 0.291433157795236 
1759	 0.291341256226677 
1760	 0.291266277331434 
1761	 0.291184711436317 
1762	 0.291082571584632 
1763	 0.290936660347748 
1764	 0.290791644519158 
1765	 0.290673512818651 
1766	 0.290543392723956 
1767	 0.290452914945104 
1768	 0.290388208104786 
1769	 0.290289394006643 
1770	 0.290214180217953 
1771	 0.290159488009154 
1772	 0.290087776715733 
1773	 0.290013388623012 
1774	 0.289960876328444 
1775	 0.289909588637973 
1776	 0.28983209088234 
1777	 0.289787338301475 
1778	 0.289735593159301 
1779	 0.289655954394837 
1780	 0.289608068581725 
1781	 0.289537972972749 
1782	 0.289444407190586 
1783	 0.289354958991939 
1784	 0.289305329300032 
1785	 0.289307403437925 
1786	 0.289287144804421 
1787	 0.289294211768035 
1788	 0.289257512751179 
1789	 0.289175350345846 
1790	 0.289112589363096 
1791	 0.289034766505923 
1792	 0.288966675497993 
1793	 0.288907796497458 
1794	 0.288879218199859 
1795	 0.288856018329776 
1796	 0.288839542894363 
1797	 0.288853749866484 
1798	 0.288846088607049 
1799	 0.288841890757479 
1800	 0.288827894097723 
1801	 0.28738609169084 
1802	 0.287582672314439 
1803	 0.28777983353638 
1804	 0.288014948375673 
1805	 0.288297139427917 
1806	 0.288541310452374 
1807	 0.288757927478715 
1808	 0.288940475490952 
1809	 0.289073169093952 
1810	 0.289214308158701 
1811	 0.289352774602583 
1812	 0.28945682535646 
1813	 0.289547784986985 
1814	 0.289591547761078 
1815	 0.289571553665208 
1816	 0.289550962063139 
1817	 0.289549736236848 
1818	 0.289537491581059 
1819	 0.289543752829991 
1820	 0.289553780014757 
1821	 0.289593880876548 
1822	 0.289686357907723 
1823	 0.28972125087327 
1824	 0.289767923004224 
1825	 0.289794539476663 
1826	 0.289757149031116 
1827	 0.289782904550775 
1828	 0.289765353760581 
1829	 0.289740418793984 
1830	 0.289693992384909 
1831	 0.289629165516782 
1832	 0.28951795355207 
1833	 0.28944674722524 
1834	 0.289404350864239 
1835	 0.28937459158331 
1836	 0.289336913817483 
1837	 0.289259054208109 
1838	 0.289202037813164 
1839	 0.28915314611062 
1840	 0.289118067648865 
1841	 0.289056097701689 
1842	 0.289003569999558 
1843	 0.288942247512112 
1844	 0.288849279634801 
1845	 0.288765807251428 
1846	 0.288682762907043 
1847	 0.288609946523646 
1848	 0.288562106967626 
1849	 0.288516290772145 
1850	 0.288460641070481 
1851	 0.288411518989323 
1852	 0.288356924703853 
1853	 0.288288359456479 
1854	 0.288203767027336 
1855	 0.288135502323741 
1856	 0.288037081858814 
1857	 0.287883373734366 
1858	 0.287720394381366 
1859	 0.28754888163929 
1860	 0.287347083411228 
1861	 0.287122825688363 
1862	 0.28688029482432 
1863	 0.286607934920943 
1864	 0.286305741312038 
1865	 0.286013747906322 
1866	 0.285699594228707 
1867	 0.285357942501831 
1868	 0.284990491189153 
1869	 0.28457225032489 
1870	 0.284128912111656 
1871	 0.28364968327496 
1872	 0.283145819634976 
1873	 0.282613729053153 
1874	 0.282039412379273 
1875	 0.281428832292158 
1876	 0.280781724499684 
1877	 0.280052106777918 
1878	 0.279227979486461 
1879	 0.278333564415207 
1880	 0.277377199838647 
1881	 0.276352831686974 
1882	 0.275243523344867 
1883	 0.274076613001409 
1884	 0.272806892560294 
1885	 0.271440666351735 
1886	 0.270006837584591 
1887	 0.268463657065459 
1888	 0.266843175641988 
1889	 0.265147447621053 
1890	 0.263377512466058 
1891	 0.261596312509387 
1892	 0.25975418519513 
1893	 0.25791222746999 
1894	 0.256043511844117 
1895	 0.254175536216333 
1896	 0.252256303317976 
1897	 0.250327101926219 
1898	 0.248391578091477 
1899	 0.246482506512668 
1900	 0.244659998041916 
1901	 0.242880256007324 
1902	 0.241173731329857 
1903	 0.239553109565569 
1904	 0.237980330333954 
1905	 0.236444150502644 
1906	 0.235015558622003 
1907	 0.2336556971378 
1908	 0.232343052276318 
1909	 0.231114669201026 
1910	 0.229952328737506 
1911	 0.22887874859641 
1912	 0.227860313357258 
1913	 0.226883587680166 
1914	 0.225957027142892 
1915	 0.225095554984913 
1916	 0.224276691201073 
1917	 0.223524912450601 
1918	 0.22285916683353 
1919	 0.222213992138754 
1920	 0.22161278866857 
1921	 0.221086101784716 
1922	 0.220611927473847 
1923	 0.220202218161288 
1924	 0.219835804075396 
1925	 0.219547147757338 
1926	 0.219261886376618 
1927	 0.218991554805873 
1928	 0.218788835936742 
1929	 0.21862862866744 
1930	 0.218501290791566 
1931	 0.218426514838305 
1932	 0.218369368916363 
1933	 0.218333405693427 
1934	 0.218333791212399 
1935	 0.218366109695584 
1936	 0.218438731113755 
1937	 0.218530531360033 
1938	 0.218662991311104 
1939	 0.218797715816529 
1940	 0.218946549738755 
1941	 0.219117454516467 
1942	 0.219297386348638 
1943	 0.219498985155808 
1944	 0.219743055471972 
1945	 0.220007687346477 
1946	 0.220276230503361 
1947	 0.22057835191296 
1948	 0.220859295916869 
1949	 0.221113879398953 
1950	 0.221410955776776 
1951	 0.221718104827575 
1952	 0.222047412165884 
1953	 0.222404859824083 
1954	 0.222783108489666 
1955	 0.223154348970539 
1956	 0.223535395367802 
1957	 0.223913461272862 
1958	 0.224295708457805 
1959	 0.224681851704835 
1960	 0.22505843083555 
1961	 0.225452394466708 
1962	 0.225855317590406 
1963	 0.226270419104277 
1964	 0.226689169308006 
1965	 0.227142882604463 
1966	 0.227601983204634 
1967	 0.228045383880673 
1968	 0.228498391126266 
1969	 0.228956281384308 
1970	 0.229410976005674 
1971	 0.229863128941337 
1972	 0.230333396749517 
1973	 0.230814912358129 
1974	 0.231291369398004 
1975	 0.231792154893784 
1976	 0.232257643763071 
1977	 0.232722472003038 
1978	 0.233186433933354 
1979	 0.233627503950776 
1980	 0.234085924048497 
1981	 0.234523325061166 
1982	 0.234930391038745 
1983	 0.235367856558149 
1984	 0.235801320137439 
1985	 0.236252932914686 
1986	 0.236737831007417 
1987	 0.237209087103286 
1988	 0.237676056066594 
1989	 0.238154100764691 
1990	 0.238644460670001 
1991	 0.239123501762654 
1992	 0.239607896867873 
1993	 0.240115069479309 
1994	 0.240588264053603 
1995	 0.241048729800851 
1996	 0.241501515877474 
1997	 0.241924807781493 
1998	 0.242364713457722 
1999	 0.242795618144732 
2000	 0.243242052141652 
2001	 0.243699484368984 
2002	 0.244171685457556 
2003	 0.244638550311548 
2004	 0.245088052408052 
2005	 0.245531945376211 
2006	 0.245962763319957 
2007	 0.24639402055922 
2008	 0.246817702478435 
2009	 0.247242418182249 
2010	 0.247670617848232 
2011	 0.248082395786242 
2012	 0.248489000097168 
2013	 0.248888002473744 
2014	 0.249273932704792 
2015	 0.249650714340373 
2016	 0.250021506437905 
2017	 0.25039557211296 
2018	 0.250785101682545 
2019	 0.251183678145897 
2020	 0.251577485616523 
2021	 0.251992525985937 
2022	 0.252384118740572 
2023	 0.252744836588816 
2024	 0.253134356644797 
2025	 0.253539769582615 
2026	 0.253931519535408 
2027	 0.254335632660667 
2028	 0.254723826825912 
2029	 0.25512095953044 
2030	 0.255517049286149 
2031	 0.255896379903235 
2032	 0.256279529656415 
2033	 0.256651593253527 
2034	 0.257004622747391 
2035	 0.257345197155198 
2036	 0.25768735005865 
2037	 0.258014342985871 
2038	 0.258328130711635 
2039	 0.258617209397269 
2040	 0.258889773916866 
2041	 0.25914356228079 
2042	 0.259391813847779 
2043	 0.259661325304378 
2044	 0.259931261914374 
2045	 0.260219435053749 
2046	 0.260509616058785 
2047	 0.260806147784251 
2048	 0.261089423290975 
2049	 0.261399724466716 
2050	 0.261668024310204 
2051	 0.261901414505832 
2052	 0.262134047625237 
2053	 0.262333816652585 
2054	 0.262553789607616 
2055	 0.262780777603454 
2056	 0.263002567784776 
2057	 0.263225226115371 
2058	 0.263454072688902 
2059	 0.263684847985019 
2060	 0.263909539754296 
2061	 0.264140870792732 
2062	 0.264395418867026 
2063	 0.264622611818441 
2064	 0.264838991117112 
2065	 0.265049152450165 
2066	 0.265244685142358 
2067	 0.265437368717382 
2068	 0.26561841786446 
2069	 0.265802639418756 
2070	 0.265993051135298 
2071	 0.266184325615676 
2072	 0.266372828198283 
2073	 0.266571547621324 
2074	 0.266755862885223 
2075	 0.266915484136012 
2076	 0.267107278249488 
2077	 0.267319475195572 
2078	 0.26751238809444 
2079	 0.267711392821851 
2080	 0.267909343355418 
2081	 0.268086492408389 
2082	 0.268276771459491 
2083	 0.268476011368002 
2084	 0.268687624955982 
2085	 0.268895575517575 
2086	 0.269112610929324 
2087	 0.269307704281896 
2088	 0.26950330665843 
2089	 0.269682005709117 
2090	 0.269839346125479 
2091	 0.26999379152081 
2092	 0.270136168803093 
2093	 0.2702844049641 
2094	 0.270410549011064 
2095	 0.27056446646068 
2096	 0.27074927221959 
2097	 0.270913170896496 
2098	 0.271077278267592 
2099	 0.271240166693601 
2100	 0.271409103525807 
2101	 0.271565843097158 
2102	 0.271737011089172 
2103	 0.271931584991554 
2104	 0.27210380867751 
2105	 0.272253506565194 
2106	 0.272431641910779 
2107	 0.272620547836201 
2108	 0.272805490302315 
2109	 0.2730053191214 
2110	 0.273200366996911 
2111	 0.273378310755067 
2112	 0.273575910891572 
2113	 0.273786896058838 
2114	 0.274009213080717 
2115	 0.274212231123227 
2116	 0.274420452184192 
2117	 0.274610862769879 
2118	 0.274780567918355 
2119	 0.274959332929112 
2120	 0.275127928828137 
2121	 0.275314977338467 
2122	 0.275522984581795 
2123	 0.275703961558872 
2124	 0.275904256597284 
2125	 0.276059237954041 
2126	 0.276167078128459 
2127	 0.276282387551409 
2128	 0.27637136467338 
2129	 0.276467761243564 
2130	 0.27656458749614 
2131	 0.276665337805974 
2132	 0.276755037776805 
2133	 0.276846763257565 
2134	 0.276917987859907 
2135	 0.276980862521321 
2136	 0.277027447606154 
2137	 0.27705794812575 
2138	 0.27707657208977 
2139	 0.277097169627448 
2140	 0.27707543433263 
2141	 0.277017320433016 
2142	 0.27695811900985 
2143	 0.276868080819487 
2144	 0.276776005489416 
2145	 0.276684239717633 
2146	 0.276579824929558 
2147	 0.276462460513239 
2148	 0.276334348317448 
2149	 0.276188356056638 
2150	 0.276027267517073 
2151	 0.275861983057464 
2152	 0.275668544343823 
2153	 0.275498120886954 
2154	 0.2753580708565 
2155	 0.275162548112106 
2156	 0.274952336216365 
2157	 0.274727329581778 
2158	 0.274475601193665 
2159	 0.274196229971075 
2160	 0.273888125830405 
2161	 0.273587010171505 
2162	 0.273225010505292 
2163	 0.272914170475021 
2164	 0.272647776253074 
2165	 0.272369472748857 
2166	 0.272110839937196 
2167	 0.271897683514068 
2168	 0.271611450885939 
2169	 0.271304687585605 
2170	 0.270993444033887 
2171	 0.270646220885438 
2172	 0.270298191325936 
2173	 0.26994432524208 
2174	 0.269593136300681 
2175	 0.269235125200863 
2176	 0.268859181067339 
2177	 0.268511969434342 
2178	 0.268102636667362 
2179	 0.267621047043168 
2180	 0.267162163708662 
2181	 0.266699725693793 
2182	 0.266209850487113 
2183	 0.265699313755064 
2184	 0.265193539128514 
2185	 0.264693249071345 
2186	 0.264155761044962 
2187	 0.263663730850872 
2188	 0.263208577189238 
2189	 0.262745955328722 
2190	 0.262270200354656 
2191	 0.261838627217476 
2192	 0.261412690871678 
2193	 0.261042413385971 
2194	 0.260721499382279 
2195	 0.260415499645239 
2196	 0.260151130643182 
2197	 0.259903581346735 
2198	 0.259654917088797 
2199	 0.259461822907751 
2200	 0.259326635483017 
2201	 0.259199779817958 
2202	 0.259092958629371 
2203	 0.259028283974347 
2204	 0.259004138819093 
2205	 0.258984706117942 
2206	 0.259058868259168 
2207	 0.259223589182869 
2208	 0.259376648863222 
2209	 0.259564070510503 
2210	 0.25979989567753 
2211	 0.260068070980983 
2212	 0.260362075901899 
2213	 0.260750233822278 
2214	 0.261073278013705 
2215	 0.261391849684092 
2216	 0.261686848559535 
2217	 0.261952228490324 
2218	 0.262215385640906 
2219	 0.262471505312805 
2220	 0.262710678325832 
2221	 0.262925907398257 
2222	 0.263153676967923 
2223	 0.263364594838711 
2224	 0.263555369494926 
2225	 0.2637268239521 
2226	 0.263896676897019 
2227	 0.264015346494313 
2228	 0.264096174309593 
2229	 0.264163122576791 
2230	 0.264189560459866 
2231	 0.264218513363136 
2232	 0.264238513506943 
2233	 0.264235878714508 
2234	 0.264204799883114 
2235	 0.264187133573744 
2236	 0.264171584951227 
2237	 0.264127436067509 
2238	 0.264062739673896 
2239	 0.264011450151837 
2240	 0.263942344599173 
2241	 0.263873551073979 
2242	 0.263827526943582 
2243	 0.263765519983144 
2244	 0.263700374760565 
2245	 0.263593311437005 
2246	 0.263497113378238 
2247	 0.263415610417223 
2248	 0.263329675580554 
2249	 0.263248908028077 
2250	 0.263147255502205 
2251	 0.263037929517459 
2252	 0.26292457435603 
2253	 0.262777032450951 
2254	 0.262671717306166 
2255	 0.262592384990467 
2256	 0.262502389503606 
2257	 0.262417111452247 
2258	 0.262351157816518 
2259	 0.262281464642636 
2260	 0.262234153321502 
2261	 0.262239170043946 
2262	 0.262196009849722 
2263	 0.262123055667479 
2264	 0.262078785546676 
2265	 0.261989249804472 
2266	 0.261972494511711 
2267	 0.262030185432634 
2268	 0.262075976248953 
2269	 0.262153275196482 
2270	 0.26224316254446 
2271	 0.262312957611626 
2272	 0.262360230314391 
2273	 0.262409860535754 
2274	 0.262441257846884 
2275	 0.262455288587729 
2276	 0.262436483864115 
2277	 0.262453168410076 
2278	 0.262454414721174 
2279	 0.262495769169284 
2280	 0.26257430313768 
2281	 0.262638760036673 
2282	 0.262738058125763 
2283	 0.26279578462479 
2284	 0.262839642443665 
2285	 0.262870902707683 
2286	 0.26285783680723 
2287	 0.262871373824421 
2288	 0.262913861909884 
2289	 0.262915946351006 
2290	 0.262906840192622 
2291	 0.2628834094356 
2292	 0.262821440773444 
2293	 0.262763361691694 
2294	 0.262687071913586 
2295	 0.26263941534732 
2296	 0.262588054817146 
2297	 0.262563051326672 
2298	 0.262550656451702 
2299	 0.262544720931237 
2300	 0.262550947129252 
2301	 0.262498404778736 
2302	 0.262435294670075 
2303	 0.2624114646539 
2304	 0.262367032268978 
2305	 0.262316309197787 
2306	 0.262240562200663 
2307	 0.262162288977308 
2308	 0.262049615814897 
2309	 0.261885742011394 
2310	 0.261744233073051 
2311	 0.261582470773959 
2312	 0.261460097082344 
2313	 0.261363739282785 
2314	 0.261264049844595 
2315	 0.261200838656796 
2316	 0.261088866133279 
2317	 0.260921051980385 
2318	 0.260811213322248 
2319	 0.260728441776638 
2320	 0.260616342732841 
2321	 0.260557632141247 
2322	 0.260421042454712 
2323	 0.260184200521644 
2324	 0.260011961402622 
2325	 0.259831112669913 
2326	 0.259661325355334 
2327	 0.259530382814168 
2328	 0.259387842519994 
2329	 0.259199929434481 
2330	 0.259076897118769 
2331	 0.258981641896673 
2332	 0.258840133115685 
2333	 0.258697498093323 
2334	 0.258567356408857 
2335	 0.25842456986889 
2336	 0.258299548779924 
2337	 0.258174691547725 
2338	 0.25803411608318 
2339	 0.257862788833106 
2340	 0.257649059468111 
2341	 0.257466777315969 
2342	 0.257282076441144 
2343	 0.257077276058749 
2344	 0.256926761133796 
2345	 0.256752255705937 
2346	 0.256565735430414 
2347	 0.256379799247335 
2348	 0.256208728124302 
2349	 0.255997310844902 
2350	 0.255759403889577 
2351	 0.255548199485284 
2352	 0.255313139104924 
2353	 0.255117756809486 
2354	 0.254954375108937 
2355	 0.254769340787469 
2356	 0.25460708443503 
2357	 0.25442493459426 
2358	 0.254220815683182 
2359	 0.254031442908126 
2360	 0.253822266134228 
2361	 0.253637121198495 
2362	 0.253475139011331 
2363	 0.253323418612953 
2364	 0.253208086844821 
2365	 0.253058784565468 
2366	 0.252893645837641 
2367	 0.252725123715611 
2368	 0.252575261029711 
2369	 0.252368953352196 
2370	 0.252124657995507 
2371	 0.251881501810821 
2372	 0.251613530403355 
2373	 0.251312668003841 
2374	 0.251003646530562 
2375	 0.250700089402256 
2376	 0.250429619282931 
2377	 0.250115518375119 
2378	 0.249802680311934 
2379	 0.249523177289576 
2380	 0.249184573575993 
2381	 0.24885892519194 
2382	 0.248590650395538 
2383	 0.248321251890438 
2384	 0.248033297952458 
2385	 0.247750350803788 
2386	 0.247493725026266 
2387	 0.247198206177502 
2388	 0.246830796947551 
2389	 0.246548610916793 
2390	 0.246329542411446 
2391	 0.245992947452841 
2392	 0.245700678402517 
2393	 0.245399761394531 
2394	 0.244907388299222 
2395	 0.244475003790346 
2396	 0.244165424893833 
2397	 0.243833891404343 
2398	 0.243524711127321 
2399	 0.243285673036088 
2400	 0.243012179810848 
2401	 0.242695348064737 
2402	 0.242382424747084 
2403	 0.242034442622514 
2404	 0.241694444803241 
2405	 0.241310315041329 
2406	 0.240913958397925 
2407	 0.240511043583633 
2408	 0.23998144771776 
2409	 0.23944897045733 
2410	 0.238940265489502 
2411	 0.238463036833424 
2412	 0.238118547688847 
2413	 0.237777658059498 
2414	 0.237370310141802 
2415	 0.236951133046226 
2416	 0.236542906779464 
2417	 0.23608948500167 
2418	 0.235664120740371 
2419	 0.235285439184332 
2420	 0.234887137889508 
2421	 0.234455187344729 
2422	 0.234065065019415 
2423	 0.233725275378109 
2424	 0.233296947967603 
2425	 0.232833934133812 
2426	 0.232384699189096 
2427	 0.231915571541981 
2428	 0.231420023077448 
2429	 0.230927954633492 
2430	 0.23039430650281 
2431	 0.2297237007403 
2432	 0.229295066017903 
2433	 0.229060738156652 
2434	 0.228647554179337 
2435	 0.228233852185966 
2436	 0.227821973981645 
2437	 0.227256432713682 
2438	 0.226798635042905 
2439	 0.226510526689555 
2440	 0.226207469845406 
2441	 0.225874956445886 
2442	 0.225504683472037 
2443	 0.225174125910287 
2444	 0.224798162569694 
2445	 0.224336189070129 
2446	 0.223955244176549 
2447	 0.223641688399972 
2448	 0.223280060626087 
2449	 0.222894605150068 
2450	 0.222504599194164 
2451	 0.222112259461763 
2452	 0.221718394177597 
2453	 0.221294518124237 
2454	 0.220920087854533 
2455	 0.220594755388224 
2456	 0.220222495770537 
2457	 0.219812212235374 
2458	 0.219425694078871 
2459	 0.219057441687518 
2460	 0.218700340810161 
2461	 0.218510520625907 
2462	 0.218129127817266 
2463	 0.217481529911307 
2464	 0.216962437159353 
2465	 0.216332421480922 
2466	 0.21578352853859 
2467	 0.215486083181322 
2468	 0.215121219314085 
2469	 0.214657733988199 
2470	 0.214505534664692 
2471	 0.214194716487681 
2472	 0.213883576305083 
2473	 0.213578646728981 
2474	 0.213135599593417 
2475	 0.212834816936897 
2476	 0.212724355707337 
2477	 0.212792271287629 
2478	 0.212626080689004 
2479	 0.212253414808672 
2480	 0.21189615018815 
2481	 0.211464933594836 
2482	 0.211212168805887 
2483	 0.21088419059699 
2484	 0.210493819582766 
2485	 0.210191730577596 
2486	 0.209817359244529 
2487	 0.209600966078402 
2488	 0.209498464344462 
2489	 0.209046493545782 
2490	 0.208729253200188 
2491	 0.208702456626745 
2492	 0.208344011736436 
2493	 0.208073614979857 
2494	 0.20793743237858 
2495	 0.207672135633796 
2496	 0.207566951723505 
2497	 0.207604446363786 
2498	 0.207393954599923 
2499	 0.207102315785846 
2500	 0.206918484871062 
