Wavelength	mm1800002.asd
350	 5.24313234482014E-02 
351	 5.35241654305599E-02 
352	 4.95522928234565E-02 
353	 4.40488873935711E-02 
354	 4.94211198626272E-02 
355	 5.01431770304155E-02 
356	 4.74973939288623E-02 
357	 4.71895724066146E-02 
358	 5.45400820482593E-02 
359	 5.30073977740947E-02 
360	 0.046587677141133 
361	 5.10475732513737E-02 
362	 5.60145265956134E-02 
363	 5.53559845478919E-02 
364	 5.05586746165356E-02 
365	 5.38712239252978E-02 
366	 5.37598853708464E-02 
367	 5.24653019956666E-02 
368	 0.053990795450684 
369	 5.35200333655438E-02 
370	 5.48055955093029E-02 
371	 5.78527763393529E-02 
372	 5.99729178698289E-02 
373	 6.06404073142986E-02 
374	 0.062015202245254 
375	 6.47199986417857E-02 
376	 0.066521008325223 
377	 6.20843909590824E-02 
378	 5.89224571424911E-02 
379	 6.42444901248867E-02 
380	 6.68043187754923E-02 
381	 6.66529866098356E-02 
382	 6.62266656050247E-02 
383	 6.90171366510943E-02 
384	 7.21910833864733E-02 
385	 7.21872082337605E-02 
386	 6.95537536236743E-02 
387	 7.27999688483987E-02 
388	 7.50422531990356E-02 
389	 7.56397685926551E-02 
390	 0.075964382790752 
391	 7.69926433405209E-02 
392	 7.78911936577954E-02 
393	 7.90922375320139E-02 
394	 8.18985560237458E-02 
395	 8.29781876042839E-02 
396	 8.34826743434221E-02 
397	 0.084922678557615 
398	 8.83228816611742E-02 
399	 8.94422977549211E-02 
400	 8.99444563637912E-02 
401	 0.092568000589216 
402	 9.24848057488144E-02 
403	 9.30126056454666E-02 
404	 9.50941774959994E-02 
405	 9.68431300637178E-02 
406	 9.78204319877094E-02 
407	 9.86381708996999E-02 
408	 9.95327285062613E-02 
409	 9.89461215084749E-02 
410	 9.91590036398512E-02 
411	 0.100389618218818 
412	 0.101804969973465 
413	 0.10306965027335 
414	 0.103425955920259 
415	 0.103231057633341 
416	 0.104233222864477 
417	 0.104864817563377 
418	 0.10528947301062 
419	 0.105894027002275 
420	 0.106498265028023 
421	 0.105702937029519 
422	 0.104742681286742 
423	 0.106130413563909 
424	 0.106788119480242 
425	 0.10666292633224 
426	 0.10626773204437 
427	 0.106342003785353 
428	 0.106469559337357 
429	 0.106347370601824 
430	 0.105894313130022 
431	 0.105922842197075 
432	 0.106086457865351 
433	 0.10626380890232 
434	 0.106592190326062 
435	 0.106487568695308 
436	 0.106642080047706 
437	 0.107454898846801 
438	 0.107909349361808 
439	 0.108590507779464 
440	 0.10945150930438 
441	 0.110160080179474 
442	 0.110770668682775 
443	 0.111617072476786 
444	 0.11259733468175 
445	 0.112912747464075 
446	 0.113361092348352 
447	 0.114174673696502 
448	 0.115226689522787 
449	 0.115642961379344 
450	 0.116286210348816 
451	 0.11717415106752 
452	 0.117614057768396 
453	 0.118204559508437 
454	 0.118888439872462 
455	 0.119548437740526 
456	 0.120220332184477 
457	 0.120787394998726 
458	 0.121259796607727 
459	 0.121717239413853 
460	 0.122276539327774 
461	 0.122679678952719 
462	 0.122900128081874 
463	 0.12327314349726 
464	 0.123672758212098 
465	 0.124038938754588 
466	 0.12432935355374 
467	 0.124471497084128 
468	 0.12495301224982 
469	 0.125574975223159 
470	 0.125645860313413 
471	 0.126027971015067 
472	 0.12629841642698 
473	 0.126254373361499 
474	 0.126746916179641 
475	 0.127079666197061 
476	 0.127221750089363 
477	 0.127426169300088 
478	 0.12773980661672 
479	 0.128041546338505 
480	 0.128328394680073 
481	 0.128788952076893 
482	 0.129062654924209 
483	 0.129336102297731 
484	 0.129810817282791 
485	 0.130114976189267 
486	 0.130323079182859 
487	 0.130511164584594 
488	 0.13074248902732 
489	 0.130958019671811 
490	 0.131252151340494 
491	 0.131677512575381 
492	 0.132168005418757 
493	 0.132392602238691 
494	 0.132450212474725 
495	 0.132656495705529 
496	 0.133213235670542 
497	 0.133514686088259 
498	 0.133448933585439 
499	 0.133730408718601 
500	 0.134163281559514 
501	 0.134567084737575 
502	 0.134807487657748 
503	 0.134992111987651 
504	 0.135203802889996 
505	 0.135466772026624 
506	 0.135750336870619 
507	 0.136007828243811 
508	 0.136261760907857 
509	 0.136531892360766 
510	 0.136803356807476 
511	 0.136950864550836 
512	 0.137077093872582 
513	 0.137382901938951 
514	 0.137760271596998 
515	 0.138034385455857 
516	 0.138195532895827 
517	 0.138531898935277 
518	 0.138724831331672 
519	 0.138826939162016 
520	 0.139012757936811 
521	 0.139425500161071 
522	 0.139687791679405 
523	 0.13977723159163 
524	 0.140062747367611 
525	 0.140366678900504 
526	 0.140593022278795 
527	 0.140730175299274 
528	 0.140972436514766 
529	 0.141245737972916 
530	 0.141503414699171 
531	 0.14172154995986 
532	 0.141904739522604 
533	 0.142161703662152 
534	 0.142493786613861 
535	 0.142635662369504 
536	 0.142878378659693 
537	 0.143193774640665 
538	 0.143443656708153 
539	 0.143665051911931 
540	 0.143890298117207 
541	 0.144125065665328 
542	 0.144338339983824 
543	 0.144567681199835 
544	 0.144824828932626 
545	 0.145114114297397 
546	 0.145451995968459 
547	 0.145770396819583 
548	 0.14605338611685 
549	 0.146331448882262 
550	 0.146605167647097 
551	 0.146853045340566 
552	 0.1470772424594 
553	 0.14735364252955 
554	 0.1476154226018 
555	 0.147917030747744 
556	 0.148346283270335 
557	 0.148678561414706 
558	 0.149042052601761 
559	 0.149509733214106 
560	 0.150001390543208 
561	 0.150358441999683 
562	 0.150695770804934 
563	 0.151166115149339 
564	 0.151535167364244 
565	 0.151867859527371 
566	 0.152188224286229 
567	 0.152457303994556 
568	 0.152865058065444 
569	 0.153369380844382 
570	 0.153911485611065 
571	 0.154615953827502 
572	 0.155201895608057 
573	 0.155675243950171 
574	 0.156236911296351 
575	 0.156733930501389 
576	 0.157240704052407 
577	 0.15781072737633 
578	 0.158378546778174 
579	 0.158971443398325 
580	 0.159555772069785 
581	 0.160098569824463 
582	 0.160753154625095 
583	 0.161376150478331 
584	 0.161943050184466 
585	 0.16263603564627 
586	 0.163374679377104 
587	 0.164102599409426 
588	 0.164792834721253 
589	 0.165533071858789 
590	 0.166247152734188 
591	 0.1669329270757 
592	 0.167657354508811 
593	 0.168335509970591 
594	 0.168895825380841 
595	 0.169344168788474 
596	 0.169870592961802 
597	 0.170412378187489 
598	 0.170964364901101 
599	 0.17154878768791 
600	 0.172154911756659 
601	 0.172741978875638 
602	 0.173306061362733 
603	 0.173923932702842 
604	 0.174453798758881 
605	 0.174984695907393 
606	 0.175638991536342 
607	 0.176234318773804 
608	 0.176830001254641 
609	 0.177448391832399 
610	 0.178054087996888 
611	 0.178522809774639 
612	 0.178931527745689 
613	 0.179362784531257 
614	 0.179733225837436 
615	 0.180108292262793 
616	 0.180470836297115 
617	 0.180758360021979 
618	 0.181133194625259 
619	 0.181520494437414 
620	 0.181861104569017 
621	 0.182207573938313 
622	 0.182534186395384 
623	 0.182829999495596 
624	 0.183100238683011 
625	 0.183417801293848 
626	 0.183687454525153 
627	 0.183911498947707 
628	 0.184236155677893 
629	 0.184559101553387 
630	 0.184838545126369 
631	 0.18507625513108 
632	 0.185374027406311 
633	 0.185659945327905 
634	 0.185905668209274 
635	 0.186125804272434 
636	 0.18636499951399 
637	 0.186640731292025 
638	 0.186932041172065 
639	 0.187140939828989 
640	 0.187325765410875 
641	 0.187542375687012 
642	 0.187830027358837 
643	 0.18809947467713 
644	 0.188379183061887 
645	 0.188664258894777 
646	 0.188883866323156 
647	 0.18910381872926 
648	 0.189338965230767 
649	 0.189593633190919 
650	 0.189899065782283 
651	 0.1901811471351 
652	 0.190436857148954 
653	 0.190723805503435 
654	 0.190980736275321 
655	 0.191201424633245 
656	 0.191424665913757 
657	 0.19178627086093 
658	 0.192096268588528 
659	 0.192332130656242 
660	 0.192564019067279 
661	 0.192887767099591 
662	 0.193223197003564 
663	 0.193512067562837 
664	 0.193751234815285 
665	 0.19406356654227 
666	 0.19441103826744 
667	 0.194726265578824 
668	 0.19503977036059 
669	 0.195359869975412 
670	 0.195688096420709 
671	 0.196018131055559 
672	 0.196315376814888 
673	 0.196636629141958 
674	 0.197007927868915 
675	 0.197350089374979 
676	 0.197649750163906 
677	 0.197972375488421 
678	 0.198390055897712 
679	 0.198741655570765 
680	 0.199091396994817 
681	 0.199464577676985 
682	 0.199810499695007 
683	 0.200156272840533 
684	 0.200525819148761 
685	 0.200929565748601 
686	 0.201336637774728 
687	 0.201750441850992 
688	 0.202152783018549 
689	 0.20251584619456 
690	 0.202892215405278 
691	 0.203266558242427 
692	 0.203645490277161 
693	 0.204110356118419 
694	 0.204514680447858 
695	 0.204891750926032 
696	 0.205316354827287 
697	 0.205690298584411 
698	 0.206061591112305 
699	 0.206471759726485 
700	 0.206941278740675 
701	 0.207348777837734 
702	 0.207739654560274 
703	 0.208157276046708 
704	 0.20852744446856 
705	 0.208911615985537 
706	 0.209318474671535 
707	 0.209725010690934 
708	 0.210098419459395 
709	 0.210503082307522 
710	 0.210945992317735 
711	 0.211339212860144 
712	 0.211713101125081 
713	 0.21207219479554 
714	 0.212427887062563 
715	 0.212842759421005 
716	 0.213202625720524 
717	 0.213515501721489 
718	 0.213878188638285 
719	 0.214281127948315 
720	 0.214656180109445 
721	 0.214966997145614 
722	 0.215251623754634 
723	 0.215566020831212 
724	 0.215874117384564 
725	 0.216133835696028 
726	 0.216457086658667 
727	 0.216765732340676 
728	 0.217018241695024 
729	 0.217223249629969 
730	 0.217515441681619 
731	 0.217788134130878 
732	 0.21796755373494 
733	 0.218159323588691 
734	 0.21840995728255 
735	 0.218644441359982 
736	 0.218766875278632 
737	 0.218914716029305 
738	 0.219070081607873 
739	 0.219218824902051 
740	 0.219362290701548 
741	 0.219459339659382 
742	 0.219541900934741 
743	 0.219643350628257 
744	 0.219767752216766 
745	 0.219790994038071 
746	 0.219779762222422 
747	 0.219864568965784 
748	 0.219908198096565 
749	 0.2199047896605 
750	 0.219885006349748 
751	 0.219907019454598 
752	 0.219902331056853 
753	 0.219835059852946 
754	 0.219719115987148 
755	 0.219681399031817 
756	 0.219682350490258 
757	 0.219634034296321 
758	 0.219463509993225 
759	 0.219401490711735 
760	 0.219344784634624 
761	 0.219229450438582 
762	 0.219082865126833 
763	 0.219018492295977 
764	 0.218921792714245 
765	 0.218715630959974 
766	 0.218598181209519 
767	 0.218483337613723 
768	 0.218330714828515 
769	 0.218136290235227 
770	 0.217977805391213 
771	 0.217853171625329 
772	 0.217714899361945 
773	 0.217477230397876 
774	 0.217283080578503 
775	 0.21713233527339 
776	 0.216983887627626 
777	 0.216782348458512 
778	 0.216558403742282 
779	 0.216359626602036 
780	 0.216218102866905 
781	 0.216020621216637 
782	 0.215812170890257 
783	 0.215623218805529 
784	 0.215454434761642 
785	 0.215285385663505 
786	 0.215104172645015 
787	 0.21490124089857 
788	 0.214654459200813 
789	 0.21449796620101 
790	 0.214364998319169 
791	 0.214139388794652 
792	 0.21389401458761 
793	 0.213664803375021 
794	 0.213492001062505 
795	 0.213400373762294 
796	 0.213168182956639 
797	 0.212939146128754 
798	 0.212798154747852 
799	 0.212612609509729 
800	 0.212452988619992 
801	 0.212301486317407 
802	 0.212117208282601 
803	 0.211859712715574 
804	 0.211710246630484 
805	 0.211630810818609 
806	 0.211457902659969 
807	 0.211278552924471 
808	 0.21112124607932 
809	 0.210975436063277 
810	 0.210789151749576 
811	 0.210648724072678 
812	 0.21050510401179 
813	 0.210332602670701 
814	 0.210259396785186 
815	 0.210156801475498 
816	 0.210015138625733 
817	 0.209872799340119 
818	 0.209724859994895 
819	 0.209624240756429 
820	 0.209517658474541 
821	 0.20928953986364 
822	 0.209237266886401 
823	 0.209147546420627 
824	 0.208948517380767 
825	 0.208924179991972 
826	 0.208891554371871 
827	 0.208767089945745 
828	 0.208566461314917 
829	 0.208530088558507 
830	 0.208453453207282 
831	 0.208322583802261 
832	 0.208224955189559 
833	 0.208241104332252 
834	 0.208164113633904 
835	 0.207996837537365 
836	 0.207945197414601 
837	 0.207904650202344 
838	 0.20787272470122 
839	 0.207835060085692 
840	 0.207733844890104 
841	 0.207621919067534 
842	 0.20755411334163 
843	 0.207551832587588 
844	 0.207538632689797 
845	 0.207535118315419 
846	 0.207522924230728 
847	 0.207479608194237 
848	 0.207454776786086 
849	 0.207458781312286 
850	 0.207447014607762 
851	 0.207352363966659 
852	 0.207359905970241 
853	 0.207351652404246 
854	 0.207304954481816 
855	 0.207392049023902 
856	 0.207415830148137 
857	 0.207406574845386 
858	 0.207422545162106 
859	 0.207450975311946 
860	 0.207470632653718 
861	 0.207467496396451 
862	 0.207444806176892 
863	 0.207452768926082 
864	 0.207494750092069 
865	 0.207552556964334 
866	 0.207598753831292 
867	 0.207638784825746 
868	 0.207706340347413 
869	 0.207770311346994 
870	 0.207747915614222 
871	 0.207799051084302 
872	 0.207880949771288 
873	 0.207974834014634 
874	 0.208154901118376 
875	 0.208264550196783 
876	 0.208308793859126 
877	 0.20834032697923 
878	 0.208410365542748 
879	 0.208541644131425 
880	 0.208656557948564 
881	 0.208700955308192 
882	 0.208882293953463 
883	 0.208970299131267 
884	 0.209023375817499 
885	 0.209217856608016 
886	 0.209352440740695 
887	 0.209470099457869 
888	 0.209588676481048 
889	 0.209696905325721 
890	 0.209863694925492 
891	 0.209981623059161 
892	 0.210062022883669 
893	 0.210277313710472 
894	 0.210484364727344 
895	 0.210623827381377 
896	 0.210722243819833 
897	 0.210922788516937 
898	 0.211165840745678 
899	 0.211366135362494 
900	 0.211479461125185 
901	 0.211575830354748 
902	 0.211775256089446 
903	 0.212028806816196 
904	 0.212244229205202 
905	 0.212432530168801 
906	 0.212616059650222 
907	 0.212844646007982 
908	 0.213151160554981 
909	 0.213446435988115 
910	 0.213643059252546 
911	 0.213797316774006 
912	 0.214036689523217 
913	 0.214268195533388 
914	 0.21452825152422 
915	 0.214826119325033 
916	 0.215128175090234 
917	 0.215317489323136 
918	 0.215525083957323 
919	 0.215782353293801 
920	 0.215983635320415 
921	 0.216333789075526 
922	 0.21670038385663 
923	 0.216983934657329 
924	 0.217227160788097 
925	 0.217558796472606 
926	 0.217899987376024 
927	 0.218169943494107 
928	 0.218374115915153 
929	 0.218719634272743 
930	 0.219152830891387 
931	 0.21955890084583 
932	 0.219867492275834 
933	 0.220113612133765 
934	 0.220394191995107 
935	 0.220771414747401 
936	 0.221161275773899 
937	 0.221550186330852 
938	 0.221869300050507 
939	 0.222122447607148 
940	 0.222599032567526 
941	 0.223018855871719 
942	 0.223370603100344 
943	 0.223741313621672 
944	 0.224127808968748 
945	 0.224477572590732 
946	 0.224872305785866 
947	 0.22537275174196 
948	 0.225669456505524 
949	 0.226075994625302 
950	 0.226502746937216 
951	 0.22676853570992 
952	 0.22738591645938 
953	 0.227853744563054 
954	 0.228181785576354 
955	 0.228644773284468 
956	 0.229089020089548 
957	 0.229493408141113 
958	 0.229850325816066 
959	 0.230202766670998 
960	 0.230812061384694 
961	 0.231419055975689 
962	 0.231930308297497 
963	 0.232377867814794 
964	 0.23266632922962 
965	 0.233072589643745 
966	 0.233598264688735 
967	 0.234075903586154 
968	 0.234670483193097 
969	 0.235143053494615 
970	 0.235525732066046 
971	 0.236016981756065 
972	 0.236512061846936 
973	 0.236986220056657 
974	 0.237526327599432 
975	 0.238218941928304 
976	 0.238760425752466 
977	 0.239095632941563 
978	 0.239461456450323 
979	 0.240150202225008 
980	 0.240755111341237 
981	 0.241302457690085 
982	 0.241791131068327 
983	 0.242212218067309 
984	 0.242649125501946 
985	 0.2431237283739 
986	 0.243685847165711 
987	 0.244333846716074 
988	 0.244767957139518 
989	 0.24525230082604 
990	 0.245804826959161 
991	 0.246321668160455 
992	 0.246847308027487 
993	 0.247409942063758 
994	 0.248001768575152 
995	 0.248557248856558 
996	 0.248855609445228 
997	 0.249406927246319 
998	 0.250038850375384 
999	 0.250472115070267 
1000	 0.251136176259411 
1001	 0.247672766163922 
1002	 0.248133373211227 
1003	 0.248600410256367 
1004	 0.249026304326726 
1005	 0.249458246840472 
1006	 0.24987515460205 
1007	 0.250234244669427 
1008	 0.250624405547437 
1009	 0.251070463673681 
1010	 0.251448444117716 
1011	 0.251869141396998 
1012	 0.25232156656848 
1013	 0.25279965152098 
1014	 0.253304941597695 
1015	 0.253722640706138 
1016	 0.254110484497418 
1017	 0.254504588281581 
1018	 0.254849144134926 
1019	 0.255178496470776 
1020	 0.255584340523415 
1021	 0.256003024226302 
1022	 0.256294011256315 
1023	 0.256567338737623 
1024	 0.256902277776926 
1025	 0.257204066997948 
1026	 0.257609814372891 
1027	 0.258105569179557 
1028	 0.258522734405381 
1029	 0.258896998623413 
1030	 0.259243179776347 
1031	 0.259578375677578 
1032	 0.259874131123307 
1033	 0.260165458985985 
1034	 0.260504536226793 
1035	 0.260850142702292 
1036	 0.261130310447854 
1037	 0.26147247094066 
1038	 0.261839279305085 
1039	 0.262153028517927 
1040	 0.262487331732691 
1041	 0.262841432019409 
1042	 0.263200577405734 
1043	 0.263549728726096 
1044	 0.263873757580909 
1045	 0.264196525115849 
1046	 0.264518948827244 
1047	 0.264823295282442 
1048	 0.265134078098781 
1049	 0.265491714333385 
1050	 0.265859284224933 
1051	 0.266208202508811 
1052	 0.266523353019167 
1053	 0.266841723596553 
1054	 0.267204597107083 
1055	 0.267530224162324 
1056	 0.267863775840754 
1057	 0.268207985747772 
1058	 0.268565648521816 
1059	 0.2688774395967 
1060	 0.269157467149514 
1061	 0.26949361544249 
1062	 0.269819092831991 
1063	 0.270159556680819 
1064	 0.270551513983055 
1065	 0.270873183389303 
1066	 0.271128325303135 
1067	 0.27138842447919 
1068	 0.271662951527653 
1069	 0.271960021201687 
1070	 0.272250900003218 
1071	 0.272577493431712 
1072	 0.272869637881781 
1073	 0.273122545329301 
1074	 0.273407356902738 
1075	 0.273709919874066 
1076	 0.273990565698526 
1077	 0.274275310332657 
1078	 0.274521375913617 
1079	 0.274741330245769 
1080	 0.27498030388507 
1081	 0.275246147213332 
1082	 0.275527974703835 
1083	 0.275754395309971 
1084	 0.275935909519609 
1085	 0.276164302337651 
1086	 0.27637940418716 
1087	 0.276591435797087 
1088	 0.276823225041015 
1089	 0.277082856446809 
1090	 0.277284584464578 
1091	 0.277471556493607 
1092	 0.277685647391041 
1093	 0.277896429281692 
1094	 0.278111438162766 
1095	 0.278336281563684 
1096	 0.278558092100018 
1097	 0.278773707038608 
1098	 0.278979550384966 
1099	 0.279175803981274 
1100	 0.279364397010597 
1101	 0.279515844806438 
1102	 0.279720522123482 
1103	 0.279955608504684 
1104	 0.280168398159465 
1105	 0.280392329463298 
1106	 0.28063508981127 
1107	 0.280836574828125 
1108	 0.28103071191864 
1109	 0.281210697232745 
1110	 0.281409230966361 
1111	 0.281608116477222 
1112	 0.281801447523027 
1113	 0.28199099214729 
1114	 0.282189435330688 
1115	 0.282378178091894 
1116	 0.282546239161898 
1117	 0.28273524109974 
1118	 0.282931561292858 
1119	 0.283137036760208 
1120	 0.283353343847208 
1121	 0.283578870487675 
1122	 0.283795910217783 
1123	 0.284009955425406 
1124	 0.284218805737192 
1125	 0.284422661943393 
1126	 0.284609164752735 
1127	 0.284779959966252 
1128	 0.284970046831375 
1129	 0.285146686497419 
1130	 0.285336268256108 
1131	 0.28557032018613 
1132	 0.285759195678985 
1133	 0.285915893696177 
1134	 0.286088379782672 
1135	 0.286253341277174 
1136	 0.286403650695234 
1137	 0.286578714255789 
1138	 0.286753947878818 
1139	 0.286928358769179 
1140	 0.287102921460532 
1141	 0.28727513926167 
1142	 0.287455098874859 
1143	 0.287622131638039 
1144	 0.287782092839659 
1145	 0.287934909287857 
1146	 0.288072732290547 
1147	 0.288219068591054 
1148	 0.288377344973382 
1149	 0.288518736886084 
1150	 0.288653380676175 
1151	 0.288782891715802 
1152	 0.288913404679699 
1153	 0.289029084855523 
1154	 0.289160885765794 
1155	 0.289306884303983 
1156	 0.289446173820049 
1157	 0.289580144341571 
1158	 0.289722361047027 
1159	 0.289868625808014 
1160	 0.290014963304692 
1161	 0.290180137810833 
1162	 0.290321644267475 
1163	 0.290446389208425 
1164	 0.290580399786091 
1165	 0.290707507705043 
1166	 0.290826395743238 
1167	 0.29097278457861 
1168	 0.291122241412719 
1169	 0.291264421008966 
1170	 0.291403556255247 
1171	 0.291553980119279 
1172	 0.291714256213308 
1173	 0.29185305727426 
1174	 0.291988061142448 
1175	 0.292127154184624 
1176	 0.292257172149768 
1177	 0.292383674565218 
1178	 0.292521360504073 
1179	 0.292646967327956 
1180	 0.292740657074797 
1181	 0.292857910418341 
1182	 0.29298618967664 
1183	 0.293122055161148 
1184	 0.293247985313909 
1185	 0.293377670428266 
1186	 0.293508284664317 
1187	 0.29363066177632 
1188	 0.293761730781623 
1189	 0.293908446801464 
1190	 0.294039737335281 
1191	 0.294166196765652 
1192	 0.294289113772129 
1193	 0.29439824840421 
1194	 0.294520640964147 
1195	 0.294652334599474 
1196	 0.29477465527968 
1197	 0.294895816390162 
1198	 0.295020451244348 
1199	 0.295143970875044 
1200	 0.295260489810812 
1201	 0.295381015028786 
1202	 0.295509622126624 
1203	 0.295629736183076 
1204	 0.295746121486402 
1205	 0.295856897684235 
1206	 0.295958087120915 
1207	 0.296071904550092 
1208	 0.296191148899182 
1209	 0.296300887380073 
1210	 0.296418952807757 
1211	 0.296526547786289 
1212	 0.29661313087074 
1213	 0.296710821897965 
1214	 0.296801704755044 
1215	 0.296909784995543 
1216	 0.297027453093059 
1217	 0.297165776322788 
1218	 0.297270474153658 
1219	 0.297370578413472 
1220	 0.297476786102037 
1221	 0.297565227452084 
1222	 0.297660787043797 
1223	 0.297779776728583 
1224	 0.297874219193886 
1225	 0.297945432698249 
1226	 0.298025252010503 
1227	 0.298095200427452 
1228	 0.298179594622896 
1229	 0.298266852007507 
1230	 0.29836077976713 
1231	 0.29847803665316 
1232	 0.298580581246566 
1233	 0.298678958724975 
1234	 0.298772874562337 
1235	 0.298872857445843 
1236	 0.298974891011108 
1237	 0.299061749131723 
1238	 0.299150222126304 
1239	 0.299226682251967 
1240	 0.299264496598887 
1241	 0.299347081046419 
1242	 0.299457362003264 
1243	 0.299551845042422 
1244	 0.299664648261242 
1245	 0.299764371134933 
1246	 0.29984835420328 
1247	 0.299931385425629 
1248	 0.30000506965263 
1249	 0.300094736029674 
1250	 0.300179791049903 
1251	 0.300258204704751 
1252	 0.30034228054104 
1253	 0.30044014184906 
1254	 0.300515219998902 
1255	 0.300578795043681 
1256	 0.300646169188059 
1257	 0.300705382810873 
1258	 0.30076592234821 
1259	 0.300824091662539 
1260	 0.300886445522029 
1261	 0.300951214769759 
1262	 0.301011215313822 
1263	 0.301077506308882 
1264	 0.301135701384965 
1265	 0.301176578962832 
1266	 0.301228260749424 
1267	 0.301281094265503 
1268	 0.301337044021681 
1269	 0.301401013831239 
1270	 0.301471148021173 
1271	 0.301550937218519 
1272	 0.301637769645087 
1273	 0.301727328028269 
1274	 0.301828395771806 
1275	 0.30192696665743 
1276	 0.302023142891311 
1277	 0.302132478568533 
1278	 0.302244952725312 
1279	 0.302363766972386 
1280	 0.302489079428707 
1281	 0.30262717122859 
1282	 0.302795918255728 
1283	 0.302937131651803 
1284	 0.303086286715985 
1285	 0.303202122075151 
1286	 0.30331800223406 
1287	 0.30344308637131 
1288	 0.303557980022775 
1289	 0.303678254194434 
1290	 0.303798289414131 
1291	 0.3039066968681 
1292	 0.304020284066013 
1293	 0.304158012518077 
1294	 0.304257050229274 
1295	 0.304326111834555 
1296	 0.304406511532082 
1297	 0.304481685445149 
1298	 0.304547374262467 
1299	 0.30461411683698 
1300	 0.30467333695696 
1301	 0.304716031099135 
1302	 0.304757602698742 
1303	 0.30480315001329 
1304	 0.304838507396925 
1305	 0.304857439580391 
1306	 0.304849260914096 
1307	 0.304849366614637 
1308	 0.304852206204801 
1309	 0.304849124082303 
1310	 0.304862739691634 
1311	 0.304834146425867 
1312	 0.304770772930828 
1313	 0.304732468239797 
1314	 0.304668060506249 
1315	 0.304640554470001 
1316	 0.304655553166317 
1317	 0.304637992912596 
1318	 0.304620802387502 
1319	 0.304597789292558 
1320	 0.304551858650206 
1321	 0.304524118505016 
1322	 0.304511086361072 
1323	 0.304487731845363 
1324	 0.304452437933554 
1325	 0.304420534772981 
1326	 0.304389496956556 
1327	 0.30433266069531 
1328	 0.304289983457811 
1329	 0.304260985413698 
1330	 0.304207994900754 
1331	 0.304139923654499 
1332	 0.304080611338089 
1333	 0.304010190849743 
1334	 0.303949099910732 
1335	 0.303894360950287 
1336	 0.303839017478711 
1337	 0.303786779449498 
1338	 0.303731811006977 
1339	 0.30367472196762 
1340	 0.303625138040096 
1341	 0.303578903322875 
1342	 0.303528344209617 
1343	 0.303477793449762 
1344	 0.303429375586461 
1345	 0.303386819196292 
1346	 0.303358374360262 
1347	 0.303348901425142 
1348	 0.303329844737109 
1349	 0.30327322895287 
1350	 0.303215257236475 
1351	 0.303161266265863 
1352	 0.303088440985218 
1353	 0.303035182389861 
1354	 0.303004931232611 
1355	 0.302950980301932 
1356	 0.302884406110959 
1357	 0.302827192077738 
1358	 0.302763795461728 
1359	 0.30270569948204 
1360	 0.302647912747155 
1361	 0.302602717698837 
1362	 0.302570668129612 
1363	 0.302533644553443 
1364	 0.302502354306993 
1365	 0.302471188012891 
1366	 0.302442481442107 
1367	 0.302397773030824 
1368	 0.302369188798318 
1369	 0.302340005542879 
1370	 0.302278928489141 
1371	 0.30220149180305 
1372	 0.30209028471762 
1373	 0.301971612945127 
1374	 0.301853585631091 
1375	 0.301737353465077 
1376	 0.301584448836157 
1377	 0.301434777998973 
1378	 0.30123039870281 
1379	 0.300967142562276 
1380	 0.300724647839507 
1381	 0.300462074622682 
1382	 0.300190102113914 
1383	 0.299935703711396 
1384	 0.299632844026673 
1385	 0.299325191433567 
1386	 0.298956141488662 
1387	 0.298552994076181 
1388	 0.298099792001934 
1389	 0.297591717369681 
1390	 0.297040235305424 
1391	 0.296474650791734 
1392	 0.29584401244078 
1393	 0.29515461257406 
1394	 0.294416691289655 
1395	 0.293596969016723 
1396	 0.292783310454177 
1397	 0.291988343385748 
1398	 0.291185602497554 
1399	 0.290386681435786 
1400	 0.289604621928524 
1401	 0.288812122109086 
1402	 0.287989957798917 
1403	 0.287224625104127 
1404	 0.286462723827672 
1405	 0.285750980115045 
1406	 0.285094061472957 
1407	 0.284435967052157 
1408	 0.283764889865716 
1409	 0.283188346068778 
1410	 0.282615379991851 
1411	 0.282156936303962 
1412	 0.281776044077051 
1413	 0.281498671396704 
1414	 0.281334734385914 
1415	 0.281236162843112 
1416	 0.28125115791859 
1417	 0.281345406320225 
1418	 0.281447460973558 
1419	 0.281580186097334 
1420	 0.281732969383095 
1421	 0.281853797108545 
1422	 0.281940774396533 
1423	 0.282018026288973 
1424	 0.282039649368158 
1425	 0.281993007856257 
1426	 0.281967952330137 
1427	 0.281909579993081 
1428	 0.281868437370594 
1429	 0.28183276439608 
1430	 0.281794617205713 
1431	 0.281758755157455 
1432	 0.281715482222197 
1433	 0.281665647866101 
1434	 0.281621913464857 
1435	 0.281557068314273 
1436	 0.28153180182857 
1437	 0.281537584610527 
1438	 0.281529133291876 
1439	 0.281534690472563 
1440	 0.281548372735631 
1441	 0.281528749658729 
1442	 0.281502981537252 
1443	 0.281469404133847 
1444	 0.281436599223273 
1445	 0.28143283477174 
1446	 0.281431594583297 
1447	 0.281433551067873 
1448	 0.281442922021641 
1449	 0.28142694172044 
1450	 0.281400544875122 
1451	 0.281390836681277 
1452	 0.281388202279883 
1453	 0.281388042583399 
1454	 0.281396685570029 
1455	 0.281398502455841 
1456	 0.281403695216536 
1457	 0.281395198173612 
1458	 0.281379075670403 
1459	 0.281366463486401 
1460	 0.281333414901189 
1461	 0.281332947526658 
1462	 0.281346445078228 
1463	 0.281365724121585 
1464	 0.281413631229649 
1465	 0.281445255363045 
1466	 0.281457463853856 
1467	 0.281499305342782 
1468	 0.281533622871586 
1469	 0.281607291849172 
1470	 0.281716066202551 
1471	 0.281842634300563 
1472	 0.281978278510619 
1473	 0.282131710427628 
1474	 0.282273081150204 
1475	 0.282417669117057 
1476	 0.282555773393506 
1477	 0.282684716492189 
1478	 0.282841345298621 
1479	 0.283009930813147 
1480	 0.283187561194175 
1481	 0.283379966812586 
1482	 0.28356109730033 
1483	 0.283735442047794 
1484	 0.283906821834763 
1485	 0.284078578630579 
1486	 0.284248486734143 
1487	 0.284410662332278 
1488	 0.284577968043053 
1489	 0.284752121618498 
1490	 0.284919918913478 
1491	 0.285087108242259 
1492	 0.285246053262103 
1493	 0.285401017711028 
1494	 0.285548528834249 
1495	 0.285679609850841 
1496	 0.285821765093041 
1497	 0.285970075790508 
1498	 0.286113862702357 
1499	 0.286267145827008 
1500	 0.286403946632006 
1501	 0.28652226733716 
1502	 0.286648518491563 
1503	 0.28676125924618 
1504	 0.286890099674234 
1505	 0.287049415282281 
1506	 0.287199807596486 
1507	 0.287336969971611 
1508	 0.287468867443606 
1509	 0.287565266729029 
1510	 0.287648099820976 
1511	 0.287751803880542 
1512	 0.287847374836281 
1513	 0.287954258153858 
1514	 0.288070811904036 
1515	 0.288169157981774 
1516	 0.288285644244603 
1517	 0.288392613996074 
1518	 0.288492234907616 
1519	 0.288606126427056 
1520	 0.288728287963689 
1521	 0.288839804502407 
1522	 0.288958243892084 
1523	 0.289065637827173 
1524	 0.289160941779367 
1525	 0.289261262871491 
1526	 0.289363295136033 
1527	 0.28945914818832 
1528	 0.289549657391969 
1529	 0.289636383880714 
1530	 0.289719634817098 
1531	 0.289806187892273 
1532	 0.289895416211673 
1533	 0.289975048851911 
1534	 0.290048692821141 
1535	 0.290120576829244 
1536	 0.290179551414391 
1537	 0.290249329800626 
1538	 0.290326045116948 
1539	 0.290401522066846 
1540	 0.29048404701782 
1541	 0.290559066603163 
1542	 0.290629902700362 
1543	 0.290699327579933 
1544	 0.290764697354766 
1545	 0.290830631979545 
1546	 0.29089585361559 
1547	 0.290961009686558 
1548	 0.291026975948014 
1549	 0.291068344227938 
1550	 0.291107934327897 
1551	 0.291151261673102 
1552	 0.291171859484781 
1553	 0.291229471711658 
1554	 0.291317688669892 
1555	 0.291381229219607 
1556	 0.291455461044643 
1557	 0.291524350805878 
1558	 0.291559090840983 
1559	 0.291599465562079 
1560	 0.291655338047258 
1561	 0.291726555614274 
1562	 0.29178048181232 
1563	 0.291832369903535 
1564	 0.29189573315458 
1565	 0.291958904168308 
1566	 0.292010904265038 
1567	 0.292078435707714 
1568	 0.292121071507041 
1569	 0.292127420420846 
1570	 0.292165757036978 
1571	 0.292219711391708 
1572	 0.292254438255765 
1573	 0.292280620565687 
1574	 0.292329462240999 
1575	 0.292378292464521 
1576	 0.292426326245272 
1577	 0.29250601685476 
1578	 0.292552715116482 
1579	 0.292565509454483 
1580	 0.292603528025784 
1581	 0.29264105798675 
1582	 0.292685381228497 
1583	 0.29275390341926 
1584	 0.292794655425983 
1585	 0.292829198716071 
1586	 0.292852163368227 
1587	 0.292847027127062 
1588	 0.292860499565505 
1589	 0.292870865254306 
1590	 0.292891690508192 
1591	 0.29293212244758 
1592	 0.292958491787104 
1593	 0.292969234974613 
1594	 0.293003755534342 
1595	 0.293050424992167 
1596	 0.293089188345778 
1597	 0.293152748383053 
1598	 0.293193355647926 
1599	 0.293208698698258 
1600	 0.293231230434113 
1601	 0.293250847056521 
1602	 0.293268874460226 
1603	 0.293287181721755 
1604	 0.293300831477842 
1605	 0.29330222019253 
1606	 0.293315091769248 
1607	 0.29333553362754 
1608	 0.293349853275088 
1609	 0.293380827459642 
1610	 0.293407913428363 
1611	 0.293417985142292 
1612	 0.293439588755295 
1613	 0.2934224806617 
1614	 0.293399330232118 
1615	 0.293408171466211 
1616	 0.293410212426364 
1617	 0.293436907005303 
1618	 0.293477548444733 
1619	 0.29349914274592 
1620	 0.293522131074165 
1621	 0.29353894929618 
1622	 0.293557225767137 
1623	 0.293567747589676 
1624	 0.293572910762384 
1625	 0.293563178098913 
1626	 0.293543547990951 
1627	 0.293531303870447 
1628	 0.293497030280803 
1629	 0.293505212510316 
1630	 0.293538970168807 
1631	 0.293564301695358 
1632	 0.293610734327594 
1633	 0.29363368162784 
1634	 0.293653201495911 
1635	 0.29365144831567 
1636	 0.293635781585994 
1637	 0.293616042774236 
1638	 0.293570007703756 
1639	 0.293551012353497 
1640	 0.293529005793455 
1641	 0.29353665888739 
1642	 0.293571938276199 
1643	 0.293593402974216 
1644	 0.293629581626026 
1645	 0.293656928131111 
1646	 0.293684501471015 
1647	 0.293690953649384 
1648	 0.293698996067556 
1649	 0.293681264573047 
1650	 0.293621479772911 
1651	 0.293593536953305 
1652	 0.293561127147718 
1653	 0.293547755646665 
1654	 0.293555362627258 
1655	 0.293556197651569 
1656	 0.293577120534481 
1657	 0.293562443165082 
1658	 0.293539741779947 
1659	 0.293496283386653 
1660	 0.2934137936651 
1661	 0.293355062670876 
1662	 0.293283087094446 
1663	 0.293240154615641 
1664	 0.293217329551935 
1665	 0.293193607102292 
1666	 0.293190632416983 
1667	 0.293172696006239 
1668	 0.293154358353497 
1669	 0.293126658803693 
1670	 0.293092946888694 
1671	 0.293054595105994 
1672	 0.292995728035575 
1673	 0.29296435225022 
1674	 0.292941455949927 
1675	 0.292922306864238 
1676	 0.292920947983762 
1677	 0.292915730335393 
1678	 0.29292133231451 
1679	 0.292900756357822 
1680	 0.292861273684021 
1681	 0.292844031747885 
1682	 0.292808395387808 
1683	 0.292803258357729 
1684	 0.292841202910735 
1685	 0.292851904036204 
1686	 0.292871967839099 
1687	 0.292858924125314 
1688	 0.292819097542402 
1689	 0.292789062788478 
1690	 0.292739910465664 
1691	 0.292700644213214 
1692	 0.292664529350758 
1693	 0.292640106127287 
1694	 0.292618227029679 
1695	 0.2926001975383 
1696	 0.292595948278885 
1697	 0.292588423702566 
1698	 0.292586577860792 
1699	 0.292571524871297 
1700	 0.292560182513041 
1701	 0.292534335915241 
1702	 0.292487658738779 
1703	 0.292443377648493 
1704	 0.292397413219034 
1705	 0.292344898572112 
1706	 0.292289223374484 
1707	 0.292221342335784 
1708	 0.292141724934165 
1709	 0.292066083947919 
1710	 0.291985420894577 
1711	 0.291902683522091 
1712	 0.291817654383591 
1713	 0.291733267054107 
1714	 0.291623155351262 
1715	 0.291564702629111 
1716	 0.291533238306169 
1717	 0.291504548023342 
1718	 0.291526776572612 
1719	 0.291494973655475 
1720	 0.291435060549143 
1721	 0.29139241850157 
1722	 0.291334912439151 
1723	 0.291285252739365 
1724	 0.291253423771194 
1725	 0.291201741953976 
1726	 0.291137689923126 
1727	 0.291070957504579 
1728	 0.290993997065923 
1729	 0.290926235604171 
1730	 0.290860007350668 
1731	 0.290790928649271 
1732	 0.290731800942794 
1733	 0.290654213629532 
1734	 0.290562551311725 
1735	 0.290468017320547 
1736	 0.290368095281436 
1737	 0.290260149782823 
1738	 0.290132453388555 
1739	 0.290033298414968 
1740	 0.289938575513189 
1741	 0.289853633983579 
1742	 0.289792591964024 
1743	 0.289720284734274 
1744	 0.289651329614926 
1745	 0.2895601118192 
1746	 0.289457428768279 
1747	 0.289359739852822 
1748	 0.289258784021873 
1749	 0.289197737729746 
1750	 0.289146996618973 
1751	 0.289067118456623 
1752	 0.288973773284547 
1753	 0.288859267912419 
1754	 0.288730157632802 
1755	 0.28861733794974 
1756	 0.288511865047368 
1757	 0.288379305940184 
1758	 0.288247602265889 
1759	 0.288128570101208 
1760	 0.288030617322072 
1761	 0.28798813326495 
1762	 0.287943795106184 
1763	 0.287883033082798 
1764	 0.28780127020851 
1765	 0.287689623369799 
1766	 0.287569210510285 
1767	 0.287432539990753 
1768	 0.28731687964868 
1769	 0.287208365906329 
1770	 0.287126983429465 
1771	 0.287095608870169 
1772	 0.287037830538712 
1773	 0.28697555083366 
1774	 0.286931033320323 
1775	 0.286868671877224 
1776	 0.286795066764719 
1777	 0.286730342694663 
1778	 0.286679705289803 
1779	 0.286620661324979 
1780	 0.286571491200753 
1781	 0.286533791795786 
1782	 0.286463183573156 
1783	 0.286388020557103 
1784	 0.286337801062409 
1785	 0.2863142305793 
1786	 0.286272569139963 
1787	 0.286240560368949 
1788	 0.286193514523567 
1789	 0.286127342977937 
1790	 0.28605141460225 
1791	 0.28595621294492 
1792	 0.285882260204541 
1793	 0.285789255555901 
1794	 0.285740344515625 
1795	 0.285728168863475 
1796	 0.28571883538479 
1797	 0.285746678488226 
1798	 0.285749033552714 
1799	 0.28574672989624 
1800	 0.285739602165957 
1801	 0.284496655902073 
1802	 0.284681166763478 
1803	 0.284856827348124 
1804	 0.285077757421587 
1805	 0.285330896438594 
1806	 0.285545559797325 
1807	 0.285767680950234 
1808	 0.285959304462832 
1809	 0.286164425721971 
1810	 0.286303505741742 
1811	 0.286392698364053 
1812	 0.286477796942515 
1813	 0.286552272082552 
1814	 0.28658952744944 
1815	 0.286622859276717 
1816	 0.286642398029134 
1817	 0.286668332128227 
1818	 0.286688244738106 
1819	 0.286700507880171 
1820	 0.286720581253555 
1821	 0.286716726174869 
1822	 0.286709645339923 
1823	 0.286680680971346 
1824	 0.286687019534727 
1825	 0.286702594271999 
1826	 0.286722313752031 
1827	 0.286741920066895 
1828	 0.286712184140037 
1829	 0.286644561003832 
1830	 0.286587697986329 
1831	 0.286496980033716 
1832	 0.286418382001609 
1833	 0.286352809755658 
1834	 0.286292258632502 
1835	 0.286255108043119 
1836	 0.286166069611651 
1837	 0.286085168809594 
1838	 0.286041334839544 
1839	 0.285990249142087 
1840	 0.285932250735289 
1841	 0.285895310997536 
1842	 0.28587540668991 
1843	 0.285838442740358 
1844	 0.285780427446141 
1845	 0.285684479307217 
1846	 0.285561311474155 
1847	 0.285459845876529 
1848	 0.285377549162765 
1849	 0.285325189091725 
1850	 0.285275362086956 
1851	 0.285257896566962 
1852	 0.285211302042154 
1853	 0.285165076410478 
1854	 0.285102299502725 
1855	 0.285013922787633 
1856	 0.284915536204733 
1857	 0.284784672487225 
1858	 0.284624215700894 
1859	 0.284444168828591 
1860	 0.284247960623109 
1861	 0.284028408410549 
1862	 0.28378308041963 
1863	 0.283543253740663 
1864	 0.283301511739262 
1865	 0.283017504786361 
1866	 0.282701060130111 
1867	 0.282354814620122 
1868	 0.281972739792383 
1869	 0.281560657964738 
1870	 0.281129738838864 
1871	 0.280685903007307 
1872	 0.280229122506435 
1873	 0.279750722586258 
1874	 0.279227933657322 
1875	 0.278663088377989 
1876	 0.278027503912015 
1877	 0.277308225869608 
1878	 0.276531163468825 
1879	 0.275703273262329 
1880	 0.274795960792264 
1881	 0.27380859918424 
1882	 0.272763489914591 
1883	 0.271663984160479 
1884	 0.270464314329766 
1885	 0.269202851066409 
1886	 0.267861603317563 
1887	 0.266389281423394 
1888	 0.264838064461612 
1889	 0.263204121656093 
1890	 0.261513523368446 
1891	 0.259809729316284 
1892	 0.258060229426366 
1893	 0.256285861739459 
1894	 0.25448054772722 
1895	 0.252649545067098 
1896	 0.250774107166062 
1897	 0.248917240719899 
1898	 0.247070116129754 
1899	 0.245248820929042 
1900	 0.243475805493482 
1901	 0.241736020837404 
1902	 0.240065655947241 
1903	 0.238455089013385 
1904	 0.236902450712363 
1905	 0.23540447078954 
1906	 0.233980389089114 
1907	 0.232613084049219 
1908	 0.231302389033855 
1909	 0.230069009777992 
1910	 0.228912775536176 
1911	 0.227850474472725 
1912	 0.226859551054551 
1913	 0.225902118274579 
1914	 0.225005272962242 
1915	 0.224150739821575 
1916	 0.223331030472117 
1917	 0.22256729017178 
1918	 0.221868013998953 
1919	 0.221213828427394 
1920	 0.2206219096899 
1921	 0.220088549547662 
1922	 0.219605034425559 
1923	 0.219186096163378 
1924	 0.218805388059434 
1925	 0.21848231718896 
1926	 0.218184383849247 
1927	 0.217920162424949 
1928	 0.217699960112304 
1929	 0.217530439586442 
1930	 0.217387060097593 
1931	 0.217280624274286 
1932	 0.217222936088082 
1933	 0.217194001844247 
1934	 0.21718706710181 
1935	 0.217199407907305 
1936	 0.217236743022058 
1937	 0.217297799901633 
1938	 0.217374483827526 
1939	 0.217482155513766 
1940	 0.217621180313102 
1941	 0.217789192118293 
1942	 0.217960883606506 
1943	 0.218155610594086 
1944	 0.218381681284869 
1945	 0.218638904785119 
1946	 0.218889728544794 
1947	 0.219155971911456 
1948	 0.219432671973428 
1949	 0.219713225165062 
1950	 0.219999281572411 
1951	 0.220295561166129 
1952	 0.220618892576124 
1953	 0.220924320513778 
1954	 0.221251917662231 
1955	 0.221618879934128 
1956	 0.221990168176504 
1957	 0.222355080739911 
1958	 0.222729511025746 
1959	 0.223100524973989 
1960	 0.2234605493117 
1961	 0.223836079946681 
1962	 0.224226139068733 
1963	 0.224618790655331 
1964	 0.225004790776291 
1965	 0.225403157027636 
1966	 0.22584703911003 
1967	 0.226293938420693 
1968	 0.226743309531717 
1969	 0.227228504342188 
1970	 0.227680862226929 
1971	 0.228113748405606 
1972	 0.228555255670362 
1973	 0.228991318238167 
1974	 0.229434774823681 
1975	 0.22988956887322 
1976	 0.230329051632814 
1977	 0.23076388388786 
1978	 0.23119025976831 
1979	 0.231614063319267 
1980	 0.232055658924318 
1981	 0.232487777922583 
1982	 0.232922424351525 
1983	 0.233363152123253 
1984	 0.233785652008992 
1985	 0.234238574925131 
1986	 0.234741423774822 
1987	 0.235201264822401 
1988	 0.235645401416985 
1989	 0.236104329503029 
1990	 0.236539220920848 
1991	 0.236971716908372 
1992	 0.237427389191875 
1993	 0.237914014177289 
1994	 0.238378109382873 
1995	 0.238847776790306 
1996	 0.239299881379792 
1997	 0.239743809275652 
1998	 0.240179830430621 
1999	 0.240579734513032 
2000	 0.24101520708954 
2001	 0.241471568182577 
2002	 0.241918400945643 
2003	 0.242369932721038 
2004	 0.242839044571634 
2005	 0.243263221141108 
2006	 0.243644107406409 
2007	 0.244052993499654 
2008	 0.244444075739392 
2009	 0.244856147911321 
2010	 0.245293997014927 
2011	 0.245716461527387 
2012	 0.246151941105103 
2013	 0.24656540547999 
2014	 0.246956966076454 
2015	 0.247357857523278 
2016	 0.247752692445074 
2017	 0.248121786836326 
2018	 0.248506434716999 
2019	 0.248898254871605 
2020	 0.249278113891835 
2021	 0.249648878525499 
2022	 0.250031766718917 
2023	 0.250417304219219 
2024	 0.250800398045685 
2025	 0.251196659892622 
2026	 0.251578590792669 
2027	 0.251957967826303 
2028	 0.252314184487316 
2029	 0.252679375062544 
2030	 0.253046065861497 
2031	 0.253396346770349 
2032	 0.253743459737762 
2033	 0.254074944732464 
2034	 0.254385111103302 
2035	 0.254702798257904 
2036	 0.25503033409108 
2037	 0.255327058880597 
2038	 0.255601807403181 
2039	 0.25587935552167 
2040	 0.25613358228442 
2041	 0.256393734610114 
2042	 0.256642387149586 
2043	 0.256894375839001 
2044	 0.25716943768053 
2045	 0.257446562886688 
2046	 0.257726382670004 
2047	 0.258047051590811 
2048	 0.258329894785513 
2049	 0.258591335122185 
2050	 0.258848141413828 
2051	 0.259094940462247 
2052	 0.259337337837588 
2053	 0.259562258448741 
2054	 0.2597930259516 
2055	 0.260016340941039 
2056	 0.260252564205604 
2057	 0.260484531152674 
2058	 0.260717233759973 
2059	 0.260950520857337 
2060	 0.261194668877423 
2061	 0.261416119374258 
2062	 0.261624089662857 
2063	 0.261840662914659 
2064	 0.262051650424671 
2065	 0.262255022805834 
2066	 0.262467403402448 
2067	 0.262663294350269 
2068	 0.26283029564291 
2069	 0.263017142200385 
2070	 0.263190159953837 
2071	 0.263348240872584 
2072	 0.263532916460191 
2073	 0.263725073772679 
2074	 0.26391444637006 
2075	 0.264123154553422 
2076	 0.264318644597302 
2077	 0.264499402269116 
2078	 0.264689462525492 
2079	 0.264882325680136 
2080	 0.265077210989286 
2081	 0.265277685783565 
2082	 0.265475464227781 
2083	 0.265671481719793 
2084	 0.265873974099593 
2085	 0.266071175042634 
2086	 0.266265577297647 
2087	 0.266460029720752 
2088	 0.266667154159049 
2089	 0.26683963985617 
2090	 0.266992698903689 
2091	 0.267149215316475 
2092	 0.267283066217239 
2093	 0.267426273688436 
2094	 0.267572043114066 
2095	 0.267720217323119 
2096	 0.267859804558577 
2097	 0.268010827469478 
2098	 0.268164294903328 
2099	 0.268338038739526 
2100	 0.268508636951529 
2101	 0.26868931469695 
2102	 0.268860715890985 
2103	 0.26903483182859 
2104	 0.269204954404176 
2105	 0.26937129266234 
2106	 0.269533612142322 
2107	 0.269682208871857 
2108	 0.269851990187665 
2109	 0.270016502622023 
2110	 0.270202769284728 
2111	 0.270421715212994 
2112	 0.270631627877678 
2113	 0.270846592092732 
2114	 0.271067751171076 
2115	 0.271280808932005 
2116	 0.271493732384975 
2117	 0.271696255293351 
2118	 0.271896317441577 
2119	 0.272087147479627 
2120	 0.27227334524581 
2121	 0.272443412748667 
2122	 0.272600522013815 
2123	 0.272754196970223 
2124	 0.272899349665908 
2125	 0.273031110982466 
2126	 0.273161972314211 
2127	 0.273272979825766 
2128	 0.273344888605575 
2129	 0.273437275778523 
2130	 0.273541916425858 
2131	 0.273628740962643 
2132	 0.273700243002223 
2133	 0.273775750702854 
2134	 0.273824639136361 
2135	 0.273832142218102 
2136	 0.273866312181031 
2137	 0.273921497222233 
2138	 0.27393376376533 
2139	 0.273930197093929 
2140	 0.273920419506952 
2141	 0.273880513558539 
2142	 0.273841238472388 
2143	 0.273826574056358 
2144	 0.273761661201527 
2145	 0.273658826504072 
2146	 0.273547904474408 
2147	 0.273399245562365 
2148	 0.273246723881536 
2149	 0.273101604851762 
2150	 0.272951614546643 
2151	 0.272807920963704 
2152	 0.272680025541372 
2153	 0.272521680125209 
2154	 0.272371734768638 
2155	 0.272174924128018 
2156	 0.27193441397171 
2157	 0.271700504523285 
2158	 0.271439889742123 
2159	 0.27118010981133 
2160	 0.270929014326257 
2161	 0.270652925710984 
2162	 0.270341554065507 
2163	 0.2700501292391 
2164	 0.269743381007675 
2165	 0.26945656507517 
2166	 0.269177318143448 
2167	 0.268929436850599 
2168	 0.268633744483252 
2169	 0.268326980807464 
2170	 0.268013141037375 
2171	 0.26767540778629 
2172	 0.267337015528741 
2173	 0.267005229879798 
2174	 0.266649909571726 
2175	 0.266271304686201 
2176	 0.265891345497458 
2177	 0.265511148951375 
2178	 0.265103451669604 
2179	 0.264686198112185 
2180	 0.264243490132749 
2181	 0.263759580934993 
2182	 0.263282634398667 
2183	 0.26280136494251 
2184	 0.26229682446542 
2185	 0.261794192243705 
2186	 0.261280023375357 
2187	 0.260784596426162 
2188	 0.260278325346406 
2189	 0.259796244515412 
2190	 0.259309172141112 
2191	 0.258888234345268 
2192	 0.258492998821123 
2193	 0.258135482631599 
2194	 0.257844869803424 
2195	 0.257555021014603 
2196	 0.257270946707765 
2197	 0.257029443210873 
2198	 0.256830836935358 
2199	 0.256643925106149 
2200	 0.256492823229209 
2201	 0.256353005905562 
2202	 0.256221963786497 
2203	 0.256102900874089 
2204	 0.256045485866957 
2205	 0.255998894149358 
2206	 0.256053907279612 
2207	 0.256186379254202 
2208	 0.256350939419828 
2209	 0.256593727214618 
2210	 0.256848299719479 
2211	 0.257150320823055 
2212	 0.257456768258608 
2213	 0.257805550247762 
2214	 0.258141563459257 
2215	 0.258508857009586 
2216	 0.25883074648736 
2217	 0.259155129733353 
2218	 0.259440224567736 
2219	 0.25967522278995 
2220	 0.259907537862663 
2221	 0.260121303563143 
2222	 0.26032010319669 
2223	 0.260504833470682 
2224	 0.260669809047411 
2225	 0.260817478506103 
2226	 0.260941061726335 
2227	 0.261062645939278 
2228	 0.261171861930182 
2229	 0.261265558568457 
2230	 0.261357913070061 
2231	 0.26140975998812 
2232	 0.26143221211616 
2233	 0.261445069096952 
2234	 0.261420279058321 
2235	 0.261406846743955 
2236	 0.261390005138422 
2237	 0.261364399656321 
2238	 0.261331810659262 
2239	 0.261294490826116 
2240	 0.261259425538705 
2241	 0.261200775503058 
2242	 0.261118251960261 
2243	 0.261041479451422 
2244	 0.260956181270436 
2245	 0.260858231479021 
2246	 0.260750075397605 
2247	 0.260687949561059 
2248	 0.260595664124779 
2249	 0.260493339451235 
2250	 0.260389546274399 
2251	 0.26028547635813 
2252	 0.260165233067543 
2253	 0.260017390800137 
2254	 0.259910881464947 
2255	 0.259804673836922 
2256	 0.259720751173578 
2257	 0.259675171390974 
2258	 0.259618130199809 
2259	 0.259569789387093 
2260	 0.259514614206708 
2261	 0.259453588893659 
2262	 0.259407059941194 
2263	 0.259352763817957 
2264	 0.259319109866513 
2265	 0.259315360138596 
2266	 0.259304817378295 
2267	 0.259282063445653 
2268	 0.259291602910249 
2269	 0.259325188229331 
2270	 0.259353665660161 
2271	 0.259405232474936 
2272	 0.259481248256926 
2273	 0.259528419816277 
2274	 0.259570351485954 
2275	 0.259609669266464 
2276	 0.25964601761583 
2277	 0.259671309092748 
2278	 0.259668000856495 
2279	 0.259710942350795 
2280	 0.259769486829349 
2281	 0.259821621621412 
2282	 0.259913901217661 
2283	 0.259975425366235 
2284	 0.260003612349342 
2285	 0.260050569302704 
2286	 0.260126337974937 
2287	 0.260153780360657 
2288	 0.26016130763112 
2289	 0.260160792249778 
2290	 0.260118344024787 
2291	 0.260083058975692 
2292	 0.260045476264315 
2293	 0.260017423543868 
2294	 0.260003787668259 
2295	 0.259960496965128 
2296	 0.259921761057778 
2297	 0.259839087580999 
2298	 0.259741817180725 
2299	 0.259700512630603 
2300	 0.259699376254744 
2301	 0.259725475576226 
2302	 0.259733168179211 
2303	 0.259707500689783 
2304	 0.2596484217211 
2305	 0.259540266205883 
2306	 0.259444547031121 
2307	 0.259323200062004 
2308	 0.259213947332779 
2309	 0.259115140873874 
2310	 0.258993884009755 
2311	 0.25885384032585 
2312	 0.258731163969054 
2313	 0.258589695330298 
2314	 0.258483129374977 
2315	 0.258404719657848 
2316	 0.258322737325719 
2317	 0.258288894508055 
2318	 0.258175620763138 
2319	 0.258012751893143 
2320	 0.257873718760119 
2321	 0.257684018886446 
2322	 0.25753789095489 
2323	 0.257444232278481 
2324	 0.257322115532273 
2325	 0.257197071586579 
2326	 0.257057102053567 
2327	 0.256899828124484 
2328	 0.256754268288368 
2329	 0.256575780593905 
2330	 0.256439681941206 
2331	 0.25631825202933 
2332	 0.256191775031364 
2333	 0.256114507538815 
2334	 0.256008160617726 
2335	 0.255904330326584 
2336	 0.255801709992341 
2337	 0.255634381228886 
2338	 0.255468324696453 
2339	 0.255312549116627 
2340	 0.255117122239231 
2341	 0.254928089745511 
2342	 0.254740273724867 
2343	 0.254544508624854 
2344	 0.254343850983479 
2345	 0.254135477117653 
2346	 0.253925598243265 
2347	 0.253744091446596 
2348	 0.25354479333139 
2349	 0.253379357748803 
2350	 0.253273455661587 
2351	 0.253105252620824 
2352	 0.252927143659321 
2353	 0.252754634141784 
2354	 0.252551159930003 
2355	 0.252351238753026 
2356	 0.252163133076632 
2357	 0.251962756953727 
2358	 0.251711869044698 
2359	 0.251538005798968 
2360	 0.251420343526474 
2361	 0.251278532047011 
2362	 0.251182186870869 
2363	 0.251057463478141 
2364	 0.250874100411878 
2365	 0.250722066651809 
2366	 0.250637603191769 
2367	 0.250487262384738 
2368	 0.250318405874419 
2369	 0.250133862433991 
2370	 0.249946689791747 
2371	 0.249605166537886 
2372	 0.249321604400812 
2373	 0.249036131786889 
2374	 0.248700019338953 
2375	 0.248438082096435 
2376	 0.248153702953975 
2377	 0.247891592483175 
2378	 0.247643778012228 
2379	 0.247300905853517 
2380	 0.24693996777171 
2381	 0.24657250609219 
2382	 0.246200584048022 
2383	 0.245913024001879 
2384	 0.245683125351086 
2385	 0.245473891793638 
2386	 0.245252218695086 
2387	 0.244950079352045 
2388	 0.244644987210296 
2389	 0.244360859788904 
2390	 0.244005895598286 
2391	 0.243687210201425 
2392	 0.243403599766308 
2393	 0.243034640218278 
2394	 0.242727290873399 
2395	 0.242505974176433 
2396	 0.242280274838755 
2397	 0.242007433011333 
2398	 0.241690901881157 
2399	 0.241349927504113 
2400	 0.240964369025252 
2401	 0.240641788145455 
2402	 0.240302030704802 
2403	 0.239939563793645 
2404	 0.239598742295619 
2405	 0.239197643948733 
2406	 0.238837704934006 
2407	 0.238492839976092 
2408	 0.238127095210883 
2409	 0.237642458159102 
2410	 0.237065501089344 
2411	 0.236565326713159 
2412	 0.236007607320849 
2413	 0.235535921711982 
2414	 0.235159489243037 
2415	 0.234743707269399 
2416	 0.234343219593059 
2417	 0.233966570268161 
2418	 0.233522911242963 
2419	 0.233028903582784 
2420	 0.232577109087003 
2421	 0.232088407548441 
2422	 0.231700072175578 
2423	 0.231449560734247 
2424	 0.231059647659461 
2425	 0.230616535213892 
2426	 0.23016829299234 
2427	 0.22966198509339 
2428	 0.229237232809955 
2429	 0.228877705578817 
2430	 0.228464336245725 
2431	 0.227988525056141 
2432	 0.227538241850916 
2433	 0.227107651667491 
2434	 0.226662815300702 
2435	 0.226213026822034 
2436	 0.225892451189909 
2437	 0.225640143390141 
2438	 0.225265993583601 
2439	 0.224943394188574 
2440	 0.224526895782741 
2441	 0.22389112738667 
2442	 0.22352233994392 
2443	 0.223357288744569 
2444	 0.223024965429765 
2445	 0.222686324733034 
2446	 0.22235033528598 
2447	 0.22194161898825 
2448	 0.221583782773434 
2449	 0.221280712710424 
2450	 0.220986719293661 
2451	 0.220674481275592 
2452	 0.220323872580664 
2453	 0.220033689130341 
2454	 0.219657176681315 
2455	 0.21915717579662 
2456	 0.218756947364668 
2457	 0.218402414574719 
2458	 0.21802625535587 
2459	 0.217689611536372 
2460	 0.217317031335093 
2461	 0.21683984310478 
2462	 0.216428402808416 
2463	 0.216057110960027 
2464	 0.215720102810758 
2465	 0.215483663299462 
2466	 0.215206374925401 
2467	 0.214935941421612 
2468	 0.21459293945581 
2469	 0.214130497191932 
2470	 0.213818952882684 
2471	 0.213458771895393 
2472	 0.213080024615051 
2473	 0.212894624653358 
2474	 0.212619563765735 
2475	 0.212228494249111 
2476	 0.211959390389461 
2477	 0.211679662582238 
2478	 0.211385715815106 
2479	 0.211101684765923 
2480	 0.210830585122049 
2481	 0.210569840822159 
2482	 0.210200899610612 
2483	 0.209896173417249 
2484	 0.209528439639495 
2485	 0.209194033426322 
2486	 0.209093289273423 
2487	 0.208993847511255 
2488	 0.209053155505118 
2489	 0.208972299234563 
2490	 0.208549511813461 
2491	 0.208171243347321 
2492	 0.207612510798084 
2493	 0.207022478958276 
2494	 0.206678310211681 
2495	 0.206350774335769 
2496	 0.20625627787787 
2497	 0.206423003342782 
2498	 0.206417708198795 
2499	 0.20615836132738 
2500	 0.205907558655588 
