Wavelength	mm1800008.asd
350	 5.45206045238627E-02 
351	 0.059834751237315 
352	 6.14944509910264E-02 
353	 5.75105884297116E-02 
354	 5.58409880102958E-02 
355	 5.13417710925129E-02 
356	 5.34463174011577E-02 
357	 0.067147426257767 
358	 0.070732252075522 
359	 6.13996045302849E-02 
360	 5.24979839059777E-02 
361	 6.30694189094942E-02 
362	 6.18789394493711E-02 
363	 5.84188173247665E-02 
364	 0.059591166981172 
365	 6.03782259250775E-02 
366	 6.05077246811931E-02 
367	 6.01699710097697E-02 
368	 6.02202235143039E-02 
369	 0.063523140523488 
370	 6.23344800564991E-02 
371	 5.98570033121249E-02 
372	 6.52545082110384E-02 
373	 6.31997196213633E-02 
374	 6.23542988724575E-02 
375	 6.68487126269893E-02 
376	 6.79299380629901E-02 
377	 6.69373016927098E-02 
378	 6.60343478697268E-02 
379	 6.72677417071242E-02 
380	 7.07386983961911E-02 
381	 7.02340264444041E-02 
382	 0.067739963736666 
383	 7.07329197296517E-02 
384	 7.30868411782397E-02 
385	 7.27750347992266E-02 
386	 7.12365973083915E-02 
387	 7.54341841070501E-02 
388	 7.83886229348224E-02 
389	 7.96734468811262E-02 
390	 8.05674422836828E-02 
391	 7.94950945395054E-02 
392	 8.05651832180985E-02 
393	 8.37926142380142E-02 
394	 8.56185487218832E-02 
395	 0.085185939033239 
396	 8.60282786182488E-02 
397	 8.94270300206996E-02 
398	 9.03036045742342E-02 
399	 9.19866600603605E-02 
400	 9.38472158376363E-02 
401	 9.43382838172177E-02 
402	 9.49097832220014E-02 
403	 9.63985075200696E-02 
404	 9.83672520018332E-02 
405	 0.099273536055701 
406	 9.98294365946379E-02 
407	 0.101415379118602 
408	 0.103787092310874 
409	 0.101892090287335 
410	 0.10240880836017 
411	 0.104512984574831 
412	 0.104501184831404 
413	 0.10584687844777 
414	 0.106484583067151 
415	 0.105992634691029 
416	 0.106576499358148 
417	 0.107758971447093 
418	 0.108554008145654 
419	 0.108404870535482 
420	 0.10863225083853 
421	 0.108587631663206 
422	 0.108866045303717 
423	 0.110533671173033 
424	 0.110552481453104 
425	 0.109853880409123 
426	 0.109386011724778 
427	 0.109126543164893 
428	 0.109145474529076 
429	 0.109232408196107 
430	 0.109142307237373 
431	 0.108944250059971 
432	 0.108803358490509 
433	 0.108943063408731 
434	 0.109597912327047 
435	 0.109819741629676 
436	 0.109937746237714 
437	 0.110290818089098 
438	 0.110502984974443 
439	 0.110994614079418 
440	 0.111753228785938 
441	 0.11257028757181 
442	 0.113659747481454 
443	 0.114540681139136 
444	 0.115058069009546 
445	 0.115596631568189 
446	 0.116601213335728 
447	 0.117571121696584 
448	 0.117960728891675 
449	 0.118255648499477 
450	 0.118943933307699 
451	 0.119947244809804 
452	 0.120719520508745 
453	 0.121189505181836 
454	 0.121565662485761 
455	 0.122086260712408 
456	 0.12297606389457 
457	 0.123514842082324 
458	 0.123871138604114 
459	 0.124532442125171 
460	 0.12498239196279 
461	 0.125445026890302 
462	 0.125981335614979 
463	 0.126336042320681 
464	 0.126577962310088 
465	 0.12700665421686 
466	 0.12770826119181 
467	 0.127627775929955 
468	 0.127886647595072 
469	 0.128497799436117 
470	 0.128601418546524 
471	 0.129001913560404 
472	 0.129398334959531 
473	 0.129541249208172 
474	 0.129701883999469 
475	 0.130063615846145 
476	 0.130404797315357 
477	 0.130424275899752 
478	 0.130702412235057 
479	 0.131183713003506 
480	 0.131653674236956 
481	 0.131759954169755 
482	 0.132132152291429 
483	 0.132588965931394 
484	 0.132838239738209 
485	 0.133136238205331 
486	 0.133315678175737 
487	 0.133444594504917 
488	 0.133776136066561 
489	 0.134162252913826 
490	 0.134504726459826 
491	 0.134770703040004 
492	 0.13506576841829 
493	 0.135276676825466 
494	 0.135524736444991 
495	 0.135983180249557 
496	 0.13634614585947 
497	 0.136542659566425 
498	 0.136673195972393 
499	 0.137054375948855 
500	 0.137347416824635 
501	 0.137603428463375 
502	 0.137930328192872 
503	 0.138149962107057 
504	 0.138421208647542 
505	 0.138723379490456 
506	 0.138877480763305 
507	 0.139119202980002 
508	 0.139393828278569 
509	 0.139633910922885 
510	 0.139898733446172 
511	 0.14014068578991 
512	 0.140348398657624 
513	 0.140543163143166 
514	 0.140842819594699 
515	 0.1411660443606 
516	 0.141458703245201 
517	 0.141758145966883 
518	 0.141992348172388 
519	 0.14214558777304 
520	 0.142268704030848 
521	 0.142642547862383 
522	 0.142923468170275 
523	 0.143074257013372 
524	 0.143404863565007 
525	 0.143552789873196 
526	 0.143739690196617 
527	 0.144124455223894 
528	 0.144247064680282 
529	 0.144395226134781 
530	 0.144673563848872 
531	 0.14503731246418 
532	 0.145215483528346 
533	 0.145380285233263 
534	 0.145655533580602 
535	 0.145940446060188 
536	 0.146148323677688 
537	 0.146338669013251 
538	 0.146614706480884 
539	 0.146918684268824 
540	 0.147131050286268 
541	 0.14728158288348 
542	 0.147602320290939 
543	 0.14778728034852 
544	 0.147993829583304 
545	 0.14838338523073 
546	 0.148605466120127 
547	 0.148859824375413 
548	 0.149166923010655 
549	 0.149391681234806 
550	 0.1496625314053 
551	 0.149935323276403 
552	 0.150180918135182 
553	 0.15049744370147 
554	 0.150779572548233 
555	 0.151067907636311 
556	 0.151465101879066 
557	 0.151898165127999 
558	 0.152265102317372 
559	 0.152586147361394 
560	 0.153112409645238 
561	 0.153497848617055 
562	 0.153760300093372 
563	 0.154053074297445 
564	 0.15450683780828 
565	 0.154919051383956 
566	 0.155210279084112 
567	 0.155463369258967 
568	 0.155864462855483 
569	 0.156382929109005 
570	 0.156952868581576 
571	 0.157623234681024 
572	 0.158227650379837 
573	 0.158727925174392 
574	 0.159187317705122 
575	 0.159668319039231 
576	 0.160193798252619 
577	 0.160760289362683 
578	 0.161330632119628 
579	 0.161907922142284 
580	 0.162478012131514 
581	 0.163031823756178 
582	 0.163626485166977 
583	 0.164252316925458 
584	 0.164890692328828 
585	 0.165522688167175 
586	 0.166179757991911 
587	 0.166876161855974 
588	 0.167611361110613 
589	 0.168352740102208 
590	 0.169116269380086 
591	 0.169872524081221 
592	 0.170554814180729 
593	 0.171170020772396 
594	 0.171724354649532 
595	 0.172229745059802 
596	 0.172693014811633 
597	 0.173245378947553 
598	 0.173858268153542 
599	 0.174423059492142 
600	 0.174972185927953 
601	 0.175544641515301 
602	 0.17614773781229 
603	 0.176737826502623 
604	 0.177266032687871 
605	 0.177804663269643 
606	 0.178441906388319 
607	 0.179092299098414 
608	 0.179670464955577 
609	 0.180210695370414 
610	 0.180878133503994 
611	 0.181412829259783 
612	 0.181819341272983 
613	 0.182179249064524 
614	 0.18259642942422 
615	 0.182984679424564 
616	 0.183344754450076 
617	 0.183732664427949 
618	 0.18411413648407 
619	 0.184455005265884 
620	 0.184754662474161 
621	 0.185080387461124 
622	 0.185408652096313 
623	 0.185735427567722 
624	 0.186057968196892 
625	 0.186336689370096 
626	 0.186630736315162 
627	 0.186952290215464 
628	 0.187242132427794 
629	 0.187483932418689 
630	 0.187728132532285 
631	 0.188019977899371 
632	 0.18830116969912 
633	 0.188589666892523 
634	 0.188855386077963 
635	 0.189040745284081 
636	 0.189301674365987 
637	 0.189601788457923 
638	 0.189881741620424 
639	 0.190111781190523 
640	 0.190352239117924 
641	 0.190605475683494 
642	 0.190850234689883 
643	 0.191114900178625 
644	 0.191373513348903 
645	 0.191624460874877 
646	 0.191910367882278 
647	 0.192119053582241 
648	 0.192318056812135 
649	 0.192601829878229 
650	 0.192947461112858 
651	 0.193230694199198 
652	 0.19345433354476 
653	 0.193728382653121 
654	 0.193954888651039 
655	 0.194199778872785 
656	 0.19450493389884 
657	 0.194780434586733 
658	 0.195055941626808 
659	 0.195342245670695 
660	 0.195641560813448 
661	 0.19595096979656 
662	 0.196261055551867 
663	 0.196552883008041 
664	 0.196790969007882 
665	 0.197118683489056 
666	 0.19746893733975 
667	 0.19774715467905 
668	 0.198013466847005 
669	 0.198337342422879 
670	 0.198717547443895 
671	 0.199090012421391 
672	 0.199395510278296 
673	 0.199705939436395 
674	 0.200066016446656 
675	 0.200397593166724 
676	 0.200736420462307 
677	 0.201086801066814 
678	 0.201441536527299 
679	 0.201803020000112 
680	 0.202174974929583 
681	 0.202545552909246 
682	 0.202882551792357 
683	 0.203256852514343 
684	 0.203664457122244 
685	 0.204077815724151 
686	 0.204469335417392 
687	 0.204848937973021 
688	 0.20522589801205 
689	 0.205607681766405 
690	 0.205991952715412 
691	 0.20639259352316 
692	 0.206803658349501 
693	 0.207171367823152 
694	 0.207588109123797 
695	 0.208015232085008 
696	 0.208383180261884 
697	 0.208727740621469 
698	 0.209140469475569 
699	 0.209617287361598 
700	 0.210052492353491 
701	 0.210453940850082 
702	 0.210848331106423 
703	 0.211253688146725 
704	 0.211645008652375 
705	 0.212038631592727 
706	 0.212436527664591 
707	 0.212831408637221 
708	 0.21320675334553 
709	 0.213612800979416 
710	 0.214058111878098 
711	 0.214485812284291 
712	 0.21482819721347 
713	 0.215158205293233 
714	 0.215559829555431 
715	 0.216000147486566 
716	 0.216354451030341 
717	 0.216653219385737 
718	 0.217032444919237 
719	 0.217420652237226 
720	 0.217768924692644 
721	 0.218069003306689 
722	 0.218384486548235 
723	 0.218700999797873 
724	 0.219005902814838 
725	 0.219293418357833 
726	 0.219598256273164 
727	 0.219888998379406 
728	 0.220143230630684 
729	 0.220356125672715 
730	 0.22063790576257 
731	 0.220902401148175 
732	 0.221092641855394 
733	 0.221303932865898 
734	 0.221563097616537 
735	 0.221789962110669 
736	 0.221892954998222 
737	 0.22201741889124 
738	 0.222183253661436 
739	 0.222359997284037 
740	 0.222476278549065 
741	 0.222598325378649 
742	 0.222703891569541 
743	 0.22278064323097 
744	 0.222905497402701 
745	 0.222926140705747 
746	 0.222907479087866 
747	 0.222987031165773 
748	 0.223004037817066 
749	 0.223004530831683 
750	 0.22302483766331 
751	 0.223066161228892 
752	 0.22303067818526 
753	 0.222936258251219 
754	 0.222841483136352 
755	 0.222832920701251 
756	 0.222844903840911 
757	 0.222795632966982 
758	 0.222632016893467 
759	 0.222558954136636 
760	 0.222487469638974 
761	 0.222369751388998 
762	 0.222245793935161 
763	 0.22214893841066 
764	 0.222032983001485 
765	 0.221866725252033 
766	 0.221716661083349 
767	 0.221603447049194 
768	 0.221477060092453 
769	 0.221275954886773 
770	 0.221140855135748 
771	 0.221012049444728 
772	 0.220840337947724 
773	 0.220614380234184 
774	 0.220407213443585 
775	 0.220243034654063 
776	 0.220107848877766 
777	 0.21992507354723 
778	 0.219710707545887 
779	 0.219529759031644 
780	 0.219429999804511 
781	 0.219199140024201 
782	 0.218966612172914 
783	 0.21878670915129 
784	 0.218605887944254 
785	 0.218416202339239 
786	 0.218226737606464 
787	 0.218038423581221 
788	 0.217813350964836 
789	 0.217659089927215 
790	 0.217511977652247 
791	 0.217276558851795 
792	 0.217060408955467 
793	 0.216873916027916 
794	 0.21671260317802 
795	 0.216557662185649 
796	 0.216331646669036 
797	 0.216118115694552 
798	 0.215970218679307 
799	 0.215841079583212 
800	 0.215675172223255 
801	 0.215490773652656 
802	 0.215316327884764 
803	 0.215103427975287 
804	 0.214965277034422 
805	 0.214869854989747 
806	 0.214700807391698 
807	 0.214489503201659 
808	 0.214314957196771 
809	 0.214182291346942 
810	 0.213996094249225 
811	 0.213851755636569 
812	 0.213709510575491 
813	 0.213545613324117 
814	 0.213466504604094 
815	 0.213378679049624 
816	 0.213250663457624 
817	 0.213086858076784 
818	 0.212917451283005 
819	 0.21281909966939 
820	 0.212733750027445 
821	 0.21251648902568 
822	 0.212447628281391 
823	 0.212339888150311 
824	 0.212135612777643 
825	 0.212101005382024 
826	 0.212091530319017 
827	 0.212011729821208 
828	 0.211836133961675 
829	 0.211712269149943 
830	 0.211606631505626 
831	 0.211498411463768 
832	 0.211389810711458 
833	 0.211402594936835 
834	 0.211345416561829 
835	 0.211201089438555 
836	 0.211130062549446 
837	 0.211086821739556 
838	 0.211050872278397 
839	 0.211003328765606 
840	 0.210926320518632 
841	 0.210818130551965 
842	 0.210749088824166 
843	 0.210756667873584 
844	 0.210714244422806 
845	 0.210707003763683 
846	 0.210708078849989 
847	 0.210661945846048 
848	 0.210665895365625 
849	 0.210673992327816 
850	 0.210643118552348 
851	 0.210553901388887 
852	 0.210513587460788 
853	 0.210492634316589 
854	 0.210491301520952 
855	 0.210579541744152 
856	 0.210644355629769 
857	 0.210650698639648 
858	 0.210618898237753 
859	 0.210653238685951 
860	 0.210691921005492 
861	 0.210673899867437 
862	 0.210590565484235 
863	 0.210641988608797 
864	 0.210736761754975 
865	 0.210798240102928 
866	 0.210791611208123 
867	 0.210856050755497 
868	 0.21091522243327 
869	 0.210923649259941 
870	 0.210899232719631 
871	 0.210980985498655 
872	 0.211109688832962 
873	 0.211228990651059 
874	 0.211347179032681 
875	 0.211422035100654 
876	 0.211482001784987 
877	 0.211560247407345 
878	 0.211650221724446 
879	 0.21176711004599 
880	 0.211859710129966 
881	 0.211898933072363 
882	 0.212040168825532 
883	 0.212174991668353 
884	 0.212279719130419 
885	 0.212385006546028 
886	 0.212508456435278 
887	 0.212657152352744 
888	 0.212792575365747 
889	 0.212859785937159 
890	 0.213017367310703 
891	 0.213151234496226 
892	 0.213235251907762 
893	 0.213392463814828 
894	 0.213613484918896 
895	 0.213813364832018 
896	 0.213952989156883 
897	 0.21410303120019 
898	 0.214308607510212 
899	 0.214537487147145 
900	 0.214723586097604 
901	 0.214763588783033 
902	 0.214912340616631 
903	 0.215168887896875 
904	 0.215430326219945 
905	 0.21560344464649 
906	 0.215789752899773 
907	 0.216022228196377 
908	 0.216293399423978 
909	 0.216608850189042 
910	 0.216831285027562 
911	 0.216958036379558 
912	 0.217097374557164 
913	 0.217385691464905 
914	 0.217721013896038 
915	 0.218019335022909 
916	 0.218248442660833 
917	 0.218459260084866 
918	 0.218703350070868 
919	 0.218962883438464 
920	 0.219155566345107 
921	 0.219438089999736 
922	 0.219788892945405 
923	 0.2201384189801 
924	 0.220405807510302 
925	 0.220658980678144 
926	 0.220980704225587 
927	 0.221353920475504 
928	 0.221583955674877 
929	 0.221835622741283 
930	 0.222178067777964 
931	 0.222580344410107 
932	 0.222852253542847 
933	 0.223138601505087 
934	 0.223519247982556 
935	 0.223986757831018 
936	 0.224355624104317 
937	 0.224720287399053 
938	 0.225023550231389 
939	 0.225233823970251 
940	 0.225546830728049 
941	 0.226003143052311 
942	 0.226519213847059 
943	 0.226973777379593 
944	 0.227335837301011 
945	 0.227673946983863 
946	 0.228033204329809 
947	 0.22841960292213 
948	 0.228736658819702 
949	 0.229132827741255 
950	 0.229564271845046 
951	 0.229942814780518 
952	 0.230515549102008 
953	 0.230977237344947 
954	 0.231351342485918 
955	 0.231822435997932 
956	 0.232264155508023 
957	 0.232675337031992 
958	 0.233051792332454 
959	 0.233403816518091 
960	 0.233816816891943 
961	 0.234375151447691 
962	 0.234964861155225 
963	 0.235391899202919 
964	 0.235779506538049 
965	 0.236281217187105 
966	 0.236845884900072 
967	 0.237314089770889 
968	 0.237793579812561 
969	 0.238246622387443 
970	 0.238639371070204 
971	 0.238994864874762 
972	 0.239604362417202 
973	 0.240196420639936 
974	 0.240695016344436 
975	 0.241192978849401 
976	 0.241742999872529 
977	 0.242188039938581 
978	 0.242608979399135 
979	 0.243196212839253 
980	 0.243790033310536 
981	 0.244261527908677 
982	 0.244732017688792 
983	 0.245396875279515 
984	 0.245993229333813 
985	 0.246461204159649 
986	 0.246922260909065 
987	 0.247510773652261 
988	 0.247926969780873 
989	 0.248289355041679 
990	 0.248764486741502 
991	 0.249436050480863 
992	 0.24999948572767 
993	 0.250533139583513 
994	 0.25108151864309 
995	 0.251638374792273 
996	 0.252090948510653 
997	 0.252545634647816 
998	 0.252991512990724 
999	 0.253416672736348 
1000	 0.253976703963804 
1001	 0.250803418869773 
1002	 0.251272661166857 
1003	 0.251713646208873 
1004	 0.252131541241908 
1005	 0.252507453964316 
1006	 0.252936376524858 
1007	 0.253346473368471 
1008	 0.253821142619099 
1009	 0.254317172711617 
1010	 0.254780258876662 
1011	 0.255160946898193 
1012	 0.25551614073943 
1013	 0.255902616343415 
1014	 0.25630037428728 
1015	 0.256710452826043 
1016	 0.25710133617338 
1017	 0.257523262088257 
1018	 0.257963105484404 
1019	 0.258397717118492 
1020	 0.258750324965097 
1021	 0.259117971201238 
1022	 0.259453176725456 
1023	 0.259777916101703 
1024	 0.260176262085481 
1025	 0.260510781766678 
1026	 0.26083172423643 
1027	 0.261128879333009 
1028	 0.261421365158529 
1029	 0.261852753589978 
1030	 0.262260876340544 
1031	 0.262620092961127 
1032	 0.26297229453094 
1033	 0.263297846463406 
1034	 0.263553110389326 
1035	 0.263895531481113 
1036	 0.264271680623153 
1037	 0.264633798872043 
1038	 0.265029893232312 
1039	 0.265346545544622 
1040	 0.2656361872088 
1041	 0.265942844808826 
1042	 0.266232968682015 
1043	 0.266621699509141 
1044	 0.266962602677909 
1045	 0.267308502314928 
1046	 0.267606737116526 
1047	 0.267954009112314 
1048	 0.268233982873816 
1049	 0.268509998757683 
1050	 0.268884917076841 
1051	 0.269279724067099 
1052	 0.269651683915403 
1053	 0.270012726787952 
1054	 0.270345311729306 
1055	 0.270660024489578 
1056	 0.270978395438051 
1057	 0.271292181121138 
1058	 0.271598570168208 
1059	 0.271963878628897 
1060	 0.272363985600819 
1061	 0.272711128311054 
1062	 0.273107023321079 
1063	 0.273478444167689 
1064	 0.273779302187601 
1065	 0.274056843706194 
1066	 0.274311110307517 
1067	 0.274600580835429 
1068	 0.27487151246884 
1069	 0.275137514842316 
1070	 0.275426294228257 
1071	 0.2757398733928 
1072	 0.276023752186725 
1073	 0.276305590415108 
1074	 0.276590318179964 
1075	 0.276871391808185 
1076	 0.2771485452587 
1077	 0.277383370637114 
1078	 0.277612610026069 
1079	 0.277836487193372 
1080	 0.278068199566528 
1081	 0.278377794212194 
1082	 0.278680890410242 
1083	 0.278941057687201 
1084	 0.279188059223749 
1085	 0.279420090285746 
1086	 0.279607377984806 
1087	 0.27981987687834 
1088	 0.280036507683737 
1089	 0.280263011001504 
1090	 0.280472116324585 
1091	 0.280664979426406 
1092	 0.280853888646063 
1093	 0.281050224386054 
1094	 0.281273809501179 
1095	 0.281496204593573 
1096	 0.281713187757114 
1097	 0.281950608407823 
1098	 0.282173263619279 
1099	 0.282386758462472 
1100	 0.282587385009365 
1101	 0.282769214101253 
1102	 0.282973869685976 
1103	 0.283169801914471 
1104	 0.283388212322874 
1105	 0.28362561281791 
1106	 0.283843801388061 
1107	 0.284030739117718 
1108	 0.284229858866846 
1109	 0.284434115267657 
1110	 0.284646572251867 
1111	 0.284856822249817 
1112	 0.285087282527965 
1113	 0.28528093932208 
1114	 0.285450479359359 
1115	 0.28562867026982 
1116	 0.285773971509994 
1117	 0.285964587803178 
1118	 0.286169499201863 
1119	 0.286404448432476 
1120	 0.286640187152642 
1121	 0.286875567561185 
1122	 0.28709046093453 
1123	 0.287270554137204 
1124	 0.287462012301753 
1125	 0.287641065045637 
1126	 0.287829232923425 
1127	 0.288018219327356 
1128	 0.288214774673504 
1129	 0.288419400090475 
1130	 0.288615805915337 
1131	 0.288819171200495 
1132	 0.289007809740952 
1133	 0.289172710252597 
1134	 0.28935724650309 
1135	 0.289552963326332 
1136	 0.28974026789523 
1137	 0.289910596844543 
1138	 0.290094807520243 
1139	 0.290272725711915 
1140	 0.290435245009203 
1141	 0.290598556253887 
1142	 0.290778208758032 
1143	 0.290938163498012 
1144	 0.291075802537994 
1145	 0.291221752571749 
1146	 0.291365429579295 
1147	 0.291506147722275 
1148	 0.291641678296373 
1149	 0.291784881650756 
1150	 0.291932880540222 
1151	 0.292079644326516 
1152	 0.29223360302397 
1153	 0.292364787477233 
1154	 0.292502655696558 
1155	 0.292627839996237 
1156	 0.292779565448229 
1157	 0.292950636902036 
1158	 0.293098577715038 
1159	 0.29325692922174 
1160	 0.293396648884326 
1161	 0.293502138408868 
1162	 0.293631795106932 
1163	 0.293779242914104 
1164	 0.293909315621821 
1165	 0.294025831057002 
1166	 0.294161489361763 
1167	 0.294287213981179 
1168	 0.29442079744525 
1169	 0.294568733920461 
1170	 0.294747702904156 
1171	 0.294890656133531 
1172	 0.295023977931136 
1173	 0.295158899345588 
1174	 0.295277007791321 
1175	 0.295407149231745 
1176	 0.295546010076168 
1177	 0.295682434473206 
1178	 0.29582289155916 
1179	 0.295955598520956 
1180	 0.296094946000496 
1181	 0.296218966223677 
1182	 0.296316352226132 
1183	 0.296424083801064 
1184	 0.296559579168834 
1185	 0.296705186945442 
1186	 0.296845717234736 
1187	 0.297022795774197 
1188	 0.297156695278057 
1189	 0.29725756978911 
1190	 0.297375835680242 
1191	 0.297487540646335 
1192	 0.297605094583292 
1193	 0.297722289981078 
1194	 0.297848347635298 
1195	 0.297989405354075 
1196	 0.298116341215203 
1197	 0.298236168278422 
1198	 0.298364946608087 
1199	 0.298494056147694 
1200	 0.29861569983183 
1201	 0.298741979630821 
1202	 0.298881862992024 
1203	 0.299007972967146 
1204	 0.299125914165096 
1205	 0.299241894637893 
1206	 0.299351912500124 
1207	 0.29946754531185 
1208	 0.299592147529809 
1209	 0.299695205079432 
1210	 0.299780044464259 
1211	 0.299883804667888 
1212	 0.299972196920589 
1213	 0.300077768090807 
1214	 0.300219400140517 
1215	 0.300344274063384 
1216	 0.30046509406533 
1217	 0.300593041675472 
1218	 0.300684395010039 
1219	 0.300744762089837 
1220	 0.300834970379886 
1221	 0.300911926783136 
1222	 0.301001949473965 
1223	 0.301123545669014 
1224	 0.301221351481123 
1225	 0.30129210254627 
1226	 0.301388512056101 
1227	 0.301499251756927 
1228	 0.301603515922209 
1229	 0.301722091130517 
1230	 0.301829478324462 
1231	 0.301924235952559 
1232	 0.302021812210412 
1233	 0.302118596201918 
1234	 0.302211005061132 
1235	 0.302313731496496 
1236	 0.302431323255574 
1237	 0.302517814725709 
1238	 0.302602180400805 
1239	 0.302671630122541 
1240	 0.302699064384219 
1241	 0.302763689457941 
1242	 0.302829694460851 
1243	 0.302916602874194 
1244	 0.303042021581204 
1245	 0.303141561451613 
1246	 0.303247399258694 
1247	 0.303341725516505 
1248	 0.303402447937178 
1249	 0.303486587522366 
1250	 0.303597278956088 
1251	 0.303695472035402 
1252	 0.303789010966717 
1253	 0.303895414186354 
1254	 0.303979106701154 
1255	 0.30403718473493 
1256	 0.304111101303618 
1257	 0.304190158104682 
1258	 0.304261618434735 
1259	 0.304333341492655 
1260	 0.304396898585369 
1261	 0.304442888402738 
1262	 0.304504413332906 
1263	 0.304585324703029 
1264	 0.304641414484903 
1265	 0.304683200808803 
1266	 0.304735512672637 
1267	 0.304768076219744 
1268	 0.304816060713066 
1269	 0.304867518767038 
1270	 0.304934725364095 
1271	 0.305001061800325 
1272	 0.305052521827695 
1273	 0.305139980766771 
1274	 0.305254691850569 
1275	 0.30536603620442 
1276	 0.305505401204635 
1277	 0.30562213344446 
1278	 0.305719653623244 
1279	 0.305840515038297 
1280	 0.305963122989417 
1281	 0.306092230669418 
1282	 0.306246062251093 
1283	 0.306385708001667 
1284	 0.306523457802823 
1285	 0.306655470140318 
1286	 0.306763273308185 
1287	 0.306891963683194 
1288	 0.307023044597614 
1289	 0.307156804240812 
1290	 0.307280126220126 
1291	 0.307414573835183 
1292	 0.307529157626166 
1293	 0.307625011846618 
1294	 0.307721034232895 
1295	 0.307816248399388 
1296	 0.307902291122995 
1297	 0.307983786562324 
1298	 0.308048901429914 
1299	 0.308089444551601 
1300	 0.308146901818614 
1301	 0.308214417249667 
1302	 0.308255311495843 
1303	 0.308289148015876 
1304	 0.308328935356185 
1305	 0.308331659623506 
1306	 0.308331743263208 
1307	 0.308329071335804 
1308	 0.308307610277703 
1309	 0.308286810948974 
1310	 0.308248266077407 
1311	 0.308215942832741 
1312	 0.308189148714691 
1313	 0.308152805571599 
1314	 0.308104966858407 
1315	 0.308065014418076 
1316	 0.308017710982354 
1317	 0.307989337638244 
1318	 0.307975622192555 
1319	 0.307953041054947 
1320	 0.307947361547362 
1321	 0.307920715957823 
1322	 0.307867159818821 
1323	 0.307840679307788 
1324	 0.307806299416102 
1325	 0.30775508754821 
1326	 0.307718706257608 
1327	 0.307666390804766 
1328	 0.307618895205922 
1329	 0.307586081639556 
1330	 0.307532335009479 
1331	 0.307477883697067 
1332	 0.307408422954599 
1333	 0.307319033253345 
1334	 0.307238484411713 
1335	 0.30713948774613 
1336	 0.307075080302331 
1337	 0.307019061868724 
1338	 0.306979023078895 
1339	 0.306981490265915 
1340	 0.30695556369944 
1341	 0.306928945403706 
1342	 0.306890397562846 
1343	 0.30682397950297 
1344	 0.306780445597486 
1345	 0.306750248576693 
1346	 0.306713868885415 
1347	 0.306683535865443 
1348	 0.306649860165193 
1349	 0.306587001633941 
1350	 0.306530209189132 
1351	 0.306485109899491 
1352	 0.306445198266941 
1353	 0.306399070647591 
1354	 0.306369372024363 
1355	 0.30631653166968 
1356	 0.306237733601484 
1357	 0.306181945167089 
1358	 0.306127749833598 
1359	 0.306075599138271 
1360	 0.306035842675813 
1361	 0.305991131427489 
1362	 0.305939317382848 
1363	 0.305894797095816 
1364	 0.305857814796552 
1365	 0.305819686360279 
1366	 0.305791625577677 
1367	 0.305747871465573 
1368	 0.305697472603704 
1369	 0.30565002065965 
1370	 0.305579414376585 
1371	 0.305490107740986 
1372	 0.30538874327837 
1373	 0.305269830455702 
1374	 0.305143140618987 
1375	 0.305008617006105 
1376	 0.304850549249915 
1377	 0.304686126254278 
1378	 0.304486100762452 
1379	 0.304254457289512 
1380	 0.304014071270243 
1381	 0.30375210782738 
1382	 0.303472825445579 
1383	 0.303194776906965 
1384	 0.302869199517913 
1385	 0.302534520017431 
1386	 0.30213830076752 
1387	 0.301690321087256 
1388	 0.301209914929341 
1389	 0.300693308744754 
1390	 0.300125356844826 
1391	 0.299509088669766 
1392	 0.298877173487872 
1393	 0.298189773496227 
1394	 0.297446024014842 
1395	 0.296664367538498 
1396	 0.295853347370073 
1397	 0.295044947370769 
1398	 0.294204595220443 
1399	 0.29337724688734 
1400	 0.292547116917543 
1401	 0.291725146042013 
1402	 0.290872568414522 
1403	 0.290093036893374 
1404	 0.289343374767977 
1405	 0.288624467994198 
1406	 0.287955022226768 
1407	 0.287290990543668 
1408	 0.286616481265128 
1409	 0.286020378794426 
1410	 0.285421314766796 
1411	 0.284948909055212 
1412	 0.284549087922547 
1413	 0.284240077360833 
1414	 0.284075493949058 
1415	 0.283993800677607 
1416	 0.284015817735238 
1417	 0.284116779690398 
1418	 0.284203718860183 
1419	 0.284313736389526 
1420	 0.284438467797555 
1421	 0.284532855088083 
1422	 0.28462997583766 
1423	 0.284718926684949 
1424	 0.284752476192044 
1425	 0.284731377916658 
1426	 0.284720938128523 
1427	 0.284675136756139 
1428	 0.284641993214271 
1429	 0.284610639247927 
1430	 0.284568725086069 
1431	 0.284527793399764 
1432	 0.284468289709632 
1433	 0.284381016208786 
1434	 0.284321146164272 
1435	 0.284239902598479 
1436	 0.284202020531201 
1437	 0.284207265224039 
1438	 0.284202739766725 
1439	 0.284217139716013 
1440	 0.284229849281725 
1441	 0.284233635151899 
1442	 0.284238325951464 
1443	 0.284226544943265 
1444	 0.284219994040272 
1445	 0.284209282812438 
1446	 0.284191012008505 
1447	 0.284204293367732 
1448	 0.28421148533584 
1449	 0.284198732533183 
1450	 0.284195118165705 
1451	 0.284191558039491 
1452	 0.284176118316589 
1453	 0.284175611648426 
1454	 0.284193215119451 
1455	 0.284193671908458 
1456	 0.284188045400488 
1457	 0.284183195439361 
1458	 0.284173451762427 
1459	 0.284167525150886 
1460	 0.284155799781888 
1461	 0.284157035485038 
1462	 0.284157037459152 
1463	 0.284174243818801 
1464	 0.284209585943692 
1465	 0.2842468864648 
1466	 0.284290009797753 
1467	 0.284347221864935 
1468	 0.28438895122169 
1469	 0.284477419936651 
1470	 0.284604544699033 
1471	 0.284739172010532 
1472	 0.284885527653964 
1473	 0.285065284200135 
1474	 0.285207024981774 
1475	 0.285333931556089 
1476	 0.285461230084658 
1477	 0.285600441749902 
1478	 0.285762881446736 
1479	 0.285930257271711 
1480	 0.286129372784655 
1481	 0.286331047562358 
1482	 0.286516034268521 
1483	 0.286702509459446 
1484	 0.286875991691741 
1485	 0.287025377442728 
1486	 0.287199811766348 
1487	 0.287378500354881 
1488	 0.287559212638428 
1489	 0.287757438389409 
1490	 0.287936520100015 
1491	 0.288116100995297 
1492	 0.288277578587023 
1493	 0.288418757295041 
1494	 0.288568324710916 
1495	 0.288702696651358 
1496	 0.288847090676194 
1497	 0.289006872941728 
1498	 0.289157809411173 
1499	 0.289312305459427 
1500	 0.289451940521163 
1501	 0.289581163352392 
1502	 0.289705834695195 
1503	 0.289813929991578 
1504	 0.289925576207633 
1505	 0.29005156175757 
1506	 0.290189655713657 
1507	 0.290333869667795 
1508	 0.290478585880529 
1509	 0.29061632264534 
1510	 0.290735121004257 
1511	 0.290832236341302 
1512	 0.290928597707023 
1513	 0.291043924554747 
1514	 0.291165064585373 
1515	 0.291286956373325 
1516	 0.291423612572548 
1517	 0.291533764385688 
1518	 0.291615831720412 
1519	 0.29171763733805 
1520	 0.291818246216483 
1521	 0.29192236920657 
1522	 0.29202983233041 
1523	 0.292143737667278 
1524	 0.292269718304859 
1525	 0.292375581842733 
1526	 0.292478997473837 
1527	 0.292585740380454 
1528	 0.292679158658852 
1529	 0.292774500826634 
1530	 0.292874022186747 
1531	 0.29297857536122 
1532	 0.293084316496972 
1533	 0.293175059519347 
1534	 0.293273544643986 
1535	 0.293358939549536 
1536	 0.293416161794413 
1537	 0.293491380339596 
1538	 0.293580142266666 
1539	 0.293652096549677 
1540	 0.293706364421637 
1541	 0.293781270526391 
1542	 0.293862109651632 
1543	 0.293940420243701 
1544	 0.294042483581256 
1545	 0.294123488320062 
1546	 0.294186148646609 
1547	 0.29424822468972 
1548	 0.294318480395632 
1549	 0.29437534497768 
1550	 0.294428677610709 
1551	 0.294486478139459 
1552	 0.294525258719485 
1553	 0.294575243050437 
1554	 0.294660529183316 
1555	 0.294732422371467 
1556	 0.294781194061902 
1557	 0.294839280756989 
1558	 0.294877963828386 
1559	 0.294899968736511 
1560	 0.294950762939677 
1561	 0.295025856581649 
1562	 0.295080613885021 
1563	 0.295134642436967 
1564	 0.295194387340376 
1565	 0.295249806950671 
1566	 0.295314659573605 
1567	 0.295396473682952 
1568	 0.295456726167084 
1569	 0.295499250313342 
1570	 0.295564847950759 
1571	 0.29564107868447 
1572	 0.295694562496611 
1573	 0.295758977155487 
1574	 0.29580386618408 
1575	 0.295815235418165 
1576	 0.295843944366138 
1577	 0.295881800815288 
1578	 0.295907298520841 
1579	 0.295906636709664 
1580	 0.295945139567303 
1581	 0.296002956044019 
1582	 0.296055112972218 
1583	 0.296139067787684 
1584	 0.29619648827823 
1585	 0.296238771213258 
1586	 0.296273206294982 
1587	 0.296303804045666 
1588	 0.296323408357365 
1589	 0.296316137880289 
1590	 0.296325692084872 
1591	 0.296329133725422 
1592	 0.296345263115682 
1593	 0.296368241622697 
1594	 0.296404046929062 
1595	 0.296461387257258 
1596	 0.296509486085954 
1597	 0.296572957926257 
1598	 0.296621145067406 
1599	 0.296668285314042 
1600	 0.296688589557008 
1601	 0.296677516504233 
1602	 0.296680820501951 
1603	 0.296659908112651 
1604	 0.296660290245192 
1605	 0.296673894548502 
1606	 0.296701293634886 
1607	 0.296747564458891 
1608	 0.296796488157699 
1609	 0.296847414829161 
1610	 0.296889212755969 
1611	 0.296877045065758 
1612	 0.296869806074677 
1613	 0.296854057031639 
1614	 0.296826459321219 
1615	 0.296844996811312 
1616	 0.296870982975479 
1617	 0.296889045470816 
1618	 0.29691998707804 
1619	 0.296948417831615 
1620	 0.296965993185847 
1621	 0.296995298825608 
1622	 0.297049065614984 
1623	 0.297057423250998 
1624	 0.297049379035676 
1625	 0.29703307728502 
1626	 0.296986443641291 
1627	 0.296959492131388 
1628	 0.296921026460244 
1629	 0.296926584996978 
1630	 0.296950523589432 
1631	 0.296983519471596 
1632	 0.297065763458257 
1633	 0.297086301526019 
1634	 0.297085656819513 
1635	 0.297082464355013 
1636	 0.297054890913209 
1637	 0.297031976791462 
1638	 0.29699692754011 
1639	 0.296990225816076 
1640	 0.296983886855068 
1641	 0.29699188236831 
1642	 0.297032897779661 
1643	 0.297052136513225 
1644	 0.297064127444602 
1645	 0.297077654322612 
1646	 0.297098028079011 
1647	 0.297099965094208 
1648	 0.297091836027731 
1649	 0.29708068077217 
1650	 0.297053189219059 
1651	 0.297037214479134 
1652	 0.297026801876121 
1653	 0.297008549619454 
1654	 0.296986253287386 
1655	 0.296969996245893 
1656	 0.29695967304336 
1657	 0.296931165548139 
1658	 0.296902817059038 
1659	 0.296861786411748 
1660	 0.296788834757787 
1661	 0.296746675963037 
1662	 0.29671303659613 
1663	 0.296684613615758 
1664	 0.296673536280648 
1665	 0.296652674893245 
1666	 0.296622779059354 
1667	 0.296613141043383 
1668	 0.296618919598898 
1669	 0.296610169598166 
1670	 0.296618630734029 
1671	 0.296597454711809 
1672	 0.296544403879979 
1673	 0.296510144706534 
1674	 0.296466838269381 
1675	 0.296438781191318 
1676	 0.296420705892867 
1677	 0.296408456637597 
1678	 0.296406835149535 
1679	 0.296402213015287 
1680	 0.296410282636512 
1681	 0.296401148731175 
1682	 0.296378399866789 
1683	 0.296366118379375 
1684	 0.296350736154215 
1685	 0.29633705804838 
1686	 0.296345181347563 
1687	 0.296318510226605 
1688	 0.296268288873742 
1689	 0.296223622351731 
1690	 0.296150330902324 
1691	 0.296107747387356 
1692	 0.296081266132793 
1693	 0.296058038595015 
1694	 0.296048909284761 
1695	 0.296038845415516 
1696	 0.296030677827551 
1697	 0.29603009414675 
1698	 0.296045681768311 
1699	 0.296040425710338 
1700	 0.296037808091187 
1701	 0.296015163011849 
1702	 0.295972208512927 
1703	 0.295926507579858 
1704	 0.29587676531776 
1705	 0.295807606943793 
1706	 0.295712578457772 
1707	 0.295637149876008 
1708	 0.295549605452849 
1709	 0.295481550768939 
1710	 0.295440505464946 
1711	 0.295383443013714 
1712	 0.295323019934 
1713	 0.295260837304126 
1714	 0.295185042364202 
1715	 0.295132374224936 
1716	 0.295092645974457 
1717	 0.29505254352054 
1718	 0.29502614055193 
1719	 0.294993317631829 
1720	 0.294956691843433 
1721	 0.294919970883663 
1722	 0.294889697621127 
1723	 0.294852692748631 
1724	 0.294812989958472 
1725	 0.294762460079882 
1726	 0.294710850750798 
1727	 0.294638116686636 
1728	 0.29454249828654 
1729	 0.294466957743116 
1730	 0.294385813815277 
1731	 0.294309883202122 
1732	 0.294242542929918 
1733	 0.294176339933704 
1734	 0.294130568525654 
1735	 0.294026400195103 
1736	 0.293893988890293 
1737	 0.293776660360415 
1738	 0.293612121169524 
1739	 0.293500298946463 
1740	 0.293430070777912 
1741	 0.293349820730023 
1742	 0.293279770741954 
1743	 0.293199348383332 
1744	 0.293127028796168 
1745	 0.29304085743563 
1746	 0.29293252597073 
1747	 0.292845171622124 
1748	 0.29276758594641 
1749	 0.292688671445094 
1750	 0.292630415855476 
1751	 0.292564684730528 
1752	 0.292480671192639 
1753	 0.292409100093381 
1754	 0.292311439473122 
1755	 0.292191960374328 
1756	 0.292093232629819 
1757	 0.29196271604722 
1758	 0.291836096771497 
1759	 0.291745785206991 
1760	 0.291644673817927 
1761	 0.29154501455375 
1762	 0.291452696929121 
1763	 0.291331615706675 
1764	 0.29119142785751 
1765	 0.291082399761273 
1766	 0.29097112739012 
1767	 0.290857962932864 
1768	 0.290757198737728 
1769	 0.290660583964975 
1770	 0.290582944994878 
1771	 0.290511504026776 
1772	 0.290466821763977 
1773	 0.290406934096801 
1774	 0.290325151167027 
1775	 0.29026731628244 
1776	 0.290186964133009 
1777	 0.290134461380588 
1778	 0.290082863883572 
1779	 0.289997716592158 
1780	 0.289947288415782 
1781	 0.289826748764888 
1782	 0.289716263294607 
1783	 0.289663105412001 
1784	 0.289617367186835 
1785	 0.289651458960983 
1786	 0.289634797249548 
1787	 0.289595039109083 
1788	 0.289547499024846 
1789	 0.289475340508589 
1790	 0.289426767094741 
1791	 0.289375038429177 
1792	 0.289325702437038 
1793	 0.289284077909416 
1794	 0.289258922258093 
1795	 0.289229076792283 
1796	 0.289222776548045 
1797	 0.289264254806813 
1798	 0.28924346339718 
1799	 0.289210165116456 
1800	 0.289184263788588 
1801	 0.288033210442865 
1802	 0.28822486372648 
1803	 0.288471259404838 
1804	 0.288694202624052 
1805	 0.288894296932964 
1806	 0.289115865235476 
1807	 0.289328345280258 
1808	 0.289499472155599 
1809	 0.289656021412289 
1810	 0.289781098333636 
1811	 0.289868042051767 
1812	 0.289938887600666 
1813	 0.290014944097653 
1814	 0.290063789622331 
1815	 0.290064421533237 
1816	 0.290080372551733 
1817	 0.290083764136594 
1818	 0.290031685973759 
1819	 0.290037236345989 
1820	 0.290076107381655 
1821	 0.290098688577686 
1822	 0.290123304484843 
1823	 0.290173533005149 
1824	 0.290214179010699 
1825	 0.290216139547718 
1826	 0.290203840744 
1827	 0.290199824189967 
1828	 0.290165226112277 
1829	 0.290082946996085 
1830	 0.29003210301868 
1831	 0.289984947969665 
1832	 0.28992202157618 
1833	 0.289888428393067 
1834	 0.289848428822345 
1835	 0.289806067290415 
1836	 0.289769481209757 
1837	 0.289686331348016 
1838	 0.289623647683128 
1839	 0.289556507219985 
1840	 0.289485445189808 
1841	 0.289392900117821 
1842	 0.28934285080137 
1843	 0.289276269851592 
1844	 0.289222338568298 
1845	 0.28917181153857 
1846	 0.289093593054838 
1847	 0.289032263375091 
1848	 0.288962708467718 
1849	 0.288900721716113 
1850	 0.288848322639569 
1851	 0.288815920737007 
1852	 0.288765858821378 
1853	 0.28871541164307 
1854	 0.288648005366797 
1855	 0.288553701256953 
1856	 0.288437809241803 
1857	 0.288283519863692 
1858	 0.288127708354347 
1859	 0.28796609454729 
1860	 0.287771543761747 
1861	 0.287560336636998 
1862	 0.287327089303213 
1863	 0.287057865953498 
1864	 0.286762306459435 
1865	 0.286444421886007 
1866	 0.286097384964714 
1867	 0.285733402035853 
1868	 0.28532357343581 
1869	 0.2848676036394 
1870	 0.284432796746408 
1871	 0.283956513372818 
1872	 0.283453433263261 
1873	 0.282925557140882 
1874	 0.282379099136333 
1875	 0.281752320448622 
1876	 0.281086191325113 
1877	 0.280350987458174 
1878	 0.279536697883442 
1879	 0.278668699928559 
1880	 0.277712466819079 
1881	 0.276673800031537 
1882	 0.275564590843132 
1883	 0.274389660245926 
1884	 0.273102879891224 
1885	 0.271753673833491 
1886	 0.270324654784601 
1887	 0.268790195601548 
1888	 0.267170344580744 
1889	 0.265445354885077 
1890	 0.263679323815245 
1891	 0.261898965653214 
1892	 0.260059691157796 
1893	 0.258201615067103 
1894	 0.256325507339331 
1895	 0.254414790257918 
1896	 0.252458391738841 
1897	 0.250543730017829 
1898	 0.248631197339884 
1899	 0.246744503254949 
1900	 0.24490737129298 
1901	 0.243090809513902 
1902	 0.241370110819321 
1903	 0.239733003834276 
1904	 0.238159198654218 
1905	 0.236648111545627 
1906	 0.235228140257671 
1907	 0.23388146070238 
1908	 0.232578081957462 
1909	 0.231336333989273 
1910	 0.230158173817287 
1911	 0.229043949253954 
1912	 0.227988276481323 
1913	 0.227004807337755 
1914	 0.226107637637869 
1915	 0.225250738536382 
1916	 0.224451940627484 
1917	 0.22370117105105 
1918	 0.223013588354926 
1919	 0.222376276134465 
1920	 0.221787170190666 
1921	 0.221264188690909 
1922	 0.220810515963782 
1923	 0.220395855975725 
1924	 0.22002695376267 
1925	 0.219730360276368 
1926	 0.219455493206341 
1927	 0.219212525418981 
1928	 0.218999795084911 
1929	 0.218838123418627 
1930	 0.218720505701581 
1931	 0.218643796307739 
1932	 0.2186066047237 
1933	 0.218590053513463 
1934	 0.218583214066433 
1935	 0.218609690693834 
1936	 0.218647679439561 
1937	 0.218730622127038 
1938	 0.218860523214414 
1939	 0.219001764872573 
1940	 0.219176908011035 
1941	 0.219363556801154 
1942	 0.219539830251213 
1943	 0.219753506159962 
1944	 0.219997105144085 
1945	 0.220254808591962 
1946	 0.220514420452862 
1947	 0.220795615921366 
1948	 0.221083456925212 
1949	 0.221359677660974 
1950	 0.221663901880495 
1951	 0.221994599752726 
1952	 0.222343610720097 
1953	 0.222680706014223 
1954	 0.223047333556859 
1955	 0.223426125410908 
1956	 0.223804863171867 
1957	 0.224184981366657 
1958	 0.224577720199793 
1959	 0.224963432621901 
1960	 0.225333485216602 
1961	 0.225728902905795 
1962	 0.226129208111806 
1963	 0.226545321533785 
1964	 0.226980783020663 
1965	 0.227427193761481 
1966	 0.227866944821123 
1967	 0.228334163326117 
1968	 0.228786735792798 
1969	 0.229235089382965 
1970	 0.229684317745295 
1971	 0.230125219339129 
1972	 0.230583118224518 
1973	 0.231060429354981 
1974	 0.231523691159612 
1975	 0.231981494769407 
1976	 0.232452474274985 
1977	 0.232935939706668 
1978	 0.233400939697332 
1979	 0.233894781000198 
1980	 0.234392640361738 
1981	 0.234853468677825 
1982	 0.235271081514994 
1983	 0.235724154203632 
1984	 0.236160975331056 
1985	 0.236625293715444 
1986	 0.23713503054513 
1987	 0.237614363482452 
1988	 0.238096679133065 
1989	 0.238558226648299 
1990	 0.239000734980692 
1991	 0.239468321561707 
1992	 0.239948351431611 
1993	 0.240466023553184 
1994	 0.240922088405213 
1995	 0.241361021402296 
1996	 0.241803349594186 
1997	 0.242190276116655 
1998	 0.24262619624673 
1999	 0.243104147029612 
2000	 0.243565997361929 
2001	 0.244036421526923 
2002	 0.244496914663711 
2003	 0.244951225296126 
2004	 0.245418663114384 
2005	 0.245872940592235 
2006	 0.246330573549653 
2007	 0.246765969903937 
2008	 0.247181885788018 
2009	 0.247602807971177 
2010	 0.248014808096365 
2011	 0.24842218008583 
2012	 0.248831041646685 
2013	 0.249234681870275 
2014	 0.249618820041369 
2015	 0.250016006873639 
2016	 0.25042092819681 
2017	 0.250814059901117 
2018	 0.251214829219745 
2019	 0.251630398602218 
2020	 0.25201983985654 
2021	 0.252396987353074 
2022	 0.252776352561416 
2023	 0.253134404499477 
2024	 0.253505799598897 
2025	 0.253874202612704 
2026	 0.254263944814059 
2027	 0.254680980929887 
2028	 0.255074224800032 
2029	 0.255475832806624 
2030	 0.255906825011582 
2031	 0.256286473303624 
2032	 0.256638657720117 
2033	 0.256991782474094 
2034	 0.257329458346413 
2035	 0.257655133046677 
2036	 0.257975341944967 
2037	 0.258282691641568 
2038	 0.258564750694772 
2039	 0.258846789826924 
2040	 0.259119825210276 
2041	 0.25938608622053 
2042	 0.259663962446215 
2043	 0.259953353681787 
2044	 0.260246424090224 
2045	 0.260559673757835 
2046	 0.260858708206307 
2047	 0.261167927220991 
2048	 0.261447337032116 
2049	 0.261718346100299 
2050	 0.261971917309683 
2051	 0.262173118411952 
2052	 0.262415077175799 
2053	 0.262684605441773 
2054	 0.262928198634883 
2055	 0.263161772945596 
2056	 0.26342048104229 
2057	 0.263662885615699 
2058	 0.263874950472124 
2059	 0.264112965169716 
2060	 0.264380859954097 
2061	 0.264618271560221 
2062	 0.264848397607364 
2063	 0.265070612538256 
2064	 0.265272305585299 
2065	 0.26548268910061 
2066	 0.265709071231861 
2067	 0.265904292601043 
2068	 0.266085988077809 
2069	 0.266253920407912 
2070	 0.266433876776211 
2071	 0.266590051847962 
2072	 0.266774059111316 
2073	 0.266977857651624 
2074	 0.267184325326732 
2075	 0.267406591310949 
2076	 0.267605487032669 
2077	 0.267811272455573 
2078	 0.268001651416657 
2079	 0.268152792412968 
2080	 0.268333243177631 
2081	 0.268532460387788 
2082	 0.268720983043753 
2083	 0.268913449164263 
2084	 0.269104229972542 
2085	 0.269298794629859 
2086	 0.269495871610884 
2087	 0.269673693891673 
2088	 0.269852337768172 
2089	 0.270021843241057 
2090	 0.270158129043329 
2091	 0.270321557031077 
2092	 0.270510238039999 
2093	 0.270672506921057 
2094	 0.270819693013372 
2095	 0.270980559774035 
2096	 0.271136297159408 
2097	 0.271293010594453 
2098	 0.271453186864465 
2099	 0.271625863573898 
2100	 0.271798220036817 
2101	 0.271965732973521 
2102	 0.272136529848648 
2103	 0.272325462547563 
2104	 0.272495179221287 
2105	 0.272641801498272 
2106	 0.272812926175814 
2107	 0.272988607192873 
2108	 0.273168285204062 
2109	 0.273367501805832 
2110	 0.273556024841857 
2111	 0.273730025554048 
2112	 0.273922330013195 
2113	 0.274122186907584 
2114	 0.274325527569248 
2115	 0.274531203859257 
2116	 0.274756073091444 
2117	 0.274955759543467 
2118	 0.275149987999324 
2119	 0.275329966026558 
2120	 0.275490329264032 
2121	 0.275662688321788 
2122	 0.275829287702526 
2123	 0.275995693677623 
2124	 0.276184037313913 
2125	 0.276336660513012 
2126	 0.276469141859143 
2127	 0.276594915394307 
2128	 0.276688409336755 
2129	 0.276793733723729 
2130	 0.276891064507409 
2131	 0.277004919841818 
2132	 0.277106680008232 
2133	 0.277221545707414 
2134	 0.277297048214445 
2135	 0.277357241375008 
2136	 0.2774007799995 
2137	 0.277417268207733 
2138	 0.277428604264784 
2139	 0.2774327498417 
2140	 0.27741896946705 
2141	 0.27739585633856 
2142	 0.277345196638758 
2143	 0.2772721948908 
2144	 0.277184987826102 
2145	 0.27706430189726 
2146	 0.276944660328864 
2147	 0.276800266724327 
2148	 0.276673432281197 
2149	 0.276548495052831 
2150	 0.276431373047401 
2151	 0.276291848323664 
2152	 0.276164740543464 
2153	 0.275998229172509 
2154	 0.275801544759991 
2155	 0.275597282763224 
2156	 0.275382846820666 
2157	 0.275141564094222 
2158	 0.274871584664398 
2159	 0.274599147106423 
2160	 0.27429477038082 
2161	 0.274002564525048 
2162	 0.27369699056062 
2163	 0.273414162231346 
2164	 0.273150641016612 
2165	 0.272892864732749 
2166	 0.272599236738444 
2167	 0.27230358210886 
2168	 0.271996221827715 
2169	 0.271649650157954 
2170	 0.271327408285022 
2171	 0.271031372628839 
2172	 0.270701110079848 
2173	 0.270348150427745 
2174	 0.270002877584281 
2175	 0.269663241822415 
2176	 0.269293323001258 
2177	 0.268916070046624 
2178	 0.268518535879206 
2179	 0.268101372057483 
2180	 0.267653813795909 
2181	 0.2671785809915 
2182	 0.266699089991798 
2183	 0.266179334330067 
2184	 0.265670566413785 
2185	 0.265149642826875 
2186	 0.264610214298886 
2187	 0.264109185423931 
2188	 0.26359925247114 
2189	 0.263128438330364 
2190	 0.262689785350857 
2191	 0.262278066951346 
2192	 0.261885137884652 
2193	 0.261519780109949 
2194	 0.261187097259127 
2195	 0.260879720172512 
2196	 0.260603225944172 
2197	 0.260338266417328 
2198	 0.260081371470248 
2199	 0.259876350891959 
2200	 0.259704011175055 
2201	 0.259555530969955 
2202	 0.259455648227373 
2203	 0.259376218115335 
2204	 0.2593291668276 
2205	 0.259269851411097 
2206	 0.25933566757404 
2207	 0.259485565699689 
2208	 0.259652713831664 
2209	 0.259902859376144 
2210	 0.260158268897371 
2211	 0.260443003641711 
2212	 0.260736171830129 
2213	 0.261077586885622 
2214	 0.261402460139118 
2215	 0.26173977760882 
2216	 0.262054068064442 
2217	 0.262387591442703 
2218	 0.262676913512776 
2219	 0.262925431835473 
2220	 0.263167102649477 
2221	 0.2633847268077 
2222	 0.263590824203499 
2223	 0.263784868970947 
2224	 0.263966988059269 
2225	 0.264120930427292 
2226	 0.264250896036661 
2227	 0.264365479278357 
2228	 0.264449593785307 
2229	 0.264544331406 
2230	 0.26465858059032 
2231	 0.264693463289806 
2232	 0.264688299120119 
2233	 0.264680362050411 
2234	 0.264604910116243 
2235	 0.264562516403361 
2236	 0.264547039385752 
2237	 0.264499943054636 
2238	 0.264416276373134 
2239	 0.264357060508715 
2240	 0.264315653161195 
2241	 0.264251285388471 
2242	 0.264176749103101 
2243	 0.264111267361866 
2244	 0.264043229548692 
2245	 0.26395533493526 
2246	 0.263886074507157 
2247	 0.263793912529973 
2248	 0.263690095025225 
2249	 0.263553338264006 
2250	 0.26344960472608 
2251	 0.263356826063043 
2252	 0.263249961278088 
2253	 0.263144380752444 
2254	 0.26303125733229 
2255	 0.262901642275736 
2256	 0.26278723863995 
2257	 0.262672954706024 
2258	 0.262578157446144 
2259	 0.262474948245774 
2260	 0.262415686338994 
2261	 0.262396353363902 
2262	 0.262374344199822 
2263	 0.26237699227076 
2264	 0.262381524955574 
2265	 0.262390896609976 
2266	 0.262409787704395 
2267	 0.26244721539939 
2268	 0.262483239822357 
2269	 0.262526579977882 
2270	 0.262561775250411 
2271	 0.262602517833707 
2272	 0.262654610351903 
2273	 0.262695490355039 
2274	 0.262740626380126 
2275	 0.262771706038662 
2276	 0.262781172305301 
2277	 0.262818318874566 
2278	 0.262859912538689 
2279	 0.262901108949632 
2280	 0.262971767382183 
2281	 0.263008169530439 
2282	 0.263011092110455 
2283	 0.263045364871618 
2284	 0.263092024859452 
2285	 0.26312398292352 
2286	 0.263166568008412 
2287	 0.263198327671976 
2288	 0.263190888050167 
2289	 0.26321560750927 
2290	 0.263289539844443 
2291	 0.26330942709423 
2292	 0.263331866975694 
2293	 0.263322732074818 
2294	 0.263243733587561 
2295	 0.263188282399736 
2296	 0.263139160641463 
2297	 0.263062829911782 
2298	 0.263002346238485 
2299	 0.262958556923306 
2300	 0.262913534365017 
2301	 0.262911967999852 
2302	 0.262906638332488 
2303	 0.262899117729789 
2304	 0.262898738223345 
2305	 0.262830024439813 
2306	 0.262714197959104 
2307	 0.262524432155152 
2308	 0.262381043364466 
2309	 0.262195641982435 
2310	 0.262051556799142 
2311	 0.261938312045468 
2312	 0.261839132384814 
2313	 0.261761936010094 
2314	 0.261652287536004 
2315	 0.261583314844575 
2316	 0.26145089765543 
2317	 0.26120352114818 
2318	 0.261066216786447 
2319	 0.260974117810251 
2320	 0.260863438538827 
2321	 0.260829077919789 
2322	 0.26073043157048 
2323	 0.260573012284342 
2324	 0.260422945130463 
2325	 0.260255046393861 
2326	 0.260098898890705 
2327	 0.25994484065403 
2328	 0.259773700759377 
2329	 0.259623686079737 
2330	 0.259483513288154 
2331	 0.259362184906839 
2332	 0.259271101707841 
2333	 0.25918582171027 
2334	 0.259058008354568 
2335	 0.258913413466935 
2336	 0.25877647586405 
2337	 0.25859435515624 
2338	 0.258386660882561 
2339	 0.258208800172867 
2340	 0.257988956752542 
2341	 0.257801570888054 
2342	 0.25769584238714 
2343	 0.25755547493792 
2344	 0.257383298836276 
2345	 0.257200915272375 
2346	 0.25697430523624 
2347	 0.256798529773394 
2348	 0.256647856163646 
2349	 0.256465424607045 
2350	 0.256289512001631 
2351	 0.256098808455171 
2352	 0.255869263180365 
2353	 0.255670216240201 
2354	 0.255494032455195 
2355	 0.255313482928514 
2356	 0.255138614432034 
2357	 0.254950733572988 
2358	 0.254768464136736 
2359	 0.254580751334053 
2360	 0.25437962014798 
2361	 0.254171075717882 
2362	 0.253931240314337 
2363	 0.253729003132272 
2364	 0.25351330226359 
2365	 0.253350768016233 
2366	 0.253311098628375 
2367	 0.253173905508295 
2368	 0.253002421675134 
2369	 0.25281765900064 
2370	 0.252599852836456 
2371	 0.252328652127801 
2372	 0.252024554181887 
2373	 0.251789787115844 
2374	 0.251496921284746 
2375	 0.251154379593054 
2376	 0.25087764630957 
2377	 0.250603376376162 
2378	 0.250353329069243 
2379	 0.250064850682892 
2380	 0.249793733528665 
2381	 0.249551310540668 
2382	 0.249239834978908 
2383	 0.248996811184287 
2384	 0.248735745154316 
2385	 0.248394135203107 
2386	 0.24805714084836 
2387	 0.247686179925032 
2388	 0.247307567258403 
2389	 0.246978874904186 
2390	 0.246670143623268 
2391	 0.246319309220061 
2392	 0.245941234733286 
2393	 0.24555010413853 
2394	 0.245165485800086 
2395	 0.244848144091392 
2396	 0.244554952001073 
2397	 0.244244262362307 
2398	 0.243908688410426 
2399	 0.243553814131146 
2400	 0.243263800494033 
2401	 0.242934917221964 
2402	 0.242515231502617 
2403	 0.242152440831285 
2404	 0.241775769346343 
2405	 0.241373104049326 
2406	 0.241027602677169 
2407	 0.240623784682113 
2408	 0.240209306321726 
2409	 0.239810139677175 
2410	 0.239391358790278 
2411	 0.239058725677624 
2412	 0.238704460840666 
2413	 0.238318146728871 
2414	 0.23794112688605 
2415	 0.237501376470804 
2416	 0.237060513544978 
2417	 0.236518449133997 
2418	 0.23611932443904 
2419	 0.235835609570811 
2420	 0.235463582698997 
2421	 0.235141700906172 
2422	 0.234758701163135 
2423	 0.234251503658248 
2424	 0.233782322549706 
2425	 0.233368881692625 
2426	 0.232845406862248 
2427	 0.232252621610963 
2428	 0.23177439096575 
2429	 0.231299827001003 
2430	 0.230796610264658 
2431	 0.230286148237769 
2432	 0.229803729257443 
2433	 0.229272381148911 
2434	 0.228762283637612 
2435	 0.228367073442254 
2436	 0.228004428133211 
2437	 0.227642018576078 
2438	 0.227370589513025 
2439	 0.227169955099003 
2440	 0.226813553155501 
2441	 0.226439111639917 
2442	 0.226042838999307 
2443	 0.225638590364879 
2444	 0.225253003011951 
2445	 0.224781495331566 
2446	 0.224351916289029 
2447	 0.223917464090666 
2448	 0.223469763862505 
2449	 0.22306661065478 
2450	 0.222721157708307 
2451	 0.222424450089751 
2452	 0.222024631654009 
2453	 0.221631128671956 
2454	 0.221260595354304 
2455	 0.220692534749654 
2456	 0.22032295085316 
2457	 0.220191653486293 
2458	 0.219906680341967 
2459	 0.219665050164731 
2460	 0.219333115956173 
2461	 0.218899954111035 
2462	 0.218464998793428 
2463	 0.21790617283427 
2464	 0.217605457549496 
2465	 0.217426890518077 
2466	 0.217090389100549 
2467	 0.216849603022888 
2468	 0.216524765008677 
2469	 0.215990938735789 
2470	 0.215775277128042 
2471	 0.215566327528636 
2472	 0.215008876720028 
2473	 0.21470258865989 
2474	 0.214415300890202 
2475	 0.213871011564626 
2476	 0.213732889451247 
2477	 0.213685105592866 
2478	 0.213411774319799 
2479	 0.213277516238733 
2480	 0.212996970238675 
2481	 0.212557015757384 
2482	 0.212041738959295 
2483	 0.211322087728249 
2484	 0.21076803278469 
2485	 0.210238755993836 
2486	 0.209870832589464 
2487	 0.20980041976541 
2488	 0.209759638178892 
2489	 0.209649333486564 
2490	 0.209365461656768 
2491	 0.209110914542555 
2492	 0.208768643166299 
2493	 0.208258533068549 
2494	 0.207815679605347 
2495	 0.207337126003687 
2496	 0.206975695837427 
2497	 0.206865692536341 
2498	 0.206604129073742 
2499	 0.206488218415831 
2500	 0.206365682364944 
