Wavelength	mm1800005.asd
350	 0.054580766547912 
351	 5.96850636262892E-02 
352	 0.050622291447265 
353	 3.52331721888166E-02 
354	 4.48217985156091E-02 
355	 0.052072844749832 
356	 5.50678492111641E-02 
357	 5.78881147012094E-02 
358	 5.88742317622433E-02 
359	 5.73158973908907E-02 
360	 5.48706250672199E-02 
361	 5.44290241521382E-02 
362	 5.50101940893379E-02 
363	 5.64990344594394E-02 
364	 5.78777718074415E-02 
365	 5.63123847736339E-02 
366	 5.96971709320463E-02 
367	 6.17260793673331E-02 
368	 5.73276257280659E-02 
369	 6.20980243499709E-02 
370	 6.33096929493758E-02 
371	 6.17975580761111E-02 
372	 6.66911834244487E-02 
373	 6.40616624474783E-02 
374	 6.08783149117465E-02 
375	 6.24040934954238E-02 
376	 6.68748422702546E-02 
377	 6.55378532063732E-02 
378	 6.34146225392652E-02 
379	 6.70136063684809E-02 
380	 6.99852426921903E-02 
381	 7.02191215378279E-02 
382	 0.069544932035067 
383	 7.21087875504355E-02 
384	 7.34507831209526E-02 
385	 7.30039683223564E-02 
386	 7.22570646304252E-02 
387	 7.56022453807647E-02 
388	 7.81831544363784E-02 
389	 7.88393033020031E-02 
390	 7.82167392518113E-02 
391	 7.91022309064987E-02 
392	 8.06076956788064E-02 
393	 8.23488796048543E-02 
394	 8.44769115835708E-02 
395	 8.67352716684481E-02 
396	 8.80246741570134E-02 
397	 8.83771831753247E-02 
398	 9.06119117160598E-02 
399	 9.18194052654311E-02 
400	 9.30954163957656E-02 
401	 9.58898719601028E-02 
402	 9.48259156485573E-02 
403	 9.50646516744278E-02 
404	 9.76439301764838E-02 
405	 0.098963335570586 
406	 0.100093067623341 
407	 0.101475748024296 
408	 0.102833028140379 
409	 0.102127635374304 
410	 0.101587139715929 
411	 0.102118416568914 
412	 0.103648432192748 
413	 0.104313778380011 
414	 0.104956286714309 
415	 0.10594877949218 
416	 0.106777211818461 
417	 0.106410395346856 
418	 0.10605767745534 
419	 0.106900121240076 
420	 0.108344697016522 
421	 0.108238112330247 
422	 0.107332752251972 
423	 0.107994730446333 
424	 0.108239707056467 
425	 0.108432193157587 
426	 0.108704860474821 
427	 0.108172679439933 
428	 0.107773127259298 
429	 0.107931739291592 
430	 0.108636739414176 
431	 0.108787950857326 
432	 0.108477152997151 
433	 0.108140108256409 
434	 0.108424808679542 
435	 0.108911070968709 
436	 0.109135259293677 
437	 0.109069079158472 
438	 0.109825952071162 
439	 0.110625020056781 
440	 0.111322729279679 
441	 0.112069408165042 
442	 0.112639189805152 
443	 0.113347030648737 
444	 0.114276236052992 
445	 0.115111325641747 
446	 0.115615043277827 
447	 0.116026179615239 
448	 0.116661121729998 
449	 0.117470554930366 
450	 0.118429199516665 
451	 0.119341785806911 
452	 0.119910843283368 
453	 0.120564076870069 
454	 0.121004606648556 
455	 0.121179426184657 
456	 0.12195927039473 
457	 0.12264922711891 
458	 0.12311269222844 
459	 0.12348730420957 
460	 0.123925808994652 
461	 0.124476101480001 
462	 0.125021977791309 
463	 0.125236114499677 
464	 0.125572033233384 
465	 0.125964782845503 
466	 0.126281271107096 
467	 0.126752275702657 
468	 0.127099936153437 
469	 0.127361641381663 
470	 0.127814346120878 
471	 0.128217645556963 
472	 0.128357349442711 
473	 0.128289928316191 
474	 0.128679946379683 
475	 0.129157370949541 
476	 0.12950745639449 
477	 0.12964461701471 
478	 0.129945370749764 
479	 0.13030781584704 
480	 0.130628794536496 
481	 0.130864711402261 
482	 0.131203368351526 
483	 0.13154973161011 
484	 0.131826042675016 
485	 0.13241645824415 
486	 0.132680842606079 
487	 0.132632595696726 
488	 0.132832990623636 
489	 0.133225081156823 
490	 0.133520908774933 
491	 0.133676103881175 
492	 0.134426710770102 
493	 0.134719240077221 
494	 0.134633122465817 
495	 0.134777692312958 
496	 0.135288543790798 
497	 0.135743120201678 
498	 0.13596855735849 
499	 0.136241774914149 
500	 0.136505031419053 
501	 0.136728819636204 
502	 0.136912314900369 
503	 0.137172646578426 
504	 0.137389059447359 
505	 0.137560751529428 
506	 0.137801058100935 
507	 0.138130762709918 
508	 0.13850459695259 
509	 0.138838150613944 
510	 0.138959832912226 
511	 0.139190630808005 
512	 0.139506962265475 
513	 0.139727255421472 
514	 0.140083699445143 
515	 0.140372546346979 
516	 0.140533015082677 
517	 0.140831695755041 
518	 0.141038295116393 
519	 0.141201524906935 
520	 0.141433323674233 
521	 0.141676214389161 
522	 0.14191961149223 
523	 0.142145758880116 
524	 0.142328722137929 
525	 0.142505756286528 
526	 0.142720725457495 
527	 0.142993398647274 
528	 0.143278093320894 
529	 0.143536610569576 
530	 0.143763995421231 
531	 0.143980143190972 
532	 0.144201425328358 
533	 0.144447641760117 
534	 0.14470951212383 
535	 0.144917602882542 
536	 0.145108689292652 
537	 0.145351367511134 
538	 0.145697420556576 
539	 0.146008511882134 
540	 0.14621732527657 
541	 0.146375285976239 
542	 0.146678752368256 
543	 0.146911141472767 
544	 0.147107577347874 
545	 0.147368231089357 
546	 0.147791944462455 
547	 0.148034264855752 
548	 0.148136131705757 
549	 0.148456001739543 
550	 0.148771478509017 
551	 0.149012984643743 
552	 0.149206379402888 
553	 0.149560120044985 
554	 0.149870388653772 
555	 0.15016910171812 
556	 0.150586584892657 
557	 0.150942768775548 
558	 0.151307623460623 
559	 0.151725989144008 
560	 0.152157850474659 
561	 0.152490353412653 
562	 0.152819912971988 
563	 0.153266426798401 
564	 0.153633692268753 
565	 0.153962823702862 
566	 0.154292632371115 
567	 0.154643240107591 
568	 0.155076498642993 
569	 0.155548900883889 
570	 0.15603803182806 
571	 0.156705835712901 
572	 0.157320509169017 
573	 0.157822881228738 
574	 0.158288071361587 
575	 0.158772143398366 
576	 0.159327055247897 
577	 0.159941824090872 
578	 0.160469028845359 
579	 0.161069063459224 
580	 0.161676811380473 
581	 0.162174800696279 
582	 0.162799700393163 
583	 0.16341171743709 
584	 0.163978330287961 
585	 0.1646685290485 
586	 0.165379974209803 
587	 0.166099254013704 
588	 0.166829151191252 
589	 0.167540459692942 
590	 0.168240512434155 
591	 0.168935512139431 
592	 0.169628885662808 
593	 0.170259050739027 
594	 0.170822650766687 
595	 0.17134708641887 
596	 0.171905494483073 
597	 0.172449160933321 
598	 0.172988484140298 
599	 0.173559713993831 
600	 0.174107652338271 
601	 0.174665391604808 
602	 0.175252252173292 
603	 0.175852072491978 
604	 0.176413137210289 
605	 0.176971244366883 
606	 0.177580722065971 
607	 0.178200081278052 
608	 0.178823092975135 
609	 0.1794421354277 
610	 0.180046508736599 
611	 0.180545471531254 
612	 0.180976978593761 
613	 0.181390580253648 
614	 0.181756179388946 
615	 0.182099830774439 
616	 0.182446501510408 
617	 0.182818137727595 
618	 0.183254474724626 
619	 0.183617901242385 
620	 0.183865615458655 
621	 0.184207793512337 
622	 0.184577134481113 
623	 0.184903822606637 
624	 0.185142997521255 
625	 0.185465010629087 
626	 0.18576661538691 
627	 0.186012137107166 
628	 0.186281831529628 
629	 0.186601067983003 
630	 0.186922723600491 
631	 0.187191695410526 
632	 0.187402801481404 
633	 0.187664401300241 
634	 0.187961089446641 
635	 0.188182088813757 
636	 0.188422691839504 
637	 0.188686754219523 
638	 0.188949829156078 
639	 0.189147286186457 
640	 0.189425999255033 
641	 0.1897412719165 
642	 0.189976292712584 
643	 0.190225947348735 
644	 0.190478276965277 
645	 0.190731900276942 
646	 0.191016474358267 
647	 0.19123792862446 
648	 0.191440745898437 
649	 0.191698329195468 
650	 0.192025718649225 
651	 0.192288875504067 
652	 0.192501426293904 
653	 0.192801209867304 
654	 0.193091279712258 
655	 0.193349077746882 
656	 0.193589959408665 
657	 0.193889674247488 
658	 0.194194804656314 
659	 0.194466521960712 
660	 0.194692048507542 
661	 0.195002208440341 
662	 0.195319638708596 
663	 0.195602895729185 
664	 0.195890803903886 
665	 0.196223610498491 
666	 0.196548761549426 
667	 0.196822516863634 
668	 0.197161604215683 
669	 0.197482178541089 
670	 0.197786623477295 
671	 0.198144334049037 
672	 0.198437158484786 
673	 0.1987469863395 
674	 0.19912825334514 
675	 0.199493957090366 
676	 0.199830194878934 
677	 0.200156909967753 
678	 0.200510258138324 
679	 0.200897771904706 
680	 0.201264882553537 
681	 0.201605692735187 
682	 0.201983928089422 
683	 0.20234012751023 
684	 0.202699795245528 
685	 0.203094981394012 
686	 0.203502477400492 
687	 0.203918872997957 
688	 0.204322058639717 
689	 0.204682934937486 
690	 0.205054256379048 
691	 0.205433786148392 
692	 0.205822922322688 
693	 0.206253570177413 
694	 0.206657507961263 
695	 0.207040958380983 
696	 0.207430318988257 
697	 0.207787035072475 
698	 0.208171024477751 
699	 0.208605843642302 
700	 0.209068417397524 
701	 0.209491802936553 
702	 0.209878615406545 
703	 0.210253453128977 
704	 0.210646000293388 
705	 0.211082777078127 
706	 0.211512147753334 
707	 0.211860362601101 
708	 0.212242981033251 
709	 0.212660251665619 
710	 0.213087167996128 
711	 0.213483606793015 
712	 0.213845359283241 
713	 0.214196972429673 
714	 0.214570604855687 
715	 0.214996068043961 
716	 0.21536027817476 
717	 0.215681925398374 
718	 0.216071295796486 
719	 0.216486788643016 
720	 0.216838091117941 
721	 0.217105412971418 
722	 0.217413319708961 
723	 0.217762540728268 
724	 0.218086937002652 
725	 0.218333163931674 
726	 0.218653472604372 
727	 0.218952041907028 
728	 0.21919280244983 
729	 0.219410818047047 
730	 0.219699010667297 
731	 0.219968656745345 
732	 0.220160108154656 
733	 0.220361674047168 
734	 0.220585836603751 
735	 0.220778096943505 
736	 0.220882311714375 
737	 0.221022082292098 
738	 0.221223319079049 
739	 0.221434829804868 
740	 0.221537007750361 
741	 0.22166419219951 
742	 0.22177613480354 
743	 0.221833176464434 
744	 0.221901883214035 
745	 0.221932333769159 
746	 0.221955904147161 
747	 0.222024020474531 
748	 0.222040445915086 
749	 0.22204158277529 
750	 0.222061766050411 
751	 0.222116166560302 
752	 0.222093265126298 
753	 0.221992483509167 
754	 0.221874066645134 
755	 0.221889914005226 
756	 0.221900019905656 
757	 0.221820455369139 
758	 0.221634000740238 
759	 0.221549938992337 
760	 0.221500551686564 
761	 0.221420397352581 
762	 0.221284783358113 
763	 0.221175705934282 
764	 0.221053516156015 
765	 0.220887944846708 
766	 0.22076354273562 
767	 0.220650158045437 
768	 0.220500850777775 
769	 0.220287178343138 
770	 0.220170708997367 
771	 0.220071712130744 
772	 0.219918625747943 
773	 0.219681922750477 
774	 0.219469047532689 
775	 0.219295814063683 
776	 0.219141092668713 
777	 0.218950798662167 
778	 0.218743473098327 
779	 0.218567777352367 
780	 0.218452948209521 
781	 0.218215720812589 
782	 0.21798654399175 
783	 0.217817391853964 
784	 0.21765100141404 
785	 0.21747682290711 
786	 0.217291166086871 
787	 0.217088911232984 
788	 0.216841285838508 
789	 0.21669206129532 
790	 0.21656186889454 
791	 0.216325166494729 
792	 0.216109393772421 
793	 0.215896868347247 
794	 0.215698094277807 
795	 0.215544838724295 
796	 0.2153471191214 
797	 0.215154715217538 
798	 0.214999909690175 
799	 0.214842338483879 
800	 0.214690461289938 
801	 0.214520595670641 
802	 0.214317398428285 
803	 0.214122866044166 
804	 0.213980378773087 
805	 0.213859783286067 
806	 0.213690986154437 
807	 0.213495993475014 
808	 0.213330898766532 
809	 0.21319485033227 
810	 0.213010678408063 
811	 0.212870173290819 
812	 0.212740510313269 
813	 0.212595010612327 
814	 0.212508010257595 
815	 0.212384442366085 
816	 0.21222987738559 
817	 0.212088903876178 
818	 0.211957734032965 
819	 0.21185848420612 
820	 0.211748188204568 
821	 0.211549036316814 
822	 0.211463259625913 
823	 0.211343788684505 
824	 0.211152773202709 
825	 0.211114384562356 
826	 0.211108155191724 
827	 0.211025994419251 
828	 0.210833238837204 
829	 0.210706463915435 
830	 0.210624861112644 
831	 0.210546286829427 
832	 0.210439486316881 
833	 0.210433251057168 
834	 0.210368865571883 
835	 0.210246642471418 
836	 0.210221095015324 
837	 0.210161632323122 
838	 0.210116268996244 
839	 0.210095645764455 
840	 0.210001208761066 
841	 0.209874877813479 
842	 0.209790311865715 
843	 0.209780209060603 
844	 0.20972085461861 
845	 0.209698367019021 
846	 0.209701325293217 
847	 0.209686335222819 
848	 0.209712164289626 
849	 0.209718208286399 
850	 0.209683360156143 
851	 0.209628296679602 
852	 0.209555920996516 
853	 0.209519019130175 
854	 0.209544856913708 
855	 0.209613969381513 
856	 0.20965180577774 
857	 0.209668502296616 
858	 0.209682363780455 
859	 0.209671245940575 
860	 0.20965125321461 
861	 0.209652739180393 
862	 0.209689341402388 
863	 0.209679498577123 
864	 0.20973077367204 
865	 0.209806107992297 
866	 0.20980087295683 
867	 0.209833979540378 
868	 0.20989053756117 
869	 0.209934449829934 
870	 0.209932764322321 
871	 0.210016357566314 
872	 0.210161465416169 
873	 0.210310454036669 
874	 0.210400983945838 
875	 0.210478127256699 
876	 0.21053814083312 
877	 0.210581528120277 
878	 0.210641990467407 
879	 0.210782398538389 
880	 0.210926887654593 
881	 0.210991611642671 
882	 0.211082140144127 
883	 0.211194456682269 
884	 0.211307605675435 
885	 0.211404663942226 
886	 0.211558018096389 
887	 0.211682128045474 
888	 0.211778715766613 
889	 0.211925175247731 
890	 0.212083539539365 
891	 0.212195966241151 
892	 0.212273672217511 
893	 0.21241284435417 
894	 0.212631654583253 
895	 0.212823104723595 
896	 0.212947947323897 
897	 0.213132106645479 
898	 0.213339771952369 
899	 0.213544332063809 
900	 0.213722443497779 
901	 0.213855686370019 
902	 0.213990985532797 
903	 0.214212774764816 
904	 0.214530340993436 
905	 0.214642917031553 
906	 0.214833695386966 
907	 0.21512702647224 
908	 0.215418746213574 
909	 0.215709499541113 
910	 0.215856064477152 
911	 0.215929597872672 
912	 0.216124145469386 
913	 0.216386749196841 
914	 0.21672802555846 
915	 0.217072858680592 
916	 0.217296721893094 
917	 0.217542820385535 
918	 0.217775046975597 
919	 0.217978391027976 
920	 0.218192299902392 
921	 0.218531236140259 
922	 0.218880301690525 
923	 0.219162063324451 
924	 0.219420507729321 
925	 0.219750202228987 
926	 0.220041996276597 
927	 0.220269202154439 
928	 0.2206315197997 
929	 0.220962258556389 
930	 0.221309550267202 
931	 0.221697022959601 
932	 0.22196753410832 
933	 0.222344152872521 
934	 0.222712922085306 
935	 0.222983097796031 
936	 0.223439255294292 
937	 0.223733629949028 
938	 0.223955387106665 
939	 0.224296740792781 
940	 0.224759804816932 
941	 0.225109755904426 
942	 0.225471915338369 
943	 0.226001826227567 
944	 0.226357801265733 
945	 0.226734136755369 
946	 0.227139880051059 
947	 0.227505359375552 
948	 0.22783385128339 
949	 0.228214925871158 
950	 0.228641215881214 
951	 0.229071891004166 
952	 0.229606999665314 
953	 0.229953835109916 
954	 0.23027121635586 
955	 0.230861400890009 
956	 0.231290912688003 
957	 0.231683736900143 
958	 0.232107743266314 
959	 0.232560510976696 
960	 0.232942859366311 
961	 0.233505854544645 
962	 0.234116456817668 
963	 0.234464157885395 
964	 0.23483076137736 
965	 0.235274411189065 
966	 0.23575931024324 
967	 0.236215408018145 
968	 0.236732213221526 
969	 0.237287610801159 
970	 0.237790654541414 
971	 0.238162976667942 
972	 0.238621092407505 
973	 0.239216099683892 
974	 0.239833277163764 
975	 0.24030180632598 
976	 0.240760816412517 
977	 0.241226989051334 
978	 0.24172298918565 
979	 0.242268001924604 
980	 0.242843741505459 
981	 0.243359113273999 
982	 0.243884417415563 
983	 0.244511281201462 
984	 0.244862536651873 
985	 0.245399002922801 
986	 0.246031512724133 
987	 0.246429881533866 
988	 0.246893815907046 
989	 0.247377367525226 
990	 0.247881541115566 
991	 0.248433752391473 
992	 0.249045304449757 
993	 0.249635262294676 
994	 0.250199100929414 
995	 0.250733945273725 
996	 0.251070693672791 
997	 0.251557084314275 
998	 0.252127513813789 
999	 0.252602874148615 
1000	 0.253062249653048 
1001	 0.24980558836703 
1002	 0.250226038742118 
1003	 0.250628941434813 
1004	 0.251084279639769 
1005	 0.251573628010499 
1006	 0.252028804492431 
1007	 0.252511899264651 
1008	 0.252997852768357 
1009	 0.253373065004478 
1010	 0.253656678941148 
1011	 0.254011003470258 
1012	 0.254402900329167 
1013	 0.254827616483225 
1014	 0.25536777590799 
1015	 0.25583401220938 
1016	 0.256187435287354 
1017	 0.256568130306387 
1018	 0.256912840811302 
1019	 0.257257757604624 
1020	 0.257636073398696 
1021	 0.258050871945576 
1022	 0.258419273519882 
1023	 0.2587199738045 
1024	 0.259075203996813 
1025	 0.259461032553994 
1026	 0.25985949138964 
1027	 0.26024627386944 
1028	 0.260613486240225 
1029	 0.260991672883455 
1030	 0.261348365743475 
1031	 0.261693515603666 
1032	 0.26207295072331 
1033	 0.262361595769385 
1034	 0.262600878059704 
1035	 0.262884581425826 
1036	 0.263152459336502 
1037	 0.263484880832745 
1038	 0.263868859663914 
1039	 0.264259638061771 
1040	 0.264603937083377 
1041	 0.26492241954808 
1042	 0.265276181359837 
1043	 0.265605343083216 
1044	 0.265935469776321 
1045	 0.266298429815384 
1046	 0.266619600860853 
1047	 0.266881766251041 
1048	 0.267238788841237 
1049	 0.267586978887767 
1050	 0.267988633912376 
1051	 0.268431871454743 
1052	 0.268739519575755 
1053	 0.269008243061146 
1054	 0.269324259046528 
1055	 0.269690243472163 
1056	 0.270075821336734 
1057	 0.270410742653248 
1058	 0.270729161376498 
1059	 0.271053312636047 
1060	 0.271338419146674 
1061	 0.27163776058455 
1062	 0.271963713097651 
1063	 0.272313704941531 
1064	 0.272647901666021 
1065	 0.272922131434955 
1066	 0.273215234073228 
1067	 0.27355804497127 
1068	 0.273895950223258 
1069	 0.27425632318663 
1070	 0.274543326457364 
1071	 0.27477564699067 
1072	 0.275031152989647 
1073	 0.275202266015381 
1074	 0.275450734644572 
1075	 0.275758203888323 
1076	 0.276084313673913 
1077	 0.276355500696642 
1078	 0.276651541512841 
1079	 0.276905117876844 
1080	 0.277128426168295 
1081	 0.277352358887225 
1082	 0.277577337817552 
1083	 0.277813953050629 
1084	 0.278036211740144 
1085	 0.278288447412191 
1086	 0.278593062558159 
1087	 0.278838035704878 
1088	 0.279068241910942 
1089	 0.279299722721053 
1090	 0.279474671147716 
1091	 0.279616255981774 
1092	 0.279777651659916 
1093	 0.279959490547506 
1094	 0.280208616074715 
1095	 0.280508242067879 
1096	 0.280777321334566 
1097	 0.281011358793523 
1098	 0.281231918263936 
1099	 0.281404136751775 
1100	 0.281579881081559 
1101	 0.281764047697694 
1102	 0.281932901161785 
1103	 0.282068420623223 
1104	 0.282205544589689 
1105	 0.282416732121119 
1106	 0.282625112238744 
1107	 0.282870988803187 
1108	 0.283145051824289 
1109	 0.283354987094994 
1110	 0.283573910231174 
1111	 0.283777805618452 
1112	 0.283953623314608 
1113	 0.284145931316151 
1114	 0.284342766961271 
1115	 0.284535760350174 
1116	 0.284728149087238 
1117	 0.284924824896485 
1118	 0.285117418517262 
1119	 0.285315756478733 
1120	 0.285531722983101 
1121	 0.285754477427189 
1122	 0.28598058628154 
1123	 0.286180352170804 
1124	 0.286381521175963 
1125	 0.286567708467049 
1126	 0.286766471651033 
1127	 0.286974137342241 
1128	 0.287167886070437 
1129	 0.287354589558062 
1130	 0.287538898454745 
1131	 0.287712056742466 
1132	 0.287894112753221 
1133	 0.288078350326987 
1134	 0.28826449990876 
1135	 0.288459910969427 
1136	 0.288649664978079 
1137	 0.288807712218474 
1138	 0.288979363622902 
1139	 0.289149390375005 
1140	 0.289299735497986 
1141	 0.289470095994753 
1142	 0.289663744574489 
1143	 0.289840129609582 
1144	 0.290019590415888 
1145	 0.290186213756187 
1146	 0.290350441259305 
1147	 0.290497922535981 
1148	 0.290621284080042 
1149	 0.290755660863565 
1150	 0.290882094083274 
1151	 0.291014950469737 
1152	 0.291147935533127 
1153	 0.291285053654136 
1154	 0.291433033218101 
1155	 0.291583940666232 
1156	 0.291736727185995 
1157	 0.291914261400877 
1158	 0.292064376066038 
1159	 0.292201775683877 
1160	 0.292338746224807 
1161	 0.292463643352994 
1162	 0.292587564449185 
1163	 0.29270305320695 
1164	 0.292831515090614 
1165	 0.292961198195553 
1166	 0.293094887896853 
1167	 0.293248191854768 
1168	 0.293387667475813 
1169	 0.293517603189642 
1170	 0.293638020732574 
1171	 0.293764868950619 
1172	 0.293880753174743 
1173	 0.294010068611838 
1174	 0.294145473959599 
1175	 0.294283814412064 
1176	 0.294439011685701 
1177	 0.294573176879769 
1178	 0.294695428494203 
1179	 0.29482847010068 
1180	 0.294950690114628 
1181	 0.295079592195275 
1182	 0.295214830896421 
1183	 0.295367227999326 
1184	 0.295502793734708 
1185	 0.295633584567027 
1186	 0.295762490870398 
1187	 0.295890007115937 
1188	 0.296010504525012 
1189	 0.296117849672294 
1190	 0.296241835998878 
1191	 0.296367278217977 
1192	 0.29649689190319 
1193	 0.296641036017889 
1194	 0.296777649093539 
1195	 0.296928869084536 
1196	 0.297049739892881 
1197	 0.297133061383391 
1198	 0.297246613848757 
1199	 0.297364193138647 
1200	 0.297468184063952 
1201	 0.297590566843749 
1202	 0.297753335866145 
1203	 0.297870789557273 
1204	 0.297955787754841 
1205	 0.298070782924398 
1206	 0.298190148940267 
1207	 0.298303358643812 
1208	 0.298428540954695 
1209	 0.298546474553752 
1210	 0.298659481835371 
1211	 0.298762144937918 
1212	 0.298850475120226 
1213	 0.298956133212027 
1214	 0.299057638135461 
1215	 0.299163002896854 
1216	 0.299275999484456 
1217	 0.2994120843037 
1218	 0.29952889870146 
1219	 0.29964146293416 
1220	 0.299745427523198 
1221	 0.299841882460663 
1222	 0.299943353130836 
1223	 0.300036813334639 
1224	 0.300134711737396 
1225	 0.300249122002105 
1226	 0.300342428041044 
1227	 0.300404085680971 
1228	 0.300499848946161 
1229	 0.300618885583209 
1230	 0.300714561248636 
1231	 0.300829977444762 
1232	 0.30092466117179 
1233	 0.301002178191885 
1234	 0.301037082482051 
1235	 0.301114961960716 
1236	 0.301199674262829 
1237	 0.30128779796036 
1238	 0.301396212556125 
1239	 0.301487974545698 
1240	 0.301569966805711 
1241	 0.30166165774926 
1242	 0.3017564931573 
1243	 0.301847592892124 
1244	 0.3019406314757 
1245	 0.30203495848932 
1246	 0.302128811494854 
1247	 0.302219107389136 
1248	 0.302309087685154 
1249	 0.302404601145788 
1250	 0.302485683669611 
1251	 0.302557991391779 
1252	 0.302635189173407 
1253	 0.302706821977767 
1254	 0.302787020210283 
1255	 0.302874819457883 
1256	 0.302952737900685 
1257	 0.30303905747541 
1258	 0.303103790932041 
1259	 0.303148490827802 
1260	 0.303203527911804 
1261	 0.303244951314461 
1262	 0.30329841426336 
1263	 0.303367433455163 
1264	 0.303426171690357 
1265	 0.303491481677303 
1266	 0.303543470034107 
1267	 0.303569979665571 
1268	 0.30361121707824 
1269	 0.303675166787938 
1270	 0.303743152649124 
1271	 0.303821061299003 
1272	 0.303927699294442 
1273	 0.304022531700445 
1274	 0.304107508052731 
1275	 0.304210823629212 
1276	 0.304328163139367 
1277	 0.304447138464537 
1278	 0.304578961085261 
1279	 0.304698909556243 
1280	 0.304804179515166 
1281	 0.304937544332578 
1282	 0.305099314362625 
1283	 0.305231794535374 
1284	 0.305368875465143 
1285	 0.305498884726855 
1286	 0.305606758644309 
1287	 0.305707537805525 
1288	 0.305828541160981 
1289	 0.305973410203838 
1290	 0.306093273077463 
1291	 0.306206385225412 
1292	 0.306321751515203 
1293	 0.306437556356554 
1294	 0.306538073366074 
1295	 0.306634352420192 
1296	 0.306722758099084 
1297	 0.306797465896591 
1298	 0.306867198059847 
1299	 0.306933547050889 
1300	 0.306992804828075 
1301	 0.307052712401925 
1302	 0.307087787596019 
1303	 0.307102598878587 
1304	 0.307116264164068 
1305	 0.307128239946275 
1306	 0.307129684707928 
1307	 0.307139260912147 
1308	 0.307145217244299 
1309	 0.307139878796634 
1310	 0.307122494012379 
1311	 0.307090395369062 
1312	 0.307041945165115 
1313	 0.307008628206639 
1314	 0.30695792939661 
1315	 0.306925763226994 
1316	 0.306927852352036 
1317	 0.306900304770559 
1318	 0.306861024854583 
1319	 0.30681990049666 
1320	 0.306751063461437 
1321	 0.306708764537592 
1322	 0.306678150031028 
1323	 0.306652861442033 
1324	 0.306634354967591 
1325	 0.306614712650064 
1326	 0.306564106635743 
1327	 0.306511218653035 
1328	 0.306458169226901 
1329	 0.306408365178619 
1330	 0.306351388828748 
1331	 0.306295249940782 
1332	 0.306232579709323 
1333	 0.306154359186048 
1334	 0.306094449108077 
1335	 0.306036642986751 
1336	 0.305992672795316 
1337	 0.30596613665851 
1338	 0.305929588077301 
1339	 0.305905998331154 
1340	 0.305863744907701 
1341	 0.305802833853698 
1342	 0.305753335916999 
1343	 0.305698041712433 
1344	 0.305647378340558 
1345	 0.305614357060264 
1346	 0.305579243699458 
1347	 0.305551068338905 
1348	 0.305523418850566 
1349	 0.305467553526312 
1350	 0.305430669823764 
1351	 0.305393298402637 
1352	 0.30535743421814 
1353	 0.305304209117802 
1354	 0.305249714557009 
1355	 0.30519420765894 
1356	 0.305114236487248 
1357	 0.305057294649627 
1358	 0.305016977449593 
1359	 0.304975668188887 
1360	 0.304933381765166 
1361	 0.304900460121372 
1362	 0.304893189973873 
1363	 0.304858209819348 
1364	 0.304805917070726 
1365	 0.304764761396148 
1366	 0.304717439195484 
1367	 0.304666530440834 
1368	 0.304625135201608 
1369	 0.304594226122101 
1370	 0.304544134622267 
1371	 0.304474345939861 
1372	 0.304364058398097 
1373	 0.30423345182154 
1374	 0.304101959502913 
1375	 0.303942599796002 
1376	 0.303778160503654 
1377	 0.303631725134737 
1378	 0.303433804693983 
1379	 0.303196591006883 
1380	 0.302958702061702 
1381	 0.302697754455157 
1382	 0.302423981189779 
1383	 0.302156270578908 
1384	 0.301838423691567 
1385	 0.301516214980273 
1386	 0.3011301272598 
1387	 0.3006929082943 
1388	 0.30022141985182 
1389	 0.29971094949308 
1390	 0.299148156619671 
1391	 0.298545637660543 
1392	 0.297906167487886 
1393	 0.297209551573982 
1394	 0.296454251540688 
1395	 0.295650940002816 
1396	 0.294841059003691 
1397	 0.294045393902942 
1398	 0.293237197192878 
1399	 0.292427817911842 
1400	 0.29162756361112 
1401	 0.290818516214019 
1402	 0.289970466183794 
1403	 0.289189538364883 
1404	 0.28842209442534 
1405	 0.287703327908149 
1406	 0.287033561181199 
1407	 0.286372727524468 
1408	 0.285721034859071 
1409	 0.285133043325586 
1410	 0.284525632334223 
1411	 0.284055597625854 
1412	 0.28366537481722 
1413	 0.283362677036215 
1414	 0.283181001335037 
1415	 0.283087893616435 
1416	 0.283081920198442 
1417	 0.283145557247569 
1418	 0.283255407822183 
1419	 0.283402570043742 
1420	 0.283550185400182 
1421	 0.283680402721698 
1422	 0.283795906752531 
1423	 0.283876314208714 
1424	 0.283907503386931 
1425	 0.283891133825333 
1426	 0.283870657091734 
1427	 0.283790512226352 
1428	 0.283747329865838 
1429	 0.283712470596423 
1430	 0.28367312235772 
1431	 0.283646434091886 
1432	 0.283598181309404 
1433	 0.283527366266835 
1434	 0.283473550699507 
1435	 0.283394015735971 
1436	 0.283359291728638 
1437	 0.283365676586102 
1438	 0.283360014420281 
1439	 0.283368196296053 
1440	 0.283388292956276 
1441	 0.283383596463668 
1442	 0.283370253644731 
1443	 0.283349642937403 
1444	 0.283329116575739 
1445	 0.283325258830829 
1446	 0.283321659450337 
1447	 0.283326805372223 
1448	 0.283330288947417 
1449	 0.283306028467651 
1450	 0.283286294194171 
1451	 0.283278606824172 
1452	 0.283268993365449 
1453	 0.283275064194955 
1454	 0.28330679199451 
1455	 0.283309503885529 
1456	 0.28330626103893 
1457	 0.283303563437243 
1458	 0.28328484311697 
1459	 0.283280298665906 
1460	 0.283278008411965 
1461	 0.283286275819552 
1462	 0.283301187930588 
1463	 0.283320100321979 
1464	 0.283350217789324 
1465	 0.283383449252293 
1466	 0.283403735342122 
1467	 0.283454408704058 
1468	 0.28351687946235 
1469	 0.283603556322948 
1470	 0.283718246127481 
1471	 0.283848409943502 
1472	 0.283985830571442 
1473	 0.284117916889524 
1474	 0.284230831956137 
1475	 0.284358513924566 
1476	 0.284498739631229 
1477	 0.284655349666306 
1478	 0.284835221909346 
1479	 0.285020247687315 
1480	 0.285203447262067 
1481	 0.285372025110148 
1482	 0.285555431220558 
1483	 0.28575362432106 
1484	 0.285925332679279 
1485	 0.286087949076964 
1486	 0.286260935505647 
1487	 0.28641025387862 
1488	 0.286584039153455 
1489	 0.286798154990391 
1490	 0.286973245511396 
1491	 0.287140033369556 
1492	 0.287296191768041 
1493	 0.287417691910241 
1494	 0.287561719967227 
1495	 0.287710395764279 
1496	 0.287860796646642 
1497	 0.288028418905765 
1498	 0.288181809934309 
1499	 0.288330124343257 
1500	 0.288468241499628 
1501	 0.28859250905143 
1502	 0.288722850059637 
1503	 0.288843660265576 
1504	 0.28897817265413 
1505	 0.289118763120651 
1506	 0.289254760018751 
1507	 0.28938894465781 
1508	 0.289513978371635 
1509	 0.289635907785162 
1510	 0.289746887273886 
1511	 0.28985273518358 
1512	 0.289963263164025 
1513	 0.290074548312269 
1514	 0.290202752424167 
1515	 0.290340219769508 
1516	 0.290473878421663 
1517	 0.290589624540322 
1518	 0.290694554915403 
1519	 0.290798809404135 
1520	 0.290889628479783 
1521	 0.290979869147373 
1522	 0.291066855651966 
1523	 0.291165230869192 
1524	 0.291255341565002 
1525	 0.291359461341317 
1526	 0.291480801023171 
1527	 0.291594669252984 
1528	 0.291719351196777 
1529	 0.291826050387036 
1530	 0.291937752535153 
1531	 0.292023230794852 
1532	 0.292061824189885 
1533	 0.292139211873157 
1534	 0.292232018373521 
1535	 0.292309654467179 
1536	 0.292399730057265 
1537	 0.292483299102418 
1538	 0.292545060230896 
1539	 0.292614807385682 
1540	 0.292693580685427 
1541	 0.292772811430322 
1542	 0.292849515133704 
1543	 0.292924245638633 
1544	 0.293012588707104 
1545	 0.293084894112268 
1546	 0.293145517479799 
1547	 0.293196384470173 
1548	 0.293267908333891 
1549	 0.29332997055096 
1550	 0.293374498777377 
1551	 0.293458804734219 
1552	 0.293515530869109 
1553	 0.293560864446627 
1554	 0.293644549351047 
1555	 0.293696736416291 
1556	 0.293735839219767 
1557	 0.293782635209674 
1558	 0.293835362499389 
1559	 0.29389382738186 
1560	 0.293952653760767 
1561	 0.294030346555054 
1562	 0.294091921151165 
1563	 0.29413793594205 
1564	 0.294198661446977 
1565	 0.294272081761039 
1566	 0.294329804419909 
1567	 0.294382568205582 
1568	 0.294435152934226 
1569	 0.294473834732888 
1570	 0.294528244233004 
1571	 0.294604356774592 
1572	 0.294651618562728 
1573	 0.294684848122625 
1574	 0.294727001456045 
1575	 0.294753585645521 
1576	 0.294791511375479 
1577	 0.294851004214548 
1578	 0.294891059251764 
1579	 0.294910029021875 
1580	 0.294950231690323 
1581	 0.294995716369857 
1582	 0.295044291972919 
1583	 0.295114084351633 
1584	 0.295162305581453 
1585	 0.295209300467903 
1586	 0.295233407103516 
1587	 0.295231771139382 
1588	 0.295244780480566 
1589	 0.295235031420641 
1590	 0.295252966610913 
1591	 0.295297427158319 
1592	 0.295328762375487 
1593	 0.295364868096356 
1594	 0.295402576423757 
1595	 0.295442529575176 
1596	 0.295475228591675 
1597	 0.295506958690823 
1598	 0.295539314358312 
1599	 0.295567965998901 
1600	 0.295591216237974 
1601	 0.295624016552211 
1602	 0.295637922727721 
1603	 0.295614679864893 
1604	 0.295620340705187 
1605	 0.295624223472155 
1606	 0.295646141847415 
1607	 0.295695501707141 
1608	 0.295753732079623 
1609	 0.295800810467804 
1610	 0.295847437311819 
1611	 0.295862444578333 
1612	 0.29585572531733 
1613	 0.295821109191305 
1614	 0.295780581109064 
1615	 0.295789643292114 
1616	 0.295814698519779 
1617	 0.295871720896357 
1618	 0.295932416382116 
1619	 0.295948528223504 
1620	 0.295957707500578 
1621	 0.295971136478654 
1622	 0.295979968825585 
1623	 0.2959701048505 
1624	 0.295958998099197 
1625	 0.29593543465551 
1626	 0.295880270446205 
1627	 0.295853086464955 
1628	 0.295825224027681 
1629	 0.295828907005578 
1630	 0.295847526615128 
1631	 0.295878268414084 
1632	 0.29595318887544 
1633	 0.295974835402063 
1634	 0.295984372062081 
1635	 0.295982507356681 
1636	 0.295957005507625 
1637	 0.295924897636461 
1638	 0.295871102859542 
1639	 0.295855536418113 
1640	 0.295826163650567 
1641	 0.295846788663314 
1642	 0.295926930758926 
1643	 0.295965672420042 
1644	 0.29602086322069 
1645	 0.296037971835437 
1646	 0.296023585852863 
1647	 0.296022723035374 
1648	 0.296012708238578 
1649	 0.29599736860353 
1650	 0.295972806336819 
1651	 0.295967049803874 
1652	 0.295964602463549 
1653	 0.295953521261908 
1654	 0.295958231856534 
1655	 0.295947961047864 
1656	 0.295927592837441 
1657	 0.29588808359712 
1658	 0.295841629546983 
1659	 0.295786866271597 
1660	 0.295689828375882 
1661	 0.295637523832201 
1662	 0.295600715572137 
1663	 0.295576019749806 
1664	 0.295572825059757 
1665	 0.295570645975356 
1666	 0.295591460410551 
1667	 0.295585400471466 
1668	 0.295586166210578 
1669	 0.295554260027894 
1670	 0.295478519668079 
1671	 0.295436184421223 
1672	 0.295387125334532 
1673	 0.295351999800572 
1674	 0.295333907737409 
1675	 0.2953225157458 
1676	 0.295321029662834 
1677	 0.295312845272397 
1678	 0.295321405583632 
1679	 0.295310518230843 
1680	 0.295277167662323 
1681	 0.295260004385273 
1682	 0.295236469706364 
1683	 0.295234716277302 
1684	 0.295253528455595 
1685	 0.295262147706476 
1686	 0.295298222349735 
1687	 0.295287391582319 
1688	 0.295237103175377 
1689	 0.295212345788673 
1690	 0.295177436088087 
1691	 0.295143414480925 
1692	 0.295135766199734 
1693	 0.295093743304992 
1694	 0.295003789984578 
1695	 0.294962166264223 
1696	 0.294923786962226 
1697	 0.294912010549154 
1698	 0.294942955413705 
1699	 0.294957126205072 
1700	 0.295007715966288 
1701	 0.294980030333669 
1702	 0.29490360016611 
1703	 0.294848975318652 
1704	 0.294745495287719 
1705	 0.294682272013151 
1706	 0.294665515820328 
1707	 0.294611918083267 
1708	 0.294538797429904 
1709	 0.294477264792148 
1710	 0.294416648371991 
1711	 0.294351851159312 
1712	 0.294285754529247 
1713	 0.294221775889006 
1714	 0.294145079639209 
1715	 0.294086265573664 
1716	 0.294043306208135 
1717	 0.293996301066014 
1718	 0.293950697985827 
1719	 0.293914103338943 
1720	 0.293891431883446 
1721	 0.293849662231321 
1722	 0.293807495165989 
1723	 0.293762313250233 
1724	 0.29370259671424 
1725	 0.293641972777824 
1726	 0.293584772343639 
1727	 0.293520015863567 
1728	 0.293439272523996 
1729	 0.293374011934858 
1730	 0.293319313544673 
1731	 0.293259191114757 
1732	 0.293208970328167 
1733	 0.2931335390918 
1734	 0.29304994977148 
1735	 0.292945656016485 
1736	 0.292810217723577 
1737	 0.292698845147696 
1738	 0.292577658693695 
1739	 0.292480044871013 
1740	 0.292405798324715 
1741	 0.292315175655945 
1742	 0.292233584755045 
1743	 0.292140514274321 
1744	 0.292033751469726 
1745	 0.291927465359268 
1746	 0.291807835344787 
1747	 0.291735693309357 
1748	 0.291672656444328 
1749	 0.291623455151653 
1750	 0.291554417254308 
1751	 0.291486780502734 
1752	 0.291431008778808 
1753	 0.291341422540114 
1754	 0.29123606110023 
1755	 0.291108700266445 
1756	 0.290953999386892 
1757	 0.29082347961382 
1758	 0.290711192730482 
1759	 0.29058832697032 
1760	 0.29049304178328 
1761	 0.290417448126235 
1762	 0.29031718296397 
1763	 0.290222317648374 
1764	 0.290137034081822 
1765	 0.290017983993217 
1766	 0.289919551305562 
1767	 0.289835889833141 
1768	 0.2897140534992 
1769	 0.28962597904006 
1770	 0.289574000110314 
1771	 0.289515692601126 
1772	 0.289463451356583 
1773	 0.28942533110219 
1774	 0.289386882978234 
1775	 0.28935093407736 
1776	 0.289292870708238 
1777	 0.28919663596729 
1778	 0.289077705548468 
1779	 0.288941127252296 
1780	 0.288856689609409 
1781	 0.288806056371535 
1782	 0.288759695560865 
1783	 0.288744012763284 
1784	 0.288716126716889 
1785	 0.288700802463399 
1786	 0.288668447565104 
1787	 0.288628863698694 
1788	 0.288578862451329 
1789	 0.28851048604691 
1790	 0.288454052217288 
1791	 0.288399758384491 
1792	 0.288338779407146 
1793	 0.288249462105662 
1794	 0.288214246877942 
1795	 0.288207146752527 
1796	 0.28819431872793 
1797	 0.288239128811351 
1798	 0.288230464397089 
1799	 0.288180326204427 
1800	 0.288143720728271 
1801	 0.286903696185701 
1802	 0.287080921407405 
1803	 0.287273211571254 
1804	 0.287492411649001 
1805	 0.287740267514094 
1806	 0.287982135234878 
1807	 0.288172809734907 
1808	 0.288343459413066 
1809	 0.288505777578676 
1810	 0.288636779045134 
1811	 0.28871053894009 
1812	 0.288818942078105 
1813	 0.288944494988524 
1814	 0.289016003906029 
1815	 0.289042306139655 
1816	 0.289048852408377 
1817	 0.289052798286258 
1818	 0.288996305644653 
1819	 0.288980085255913 
1820	 0.288979582211324 
1821	 0.288997367472835 
1822	 0.288989158004144 
1823	 0.288971775411975 
1824	 0.28900132653371 
1825	 0.289012805185319 
1826	 0.289018363868918 
1827	 0.289056329497043 
1828	 0.289043549719442 
1829	 0.288991914673291 
1830	 0.288941622367217 
1831	 0.28887747755678 
1832	 0.288786750611125 
1833	 0.288686872840145 
1834	 0.288628778438823 
1835	 0.288571037640787 
1836	 0.288485920362719 
1837	 0.288423459022833 
1838	 0.288360775113301 
1839	 0.288308084353231 
1840	 0.288256621520858 
1841	 0.288222298895981 
1842	 0.288182977373492 
1843	 0.288121260973379 
1844	 0.288042920997204 
1845	 0.287976242067859 
1846	 0.287900258237767 
1847	 0.287855404947696 
1848	 0.287812055272073 
1849	 0.287748770056041 
1850	 0.287701098636979 
1851	 0.287677272412603 
1852	 0.287622044628806 
1853	 0.287559679839455 
1854	 0.287506687158549 
1855	 0.287435462679847 
1856	 0.287338518605222 
1857	 0.287207106743586 
1858	 0.287064335170659 
1859	 0.286888630851289 
1860	 0.28667667309414 
1861	 0.286431447981322 
1862	 0.286179926023878 
1863	 0.285885014227274 
1864	 0.285551997064551 
1865	 0.285242679937207 
1866	 0.284888560435921 
1867	 0.284509212316126 
1868	 0.284149747230693 
1869	 0.283728090309681 
1870	 0.283285571229742 
1871	 0.282830176062428 
1872	 0.282368614624234 
1873	 0.281866627987699 
1874	 0.281325109790048 
1875	 0.280730798890552 
1876	 0.280086250483698 
1877	 0.279367699509827 
1878	 0.278580935731209 
1879	 0.277747188841995 
1880	 0.276813210816966 
1881	 0.275780780391605 
1882	 0.274693307631784 
1883	 0.273547385137614 
1884	 0.272268643369219 
1885	 0.270952648544412 
1886	 0.269551856166913 
1887	 0.268013885677107 
1888	 0.266440340623605 
1889	 0.264764855581879 
1890	 0.263016947519409 
1891	 0.2612585889476 
1892	 0.259434981363453 
1893	 0.257595892543249 
1894	 0.255729494639233 
1895	 0.25385293070261 
1896	 0.251914502284846 
1897	 0.250007262962924 
1898	 0.248104898668636 
1899	 0.246201848400239 
1900	 0.24436338564219 
1901	 0.242573288403716 
1902	 0.240878043137877 
1903	 0.239295836030136 
1904	 0.237734315135176 
1905	 0.236222881808683 
1906	 0.234788089159469 
1907	 0.233432217507074 
1908	 0.232120290541785 
1909	 0.230885895285596 
1910	 0.229728024186819 
1911	 0.228611611050515 
1912	 0.227556418381247 
1913	 0.226567370039941 
1914	 0.225657449335353 
1915	 0.224798548391711 
1916	 0.223996657377284 
1917	 0.22324699917803 
1918	 0.22255953608335 
1919	 0.221935139613576 
1920	 0.221369809333608 
1921	 0.22083755000803 
1922	 0.220357070391953 
1923	 0.219951115094575 
1924	 0.219589899645781 
1925	 0.219295308770366 
1926	 0.219021167444206 
1927	 0.218795748096688 
1928	 0.218599692067415 
1929	 0.218424739664897 
1930	 0.218271783085543 
1931	 0.218169523982219 
1932	 0.218109864702489 
1933	 0.218074002759632 
1934	 0.218083637057451 
1935	 0.218106015144264 
1936	 0.218145340407464 
1937	 0.218216356068308 
1938	 0.218313311186366 
1939	 0.218440234839382 
1940	 0.218601211676557 
1941	 0.218785229886524 
1942	 0.218996812298546 
1943	 0.219211565927947 
1944	 0.219447007145638 
1945	 0.219712790413086 
1946	 0.219979212317382 
1947	 0.220259571649323 
1948	 0.22054946689537 
1949	 0.220847525199304 
1950	 0.221151132568679 
1951	 0.221460252670612 
1952	 0.221793108191484 
1953	 0.222118902677853 
1954	 0.222468296604327 
1955	 0.222828697855879 
1956	 0.223179596607066 
1957	 0.223538909311889 
1958	 0.223888854618436 
1959	 0.224269272862644 
1960	 0.224671853022652 
1961	 0.225074606679695 
1962	 0.225497927466259 
1963	 0.225922897025913 
1964	 0.22635773276961 
1965	 0.226770980310865 
1966	 0.22720453218713 
1967	 0.227666212463842 
1968	 0.228113944328347 
1969	 0.228564112927915 
1970	 0.229017447923477 
1971	 0.229466032037482 
1972	 0.229921891397194 
1973	 0.230392501561542 
1974	 0.230852697204766 
1975	 0.231311350862768 
1976	 0.231771519244923 
1977	 0.232231028028238 
1978	 0.232670050578287 
1979	 0.233110384505992 
1980	 0.233570414232358 
1981	 0.234023053346379 
1982	 0.234474983242403 
1983	 0.234929577451833 
1984	 0.235379044778517 
1985	 0.23584275391369 
1986	 0.236317488632959 
1987	 0.236787990132059 
1988	 0.237266259722267 
1989	 0.237745794421994 
1990	 0.238220573671567 
1991	 0.238697609028608 
1992	 0.239167899142019 
1993	 0.239638149396719 
1994	 0.240103801899006 
1995	 0.240560299344152 
1996	 0.241021809995726 
1997	 0.241491622212084 
1998	 0.241953934750143 
1999	 0.24240683029535 
2000	 0.242863102495962 
2001	 0.243320198940672 
2002	 0.243770971470302 
2003	 0.244233335783377 
2004	 0.244700729495663 
2005	 0.245141543113256 
2006	 0.245568662579809 
2007	 0.245997437142668 
2008	 0.246406623377184 
2009	 0.246825257422167 
2010	 0.247251359129775 
2011	 0.247671408095343 
2012	 0.248104821207208 
2013	 0.248503537320148 
2014	 0.248870426490846 
2015	 0.249259610154091 
2016	 0.249620208898457 
2017	 0.249972417279243 
2018	 0.250361294556835 
2019	 0.250788553965175 
2020	 0.251182777334441 
2021	 0.251586658198164 
2022	 0.251976567175758 
2023	 0.252340517992638 
2024	 0.252718220594046 
2025	 0.253102370797016 
2026	 0.253479328386714 
2027	 0.25384324975172 
2028	 0.254226895217421 
2029	 0.254610966867856 
2030	 0.255009492108843 
2031	 0.255374826334678 
2032	 0.255734128238841 
2033	 0.256084151689826 
2034	 0.256411787492572 
2035	 0.256734269800623 
2036	 0.257061437510046 
2037	 0.257373169956693 
2038	 0.257662460627553 
2039	 0.257946398949848 
2040	 0.258233678992396 
2041	 0.258493952331701 
2042	 0.258721523130841 
2043	 0.258981420451311 
2044	 0.259259279950664 
2045	 0.259556082425968 
2046	 0.259836635078509 
2047	 0.26014065653369 
2048	 0.260425421184904 
2049	 0.260693346325852 
2050	 0.260956925036976 
2051	 0.261219698849791 
2052	 0.261475772825962 
2053	 0.261723715870426 
2054	 0.261958634525244 
2055	 0.262179344372505 
2056	 0.262413668748087 
2057	 0.262631344996997 
2058	 0.262819953205504 
2059	 0.263040220671071 
2060	 0.263273390217547 
2061	 0.263503125964009 
2062	 0.26374853514941 
2063	 0.263977666322949 
2064	 0.264216120222715 
2065	 0.264421267112512 
2066	 0.264593141988596 
2067	 0.264780969678244 
2068	 0.264959238147679 
2069	 0.265126004047272 
2070	 0.265305365204538 
2071	 0.265498454741828 
2072	 0.265688142663607 
2073	 0.265866246072725 
2074	 0.26606700999089 
2075	 0.266296056935588 
2076	 0.266497859471239 
2077	 0.266690091789001 
2078	 0.266893614104392 
2079	 0.267090367435536 
2080	 0.267289765681675 
2081	 0.267513442323705 
2082	 0.267714797021842 
2083	 0.26789653897096 
2084	 0.268075449306213 
2085	 0.268270588261574 
2086	 0.268470558264146 
2087	 0.268660270155636 
2088	 0.268871064428473 
2089	 0.269042893837119 
2090	 0.269175003665015 
2091	 0.269331173030859 
2092	 0.269470803581745 
2093	 0.269634052182741 
2094	 0.269829564767007 
2095	 0.270002417249256 
2096	 0.270173091896458 
2097	 0.270343553254516 
2098	 0.270503496971513 
2099	 0.270661984301262 
2100	 0.270824049993859 
2101	 0.270987462613613 
2102	 0.271158935894378 
2103	 0.271327845078798 
2104	 0.271509982913664 
2105	 0.271710971743974 
2106	 0.27189991562651 
2107	 0.272100616511254 
2108	 0.2722803777935 
2109	 0.272437419874461 
2110	 0.27260973942889 
2111	 0.272768275274639 
2112	 0.272944221403773 
2113	 0.273119090701023 
2114	 0.273338369687063 
2115	 0.273535562721169 
2116	 0.273738931476985 
2117	 0.273933073073503 
2118	 0.27412286777213 
2119	 0.274316588325852 
2120	 0.274518946462075 
2121	 0.274699406360104 
2122	 0.274879565169442 
2123	 0.275041083175244 
2124	 0.275176757153544 
2125	 0.275314072603875 
2126	 0.275449109081125 
2127	 0.275569560441946 
2128	 0.275683379625183 
2129	 0.275783252283576 
2130	 0.275868650083472 
2131	 0.275943093582792 
2132	 0.276008196519376 
2133	 0.276056336949572 
2134	 0.276110849791698 
2135	 0.276156098650589 
2136	 0.276206228128219 
2137	 0.276275846601745 
2138	 0.276303621260181 
2139	 0.276313353247384 
2140	 0.276316791413017 
2141	 0.276306322125902 
2142	 0.276269423868846 
2143	 0.276230520073416 
2144	 0.276157842312844 
2145	 0.276027693449385 
2146	 0.275908258821287 
2147	 0.275774313190859 
2148	 0.275644577679131 
2149	 0.275496926344922 
2150	 0.275340205830584 
2151	 0.275187968737764 
2152	 0.275021798640969 
2153	 0.274861786044032 
2154	 0.27473291694827 
2155	 0.274546637741461 
2156	 0.274346226170769 
2157	 0.274110243472169 
2158	 0.273813280647876 
2159	 0.273535330290697 
2160	 0.273233360269506 
2161	 0.27294331054084 
2162	 0.27266310958194 
2163	 0.272379042755185 
2164	 0.272089921419658 
2165	 0.271807181729528 
2166	 0.271525844748389 
2167	 0.271259858633318 
2168	 0.27094718162862 
2169	 0.270617891489304 
2170	 0.270289292066455 
2171	 0.269922964515693 
2172	 0.269580742122153 
2173	 0.269257209035002 
2174	 0.26891818286979 
2175	 0.268586612361347 
2176	 0.268226134288605 
2177	 0.267866888624757 
2178	 0.267469548457993 
2179	 0.267041800593141 
2180	 0.266588128349113 
2181	 0.266101590391271 
2182	 0.265599002289446 
2183	 0.265057517066841 
2184	 0.264512575591973 
2185	 0.263973222496854 
2186	 0.263403266284646 
2187	 0.26288980745882 
2188	 0.262394250268348 
2189	 0.261922225220606 
2190	 0.26148100812326 
2191	 0.261055526705392 
2192	 0.260637797621941 
2193	 0.260262127030279 
2194	 0.259910837369535 
2195	 0.259600086856453 
2196	 0.259335147120058 
2197	 0.259085580556033 
2198	 0.258868450265249 
2199	 0.258675050105753 
2200	 0.258495222123065 
2201	 0.258357319844386 
2202	 0.258269372859703 
2203	 0.258176358835313 
2204	 0.258146745081443 
2205	 0.258148122503508 
2206	 0.258217335495817 
2207	 0.258340984168554 
2208	 0.258508496863308 
2209	 0.258737255557945 
2210	 0.258998066881941 
2211	 0.259317549637327 
2212	 0.25964042783557 
2213	 0.260020798496267 
2214	 0.260374046965527 
2215	 0.260769320137753 
2216	 0.26108762060808 
2217	 0.261371610552307 
2218	 0.261636703045296 
2219	 0.261823801954748 
2220	 0.262042047939986 
2221	 0.262285463424012 
2222	 0.262496668028321 
2223	 0.262660821567932 
2224	 0.262840017117305 
2225	 0.262999168060887 
2226	 0.263121361895975 
2227	 0.263250321561926 
2228	 0.263405023117298 
2229	 0.263487960035234 
2230	 0.263524129902689 
2231	 0.263560990831405 
2232	 0.263562618014981 
2233	 0.263565214326521 
2234	 0.263563789527753 
2235	 0.263544162459994 
2236	 0.263493510683126 
2237	 0.263459678495085 
2238	 0.263420176473221 
2239	 0.263381118718909 
2240	 0.263362457606841 
2241	 0.263320345168599 
2242	 0.26327933042421 
2243	 0.263207168476587 
2244	 0.263119691268365 
2245	 0.262988563757577 
2246	 0.26286902472521 
2247	 0.262737009065405 
2248	 0.26260897834472 
2249	 0.262490725630919 
2250	 0.262363256108053 
2251	 0.262200840325554 
2252	 0.262102842817607 
2253	 0.262037591285181 
2254	 0.261961838254184 
2255	 0.261941356955712 
2256	 0.261860904680207 
2257	 0.261705769415113 
2258	 0.261638262860794 
2259	 0.261586101317156 
2260	 0.26155011414686 
2261	 0.261607240135592 
2262	 0.26159364662088 
2263	 0.261516634955088 
2264	 0.261492765630981 
2265	 0.261464865800415 
2266	 0.261459618765064 
2267	 0.261496005131011 
2268	 0.261535142551276 
2269	 0.261613285250999 
2270	 0.261647992346853 
2271	 0.261631845225653 
2272	 0.261642599170159 
2273	 0.261639181943625 
2274	 0.261642223925666 
2275	 0.261643169466306 
2276	 0.261682061265442 
2277	 0.261691236134641 
2278	 0.261635722707246 
2279	 0.261686006861167 
2280	 0.261795236407928 
2281	 0.261880239781102 
2282	 0.262051748592283 
2283	 0.262114073681567 
2284	 0.262101782292168 
2285	 0.262120010043694 
2286	 0.262086350138835 
2287	 0.262085368374334 
2288	 0.262143227239366 
2289	 0.262142298550048 
2290	 0.262126475469068 
2291	 0.262080934345224 
2292	 0.261961857753531 
2293	 0.261888783323567 
2294	 0.261825446399555 
2295	 0.261756238052999 
2296	 0.261693777620421 
2297	 0.261640231044554 
2298	 0.261575085239196 
2299	 0.261570475070291 
2300	 0.261620806571267 
2301	 0.261665800571606 
2302	 0.261690937553804 
2303	 0.261670545689654 
2304	 0.26161430271385 
2305	 0.26151935795051 
2306	 0.26141409119048 
2307	 0.261279809810431 
2308	 0.261158213384699 
2309	 0.261004416796474 
2310	 0.260889462064479 
2311	 0.260794479155462 
2312	 0.260682281320098 
2313	 0.260608874863617 
2314	 0.260490498184131 
2315	 0.260325281399033 
2316	 0.260204829948605 
2317	 0.260080614545151 
2318	 0.259938284279604 
2319	 0.259805332951334 
2320	 0.259683380494568 
2321	 0.259545397282138 
2322	 0.259417972501469 
2323	 0.259334644277871 
2324	 0.259221539906503 
2325	 0.259085678768157 
2326	 0.258949098152501 
2327	 0.258833238756461 
2328	 0.258648842669043 
2329	 0.258426491077307 
2330	 0.25825669867923 
2331	 0.258081759630868 
2332	 0.257914644694894 
2333	 0.25782775269361 
2334	 0.257783538516346 
2335	 0.257658040327881 
2336	 0.257497153866182 
2337	 0.257291271720901 
2338	 0.257034293472458 
2339	 0.25690022573841 
2340	 0.256743900979163 
2341	 0.256578765550672 
2342	 0.256462879389657 
2343	 0.256223401346318 
2344	 0.255987132849336 
2345	 0.255791666228725 
2346	 0.255596329665898 
2347	 0.255404547316802 
2348	 0.255271143029127 
2349	 0.255082478142156 
2350	 0.254843347887142 
2351	 0.25466016938295 
2352	 0.254487298077211 
2353	 0.254311664675034 
2354	 0.254164352664251 
2355	 0.25401013355048 
2356	 0.253850676777871 
2357	 0.253677859948559 
2358	 0.253550898724436 
2359	 0.253324216803772 
2360	 0.25299040498265 
2361	 0.252739834106395 
2362	 0.252422501421499 
2363	 0.252219155895945 
2364	 0.252150750544192 
2365	 0.25203381342198 
2366	 0.251978968330789 
2367	 0.25187622838664 
2368	 0.251765574057944 
2369	 0.251575553106365 
2370	 0.251319537313502 
2371	 0.251033081343619 
2372	 0.250813973510657 
2373	 0.250622785477426 
2374	 0.250427069627194 
2375	 0.2501966367041 
2376	 0.249841877263994 
2377	 0.249414490832875 
2378	 0.249111527530756 
2379	 0.248920365212543 
2380	 0.248670695814927 
2381	 0.248405081660161 
2382	 0.248078166112857 
2383	 0.247711485365632 
2384	 0.247392413112311 
2385	 0.24715414013712 
2386	 0.246962850152256 
2387	 0.246690459852018 
2388	 0.246427383385376 
2389	 0.246174281280975 
2390	 0.245854803748935 
2391	 0.245556914210246 
2392	 0.245152801667977 
2393	 0.244677036864217 
2394	 0.244307714637725 
2395	 0.243873039279531 
2396	 0.243520358543695 
2397	 0.243295236048952 
2398	 0.243061148199555 
2399	 0.242823579521124 
2400	 0.242529863833505 
2401	 0.242252886090929 
2402	 0.241736199306913 
2403	 0.241128860064008 
2404	 0.240763673084577 
2405	 0.240263600048032 
2406	 0.239826231828395 
2407	 0.239552591945695 
2408	 0.239050158019123 
2409	 0.238525678035952 
2410	 0.238102430337605 
2411	 0.237650548334533 
2412	 0.237237298299781 
2413	 0.23688327783958 
2414	 0.236438088081901 
2415	 0.235932850376137 
2416	 0.235475230649031 
2417	 0.234971228298879 
2418	 0.234561093732211 
2419	 0.234214495023817 
2420	 0.233890998348004 
2421	 0.23369130668687 
2422	 0.23334385769942 
2423	 0.232974722768313 
2424	 0.232569354992538 
2425	 0.232010735519758 
2426	 0.231525401327174 
2427	 0.231045259318501 
2428	 0.230624086742714 
2429	 0.230290428321558 
2430	 0.229869121822447 
2431	 0.229460183694563 
2432	 0.229019890778711 
2433	 0.228494106332967 
2434	 0.228018290887792 
2435	 0.227524089400783 
2436	 0.227148217397358 
2437	 0.22686173954183 
2438	 0.22648744832253 
2439	 0.226180991162306 
2440	 0.225783647673607 
2441	 0.225231424320634 
2442	 0.224795278379755 
2443	 0.224405860420366 
2444	 0.224011390857291 
2445	 0.223694572446672 
2446	 0.223302754719117 
2447	 0.22277817909597 
2448	 0.222435521556352 
2449	 0.22221786398032 
2450	 0.221933009004457 
2451	 0.221744671342954 
2452	 0.221512925909652 
2453	 0.22125369015927 
2454	 0.220872564874843 
2455	 0.2203230640678 
2456	 0.219949859642726 
2457	 0.219565718668174 
2458	 0.21914731751878 
2459	 0.218900303416675 
2460	 0.218628044330563 
2461	 0.218311353153136 
2462	 0.217946563048169 
2463	 0.217651426650107 
2464	 0.217264932745916 
2465	 0.216588414714426 
2466	 0.216099932356117 
2467	 0.215661952692244 
2468	 0.215315141883832 
2469	 0.215180106316753 
2470	 0.215046191691168 
2471	 0.214803137163362 
2472	 0.214556093149564 
2473	 0.214408963595662 
2474	 0.214120209470009 
2475	 0.213713798718976 
2476	 0.213379669214735 
2477	 0.213170834801 
2478	 0.212622764603929 
2479	 0.212040223017888 
2480	 0.211796899479375 
2481	 0.211337807344294 
2482	 0.211050754213344 
2483	 0.210975680366838 
2484	 0.21069778370853 
2485	 0.210153667139235 
2486	 0.209746848690468 
2487	 0.209526166204372 
2488	 0.209203514046968 
2489	 0.209063827859392 
2490	 0.208892116599148 
2491	 0.20855129710515 
2492	 0.208128864202408 
2493	 0.207671215530312 
2494	 0.207365806081275 
2495	 0.207209524477439 
2496	 0.207245007852742 
2497	 0.207148519806265 
2498	 0.206764323677876 
2499	 0.206337616077539 
2500	 0.205824963119396 
