Wavelength	mm1800009.asd
350	 4.98863078827745E-02 
351	 6.56143803156544E-02 
352	 0.069291054432608 
353	 0.053009097115493 
354	 5.33033187570394E-02 
355	 0.056579379120595 
356	 6.11515927558273E-02 
357	 6.60881255177417E-02 
358	 6.21303845947685E-02 
359	 5.82303272771526E-02 
360	 5.69051026245576E-02 
361	 5.59985262977084E-02 
362	 5.31222624721862E-02 
363	 5.46948205233579E-02 
364	 6.02220903232132E-02 
365	 5.68720551800787E-02 
366	 5.69658420491577E-02 
367	 6.06670695786162E-02 
368	 6.44113166807235E-02 
369	 6.49021428913581E-02 
370	 6.27348027772365E-02 
371	 5.95063774641708E-02 
372	 5.75687913053431E-02 
373	 6.05181361732829E-02 
374	 6.39314339165041E-02 
375	 6.48799997696106E-02 
376	 6.48031705271191E-02 
377	 6.23446687122302E-02 
378	 6.18387755470755E-02 
379	 6.70994029496469E-02 
380	 7.37065498554083E-02 
381	 0.073489250371918 
382	 6.94373196690357E-02 
383	 7.19738319640133E-02 
384	 7.31667857338109E-02 
385	 7.30257110738048E-02 
386	 7.33832413248433E-02 
387	 7.76453639190163E-02 
388	 7.99267331165871E-02 
389	 8.00297093751749E-02 
390	 7.95532925325326E-02 
391	 7.84784260292446E-02 
392	 7.98641909083423E-02 
393	 8.36569228873659E-02 
394	 8.70129483944187E-02 
395	 8.71538053932298E-02 
396	 8.66915289895079E-02 
397	 8.80383798002476E-02 
398	 9.16224903873034E-02 
399	 0.092709873806146 
400	 9.28100023792245E-02 
401	 9.49478798993922E-02 
402	 9.61812913832051E-02 
403	 9.67231863511226E-02 
404	 9.72322873372422E-02 
405	 9.85536488731424E-02 
406	 0.099787345127749 
407	 0.101099899759532 
408	 0.102574335736592 
409	 0.103600550561346 
410	 0.103898324100922 
411	 0.103675242462566 
412	 0.103573468716678 
413	 0.105490851422634 
414	 0.106899755269309 
415	 0.106891225606988 
416	 0.1070615461749 
417	 0.107313615278193 
418	 0.107936991643205 
419	 0.108886805770033 
420	 0.108844591372684 
421	 0.108962988675564 
422	 0.109158554585717 
423	 0.108697066583582 
424	 0.109353823514822 
425	 0.1097632409778 
426	 0.109237540730957 
427	 0.108974762639612 
428	 0.108740589243678 
429	 0.108418968194982 
430	 0.108062274392186 
431	 0.108528572119654 
432	 0.108800875459579 
433	 0.108772768162768 
434	 0.109253507125089 
435	 0.109746213053352 
436	 0.11027584573051 
437	 0.110765368899544 
438	 0.110498997895106 
439	 0.110710850889789 
440	 0.111588811387713 
441	 0.11269057782673 
442	 0.113275491287513 
443	 0.113924349638319 
444	 0.114885421056276 
445	 0.11572310718793 
446	 0.116148774539694 
447	 0.116697708446255 
448	 0.117792088762381 
449	 0.118241238148309 
450	 0.119069211152057 
451	 0.120260317495183 
452	 0.120901621191091 
453	 0.121184431158436 
454	 0.12151259394907 
455	 0.122138021123857 
456	 0.122876208662723 
457	 0.123486048442904 
458	 0.12395424063537 
459	 0.124384935610129 
460	 0.124810252517447 
461	 0.125154089925876 
462	 0.125451093687071 
463	 0.125899168671992 
464	 0.12648632605704 
465	 0.127004316917234 
466	 0.12730382856473 
467	 0.127714188850939 
468	 0.127992859467111 
469	 0.12812955873791 
470	 0.128313838806771 
471	 0.128618805821682 
472	 0.129094834648516 
473	 0.129646439001089 
474	 0.129868824430543 
475	 0.129911666226806 
476	 0.13008770468915 
477	 0.130659060866509 
478	 0.130928684840441 
479	 0.1311386849479 
480	 0.131418984696515 
481	 0.131625520850568 
482	 0.131844900305673 
483	 0.132252857744472 
484	 0.132895149026472 
485	 0.133278195406123 
486	 0.13328203009778 
487	 0.133204069686441 
488	 0.133630749826764 
489	 0.134134316972977 
490	 0.134518324315184 
491	 0.134732029892148 
492	 0.13496746292415 
493	 0.135098110061009 
494	 0.135333517690131 
495	 0.135922145983263 
496	 0.136154526215764 
497	 0.136373025135882 
498	 0.136802374019893 
499	 0.137360607863483 
500	 0.137601838060892 
501	 0.137640199404663 
502	 0.137730713733926 
503	 0.137854755170859 
504	 0.138186811951308 
505	 0.138620107516755 
506	 0.138811790363283 
507	 0.13902174539274 
508	 0.139282050730344 
509	 0.139580421810134 
510	 0.139918364504014 
511	 0.140204996659664 
512	 0.140413556412149 
513	 0.140579636444153 
514	 0.140944391300292 
515	 0.141220735960162 
516	 0.141339964379763 
517	 0.141719782379955 
518	 0.141901134321975 
519	 0.142017442598655 
520	 0.14232115025401 
521	 0.142618673834073 
522	 0.142847318947411 
523	 0.14301631353525 
524	 0.143201115974931 
525	 0.143411880555442 
526	 0.143635217357422 
527	 0.143872785589855 
528	 0.144224703797949 
529	 0.144401842536795 
530	 0.144550832282552 
531	 0.145044091844471 
532	 0.145278740000464 
533	 0.145445561603801 
534	 0.145700134060247 
535	 0.145880611365158 
536	 0.146047570872347 
537	 0.146265249654065 
538	 0.146578188159143 
539	 0.146885395091742 
540	 0.14710409574902 
541	 0.147261306170516 
542	 0.147521717361822 
543	 0.147757690771969 
544	 0.147980059732494 
545	 0.148233336063185 
546	 0.148551809404052 
547	 0.148833925296332 
548	 0.149080873653822 
549	 0.149378726532353 
550	 0.1496426356102 
551	 0.149899167295335 
552	 0.150179290663599 
553	 0.150478034091789 
554	 0.150727553055859 
555	 0.151011664448733 
556	 0.151458174104969 
557	 0.151802798345999 
558	 0.152151306581567 
559	 0.152582342860572 
560	 0.153067650742256 
561	 0.1533934496507 
562	 0.153676585167557 
563	 0.15409491377601 
564	 0.154447017988263 
565	 0.154754463269278 
566	 0.155070045964791 
567	 0.155464496299443 
568	 0.155878295763431 
569	 0.156355952231505 
570	 0.156933953843661 
571	 0.157556201982688 
572	 0.158156018772346 
573	 0.158701064475419 
574	 0.15919047524476 
575	 0.159653100563887 
576	 0.160170494320047 
577	 0.160761452525581 
578	 0.161290395580326 
579	 0.16186013023538 
580	 0.162454818721712 
581	 0.163019412361869 
582	 0.163586726455313 
583	 0.164178073904728 
584	 0.164799987896383 
585	 0.165442376456126 
586	 0.166138380986773 
587	 0.166875821293107 
588	 0.16761948741321 
589	 0.168299418918597 
590	 0.169039497061743 
591	 0.169817936478845 
592	 0.170483165488915 
593	 0.171096096417718 
594	 0.171661252897683 
595	 0.172184814479922 
596	 0.172691419406834 
597	 0.173256845536563 
598	 0.173848719385907 
599	 0.174387172767207 
600	 0.174941259035534 
601	 0.17551849525718 
602	 0.176108408245698 
603	 0.176684913997373 
604	 0.177259727356988 
605	 0.177843714468967 
606	 0.178445947395588 
607	 0.179070655195344 
608	 0.179635389860266 
609	 0.180173402076097 
610	 0.180849809705729 
611	 0.181409336099215 
612	 0.181834110829382 
613	 0.18218960233113 
614	 0.182608760952512 
615	 0.182977153179317 
616	 0.183293136302765 
617	 0.183636725113748 
618	 0.184083192656466 
619	 0.184475900086004 
620	 0.184747785663975 
621	 0.185097983136773 
622	 0.18542557270853 
623	 0.185731148671969 
624	 0.186040876851364 
625	 0.186280105088906 
626	 0.186563489434828 
627	 0.186900758824112 
628	 0.187144916654861 
629	 0.187426376402679 
630	 0.187705766894068 
631	 0.187937276291247 
632	 0.188228844080754 
633	 0.188539346436932 
634	 0.188835185063129 
635	 0.189093347973745 
636	 0.189308735577324 
637	 0.189548935222721 
638	 0.18983605415384 
639	 0.190043912194593 
640	 0.190325904413438 
641	 0.190619322390796 
642	 0.190797441437091 
643	 0.191074665750698 
644	 0.19136008487425 
645	 0.191603554349322 
646	 0.191856103112752 
647	 0.192092328254416 
648	 0.192318526154286 
649	 0.19256145584041 
650	 0.192904829651675 
651	 0.193176782661327 
652	 0.193384819958278 
653	 0.193689106288495 
654	 0.193969045132001 
655	 0.194220918576958 
656	 0.194472420125043 
657	 0.194777981266596 
658	 0.195080615668081 
659	 0.195351397246739 
660	 0.195589515335389 
661	 0.195893628756153 
662	 0.196210573886729 
663	 0.19650081318559 
664	 0.196763772707812 
665	 0.197112744895532 
666	 0.197476831902859 
667	 0.197768815930342 
668	 0.198070864159163 
669	 0.198419555186755 
670	 0.198781267071549 
671	 0.199072796512387 
672	 0.199390776301682 
673	 0.199743712813671 
674	 0.200106649194452 
675	 0.200410235600664 
676	 0.200725782716898 
677	 0.201072249951213 
678	 0.201437974377798 
679	 0.201767344662065 
680	 0.202124251758858 
681	 0.20252973670012 
682	 0.202936975199704 
683	 0.203276874760381 
684	 0.203624592123187 
685	 0.204046126491204 
686	 0.204426833594708 
687	 0.204806756064941 
688	 0.205206959720184 
689	 0.205626382819571 
690	 0.205988831575069 
691	 0.206341770798297 
692	 0.206735378157861 
693	 0.207198329800966 
694	 0.207597772856384 
695	 0.207966301084798 
696	 0.208375436332607 
697	 0.20872479796949 
698	 0.209116045523469 
699	 0.209575532194628 
700	 0.210037529381911 
701	 0.210453894361941 
702	 0.210846477765985 
703	 0.211240484463803 
704	 0.211614438397052 
705	 0.212011645522875 
706	 0.212430375068029 
707	 0.21284322791417 
708	 0.213238935120264 
709	 0.213626261983981 
710	 0.21402334449075 
711	 0.214461055888752 
712	 0.21482996654864 
713	 0.215150025243675 
714	 0.215490671154902 
715	 0.215960322946865 
716	 0.216356044025102 
717	 0.216672996401743 
718	 0.217049797895118 
719	 0.217435691724291 
720	 0.217772234585098 
721	 0.218050008523365 
722	 0.218352730002384 
723	 0.218710293894249 
724	 0.219039183352844 
725	 0.219268101996985 
726	 0.219611587413694 
727	 0.219905653420786 
728	 0.220125338284198 
729	 0.220387780417203 
730	 0.220670401601754 
731	 0.220918062294488 
732	 0.22111204695749 
733	 0.221335145421975 
734	 0.221561981569071 
735	 0.221757092660834 
736	 0.221893045494262 
737	 0.222021924790498 
738	 0.22219625305391 
739	 0.222386153872066 
740	 0.222478711199005 
741	 0.22260359755174 
742	 0.222710559991815 
743	 0.222765268542137 
744	 0.222891953826264 
745	 0.222933856451879 
746	 0.222937901763487 
747	 0.223022611086745 
748	 0.223064384647336 
749	 0.223046031296651 
750	 0.223014244549577 
751	 0.223076188723138 
752	 0.223069548766769 
753	 0.222972065564208 
754	 0.222839493323159 
755	 0.222847592483355 
756	 0.222871051673537 
757	 0.222812487410144 
758	 0.222632551288687 
759	 0.222584958032621 
760	 0.222524831112202 
761	 0.22238781787005 
762	 0.222258557569527 
763	 0.222153029571986 
764	 0.222039962428799 
765	 0.221891583484102 
766	 0.221723459027883 
767	 0.221600468882448 
768	 0.221470659331237 
769	 0.221252746179064 
770	 0.221119971942804 
771	 0.22100717099079 
772	 0.220844762526194 
773	 0.220590373600056 
774	 0.220408010986912 
775	 0.220276564124632 
776	 0.220134533329198 
777	 0.219937628452666 
778	 0.219723707059708 
779	 0.219539307142028 
780	 0.21940813427749 
781	 0.219188498445854 
782	 0.218994655681339 
783	 0.218844200460416 
784	 0.218637335096512 
785	 0.218456869209109 
786	 0.218258114417898 
787	 0.218019344060335 
788	 0.217824317930682 
789	 0.217702391103571 
790	 0.217561982769029 
791	 0.217308011008845 
792	 0.217094011163048 
793	 0.216907232256988 
794	 0.216740426565916 
795	 0.216589573054558 
796	 0.216333301162469 
797	 0.2161260537702 
798	 0.216031935704719 
799	 0.215873331833026 
800	 0.215702665718554 
801	 0.215529753421338 
802	 0.215349273319609 
803	 0.21512335055514 
804	 0.214986462368241 
805	 0.214886570956295 
806	 0.214676146691766 
807	 0.214498389509573 
808	 0.21434432837106 
809	 0.214187864432746 
810	 0.214003745023002 
811	 0.213851164195295 
812	 0.213702813843411 
813	 0.213547687311025 
814	 0.213483476333199 
815	 0.213362338661049 
816	 0.213201563807673 
817	 0.213073221609605 
818	 0.212923084517689 
819	 0.212819708763931 
820	 0.212728366781473 
821	 0.212543232916059 
822	 0.212476119015618 
823	 0.212363646285726 
824	 0.212165321256028 
825	 0.212130074136199 
826	 0.212119154617528 
827	 0.212015077810081 
828	 0.211799942911757 
829	 0.211749908449045 
830	 0.211676536247199 
831	 0.211543618065012 
832	 0.211409984138346 
833	 0.211411735955928 
834	 0.21135402332287 
835	 0.211215915100873 
836	 0.211155308875485 
837	 0.211120662275949 
838	 0.211083030919403 
839	 0.211026123411811 
840	 0.210952973418093 
841	 0.210846318699585 
842	 0.210772249334858 
843	 0.210770159524305 
844	 0.21072498517176 
845	 0.210706939323715 
846	 0.210694901582186 
847	 0.210642793343538 
848	 0.210613607984316 
849	 0.210625644524212 
850	 0.210640577086027 
851	 0.210585394952466 
852	 0.210521908859309 
853	 0.210467452169954 
854	 0.210456277571144 
855	 0.2105511128667 
856	 0.210643358173191 
857	 0.210669907816006 
858	 0.210629094964695 
859	 0.210635921112061 
860	 0.210632040281704 
861	 0.210630647764534 
862	 0.210656478421116 
863	 0.210676207410756 
864	 0.210712850413882 
865	 0.2107624423518 
866	 0.210804278582693 
867	 0.210831813131234 
868	 0.210880527207296 
869	 0.210942216261644 
870	 0.210968569875084 
871	 0.211042073744776 
872	 0.211138687987953 
873	 0.211235763570889 
874	 0.211342968543096 
875	 0.2114147123197 
876	 0.211452023912591 
877	 0.211483455931838 
878	 0.211568140945 
879	 0.211709281608432 
880	 0.211846372382997 
881	 0.211926558443766 
882	 0.212031990179111 
883	 0.212131972065061 
884	 0.212237300739258 
885	 0.212372590533025 
886	 0.212494986286436 
887	 0.212626165803983 
888	 0.212745778398699 
889	 0.212813856608612 
890	 0.212997719718313 
891	 0.213136756006156 
892	 0.213214018300505 
893	 0.213430601662952 
894	 0.213653015994186 
895	 0.213819341662778 
896	 0.213928617043882 
897	 0.214059528064024 
898	 0.214303371400885 
899	 0.214560257489111 
900	 0.214723277341906 
901	 0.214804506591058 
902	 0.214970191162351 
903	 0.215185964045699 
904	 0.215374540221299 
905	 0.215600665529747 
906	 0.215850432069045 
907	 0.21609358263052 
908	 0.216312583798002 
909	 0.216599288246599 
910	 0.216813349913763 
911	 0.216957055626733 
912	 0.217136230891113 
913	 0.217393422212137 
914	 0.217695244707973 
915	 0.21799625068978 
916	 0.218256158361822 
917	 0.218493034403244 
918	 0.218724288097967 
919	 0.218960311287534 
920	 0.219205526442137 
921	 0.219539959411575 
922	 0.219861167589355 
923	 0.220115582071916 
924	 0.220370683658489 
925	 0.220704012469074 
926	 0.221051553425792 
927	 0.221346206827257 
928	 0.221579116249185 
929	 0.221888551899403 
930	 0.222273500054995 
931	 0.222672198259979 
932	 0.222987764643816 
933	 0.223287441101713 
934	 0.223599658429172 
935	 0.223946004137002 
936	 0.224371226169888 
937	 0.224704076242533 
938	 0.224978116428718 
939	 0.225286619990208 
940	 0.225647245603539 
941	 0.226032478422235 
942	 0.226483848716334 
943	 0.227010351149967 
944	 0.227405205414334 
945	 0.227715808329035 
946	 0.228068697513137 
947	 0.228529712379278 
948	 0.228745238058211 
949	 0.229112517681558 
950	 0.229607686811205 
951	 0.230021550535265 
952	 0.230482436269028 
953	 0.230926690508823 
954	 0.231397837699133 
955	 0.231952028885962 
956	 0.232366259147621 
957	 0.232797043424428 
958	 0.233225863384848 
959	 0.233553144171725 
960	 0.233917330872591 
961	 0.234443284197267 
962	 0.235039062552156 
963	 0.23550458910052 
964	 0.235897171901579 
965	 0.236375720533035 
966	 0.236867789547602 
967	 0.237212843936767 
968	 0.23773981245153 
969	 0.238285327751189 
970	 0.238735371377396 
971	 0.239090093929556 
972	 0.239618934109116 
973	 0.240215955243524 
974	 0.240773362232854 
975	 0.241238399322175 
976	 0.241741708034216 
977	 0.242249431690665 
978	 0.24275375815085 
979	 0.243267804769167 
980	 0.243786457358552 
981	 0.244260598500625 
982	 0.244807034324485 
983	 0.245530279862443 
984	 0.245922407621036 
985	 0.246426830499601 
986	 0.24704690306746 
987	 0.247548334777472 
988	 0.248059295580819 
989	 0.248502620543996 
990	 0.24895475562139 
991	 0.249524574596536 
992	 0.25009890087606 
993	 0.250454618552094 
994	 0.250879685780846 
995	 0.251663859674039 
996	 0.252137118336225 
997	 0.252664464008738 
998	 0.253150800178502 
999	 0.253474317417466 
1000	 0.254083395023048 
1001	 0.250773265685378 
1002	 0.251232138604088 
1003	 0.251663004039696 
1004	 0.252114903990326 
1005	 0.252597582362613 
1006	 0.253052706861654 
1007	 0.253501853000453 
1008	 0.253951651300192 
1009	 0.254384212925444 
1010	 0.254753828749478 
1011	 0.25513717960252 
1012	 0.255597993605231 
1013	 0.255999774147981 
1014	 0.256365810299701 
1015	 0.256755594870686 
1016	 0.257120146483651 
1017	 0.257526475242343 
1018	 0.257959651872073 
1019	 0.258400096025036 
1020	 0.258810576904348 
1021	 0.259171810756322 
1022	 0.259440818139487 
1023	 0.259746979166031 
1024	 0.260122177341579 
1025	 0.260494179409361 
1026	 0.260898232303765 
1027	 0.261296074313204 
1028	 0.261615168606554 
1029	 0.261919857287894 
1030	 0.262257885714952 
1031	 0.262611700928566 
1032	 0.262988019678973 
1033	 0.263359335613691 
1034	 0.263708075535063 
1035	 0.264028375020986 
1036	 0.264317522444997 
1037	 0.264616514134056 
1038	 0.264927884536938 
1039	 0.265240899920714 
1040	 0.26553950411859 
1041	 0.26588386513403 
1042	 0.266281264616899 
1043	 0.266672000228693 
1044	 0.267039944645803 
1045	 0.267417728848849 
1046	 0.267750249982371 
1047	 0.268088129269112 
1048	 0.2684067272969 
1049	 0.268706794571645 
1050	 0.269072285361449 
1051	 0.269366274588952 
1052	 0.269646210525058 
1053	 0.270016383112178 
1054	 0.270357797116791 
1055	 0.270700902971984 
1056	 0.27107550036348 
1057	 0.271431228179574 
1058	 0.271766265819893 
1059	 0.272101083118605 
1060	 0.272443147397066 
1061	 0.272757133083291 
1062	 0.27304452496604 
1063	 0.273396614045111 
1064	 0.273777316026922 
1065	 0.27411738594898 
1066	 0.274457066607616 
1067	 0.274769102197493 
1068	 0.27504175912992 
1069	 0.275298070341842 
1070	 0.275568524990501 
1071	 0.275867914596346 
1072	 0.276142959216039 
1073	 0.276387068136341 
1074	 0.276650105937817 
1075	 0.276936823526462 
1076	 0.277161183899786 
1077	 0.27740701308814 
1078	 0.277683017110745 
1079	 0.277931474006087 
1080	 0.27817059735296 
1081	 0.278385725152592 
1082	 0.278626062930762 
1083	 0.278874801679847 
1084	 0.279131613164645 
1085	 0.27938900985817 
1086	 0.279676079228916 
1087	 0.279922448246308 
1088	 0.280154333644517 
1089	 0.280384775995504 
1090	 0.280593742340092 
1091	 0.280774480861438 
1092	 0.280952358733381 
1093	 0.281161667550521 
1094	 0.281364036809761 
1095	 0.281550445964615 
1096	 0.281761182251213 
1097	 0.282000430416702 
1098	 0.282229944070727 
1099	 0.282499984932585 
1100	 0.282702268911887 
1101	 0.282853011502354 
1102	 0.283031142942648 
1103	 0.28318846626591 
1104	 0.283344671886095 
1105	 0.283546253977193 
1106	 0.283790323071992 
1107	 0.284011522423846 
1108	 0.284245075535067 
1109	 0.284460285232583 
1110	 0.28464340302334 
1111	 0.284849380329575 
1112	 0.285048705132139 
1113	 0.28525674462153 
1114	 0.285492230205086 
1115	 0.285697540651745 
1116	 0.285876616938038 
1117	 0.286070044739003 
1118	 0.28626099465906 
1119	 0.286453211681804 
1120	 0.286636989104161 
1121	 0.286855727300376 
1122	 0.287068637339922 
1123	 0.2872784947141 
1124	 0.287505902204855 
1125	 0.287769905180063 
1126	 0.287979589953471 
1127	 0.288169766649153 
1128	 0.288362853870435 
1129	 0.288521759511448 
1130	 0.288711456314921 
1131	 0.288945268262029 
1132	 0.28912987544544 
1133	 0.289277613782021 
1134	 0.28945010635036 
1135	 0.289608917037492 
1136	 0.289768780677144 
1137	 0.289953081129679 
1138	 0.290168657891292 
1139	 0.290361559208761 
1140	 0.29055464304898 
1141	 0.290727471976249 
1142	 0.29088414879588 
1143	 0.291052516183035 
1144	 0.291217538897234 
1145	 0.291369045150454 
1146	 0.291534245383768 
1147	 0.2916779845685 
1148	 0.291784639744915 
1149	 0.291908340159186 
1150	 0.292027444251239 
1151	 0.292158143772354 
1152	 0.292296863730163 
1153	 0.29244070762122 
1154	 0.292586359883812 
1155	 0.292747588909703 
1156	 0.292880316271249 
1157	 0.292998213898261 
1158	 0.293132733098456 
1159	 0.29325345447804 
1160	 0.293392812901203 
1161	 0.293556994013583 
1162	 0.293706685629887 
1163	 0.293859009275617 
1164	 0.294004432525519 
1165	 0.294146011175154 
1166	 0.294281248657912 
1167	 0.294415408700329 
1168	 0.294560160575179 
1169	 0.294697520537675 
1170	 0.294829517734514 
1171	 0.294980235556312 
1172	 0.295144473902746 
1173	 0.295288421826545 
1174	 0.295438568823166 
1175	 0.295582052933602 
1176	 0.295707727154854 
1177	 0.295835618509406 
1178	 0.295980575047533 
1179	 0.29610295230857 
1180	 0.296190450554646 
1181	 0.296301674231197 
1182	 0.296412530324769 
1183	 0.296531039072002 
1184	 0.296656538252535 
1185	 0.296796505018939 
1186	 0.296936317384921 
1187	 0.297079613713381 
1188	 0.297222161930309 
1189	 0.297380818248932 
1190	 0.297517650921173 
1191	 0.297644419157234 
1192	 0.297768938695896 
1193	 0.297880888754119 
1194	 0.297997036238093 
1195	 0.29810223135371 
1196	 0.298222944774316 
1197	 0.298354904024097 
1198	 0.298482990431715 
1199	 0.298614155580294 
1200	 0.298767269631626 
1201	 0.298875901167696 
1202	 0.298954686515214 
1203	 0.29906242923823 
1204	 0.299156394042136 
1205	 0.299266960309451 
1206	 0.299401448950146 
1207	 0.299529193595631 
1208	 0.299666039900184 
1209	 0.29978129795023 
1210	 0.299892181836904 
1211	 0.300000869492592 
1212	 0.300078621061904 
1213	 0.300178253109808 
1214	 0.300304549531282 
1215	 0.30041367109333 
1216	 0.300518776811401 
1217	 0.300624949799345 
1218	 0.30072369933612 
1219	 0.300807780628237 
1220	 0.300903097027546 
1221	 0.301000911371113 
1222	 0.301100205318938 
1223	 0.301202727976865 
1224	 0.30130264179733 
1225	 0.301404355782594 
1226	 0.301504268805366 
1227	 0.301600151442464 
1228	 0.301699929919457 
1229	 0.30180938381392 
1230	 0.30190568875744 
1231	 0.301996993716505 
1232	 0.302086220170849 
1233	 0.302170391700944 
1234	 0.302240654378398 
1235	 0.302325540547096 
1236	 0.302412998551952 
1237	 0.30250590638866 
1238	 0.302606821862945 
1239	 0.302702462121158 
1240	 0.302807713781626 
1241	 0.302896580166143 
1242	 0.302967775556076 
1243	 0.303055268474217 
1244	 0.303141607711453 
1245	 0.303230171446003 
1246	 0.3033436276747 
1247	 0.303432769884596 
1248	 0.303500852227887 
1249	 0.303564878935161 
1250	 0.30366987385156 
1251	 0.303786445557382 
1252	 0.303889678700504 
1253	 0.304034427527436 
1254	 0.304119059608841 
1255	 0.304151100060844 
1256	 0.304213781194536 
1257	 0.304265911056372 
1258	 0.304332014265065 
1259	 0.304419401713002 
1260	 0.30448504397669 
1261	 0.304539380152167 
1262	 0.304601531273678 
1263	 0.304657138234585 
1264	 0.304716320700735 
1265	 0.30478495034121 
1266	 0.304850830218712 
1267	 0.304926332345424 
1268	 0.304971451887818 
1269	 0.305032945278294 
1270	 0.305094907423352 
1271	 0.30516677030213 
1272	 0.305236899411053 
1273	 0.305324865808921 
1274	 0.305431484235651 
1275	 0.305528624994655 
1276	 0.305629790618965 
1277	 0.305735768989966 
1278	 0.305832478819295 
1279	 0.305948152285057 
1280	 0.306075814674113 
1281	 0.306211498485102 
1282	 0.306385889002386 
1283	 0.306523870406545 
1284	 0.306650891721608 
1285	 0.306768520607856 
1286	 0.306885780698637 
1287	 0.306973550695396 
1288	 0.307092890386376 
1289	 0.307234363003891 
1290	 0.307363536492599 
1291	 0.307495752320655 
1292	 0.307621581624965 
1293	 0.307756865110853 
1294	 0.307860827708833 
1295	 0.307952977200472 
1296	 0.308028063805655 
1297	 0.308076037797769 
1298	 0.308126333729337 
1299	 0.308156653514729 
1300	 0.308200730778256 
1301	 0.308246161906719 
1302	 0.308287437856701 
1303	 0.308337858968308 
1304	 0.308389859329027 
1305	 0.3083906026457 
1306	 0.308372909439057 
1307	 0.308364331388398 
1308	 0.308343186672448 
1309	 0.308329831567984 
1310	 0.308337555604034 
1311	 0.308325805058867 
1312	 0.308299148500527 
1313	 0.308272008633982 
1314	 0.308245558546268 
1315	 0.308214200716282 
1316	 0.308167668191243 
1317	 0.30813481936037 
1318	 0.308114120404675 
1319	 0.308080496754598 
1320	 0.30804648656335 
1321	 0.308006003695527 
1322	 0.307946409990475 
1323	 0.307901522707181 
1324	 0.307874205589776 
1325	 0.307844700601943 
1326	 0.307840750052509 
1327	 0.30781962779909 
1328	 0.307778000099275 
1329	 0.30773803539982 
1330	 0.307671852093669 
1331	 0.30757006920607 
1332	 0.307504929983423 
1333	 0.307442752983104 
1334	 0.307369432261941 
1335	 0.307303762107257 
1336	 0.30724372269724 
1337	 0.307160268786421 
1338	 0.307112434346412 
1339	 0.307100647525285 
1340	 0.307071182961553 
1341	 0.30705485067946 
1342	 0.3070235488627 
1343	 0.306983199342319 
1344	 0.306941228628103 
1345	 0.306891592320858 
1346	 0.306835179835 
1347	 0.306778899496153 
1348	 0.306730040893864 
1349	 0.306673325001953 
1350	 0.306624001753062 
1351	 0.306583869357495 
1352	 0.306554133806839 
1353	 0.306509699509123 
1354	 0.306473753806859 
1355	 0.306421116098051 
1356	 0.306342361471151 
1357	 0.306289142463802 
1358	 0.306246912811635 
1359	 0.306194874059343 
1360	 0.306145014563944 
1361	 0.306099447595073 
1362	 0.30605265615875 
1363	 0.306001993572955 
1364	 0.305960168238992 
1365	 0.305909721551365 
1366	 0.305849339746788 
1367	 0.305782472019843 
1368	 0.305737274663353 
1369	 0.30568238570035 
1370	 0.305617971002035 
1371	 0.305556363580003 
1372	 0.305458250516104 
1373	 0.305354734076965 
1374	 0.305234151422377 
1375	 0.305096744662801 
1376	 0.304942853151282 
1377	 0.3047865177616 
1378	 0.304586583154655 
1379	 0.304355063180344 
1380	 0.304114327640559 
1381	 0.303843980744907 
1382	 0.303559599965319 
1383	 0.303280117961095 
1384	 0.302951552149389 
1385	 0.302606236784098 
1386	 0.302212641448724 
1387	 0.301783683207896 
1388	 0.301308242137007 
1389	 0.300799045804487 
1390	 0.300229196985455 
1391	 0.299612313366688 
1392	 0.298955578874142 
1393	 0.298239291473336 
1394	 0.297488147259244 
1395	 0.296684605895008 
1396	 0.295880857640563 
1397	 0.295085409552303 
1398	 0.294278643598684 
1399	 0.293466437817884 
1400	 0.292655049353211 
1401	 0.291845774335153 
1402	 0.291006120043618 
1403	 0.290221559346364 
1404	 0.289452987809575 
1405	 0.288723613806714 
1406	 0.28803203707093 
1407	 0.287355888521797 
1408	 0.286673211462085 
1409	 0.286076094319493 
1410	 0.285483232950451 
1411	 0.285012152422812 
1412	 0.284616424772565 
1413	 0.284326184254008 
1414	 0.284158065536494 
1415	 0.284049703441942 
1416	 0.284050374953019 
1417	 0.284131694852415 
1418	 0.284224299658835 
1419	 0.284343135509764 
1420	 0.284479706663474 
1421	 0.284603933108881 
1422	 0.284718542458438 
1423	 0.284821200382032 
1424	 0.284859275178664 
1425	 0.284841114321238 
1426	 0.284819087784708 
1427	 0.284735293206556 
1428	 0.284691329924589 
1429	 0.284657040821344 
1430	 0.284614377785259 
1431	 0.284584312290366 
1432	 0.284533858670619 
1433	 0.284457361706923 
1434	 0.284396154538531 
1435	 0.284313493202879 
1436	 0.284274421298747 
1437	 0.284261948282389 
1438	 0.284256618254722 
1439	 0.284291974698602 
1440	 0.284307567804819 
1441	 0.284282090206691 
1442	 0.284268495031744 
1443	 0.284232237439605 
1444	 0.284199352282735 
1445	 0.284208524144262 
1446	 0.284216587308567 
1447	 0.284239908324357 
1448	 0.28426643460293 
1449	 0.284263607450703 
1450	 0.28424625790718 
1451	 0.284241785371668 
1452	 0.284218401698234 
1453	 0.284228023170778 
1454	 0.284276672537882 
1455	 0.284283354846716 
1456	 0.284285294729808 
1457	 0.284272771379376 
1458	 0.28422175176827 
1459	 0.28420518041354 
1460	 0.2841929862552 
1461	 0.284199628812984 
1462	 0.284221762737465 
1463	 0.284253500282314 
1464	 0.284306777699981 
1465	 0.284351701752404 
1466	 0.284395301986166 
1467	 0.28445325986166 
1468	 0.284497950571184 
1469	 0.284580430523265 
1470	 0.284689240391266 
1471	 0.284818961414639 
1472	 0.284957007350305 
1473	 0.285105609400315 
1474	 0.285246666251321 
1475	 0.285382559582896 
1476	 0.285528828306765 
1477	 0.285683067315024 
1478	 0.285836715063797 
1479	 0.286004435372812 
1480	 0.286186134620328 
1481	 0.28637188928025 
1482	 0.28654749392187 
1483	 0.286730096194871 
1484	 0.286898151913626 
1485	 0.287038542285905 
1486	 0.287210019162539 
1487	 0.28739219081005 
1488	 0.287576867222581 
1489	 0.28779336562161 
1490	 0.287974723347472 
1491	 0.288138782998402 
1492	 0.288301165342715 
1493	 0.288436715369155 
1494	 0.288592445703464 
1495	 0.288760969892107 
1496	 0.288922773431476 
1497	 0.289102072774737 
1498	 0.289251327877267 
1499	 0.289376427661336 
1500	 0.28951111417747 
1501	 0.28963110633343 
1502	 0.289755723946715 
1503	 0.289886757123815 
1504	 0.290012418931874 
1505	 0.290157376002642 
1506	 0.290300356008909 
1507	 0.290429283595239 
1508	 0.290563161369275 
1509	 0.290674400214811 
1510	 0.290777810094828 
1511	 0.290894295435685 
1512	 0.291007272037945 
1513	 0.291116323100133 
1514	 0.291234241874851 
1515	 0.291364600383718 
1516	 0.29150008026339 
1517	 0.291621577665019 
1518	 0.291742081989911 
1519	 0.291846895475049 
1520	 0.291935801573055 
1521	 0.292037219709466 
1522	 0.292127843111913 
1523	 0.292237375032411 
1524	 0.292356900499647 
1525	 0.292476386587102 
1526	 0.292617621761734 
1527	 0.292736527415331 
1528	 0.292852413585702 
1529	 0.292951463583393 
1530	 0.293024893194591 
1531	 0.293111370026553 
1532	 0.293196520599054 
1533	 0.293278818348179 
1534	 0.293365331805036 
1535	 0.293444688794451 
1536	 0.293510268862872 
1537	 0.293584393522405 
1538	 0.293665888455016 
1539	 0.29374016590735 
1540	 0.29380842385815 
1541	 0.293888406883074 
1542	 0.293972878046368 
1543	 0.294049674562594 
1544	 0.294138614615923 
1545	 0.294213075323471 
1546	 0.294273999562716 
1547	 0.294330873582531 
1548	 0.294387418813246 
1549	 0.294429123203454 
1550	 0.294469023586754 
1551	 0.294518029899267 
1552	 0.29458684337184 
1553	 0.29465733932993 
1554	 0.294731538852591 
1555	 0.294811796926377 
1556	 0.294847622715191 
1557	 0.294887748861772 
1558	 0.294954380173395 
1559	 0.295004949876085 
1560	 0.295060814276352 
1561	 0.2951411229418 
1562	 0.295189428761926 
1563	 0.295200498504101 
1564	 0.295260415781248 
1565	 0.295341487245415 
1566	 0.295404068321224 
1567	 0.295483575795925 
1568	 0.295548688268373 
1569	 0.295589422975661 
1570	 0.29564598367658 
1571	 0.295722853760543 
1572	 0.295773147685142 
1573	 0.295804455381796 
1574	 0.295847747242498 
1575	 0.295891138693518 
1576	 0.295921319103027 
1577	 0.295945892296368 
1578	 0.295979188369227 
1579	 0.295996003827244 
1580	 0.296034138150199 
1581	 0.296095741091156 
1582	 0.296149638982296 
1583	 0.296209591496582 
1584	 0.296263171323824 
1585	 0.296321862988296 
1586	 0.296365337308946 
1587	 0.296400692095818 
1588	 0.296427128563481 
1589	 0.296436243643498 
1590	 0.296452589708701 
1591	 0.296457032824383 
1592	 0.296477222714641 
1593	 0.296507202668057 
1594	 0.296537441366445 
1595	 0.296567721401988 
1596	 0.296615151157335 
1597	 0.296694198291023 
1598	 0.296738174774272 
1599	 0.296788885672355 
1600	 0.296815165542118 
1601	 0.296783775911548 
1602	 0.296782389342107 
1603	 0.296783229795538 
1604	 0.296791318462395 
1605	 0.296817013996353 
1606	 0.296842900744251 
1607	 0.296875198035323 
1608	 0.296905560280572 
1609	 0.296938829488026 
1610	 0.296953993826362 
1611	 0.296953039281844 
1612	 0.296956931143669 
1613	 0.296948883464984 
1614	 0.296931569020874 
1615	 0.296932989548578 
1616	 0.296952343990618 
1617	 0.29698313022044 
1618	 0.297022534110785 
1619	 0.29706275616301 
1620	 0.297090589636527 
1621	 0.297114629968742 
1622	 0.297141958435257 
1623	 0.297144026207529 
1624	 0.297128999845679 
1625	 0.297113781482387 
1626	 0.297076952662845 
1627	 0.297066179591617 
1628	 0.297056819338201 
1629	 0.297067812061327 
1630	 0.29709576278636 
1631	 0.297127013094539 
1632	 0.29717871645258 
1633	 0.297208363424222 
1634	 0.297252270119424 
1635	 0.297241158860321 
1636	 0.297193001270112 
1637	 0.297158584634559 
1638	 0.297077319838285 
1639	 0.29706186194693 
1640	 0.29708054000026 
1641	 0.297095560135073 
1642	 0.297144720284067 
1643	 0.297163608857123 
1644	 0.297170562396455 
1645	 0.297186120146646 
1646	 0.297201934806899 
1647	 0.297205279499125 
1648	 0.297215725813316 
1649	 0.29720168212339 
1650	 0.297155025247305 
1651	 0.297134522530122 
1652	 0.297117331421909 
1653	 0.297094704373294 
1654	 0.297079711119481 
1655	 0.297059991084733 
1656	 0.297033807314292 
1657	 0.297003461980438 
1658	 0.296976416277703 
1659	 0.296941511718594 
1660	 0.296897848211239 
1661	 0.296847790844736 
1662	 0.296777884438712 
1663	 0.296744109764974 
1664	 0.296714609142171 
1665	 0.296698155604727 
1666	 0.29672178919979 
1667	 0.296719330481102 
1668	 0.29670509781129 
1669	 0.2966967190892 
1670	 0.296702252714132 
1671	 0.296674605692686 
1672	 0.296619435800298 
1673	 0.296589446175803 
1674	 0.296540099849917 
1675	 0.296519745744688 
1676	 0.296539789728872 
1677	 0.296534696078172 
1678	 0.296535143987834 
1679	 0.296512153295066 
1680	 0.296459168591484 
1681	 0.296437759027937 
1682	 0.296404043827799 
1683	 0.296403507272382 
1684	 0.296452766347429 
1685	 0.296465066930381 
1686	 0.296484326024958 
1687	 0.296477388071753 
1688	 0.296446050855998 
1689	 0.29641083325841 
1690	 0.296360966832603 
1691	 0.296309165588774 
1692	 0.29622732900621 
1693	 0.296192407399278 
1694	 0.296173286638099 
1695	 0.296161413672371 
1696	 0.29620319124736 
1697	 0.296188075262181 
1698	 0.296135571064343 
1699	 0.296112604680541 
1700	 0.29608800219156 
1701	 0.296049196221092 
1702	 0.296023974087128 
1703	 0.29598127099873 
1704	 0.295907040246771 
1705	 0.295847506778489 
1706	 0.295797992563006 
1707	 0.29574166646069 
1708	 0.295671561529809 
1709	 0.295615401642303 
1710	 0.295565653444702 
1711	 0.295520836336648 
1712	 0.295496746467357 
1713	 0.295441754023849 
1714	 0.295369050747747 
1715	 0.295310514713318 
1716	 0.295227183703809 
1717	 0.295177613992795 
1718	 0.295165104565288 
1719	 0.295131510844001 
1720	 0.29509960350988 
1721	 0.295070841377116 
1722	 0.295042421620354 
1723	 0.295000713376007 
1724	 0.294968108127613 
1725	 0.29490446979549 
1726	 0.294810884957282 
1727	 0.294731066279377 
1728	 0.294631089617451 
1729	 0.2945530031247 
1730	 0.294497164437897 
1731	 0.294421009136365 
1732	 0.294348062745259 
1733	 0.2942648098678 
1734	 0.294169934478593 
1735	 0.294066982861619 
1736	 0.293955450645763 
1737	 0.293844236567076 
1738	 0.293713142855648 
1739	 0.293607857229929 
1740	 0.293516286131584 
1741	 0.293424075126528 
1742	 0.293337217651471 
1743	 0.293270052219584 
1744	 0.293223734082556 
1745	 0.293139621249041 
1746	 0.293054555925891 
1747	 0.29293042393316 
1748	 0.292824879142351 
1749	 0.292770546306961 
1750	 0.292743758923712 
1751	 0.29270752634476 
1752	 0.292620813591102 
1753	 0.292505828264123 
1754	 0.292375867151794 
1755	 0.29223761839178 
1756	 0.292148559515657 
1757	 0.292047773173384 
1758	 0.291938008524546 
1759	 0.291847142215617 
1760	 0.291739197704662 
1761	 0.291636132482926 
1762	 0.291530086895454 
1763	 0.291447249975748 
1764	 0.291340933665861 
1765	 0.291228137017193 
1766	 0.291147863893391 
1767	 0.291021072749366 
1768	 0.290911392378681 
1769	 0.290832969093924 
1770	 0.290747113183554 
1771	 0.290684489247634 
1772	 0.290630083678328 
1773	 0.29056487497775 
1774	 0.290503457386961 
1775	 0.290458208660204 
1776	 0.290410844033534 
1777	 0.290349506203416 
1778	 0.290249094994484 
1779	 0.290137654624333 
1780	 0.29003994256957 
1781	 0.289935042880933 
1782	 0.289885478217117 
1783	 0.289836434962105 
1784	 0.28979694170406 
1785	 0.289793257891858 
1786	 0.289773623360082 
1787	 0.289780475048342 
1788	 0.289738562622218 
1789	 0.289648827317198 
1790	 0.289597266441103 
1791	 0.289530733496192 
1792	 0.289475785039763 
1793	 0.289441110799111 
1794	 0.289418038591928 
1795	 0.289396814464442 
1796	 0.289376605388358 
1797	 0.289397461457085 
1798	 0.289384289865866 
1799	 0.289343110719183 
1800	 0.289299159284613 
1801	 0.288086950827794 
1802	 0.288244047694537 
1803	 0.28844727015666 
1804	 0.288676065482054 
1805	 0.288936980242277 
1806	 0.289183941028598 
1807	 0.289404264723523 
1808	 0.289590294198507 
1809	 0.289750766402071 
1810	 0.289888412917259 
1811	 0.289987047656119 
1812	 0.290091703535555 
1813	 0.290189274819427 
1814	 0.290249079593924 
1815	 0.290270886865997 
1816	 0.290281059243875 
1817	 0.290287978504669 
1818	 0.290273033093991 
1819	 0.29026722705316 
1820	 0.290261350439143 
1821	 0.290245341562189 
1822	 0.290258422897158 
1823	 0.29023819387407 
1824	 0.290242514253818 
1825	 0.290260217850572 
1826	 0.290247760345604 
1827	 0.290240377214449 
1828	 0.290218623373941 
1829	 0.290188825332042 
1830	 0.290145387904582 
1831	 0.290085696377269 
1832	 0.290029678794687 
1833	 0.289962988739313 
1834	 0.289890199183057 
1835	 0.289840325041452 
1836	 0.289791834238704 
1837	 0.289726214472403 
1838	 0.289672199657312 
1839	 0.289621387396196 
1840	 0.289574759653593 
1841	 0.289510703429705 
1842	 0.289452239717092 
1843	 0.289400772654129 
1844	 0.289345667689174 
1845	 0.289263448829995 
1846	 0.289171120412576 
1847	 0.289084752519242 
1848	 0.289004656227672 
1849	 0.288933606210372 
1850	 0.28886250594332 
1851	 0.288804839850108 
1852	 0.288750569840241 
1853	 0.288701595875708 
1854	 0.288649322178672 
1855	 0.288584115658001 
1856	 0.288487237486504 
1857	 0.288343939519724 
1858	 0.288175965407178 
1859	 0.288011354496911 
1860	 0.287818087952291 
1861	 0.287610689599622 
1862	 0.287376610258436 
1863	 0.287133810572583 
1864	 0.286840731187744 
1865	 0.286532911358048 
1866	 0.286206136946889 
1867	 0.285816934944967 
1868	 0.285410183887581 
1869	 0.284975666541005 
1870	 0.284513685377953 
1871	 0.28403171932075 
1872	 0.283540292739438 
1873	 0.283015165521155 
1874	 0.282436595434494 
1875	 0.281823542463053 
1876	 0.281148646676792 
1877	 0.280391239214365 
1878	 0.279572133100621 
1879	 0.278687787176545 
1880	 0.277729187045927 
1881	 0.276699045415831 
1882	 0.275590949496578 
1883	 0.274428019019305 
1884	 0.27314245394399 
1885	 0.271768315719232 
1886	 0.270321536198885 
1887	 0.268759458103834 
1888	 0.267135410213657 
1889	 0.265438493913308 
1890	 0.263672603689538 
1891	 0.261882940708597 
1892	 0.260009223670107 
1893	 0.258150463572747 
1894	 0.256267067081515 
1895	 0.254384728046508 
1896	 0.252457743581143 
1897	 0.250567233105865 
1898	 0.248650603258159 
1899	 0.246738465805973 
1900	 0.244900457152137 
1901	 0.243093975077963 
1902	 0.241367181778781 
1903	 0.239716195411455 
1904	 0.23812436310283 
1905	 0.236581524663227 
1906	 0.235133412890711 
1907	 0.233769487163368 
1908	 0.232479537749666 
1909	 0.231249966860758 
1910	 0.230077222573157 
1911	 0.22897396592294 
1912	 0.227916460845459 
1913	 0.226934798756823 
1914	 0.226040506185617 
1915	 0.22519188192428 
1916	 0.224403230511093 
1917	 0.223659937927083 
1918	 0.222984029399884 
1919	 0.222350051189681 
1920	 0.221769121651627 
1921	 0.221247952919116 
1922	 0.220781400780817 
1923	 0.220374801880576 
1924	 0.220009964520303 
1925	 0.219707853273344 
1926	 0.21943600514903 
1927	 0.219210741646013 
1928	 0.219009999714343 
1929	 0.218844753568718 
1930	 0.218708947530292 
1931	 0.21861812720004 
1932	 0.218556729895452 
1933	 0.218522529480688 
1934	 0.218556061418636 
1935	 0.218591681662511 
1936	 0.218645864217219 
1937	 0.218726205426555 
1938	 0.218825672561586 
1939	 0.218952459316751 
1940	 0.219100042538007 
1941	 0.219290092793162 
1942	 0.219507226078577 
1943	 0.21973468099235 
1944	 0.219992908793495 
1945	 0.220268477260985 
1946	 0.220537680327768 
1947	 0.220809325551666 
1948	 0.221101948019211 
1949	 0.221395582051273 
1950	 0.221704696970331 
1951	 0.222032206897305 
1952	 0.222378729685739 
1953	 0.222720421790227 
1954	 0.223075950848706 
1955	 0.22345033369939 
1956	 0.223849944169139 
1957	 0.224240072527706 
1958	 0.224642802026126 
1959	 0.225038905865944 
1960	 0.225418379487196 
1961	 0.225818607162594 
1962	 0.226229203893659 
1963	 0.226651274464392 
1964	 0.227083537594595 
1965	 0.227534565149165 
1966	 0.227991526758981 
1967	 0.228448835649063 
1968	 0.228896924839929 
1969	 0.229344040213733 
1970	 0.229789736048219 
1971	 0.230228806875279 
1972	 0.230669623966479 
1973	 0.231105762381762 
1974	 0.231554087181882 
1975	 0.232005248348466 
1976	 0.232458052282352 
1977	 0.232922229649992 
1978	 0.233391964760485 
1979	 0.233872702834021 
1980	 0.234340833275342 
1981	 0.234806610716509 
1982	 0.235269041978434 
1983	 0.235738238170473 
1984	 0.236198569096949 
1985	 0.2366746693538 
1986	 0.237178352611553 
1987	 0.237654359147936 
1988	 0.238119415097604 
1989	 0.238586652555778 
1990	 0.239036196256421 
1991	 0.239504989490477 
1992	 0.239982655965451 
1993	 0.240493476644911 
1994	 0.240955691079591 
1995	 0.241399313716584 
1996	 0.241848882107597 
1997	 0.242271939013628 
1998	 0.24271576291655 
1999	 0.243164894407039 
2000	 0.243630111401244 
2001	 0.244129034970469 
2002	 0.244586013413079 
2003	 0.24504356527321 
2004	 0.245520200022061 
2005	 0.245971306881631 
2006	 0.246397919829987 
2007	 0.246829654727412 
2008	 0.247260313938623 
2009	 0.247682901293301 
2010	 0.248087441718607 
2011	 0.248502469020144 
2012	 0.248929506073906 
2013	 0.249338941074019 
2014	 0.249739981585556 
2015	 0.250141078999332 
2016	 0.250529813045831 
2017	 0.250913369288799 
2018	 0.251329648854851 
2019	 0.25178409129898 
2020	 0.252198511368753 
2021	 0.252620558726348 
2022	 0.253026103142505 
2023	 0.253396298196658 
2024	 0.253778987359068 
2025	 0.254165343893674 
2026	 0.254551771614151 
2027	 0.254939892091775 
2028	 0.255315897140748 
2029	 0.255699078173495 
2030	 0.256100950046677 
2031	 0.256455911299321 
2032	 0.256792757436425 
2033	 0.257122678875061 
2034	 0.25740868903987 
2035	 0.257730196186999 
2036	 0.258076510848903 
2037	 0.258395154277443 
2038	 0.258723896141258 
2039	 0.259022211483659 
2040	 0.259286700883977 
2041	 0.259547730218313 
2042	 0.259807143797902 
2043	 0.260074254908615 
2044	 0.260339671016721 
2045	 0.260603991611839 
2046	 0.260881620125918 
2047	 0.261169334892082 
2048	 0.261447495478536 
2049	 0.261740270861385 
2050	 0.262017590293133 
2051	 0.262284996998603 
2052	 0.262540031552563 
2053	 0.262791200001756 
2054	 0.26303001911884 
2055	 0.263241948571186 
2056	 0.26346438461596 
2057	 0.26368224549594 
2058	 0.263888830140176 
2059	 0.264109780846904 
2060	 0.264336703847262 
2061	 0.264562726146263 
2062	 0.264795598460115 
2063	 0.265028018904833 
2064	 0.265267097513159 
2065	 0.265493520991075 
2066	 0.265725548922266 
2067	 0.265938420096675 
2068	 0.266130685288408 
2069	 0.266317381919166 
2070	 0.266519409094417 
2071	 0.266720468522714 
2072	 0.266921995152694 
2073	 0.267143069148524 
2074	 0.26733467435879 
2075	 0.267500554154289 
2076	 0.267683893428365 
2077	 0.267857285170091 
2078	 0.268045765576984 
2079	 0.268253806123629 
2080	 0.268452689944878 
2081	 0.26865673257697 
2082	 0.268852600321447 
2083	 0.269044256105207 
2084	 0.269227431395041 
2085	 0.269419136432561 
2086	 0.269613345187204 
2087	 0.269797340820141 
2088	 0.269983154147546 
2089	 0.27015957447176 
2090	 0.270322557025569 
2091	 0.270487955272869 
2092	 0.270663864589396 
2093	 0.270816842601618 
2094	 0.270932070316093 
2095	 0.271084094323976 
2096	 0.271244916916426 
2097	 0.271402767641301 
2098	 0.271577364427745 
2099	 0.271767945088383 
2100	 0.271927816731581 
2101	 0.272062803338096 
2102	 0.272212538387594 
2103	 0.272343794076615 
2104	 0.272517621952045 
2105	 0.272721689924549 
2106	 0.272905929605809 
2107	 0.273112973908649 
2108	 0.273300795299641 
2109	 0.27345055344808 
2110	 0.273633807673378 
2111	 0.273833023965729 
2112	 0.274036009114183 
2113	 0.274261731092245 
2114	 0.274478751440832 
2115	 0.274686125211564 
2116	 0.274891533404014 
2117	 0.275088728881874 
2118	 0.275274033911842 
2119	 0.275463110608634 
2120	 0.27565626860248 
2121	 0.275835426882447 
2122	 0.27600931147391 
2123	 0.276173832482695 
2124	 0.276323059504296 
2125	 0.276473424915646 
2126	 0.276636171377355 
2127	 0.276765302751654 
2128	 0.276869466928957 
2129	 0.276976087731657 
2130	 0.277055970354075 
2131	 0.277141827090938 
2132	 0.277224829317477 
2133	 0.277314975511772 
2134	 0.277395101822908 
2135	 0.277472791018305 
2136	 0.277533778752482 
2137	 0.277600700675067 
2138	 0.277629387938225 
2139	 0.277642563474283 
2140	 0.277619488082757 
2141	 0.277539850104092 
2142	 0.277485924774301 
2143	 0.277424706001741 
2144	 0.277345929559565 
2145	 0.277290760901371 
2146	 0.277192909984842 
2147	 0.277040857285766 
2148	 0.276895473951063 
2149	 0.276742232482229 
2150	 0.276567958644478 
2151	 0.276402310392895 
2152	 0.276233266448911 
2153	 0.276073617635077 
2154	 0.275935429415438 
2155	 0.275750457932668 
2156	 0.275574087273432 
2157	 0.275345324656087 
2158	 0.275048050241207 
2159	 0.274769904786833 
2160	 0.274473687314783 
2161	 0.274174178587381 
2162	 0.273853210902314 
2163	 0.273557288139254 
2164	 0.273255996000217 
2165	 0.272980456928442 
2166	 0.272702816369107 
2167	 0.2724601177495 
2168	 0.272172922030895 
2169	 0.271875081684854 
2170	 0.271556000380864 
2171	 0.271200498747148 
2172	 0.27086908094628 
2173	 0.27054019847997 
2174	 0.270195782708418 
2175	 0.269881755699842 
2176	 0.269508945459907 
2177	 0.269090823634258 
2178	 0.268664956354009 
2179	 0.268202659011869 
2180	 0.267736542095242 
2181	 0.267255433053559 
2182	 0.266771933573874 
2183	 0.26626639603341 
2184	 0.265776473017519 
2185	 0.26527361093536 
2186	 0.26475877116448 
2187	 0.264257598930325 
2188	 0.263739593278076 
2189	 0.2632664906392 
2190	 0.262805570292537 
2191	 0.262381161151389 
2192	 0.261993073106972 
2193	 0.261620431108312 
2194	 0.261264948068008 
2195	 0.260946593701404 
2196	 0.260650695972747 
2197	 0.260391590619694 
2198	 0.260166884542709 
2199	 0.259978580773052 
2200	 0.259834711981838 
2201	 0.259710808388142 
2202	 0.259609816778639 
2203	 0.259554221533037 
2204	 0.25952723823324 
2205	 0.259516064277208 
2206	 0.25957167566389 
2207	 0.259673254350175 
2208	 0.259822703334185 
2209	 0.260024488941638 
2210	 0.260272184745259 
2211	 0.260601106540616 
2212	 0.260904120580977 
2213	 0.261256755412162 
2214	 0.261577173781514 
2215	 0.26188104392773 
2216	 0.262186921841978 
2217	 0.262513201618077 
2218	 0.262793520336932 
2219	 0.263048343219931 
2220	 0.263294674852248 
2221	 0.263520763051479 
2222	 0.26372496092811 
2223	 0.263888546563931 
2224	 0.264051811627317 
2225	 0.264206483066596 
2226	 0.264331561965582 
2227	 0.26445050748393 
2228	 0.264587134345671 
2229	 0.264667006606871 
2230	 0.26470104550011 
2231	 0.264732334014174 
2232	 0.264740050311374 
2233	 0.264738943605588 
2234	 0.264697418443776 
2235	 0.264692369467158 
2236	 0.264717115249308 
2237	 0.264697249401023 
2238	 0.264683596621412 
2239	 0.264639515274524 
2240	 0.264522688435851 
2241	 0.264450036577991 
2242	 0.264403555142489 
2243	 0.264337140916252 
2244	 0.264292811750902 
2245	 0.264206519621017 
2246	 0.264101805680938 
2247	 0.263986955877522 
2248	 0.263893880838701 
2249	 0.263808764947445 
2250	 0.263717091431063 
2251	 0.263638260093731 
2252	 0.263538789949141 
2253	 0.263418512147306 
2254	 0.263307625412189 
2255	 0.263180947116946 
2256	 0.26308932106947 
2257	 0.263010594170415 
2258	 0.262947357853548 
2259	 0.262908740380431 
2260	 0.26287622001813 
2261	 0.262853193648559 
2262	 0.262840574839095 
2263	 0.262859822432584 
2264	 0.262851710319976 
2265	 0.262828436437819 
2266	 0.262822887410496 
2267	 0.262794222107782 
2268	 0.262801498582085 
2269	 0.262842978610229 
2270	 0.262894882084953 
2271	 0.262947980627229 
2272	 0.263006997858778 
2273	 0.263039153807039 
2274	 0.263049431968261 
2275	 0.263075894970246 
2276	 0.263097031848752 
2277	 0.263124062221908 
2278	 0.263159402404349 
2279	 0.263185256139599 
2280	 0.263204574172022 
2281	 0.263214428716531 
2282	 0.263209708801797 
2283	 0.263250042587844 
2284	 0.263287106110812 
2285	 0.263354974409231 
2286	 0.263503671081846 
2287	 0.263564227605691 
2288	 0.26361493898137 
2289	 0.263628630393448 
2290	 0.263576443158611 
2291	 0.263536898833885 
2292	 0.263465584932283 
2293	 0.263413539937917 
2294	 0.263361185734833 
2295	 0.263311011754242 
2296	 0.263270768002009 
2297	 0.263237779022678 
2298	 0.263174993287751 
2299	 0.26312534276104 
2300	 0.263092957254796 
2301	 0.263055232112873 
2302	 0.263012845955262 
2303	 0.262982930905791 
2304	 0.262912163079126 
2305	 0.262820158989098 
2306	 0.26271494073593 
2307	 0.262568537349189 
2308	 0.26247079027134 
2309	 0.262385238709855 
2310	 0.262278746055768 
2311	 0.262198746123731 
2312	 0.262096216525502 
2313	 0.261948575458586 
2314	 0.2618418224691 
2315	 0.261773241663445 
2316	 0.261663575956532 
2317	 0.261544129686169 
2318	 0.26141288564187 
2319	 0.261254719897691 
2320	 0.261103890946969 
2321	 0.260949245177055 
2322	 0.260799087829673 
2323	 0.260654345628449 
2324	 0.260495466957369 
2325	 0.260302286307267 
2326	 0.260162075455548 
2327	 0.260044761356374 
2328	 0.259929904831075 
2329	 0.259832814147646 
2330	 0.259727154799709 
2331	 0.259569559217057 
2332	 0.2593837964113 
2333	 0.259244195798978 
2334	 0.259107210624232 
2335	 0.258963506984971 
2336	 0.258829572171992 
2337	 0.258649479537815 
2338	 0.258449141411171 
2339	 0.258251154129203 
2340	 0.258051028474963 
2341	 0.257863095868213 
2342	 0.257716235946628 
2343	 0.257596190865333 
2344	 0.257411456986984 
2345	 0.257225370355827 
2346	 0.257014852901269 
2347	 0.256839709637017 
2348	 0.25667091351262 
2349	 0.256479356658895 
2350	 0.256304980257214 
2351	 0.256100549350472 
2352	 0.255829979387457 
2353	 0.255626120286951 
2354	 0.255471321822212 
2355	 0.255273447522201 
2356	 0.255071599504551 
2357	 0.254878962341726 
2358	 0.254648348677058 
2359	 0.254472180896724 
2360	 0.254327253456734 
2361	 0.254212086728989 
2362	 0.254191945540024 
2363	 0.254054755132781 
2364	 0.25386919360409 
2365	 0.253687737817188 
2366	 0.253424046387833 
2367	 0.2532090375824 
2368	 0.253055350217883 
2369	 0.252866699623358 
2370	 0.252668706092818 
2371	 0.252449406197707 
2372	 0.252197234971964 
2373	 0.251882184497432 
2374	 0.251539387632139 
2375	 0.251207176740228 
2376	 0.250919781147797 
2377	 0.250613427113013 
2378	 0.250317792631085 
2379	 0.250045141563238 
2380	 0.249744570201419 
2381	 0.249479055607409 
2382	 0.249260491420439 
2383	 0.248992161230671 
2384	 0.248687168720681 
2385	 0.248424405883822 
2386	 0.248070602339773 
2387	 0.247676569410882 
2388	 0.247351325530458 
2389	 0.247027606026897 
2390	 0.246692137900678 
2391	 0.24636661161186 
2392	 0.246110369732461 
2393	 0.245769354646486 
2394	 0.245426177387517 
2395	 0.245174855971261 
2396	 0.244856190270789 
2397	 0.24457408713269 
2398	 0.244317430829002 
2399	 0.243995656293845 
2400	 0.24365122723756 
2401	 0.243253287782025 
2402	 0.242823917104157 
2403	 0.242471893606367 
2404	 0.242135349348152 
2405	 0.241729762744699 
2406	 0.241341485865582 
2407	 0.241006491787071 
2408	 0.240607986461174 
2409	 0.240144265922284 
2410	 0.239679237478834 
2411	 0.239175197713106 
2412	 0.238626469612923 
2413	 0.238142591705312 
2414	 0.237777358768679 
2415	 0.237361943505472 
2416	 0.236989817309027 
2417	 0.236747629349766 
2418	 0.23637907936711 
2419	 0.235924055173102 
2420	 0.235496409720806 
2421	 0.235031474491445 
2422	 0.2346096914404 
2423	 0.234242915662783 
2424	 0.233817947175317 
2425	 0.233367649979928 
2426	 0.23288250299035 
2427	 0.232354964345484 
2428	 0.231820139954091 
2429	 0.23122117467885 
2430	 0.23072729903844 
2431	 0.230275482757556 
2432	 0.229819227393446 
2433	 0.229456790810522 
2434	 0.229034592432261 
2435	 0.228537695150971 
2436	 0.228095223095625 
2437	 0.227678884121198 
2438	 0.227293099451389 
2439	 0.226935294011601 
2440	 0.226553996547238 
2441	 0.226200187752912 
2442	 0.225841719866555 
2443	 0.22546939958814 
2444	 0.225088582921152 
2445	 0.224680107855918 
2446	 0.224356425798195 
2447	 0.224072989910582 
2448	 0.223762581627588 
2449	 0.223515073360807 
2450	 0.223208675571594 
2451	 0.222825794450207 
2452	 0.222432437824597 
2453	 0.222075065408816 
2454	 0.221678152809459 
2455	 0.22124085584173 
2456	 0.220918858968444 
2457	 0.220593972836425 
2458	 0.220208057392607 
2459	 0.219842005967391 
2460	 0.21943617161438 
2461	 0.219030271613845 
2462	 0.218659261989466 
2463	 0.218245599519981 
2464	 0.217821806741393 
2465	 0.217358060641435 
2466	 0.216957717383206 
2467	 0.216650345423739 
2468	 0.216333606314747 
2469	 0.216022927561108 
2470	 0.215710290836017 
2471	 0.215397245367295 
2472	 0.215159399133386 
2473	 0.214923684518225 
2474	 0.214567075325535 
2475	 0.214158450217476 
2476	 0.213785348687547 
2477	 0.213584748607621 
2478	 0.213398819741233 
2479	 0.213077857204206 
2480	 0.212854451491606 
2481	 0.212462518574016 
2482	 0.211941753562116 
2483	 0.211785739180751 
2484	 0.211536332787844 
2485	 0.211067903741596 
2486	 0.210950004300521 
2487	 0.210794462150154 
2488	 0.210408958471766 
2489	 0.210330559793317 
2490	 0.210207807718774 
2491	 0.209750500036445 
2492	 0.209358717498476 
2493	 0.208942306825663 
2494	 0.208471667832011 
2495	 0.2082536523896 
2496	 0.208267870017925 
2497	 0.208229810863057 
2498	 0.207926167105774 
2499	 0.207617748399348 
2500	 0.207238806787141 
