Wavelength	mm1900005.asd
350	 5.14829256882846E-02 
351	 5.04984794207536E-02 
352	 4.52916444265019E-02 
353	 4.13440253421812E-02 
354	 4.16906475211187E-02 
355	 4.13245549796676E-02 
356	 4.34249925236383E-02 
357	 4.96296382389745E-02 
358	 4.81570363581204E-02 
359	 0.044783605968514 
360	 4.15904593872714E-02 
361	 3.83310336557406E-02 
362	 3.99756630872759E-02 
363	 4.20935631252295E-02 
364	 4.12685684795442E-02 
365	 3.69972720911278E-02 
366	 3.62194758661613E-02 
367	 3.81491650416929E-02 
368	 4.03322606587976E-02 
369	 4.45492770759762E-02 
370	 4.37018769062976E-02 
371	 4.05777255033071E-02 
372	 4.37424794459983E-02 
373	 4.47846902431252E-02 
374	 0.04320209131496 
375	 4.12663715849506E-02 
376	 4.43297995346698E-02 
377	 4.49221098709152E-02 
378	 4.46103596302888E-02 
379	 4.60441414759398E-02 
380	 4.43582160726037E-02 
381	 4.14748884268136E-02 
382	 3.98654233271862E-02 
383	 4.17321344608736E-02 
384	 4.41729032958389E-02 
385	 4.50024443966969E-02 
386	 4.40324679182708E-02 
387	 4.44318073201484E-02 
388	 4.53834977362251E-02 
389	 4.56313306067523E-02 
390	 4.45018438643764E-02 
391	 4.48446846641494E-02 
392	 4.59598085082527E-02 
393	 4.72341090925986E-02 
394	 4.82679988251776E-02 
395	 4.86021514498025E-02 
396	 4.84109255013743E-02 
397	 4.81961465892235E-02 
398	 0.048964635211238 
399	 4.96416608642816E-02 
400	 0.049399118036814 
401	 4.80846134627863E-02 
402	 4.82915132644772E-02 
403	 0.049643822183393 
404	 5.03619650711118E-02 
405	 4.77811116955933E-02 
406	 4.80869254751264E-02 
407	 5.01008902712525E-02 
408	 5.14522709653326E-02 
409	 5.08097129666758E-02 
410	 4.89397824021734E-02 
411	 4.79831024172421E-02 
412	 4.98697730427808E-02 
413	 5.06485464787296E-02 
414	 5.04086073343354E-02 
415	 4.98973700007422E-02 
416	 5.01570758991001E-02 
417	 4.96455132663961E-02 
418	 4.92647272031502E-02 
419	 4.98156196983075E-02 
420	 4.97875383467566E-02 
421	 4.93013217764282E-02 
422	 0.049198281264952 
423	 5.04357967117441E-02 
424	 5.00983942920209E-02 
425	 4.94137539790402E-02 
426	 4.93742783605817E-02 
427	 4.96293439498874E-02 
428	 4.94124479573719E-02 
429	 4.91302889076339E-02 
430	 4.93470496079788E-02 
431	 0.04927912560535 
432	 4.91938396892383E-02 
433	 4.92326995273457E-02 
434	 4.93601915517588E-02 
435	 4.94236409421929E-02 
436	 4.94598964299387E-02 
437	 4.93982956274167E-02 
438	 4.85990436666893E-02 
439	 4.89648801852049E-02 
440	 4.98169379631661E-02 
441	 4.94605464949749E-02 
442	 0.04952274890487 
443	 4.96493713785291E-02 
444	 4.96077136930468E-02 
445	 4.96531493218827E-02 
446	 4.94166220466409E-02 
447	 4.92233591704278E-02 
448	 4.94359758394395E-02 
449	 4.97395617924893E-02 
450	 4.98214486663511E-02 
451	 4.97525855435286E-02 
452	 4.98964923577974E-02 
453	 4.97807386207572E-02 
454	 4.96570771254636E-02 
455	 4.97421719776355E-02 
456	 4.98884545296029E-02 
457	 4.98720456443973E-02 
458	 4.98115832505103E-02 
459	 4.99219877518806E-02 
460	 4.98078364711784E-02 
461	 4.95693168409662E-02 
462	 4.94443909827972E-02 
463	 4.98097800700237E-02 
464	 4.97105407273095E-02 
465	 4.95547330485257E-02 
466	 4.98461369155585E-02 
467	 4.98405412644841E-02 
468	 4.98260130347033E-02 
469	 4.98881302179459E-02 
470	 4.99282641424982E-02 
471	 4.99221703546345E-02 
472	 4.97941685961243E-02 
473	 4.95752483304057E-02 
474	 4.95570319305357E-02 
475	 4.95666086075303E-02 
476	 4.95189746031724E-02 
477	 4.94161783554478E-02 
478	 4.95998804404028E-02 
479	 4.98872746481107E-02 
480	 5.00147496517218E-02 
481	 4.96653643602641E-02 
482	 4.96367304969005E-02 
483	 4.97767850095164E-02 
484	 4.97889322496536E-02 
485	 5.00366192700649E-02 
486	 4.98772445041659E-02 
487	 4.94338400554444E-02 
488	 4.94430811079757E-02 
489	 4.95303837384623E-02 
490	 4.96598424336311E-02 
491	 4.98066489744181E-02 
492	 4.98518317827237E-02 
493	 4.97703673986585E-02 
494	 4.96606741987305E-02 
495	 4.96717451593442E-02 
496	 4.98394485404938E-02 
497	 4.98019672191521E-02 
498	 4.95802040315038E-02 
499	 4.98226041680802E-02 
500	 4.97472505703627E-02 
501	 4.95512928518272E-02 
502	 4.95956455318466E-02 
503	 4.96044615471661E-02 
504	 4.96758729053668E-02 
505	 4.97569065911167E-02 
506	 4.96629369013563E-02 
507	 4.95982377425786E-02 
508	 4.96377496143182E-02 
509	 4.97673972567434E-02 
510	 4.98272365243673E-02 
511	 4.98181405029221E-02 
512	 4.98026357047838E-02 
513	 4.98665067114211E-02 
514	 4.99649914710036E-02 
515	 4.99561073572684E-02 
516	 4.98419050647516E-02 
517	 4.98843083604368E-02 
518	 4.98980354740739E-02 
519	 4.98609982952294E-02 
520	 4.98149921652494E-02 
521	 4.98433009780528E-02 
522	 4.99038412337037E-02 
523	 4.99355999591667E-02 
524	 4.98709987754701E-02 
525	 4.99684298670191E-02 
526	 0.050081916966377 
527	 5.00712189585069E-02 
528	 5.01291485556815E-02 
529	 5.00675394413987E-02 
530	 4.99930085797642E-02 
531	 5.01667850501102E-02 
532	 5.02328975651505E-02 
533	 5.02554867319757E-02 
534	 5.03046858284143E-02 
535	 5.03368853135536E-02 
536	 5.03101750866518E-02 
537	 5.03291261091141E-02 
538	 5.04932270495693E-02 
539	 5.04373639808484E-02 
540	 5.04351228140126E-02 
541	 5.05675511179011E-02 
542	 5.05933354422582E-02 
543	 5.07572543378645E-02 
544	 5.09126239976442E-02 
545	 5.09120545458162E-02 
546	 5.10490731705066E-02 
547	 5.11457655499344E-02 
548	 5.11935119823315E-02 
549	 5.13291554272498E-02 
550	 5.14380638352554E-02 
551	 5.15222670885558E-02 
552	 5.16252814445025E-02 
553	 5.18570681393746E-02 
554	 5.20148518783789E-02 
555	 5.21159377024466E-02 
556	 5.22907415767127E-02 
557	 5.25384477684649E-02 
558	 0.05277098833161 
559	 5.29767542345327E-02 
560	 5.33058038067779E-02 
561	 5.35265331666137E-02 
562	 5.37190541416271E-02 
563	 5.40385875336925E-02 
564	 5.44166479930998E-02 
565	 0.054726423727681 
566	 5.49706337256255E-02 
567	 5.52977735943144E-02 
568	 5.57155231096899E-02 
569	 5.61681287915623E-02 
570	 5.66150838128079E-02 
571	 5.71402382167324E-02 
572	 5.76583832849113E-02 
573	 5.81568060369722E-02 
574	 5.86730949655826E-02 
575	 5.91605548086739E-02 
576	 5.97245016759365E-02 
577	 0.060381263903405 
578	 6.08892374658356E-02 
579	 6.14816580100621E-02 
580	 6.21477754550253E-02 
581	 0.06278956003725 
582	 6.34758268655668E-02 
583	 0.06418179246723 
584	 6.48737112486563E-02 
585	 6.55146703110013E-02 
586	 6.63037022231844E-02 
587	 6.71278137235229E-02 
588	 6.78511399749586E-02 
589	 6.86804654070831E-02 
590	 0.069526262096664 
591	 7.03456949157076E-02 
592	 7.11498166559228E-02 
593	 7.19097179498945E-02 
594	 7.26603712750673E-02 
595	 7.34160190695532E-02 
596	 7.40992486694232E-02 
597	 7.47890660379041E-02 
598	 7.55127599800496E-02 
599	 7.62628925677642E-02 
600	 7.69723337463057E-02 
601	 7.76596084593234E-02 
602	 7.83445077119286E-02 
603	 7.90382618059355E-02 
604	 7.96609748558977E-02 
605	 8.02499964001557E-02 
606	 8.08696884069234E-02 
607	 8.14712466733307E-02 
608	 8.20616228360661E-02 
609	 8.26385561549624E-02 
610	 8.31873973130522E-02 
611	 8.37106342943133E-02 
612	 8.42328377744204E-02 
613	 8.47342497566979E-02 
614	 8.50229509130049E-02 
615	 8.53443594795266E-02 
616	 8.57260468003338E-02 
617	 8.60489583131986E-02 
618	 8.64629179538342E-02 
619	 8.68104811772515E-02 
620	 8.70297407546362E-02 
621	 8.73613184206826E-02 
622	 8.76550168223938E-02 
623	 8.78984347348691E-02 
624	 8.81324456753861E-02 
625	 8.83795375342408E-02 
626	 8.86128008164749E-02 
627	 8.88235449334502E-02 
628	 8.90319472867003E-02 
629	 8.92397635714684E-02 
630	 8.94504802963589E-02 
631	 8.96618842555745E-02 
632	 8.98485207443041E-02 
633	 9.00341785505505E-02 
634	 9.02381588490806E-02 
635	 9.04695678785957E-02 
636	 9.06504901775417E-02 
637	 9.08241592338586E-02 
638	 9.10180653764918E-02 
639	 9.11650052352289E-02 
640	 9.13078120749317E-02 
641	 9.14946576651835E-02 
642	 9.17538542030672E-02 
643	 9.19470698487944E-02 
644	 9.21335275332626E-02 
645	 9.23391320326098E-02 
646	 9.25118814479352E-02 
647	 9.26999241207081E-02 
648	 9.29074485193689E-02 
649	 9.31249786815042E-02 
650	 9.33410870181667E-02 
651	 9.35924550843163E-02 
652	 9.38498024412389E-02 
653	 9.40377347152144E-02 
654	 9.43342064187499E-02 
655	 9.45989803911226E-02 
656	 9.47597771430662E-02 
657	 9.50603938020345E-02 
658	 9.53770085569556E-02 
659	 9.56501549455242E-02 
660	 9.58652962124741E-02 
661	 9.61216687387803E-02 
662	 9.64346097581609E-02 
663	 9.67750361007322E-02 
664	 0.097064078664755 
665	 9.73580849810552E-02 
666	 9.76581340831378E-02 
667	 9.79617221964764E-02 
668	 9.83167291969442E-02 
669	 9.86780537235934E-02 
670	 9.90208265611554E-02 
671	 9.93439684993744E-02 
672	 9.97182278796413E-02 
673	 0.100108387909471 
674	 0.100479058398972 
675	 0.100839228729898 
676	 0.101197395741426 
677	 0.101576240611925 
678	 0.101997372771367 
679	 0.102433566782075 
680	 0.102867057685357 
681	 0.103295023818872 
682	 0.103732281259977 
683	 0.104188870541481 
684	 0.104665603721726 
685	 0.105151421067972 
686	 0.105609108704643 
687	 0.106057213403593 
688	 0.106530476718458 
689	 0.107061371131498 
690	 0.107522284319011 
691	 0.108016622971871 
692	 0.108585513439307 
693	 0.109080376311482 
694	 0.109548849159977 
695	 0.110060202217576 
696	 0.110657285833445 
697	 0.111169820819651 
698	 0.111722914087478 
699	 0.112326797655953 
700	 0.112857041824973 
701	 0.113391361786731 
702	 0.113948493113744 
703	 0.114522253846471 
704	 0.115072289498886 
705	 0.115620480777128 
706	 0.116185559076738 
707	 0.116774508807863 
708	 0.117316626934345 
709	 0.117890452091944 
710	 0.118499548179494 
711	 0.119018089109051 
712	 0.11957390383399 
713	 0.120141937437335 
714	 0.120679161996968 
715	 0.121240901840177 
716	 0.121811044002023 
717	 0.122357887827405 
718	 0.122849631498242 
719	 0.123376647751874 
720	 0.123903850837768 
721	 0.124395090095004 
722	 0.124847469738763 
723	 0.125326191369244 
724	 0.125812402196203 
725	 0.1262626416929 
726	 0.126677718800594 
727	 0.127074351350489 
728	 0.12746386311315 
729	 0.1278501046865 
730	 0.128217443239673 
731	 0.128573379064529 
732	 0.128911053281292 
733	 0.129173833943028 
734	 0.129446355201308 
735	 0.129702839253884 
736	 0.129894977631889 
737	 0.130145403324175 
738	 0.130347072083128 
739	 0.130484151389228 
740	 0.130654656226545 
741	 0.130778344111755 
742	 0.130852045528687 
743	 0.130898067117496 
744	 0.130964366185519 
745	 0.13098682940537 
746	 0.130988470667193 
747	 0.131016792060168 
748	 0.13097801187639 
749	 0.130892242195701 
750	 0.130798269476498 
751	 0.130741660403044 
752	 0.130621820256918 
753	 0.130453016520781 
754	 0.130273326027526 
755	 0.130100961911873 
756	 0.129948837915181 
757	 0.129777112901385 
758	 0.129533384493339 
759	 0.129289401563284 
760	 0.129036352998332 
761	 0.128765729181461 
762	 0.128479246510478 
763	 0.128204671560227 
764	 0.127923045426482 
765	 0.127609891948142 
766	 0.127249192560096 
767	 0.12694031464914 
768	 0.126663024418377 
769	 0.126337462234201 
770	 0.125952918546178 
771	 0.125574303725855 
772	 0.125230372938193 
773	 0.12489633891048 
774	 0.124513942560322 
775	 0.124120942767033 
776	 0.123752768937234 
777	 0.123373458244444 
778	 0.122987938737829 
779	 0.122621146800309 
780	 0.122287754969991 
781	 0.121876461360538 
782	 0.121479621747611 
783	 0.121117465474112 
784	 0.120721959328743 
785	 0.120357895611127 
786	 0.119991429973781 
787	 0.119596343447937 
788	 0.119203130240874 
789	 0.118869581726153 
790	 0.118534579891279 
791	 0.11812648542795 
792	 0.117782231463964 
793	 0.117431439859583 
794	 0.1170599889152 
795	 0.116707603680518 
796	 0.116323118137833 
797	 0.115981686443554 
798	 0.115703775650819 
799	 0.115379003531821 
800	 0.115029822140382 
801	 0.114683730406902 
802	 0.114361568513786 
803	 0.114041326614118 
804	 0.113733593998485 
805	 0.113429300745092 
806	 0.113112754879914 
807	 0.112820707789658 
808	 0.112535077658991 
809	 0.112237381897484 
810	 0.11191764481426 
811	 0.111635796465815 
812	 0.11136512370812 
813	 0.111086892852389 
814	 0.110862914759617 
815	 0.11065096022342 
816	 0.110415155042225 
817	 0.110139821331853 
818	 0.109891400913979 
819	 0.109677373009981 
820	 0.109469537141022 
821	 0.10922082110197 
822	 0.108997877062341 
823	 0.108781590419686 
824	 0.108568858474226 
825	 0.108402284882685 
826	 0.108279369531853 
827	 0.10811551348207 
828	 0.107867026603281 
829	 0.107688334474109 
830	 0.107501499354262 
831	 0.107310137238788 
832	 0.107157353793791 
833	 0.107076050193493 
834	 0.106956399795892 
835	 0.106782957616973 
836	 0.106639202206079 
837	 0.106552760228244 
838	 0.106456746049074 
839	 0.106321015338445 
840	 0.10620641981522 
841	 0.106078594959744 
842	 0.105966563730283 
843	 0.105890286178801 
844	 0.105788364295 
845	 0.10571474542385 
846	 0.105643873239356 
847	 0.105537950968783 
848	 0.1055151395731 
849	 0.105465225284343 
850	 0.10538853433213 
851	 0.10537908573064 
852	 0.105346713371586 
853	 0.105304456619171 
854	 0.105270851214164 
855	 0.105250762975902 
856	 0.105274245284041 
857	 0.105275482042776 
858	 0.1052246660462 
859	 0.105241527123571 
860	 0.105256523863911 
861	 0.105261770378772 
862	 0.105265201778614 
863	 0.105240331714098 
864	 0.105278212552038 
865	 0.105358089630089 
866	 0.105398601904512 
867	 0.105445848882039 
868	 0.105481839339312 
869	 0.105508492688714 
870	 0.105552097920537 
871	 0.105618969918407 
872	 0.105700759935747 
873	 0.105787585628604 
874	 0.105872656473137 
875	 0.105981564547393 
876	 0.106077346933189 
877	 0.106142115584998 
878	 0.10624419999532 
879	 0.106393035694916 
880	 0.106527532486468 
881	 0.106607568423196 
882	 0.10679324134924 
883	 0.106947878392166 
884	 0.107075314282708 
885	 0.107246650602523 
886	 0.107398427472072 
887	 0.107544655106979 
888	 0.107704659477453 
889	 0.107889685959917 
890	 0.108035163083598 
891	 0.108197891301407 
892	 0.108415354080466 
893	 0.108673674298543 
894	 0.108843362618931 
895	 0.109011411635943 
896	 0.109240232969597 
897	 0.109467190260677 
898	 0.109692598631579 
899	 0.109921509474361 
900	 0.11015430395852 
901	 0.110364141015416 
902	 0.110661526035458 
903	 0.110950602441679 
904	 0.11114423984332 
905	 0.111474771508394 
906	 0.111778874606461 
907	 0.112042991181862 
908	 0.112330094555323 
909	 0.112676342861256 
910	 0.112974036857114 
911	 0.113241750081684 
912	 0.113572633468887 
913	 0.113914432209623 
914	 0.11428417727046 
915	 0.114651912109735 
916	 0.11495717143584 
917	 0.115278657721573 
918	 0.115626985763928 
919	 0.115979045503224 
920	 0.116296237452869 
921	 0.116753461252054 
922	 0.117222289846555 
923	 0.117623717331323 
924	 0.11803147609246 
925	 0.118431476496139 
926	 0.118886496348797 
927	 0.119373842796263 
928	 0.119696339566741 
929	 0.120169766466005 
930	 0.120720857583427 
931	 0.121221657302626 
932	 0.121667879667976 
933	 0.122156431416241 
934	 0.122639610088904 
935	 0.123079066043367 
936	 0.123591883382412 
937	 0.124121754578234 
938	 0.124609001250581 
939	 0.125061487773475 
940	 0.125714184284522 
941	 0.126323641234208 
942	 0.126903468053903 
943	 0.127524252410911 
944	 0.128026651394904 
945	 0.128602954030091 
946	 0.12921890223269 
947	 0.129772681309557 
948	 0.130377993942779 
949	 0.131055924135202 
950	 0.131701326228432 
951	 0.132230191404539 
952	 0.132967189858555 
953	 0.133700923441332 
954	 0.134343464440909 
955	 0.13493852920188 
956	 0.135708120210569 
957	 0.136437134414245 
958	 0.137078302583997 
959	 0.137712479667343 
960	 0.138378909836258 
961	 0.139162250653059 
962	 0.139999359372961 
963	 0.140748017261834 
964	 0.141418853176154 
965	 0.142208500879331 
966	 0.143017966461099 
967	 0.143634567231795 
968	 0.144472842162973 
969	 0.145283285762689 
970	 0.146040501116117 
971	 0.146869144255709 
972	 0.147620374890818 
973	 0.148468660956205 
974	 0.149387222235668 
975	 0.150226593692828 
976	 0.151080468053506 
977	 0.15187066739636 
978	 0.152626421158334 
979	 0.153453713993474 
980	 0.154426962861744 
981	 0.155419730344416 
982	 0.156288618570182 
983	 0.156978634199353 
984	 0.157826274919435 
985	 0.158660507513957 
986	 0.159489400574153 
987	 0.160408596253762 
988	 0.161344678086086 
989	 0.162183074092013 
990	 0.16299365927665 
991	 0.163918712028759 
992	 0.164949535809555 
993	 0.165821821654062 
994	 0.166668879502482 
995	 0.167675363712835 
996	 0.168437851768978 
997	 0.169172848566387 
998	 0.170037352705517 
999	 0.171068772912733 
1000	 0.172047299276027 
1001	 0.170702526476337 
1002	 0.171601756866329 
1003	 0.172505841956251 
1004	 0.173339292771225 
1005	 0.174073320145616 
1006	 0.174867705722552 
1007	 0.175656955648923 
1008	 0.176432949823305 
1009	 0.177206367891449 
1010	 0.17799061538349 
1011	 0.17878570915793 
1012	 0.179535839814397 
1013	 0.180304040555972 
1014	 0.181066085867266 
1015	 0.181777756124341 
1016	 0.182519411306688 
1017	 0.183274535617003 
1018	 0.184064703387998 
1019	 0.184822578060245 
1020	 0.18552652290284 
1021	 0.186222507063508 
1022	 0.186874356803115 
1023	 0.187458736546361 
1024	 0.188054361786236 
1025	 0.1886640224629 
1026	 0.189308033412192 
1027	 0.190015626438766 
1028	 0.19070981323161 
1029	 0.191356588545525 
1030	 0.191989909507411 
1031	 0.192623033788287 
1032	 0.193221324015836 
1033	 0.193856422554155 
1034	 0.194523997760305 
1035	 0.195132426195406 
1036	 0.195735433820248 
1037	 0.19630100111535 
1038	 0.196819054764042 
1039	 0.197412838797912 
1040	 0.198018016228834 
1041	 0.198641667152467 
1042	 0.199303176647537 
1043	 0.199925422557145 
1044	 0.200532973272839 
1045	 0.201122868504001 
1046	 0.201697869662676 
1047	 0.202243700399255 
1048	 0.202790808597669 
1049	 0.20332424907089 
1050	 0.203869459747457 
1051	 0.204478450427544 
1052	 0.205049985277271 
1053	 0.205604018207525 
1054	 0.20622336248474 
1055	 0.206792044319788 
1056	 0.207359400608916 
1057	 0.207923192949253 
1058	 0.208479075343074 
1059	 0.209008154823795 
1060	 0.209499857161833 
1061	 0.210051136033431 
1062	 0.210607834514392 
1063	 0.211173183390125 
1064	 0.211726125871477 
1065	 0.212249751434716 
1066	 0.212749002424893 
1067	 0.213269274783785 
1068	 0.213852294597532 
1069	 0.214422224270205 
1070	 0.214955324665137 
1071	 0.215478091315126 
1072	 0.216004280016739 
1073	 0.21648972293615 
1074	 0.216981300338423 
1075	 0.217498707119901 
1076	 0.217960391828677 
1077	 0.21842074282729 
1078	 0.218884550914631 
1079	 0.219330453937492 
1080	 0.219805518417363 
1081	 0.220244238949327 
1082	 0.22068470578289 
1083	 0.221151826881347 
1084	 0.221640912875504 
1085	 0.222118935948736 
1086	 0.222616301239371 
1087	 0.223079946743665 
1088	 0.223526769688197 
1089	 0.223966364520752 
1090	 0.2243854524048 
1091	 0.224844902858521 
1092	 0.225323864615908 
1093	 0.225738422298334 
1094	 0.226168744084972 
1095	 0.226608156357502 
1096	 0.227024624567692 
1097	 0.227467092263504 
1098	 0.227899010176354 
1099	 0.228332219599603 
1100	 0.228756675237046 
1101	 0.22917073202578 
1102	 0.229594019693178 
1103	 0.230019611969098 
1104	 0.23044526576326 
1105	 0.230866683276019 
1106	 0.231300848534159 
1107	 0.231724597880895 
1108	 0.232131427333282 
1109	 0.232594643499598 
1110	 0.233054861295966 
1111	 0.233495390526376 
1112	 0.23396216879871 
1113	 0.234387066288696 
1114	 0.234751877529566 
1115	 0.235164137587267 
1116	 0.23556805487878 
1117	 0.236003201666832 
1118	 0.236482548376796 
1119	 0.236939044369633 
1120	 0.237373351745193 
1121	 0.237825805857058 
1122	 0.23823575670188 
1123	 0.238639024708271 
1124	 0.239061146690224 
1125	 0.239497952280037 
1126	 0.239910844052477 
1127	 0.240316444366769 
1128	 0.240731458506623 
1129	 0.241145082321735 
1130	 0.241549194436968 
1131	 0.24196082174057 
1132	 0.242362239324422 
1133	 0.242744415792152 
1134	 0.243129226165749 
1135	 0.243520371118587 
1136	 0.243900250222215 
1137	 0.244260826172353 
1138	 0.244633242556322 
1139	 0.245001645528169 
1140	 0.245367293140813 
1141	 0.245730698218851 
1142	 0.246102176661874 
1143	 0.246450065140885 
1144	 0.246792970251786 
1145	 0.247114451261565 
1146	 0.247401588736759 
1147	 0.247716915297005 
1148	 0.248020859978726 
1149	 0.24834073245132 
1150	 0.24869689444821 
1151	 0.249031477829542 
1152	 0.249334476570863 
1153	 0.249650717755944 
1154	 0.249949748319662 
1155	 0.250215168031865 
1156	 0.250513877984019 
1157	 0.250828141048715 
1158	 0.251130541454348 
1159	 0.251447839808289 
1160	 0.251747135808069 
1161	 0.252019529059672 
1162	 0.252316235807222 
1163	 0.252631952328226 
1164	 0.252923424603386 
1165	 0.253203260324164 
1166	 0.25350259403624 
1167	 0.253793703465697 
1168	 0.254077504261097 
1169	 0.254345292580263 
1170	 0.254621279065572 
1171	 0.254874254893846 
1172	 0.255083074496545 
1173	 0.255331796438478 
1174	 0.255604701732111 
1175	 0.255855035966701 
1176	 0.256112266238497 
1177	 0.256350826110867 
1178	 0.25655579209656 
1179	 0.256787112388185 
1180	 0.257036002649859 
1181	 0.257270706798058 
1182	 0.257522303834059 
1183	 0.257743577592333 
1184	 0.257965881447069 
1185	 0.258169088624855 
1186	 0.2583784486388 
1187	 0.258586846589957 
1188	 0.258797246208316 
1189	 0.259016232996155 
1190	 0.259210437506621 
1191	 0.259387474526266 
1192	 0.259577126464705 
1193	 0.259752557377801 
1194	 0.259935783068006 
1195	 0.260141304397802 
1196	 0.260331760749031 
1197	 0.2605083346273 
1198	 0.260688085024387 
1199	 0.260866927516582 
1200	 0.261049106424182 
1201	 0.261216206202076 
1202	 0.261372283647661 
1203	 0.261540605595764 
1204	 0.261702057703074 
1205	 0.261871684904112 
1206	 0.262061181989809 
1207	 0.262230273605098 
1208	 0.262398263751745 
1209	 0.26254992653209 
1210	 0.262685996201465 
1211	 0.262821415144342 
1212	 0.262930184736136 
1213	 0.263062392843274 
1214	 0.263213109723159 
1215	 0.263352863743198 
1216	 0.263493248543851 
1217	 0.263648678366589 
1218	 0.263778524833461 
1219	 0.263891396957437 
1220	 0.264007569298374 
1221	 0.264108003175999 
1222	 0.264229248286604 
1223	 0.264361516208002 
1224	 0.264484215315471 
1225	 0.264620828165418 
1226	 0.264739893891857 
1227	 0.264834312253733 
1228	 0.264945379548088 
1229	 0.26507005320433 
1230	 0.26517760845728 
1231	 0.265279846197732 
1232	 0.265383727413641 
1233	 0.265482982307342 
1234	 0.2655630928286 
1235	 0.265666400517125 
1236	 0.265793534225753 
1237	 0.265886937373315 
1238	 0.265967298210271 
1239	 0.266056883499876 
1240	 0.26612822356528 
1241	 0.266216091173077 
1242	 0.266332474824282 
1243	 0.26642115919255 
1244	 0.266491308537844 
1245	 0.266571380154721 
1246	 0.266644718234286 
1247	 0.266720188821857 
1248	 0.266786188761114 
1249	 0.266883850233086 
1250	 0.266978600808326 
1251	 0.267062435041682 
1252	 0.26715043239194 
1253	 0.26725039780165 
1254	 0.267333092222336 
1255	 0.267418304684762 
1256	 0.267472429804409 
1257	 0.267494305059523 
1258	 0.267541720942294 
1259	 0.267572611387887 
1260	 0.267616942108129 
1261	 0.26768858758471 
1262	 0.267748098960078 
1263	 0.26780115730616 
1264	 0.267853210504483 
1265	 0.267899622054206 
1266	 0.267956705306276 
1267	 0.268017955949297 
1268	 0.268073679847954 
1269	 0.268138358771186 
1270	 0.268218168976398 
1271	 0.268283844949107 
1272	 0.268345526476566 
1273	 0.268405850083282 
1274	 0.268456158087075 
1275	 0.268520947569747 
1276	 0.2685795955667 
1277	 0.268660743199762 
1278	 0.268760343227187 
1279	 0.268864480695911 
1280	 0.268995001338527 
1281	 0.269106322511971 
1282	 0.269215637219504 
1283	 0.269320892484799 
1284	 0.269420580309194 
1285	 0.269503310694765 
1286	 0.269617208003557 
1287	 0.269725863326238 
1288	 0.269830944056473 
1289	 0.269946880801838 
1290	 0.270047191027172 
1291	 0.270128552381372 
1292	 0.270227772623716 
1293	 0.270343341978224 
1294	 0.270423835813208 
1295	 0.270507740583878 
1296	 0.270561129872676 
1297	 0.270567674371451 
1298	 0.270594627182248 
1299	 0.270616011228623 
1300	 0.270633838273503 
1301	 0.27065511687819 
1302	 0.270668510279916 
1303	 0.270672437041089 
1304	 0.270679198624932 
1305	 0.270672172825961 
1306	 0.270679002484748 
1307	 0.270664704379481 
1308	 0.270625501598817 
1309	 0.270574485631206 
1310	 0.270495134984521 
1311	 0.270426178329983 
1312	 0.270344093533747 
1313	 0.270278122999185 
1314	 0.270224520185204 
1315	 0.270158880689382 
1316	 0.270094287882896 
1317	 0.270026113889532 
1318	 0.269951954994196 
1319	 0.269872598992539 
1320	 0.269788566997654 
1321	 0.269708439927835 
1322	 0.26962167224951 
1323	 0.269541491301769 
1324	 0.269459899145845 
1325	 0.26938424107813 
1326	 0.269315777499119 
1327	 0.269239878672599 
1328	 0.269163131873031 
1329	 0.269082879036742 
1330	 0.268993072303881 
1331	 0.268885757882492 
1332	 0.268784511073871 
1333	 0.268687221822907 
1334	 0.268579840872147 
1335	 0.268445114314745 
1336	 0.26835537194639 
1337	 0.268285095164328 
1338	 0.268209816297264 
1339	 0.26816926614498 
1340	 0.268101727480957 
1341	 0.268005698342341 
1342	 0.267928842368613 
1343	 0.267849042460457 
1344	 0.267784699635592 
1345	 0.267732609332799 
1346	 0.267676236466815 
1347	 0.267625004536813 
1348	 0.267567595031503 
1349	 0.267492549166044 
1350	 0.267422121669055 
1351	 0.267362410856381 
1352	 0.267309282716165 
1353	 0.267245377658555 
1354	 0.267194519777945 
1355	 0.267120335798033 
1356	 0.267015130978937 
1357	 0.266932468816281 
1358	 0.26685325138805 
1359	 0.266776452403287 
1360	 0.26671235277601 
1361	 0.266639887448695 
1362	 0.266559665177845 
1363	 0.266484153835736 
1364	 0.266420241239261 
1365	 0.266337683973438 
1366	 0.26624733333829 
1367	 0.266154142336963 
1368	 0.266052395754642 
1369	 0.26595383907353 
1370	 0.265850092624533 
1371	 0.265730351596723 
1372	 0.265593845558533 
1373	 0.265437708468358 
1374	 0.265261515860639 
1375	 0.265075021463138 
1376	 0.264850338888675 
1377	 0.264600097738464 
1378	 0.264317656750994 
1379	 0.263991747015289 
1380	 0.26367391061783 
1381	 0.263353271983545 
1382	 0.262985042471936 
1383	 0.26260997635537 
1384	 0.262186534547302 
1385	 0.261715527035061 
1386	 0.261219612910661 
1387	 0.260691182500901 
1388	 0.260139502209189 
1389	 0.259564640706122 
1390	 0.258952437489331 
1391	 0.258309207440787 
1392	 0.257629575637854 
1393	 0.256879081651877 
1394	 0.256088662659498 
1395	 0.255247059901668 
1396	 0.25438854770869 
1397	 0.253537982792086 
1398	 0.252663571819268 
1399	 0.251806187701399 
1400	 0.250961056995256 
1401	 0.250101012524255 
1402	 0.249232583518084 
1403	 0.248376234662452 
1404	 0.247493021565585 
1405	 0.24667221705682 
1406	 0.245878222862821 
1407	 0.245101015411795 
1408	 0.244345977447756 
1409	 0.243637779444157 
1410	 0.242942400777692 
1411	 0.24230358784892 
1412	 0.241714634404824 
1413	 0.241168123121678 
1414	 0.24068285240237 
1415	 0.240228761268364 
1416	 0.239826059111478 
1417	 0.239467433421019 
1418	 0.239093431729987 
1419	 0.238750239752109 
1420	 0.23844829347629 
1421	 0.238155286774393 
1422	 0.237903639021911 
1423	 0.237663691150406 
1424	 0.237405560499059 
1425	 0.23713500113881 
1426	 0.2368955343078 
1427	 0.236647567656486 
1428	 0.236434214409965 
1429	 0.236259345025527 
1430	 0.23607848759446 
1431	 0.235904560713717 
1432	 0.235747183283821 
1433	 0.235599548163871 
1434	 0.235465032809967 
1435	 0.235337241610589 
1436	 0.235238241954177 
1437	 0.235162415943441 
1438	 0.235092200424062 
1439	 0.235047082850123 
1440	 0.235008302545977 
1441	 0.234947993308918 
1442	 0.234882097603804 
1443	 0.234820602498195 
1444	 0.23477004674307 
1445	 0.234744258509589 
1446	 0.234741157228841 
1447	 0.234747674114121 
1448	 0.234752087345522 
1449	 0.234749228714124 
1450	 0.234744249944547 
1451	 0.234747048900624 
1452	 0.23474451083497 
1453	 0.234759808539262 
1454	 0.234794307784454 
1455	 0.234817856841601 
1456	 0.234841871197121 
1457	 0.234870106063543 
1458	 0.234891799647104 
1459	 0.234926954242517 
1460	 0.234959036083203 
1461	 0.235021965668379 
1462	 0.235101950705153 
1463	 0.235197580387335 
1464	 0.235330402729148 
1465	 0.235452360638927 
1466	 0.235564546094113 
1467	 0.235702421827315 
1468	 0.235846990342448 
1469	 0.236010875963036 
1470	 0.236200172660642 
1471	 0.236402694332048 
1472	 0.236613671721795 
1473	 0.236823562552448 
1474	 0.23702029635428 
1475	 0.237227868937896 
1476	 0.237424222429918 
1477	 0.237629267862201 
1478	 0.237857224265601 
1479	 0.238075468250453 
1480	 0.238309695921824 
1481	 0.238552039322527 
1482	 0.238794752322423 
1483	 0.239050618248448 
1484	 0.239293555899166 
1485	 0.239527143407601 
1486	 0.239773690620437 
1487	 0.240015346088092 
1488	 0.240270693152682 
1489	 0.240545490226808 
1490	 0.24081123603291 
1491	 0.241082721282082 
1492	 0.241344269080201 
1493	 0.241605896224278 
1494	 0.241854052493395 
1495	 0.242088472725169 
1496	 0.242325766879159 
1497	 0.242555554695058 
1498	 0.242785608791245 
1499	 0.243025531734757 
1500	 0.243246069001084 
1501	 0.243444118642861 
1502	 0.243656516006863 
1503	 0.243864300707021 
1504	 0.244072809521039 
1505	 0.244299400431283 
1506	 0.244538183633888 
1507	 0.244762872459491 
1508	 0.244977165500282 
1509	 0.245182415715614 
1510	 0.24536984694731 
1511	 0.245553399823909 
1512	 0.245747146056075 
1513	 0.245936324468371 
1514	 0.246121220811758 
1515	 0.246306800840091 
1516	 0.24649264207038 
1517	 0.246684731235325 
1518	 0.246884202558072 
1519	 0.247076805544178 
1520	 0.247272516577744 
1521	 0.247463443878878 
1522	 0.247653829024153 
1523	 0.247826636572878 
1524	 0.247986804304539 
1525	 0.248153927797277 
1526	 0.248311380754424 
1527	 0.248472160772229 
1528	 0.248650257339032 
1529	 0.248804630571913 
1530	 0.24894144372508 
1531	 0.24907840352874 
1532	 0.249202931115133 
1533	 0.249331113662505 
1534	 0.249457825859964 
1535	 0.249582444677633 
1536	 0.249704751159356 
1537	 0.24983150165451 
1538	 0.249955715371568 
1539	 0.250083263190516 
1540	 0.250217353310398 
1541	 0.250346575993476 
1542	 0.250473314806701 
1543	 0.250601256682177 
1544	 0.250733779527751 
1545	 0.250861345878019 
1546	 0.250985981526079 
1547	 0.251112193705034 
1548	 0.251226867677015 
1549	 0.251322769867087 
1550	 0.251432087281923 
1551	 0.251540477432779 
1552	 0.251644856728436 
1553	 0.251751767463051 
1554	 0.251849028578184 
1555	 0.251944077594993 
1556	 0.252044754168039 
1557	 0.25214672981498 
1558	 0.252245286831202 
1559	 0.252344471760093 
1560	 0.252446146799811 
1561	 0.252554747744332 
1562	 0.252647053893838 
1563	 0.252735111291846 
1564	 0.252818510107178 
1565	 0.252889335587985 
1566	 0.252964890116176 
1567	 0.253041021985091 
1568	 0.253117421795823 
1569	 0.253192888717032 
1570	 0.25326623258184 
1571	 0.253343087928704 
1572	 0.253407668793654 
1573	 0.253464437645988 
1574	 0.253522044483578 
1575	 0.253569292653347 
1576	 0.253624688666814 
1577	 0.253682907642805 
1578	 0.253741533540127 
1579	 0.25379954439621 
1580	 0.253865992136676 
1581	 0.253932775642858 
1582	 0.254009228640124 
1583	 0.254102436330528 
1584	 0.254185184803731 
1585	 0.254280305482145 
1586	 0.254350650283753 
1587	 0.254403175793251 
1588	 0.254455675695786 
1589	 0.254507196044536 
1590	 0.254535681528602 
1591	 0.254531959682261 
1592	 0.254555459166398 
1593	 0.254565429746535 
1594	 0.25459278302925 
1595	 0.254652543272897 
1596	 0.254705750574818 
1597	 0.254771809946162 
1598	 0.254817037999912 
1599	 0.254856848372133 
1600	 0.254893400253942 
1601	 0.2549025796479 
1602	 0.254926118006092 
1603	 0.254945651365444 
1604	 0.254986008954595 
1605	 0.25506010267737 
1606	 0.255110130438947 
1607	 0.255161955291468 
1608	 0.255211778254554 
1609	 0.255254402020313 
1610	 0.255266375923006 
1611	 0.255280918210723 
1612	 0.255313048741921 
1613	 0.255324610322555 
1614	 0.255333657284668 
1615	 0.255354749535597 
1616	 0.25536943843027 
1617	 0.255384735752527 
1618	 0.255396398112875 
1619	 0.255416723857576 
1620	 0.255457055933803 
1621	 0.255485062090272 
1622	 0.255528457236381 
1623	 0.255529689710639 
1624	 0.255506800912358 
1625	 0.255495174259494 
1626	 0.255456117759732 
1627	 0.255457968979749 
1628	 0.255481154524222 
1629	 0.255503216105128 
1630	 0.255541280221496 
1631	 0.255570412670466 
1632	 0.255604475759342 
1633	 0.255625368116553 
1634	 0.255639032586269 
1635	 0.255657287942708 
1636	 0.255677281427807 
1637	 0.255678474348957 
1638	 0.255670847166562 
1639	 0.25566974985183 
1640	 0.255641145526476 
1641	 0.255658062524797 
1642	 0.255710267259961 
1643	 0.255741015714409 
1644	 0.255789726024123 
1645	 0.255811973019547 
1646	 0.255813724535561 
1647	 0.25582076392549 
1648	 0.255826185526711 
1649	 0.255818612916047 
1650	 0.255797247468798 
1651	 0.255789098501742 
1652	 0.255770566377139 
1653	 0.255769090197623 
1654	 0.255787499549155 
1655	 0.25579553626251 
1656	 0.255810148848616 
1657	 0.255808846040097 
1658	 0.255803324558615 
1659	 0.255787360055781 
1660	 0.255752536004807 
1661	 0.255728644288596 
1662	 0.255706453555632 
1663	 0.255676519064342 
1664	 0.255642945705451 
1665	 0.255613716639098 
1666	 0.255570688579332 
1667	 0.255551609394444 
1668	 0.255558384974177 
1669	 0.255542242066788 
1670	 0.255531331363676 
1671	 0.255506092870462 
1672	 0.255458653189403 
1673	 0.255422729023477 
1674	 0.25537547811 
1675	 0.255357274054294 
1676	 0.255357922538309 
1677	 0.255350487125502 
1678	 0.255369616283623 
1679	 0.255357649613049 
1680	 0.255320364979224 
1681	 0.255295091994906 
1682	 0.255254540616439 
1683	 0.25523933534381 
1684	 0.255234044984314 
1685	 0.25524117681605 
1686	 0.255288579961113 
1687	 0.255285675177369 
1688	 0.255273165722624 
1689	 0.255243945506413 
1690	 0.255159876501927 
1691	 0.255124632401606 
1692	 0.25511017761704 
1693	 0.255088360877796 
1694	 0.255079439910815 
1695	 0.255069931825518 
1696	 0.255055902636735 
1697	 0.25504607662779 
1698	 0.255056866127095 
1699	 0.255040973988224 
1700	 0.255009832662513 
1701	 0.25497652294998 
1702	 0.254929127656176 
1703	 0.254884046337338 
1704	 0.254840873886867 
1705	 0.254788507999995 
1706	 0.254727715526048 
1707	 0.254670029636181 
1708	 0.254609932155125 
1709	 0.254543908891565 
1710	 0.254469705495179 
1711	 0.254407681177791 
1712	 0.25435788878215 
1713	 0.25427856427522 
1714	 0.254193000839361 
1715	 0.254107858617988 
1716	 0.25397351946612 
1717	 0.253911098168935 
1718	 0.253896523692822 
1719	 0.253867196253382 
1720	 0.253881292340709 
1721	 0.253843928958807 
1722	 0.253774745977662 
1723	 0.253716703571555 
1724	 0.253641954813787 
1725	 0.253577221900382 
1726	 0.253528495037861 
1727	 0.253454308371245 
1728	 0.253361839855023 
1729	 0.253283016074278 
1730	 0.253193951591021 
1731	 0.25311545032046 
1732	 0.253063654531891 
1733	 0.252970795639348 
1734	 0.252861047769315 
1735	 0.252749184569155 
1736	 0.252605424108887 
1737	 0.252495283257609 
1738	 0.252403400293875 
1739	 0.25229369551034 
1740	 0.252176945367792 
1741	 0.252089824493205 
1742	 0.252007420640937 
1743	 0.251933748335079 
1744	 0.251898025260033 
1745	 0.251814323551392 
1746	 0.251711904352122 
1747	 0.251568862714178 
1748	 0.25144772342227 
1749	 0.251322160168942 
1750	 0.251192228687116 
1751	 0.251097225153251 
1752	 0.250992408156658 
1753	 0.250875968312902 
1754	 0.250751108408994 
1755	 0.250595954799411 
1756	 0.250445194717583 
1757	 0.250311344938039 
1758	 0.250200512970617 
1759	 0.250108879550988 
1760	 0.250027547064636 
1761	 0.249966947289704 
1762	 0.249876637957686 
1763	 0.249752490929232 
1764	 0.249637496641368 
1765	 0.249493259305183 
1766	 0.249334427518058 
1767	 0.24922932060867 
1768	 0.249141797830672 
1769	 0.24905279317714 
1770	 0.248995140366017 
1771	 0.248933936214543 
1772	 0.248862118787314 
1773	 0.248790536470211 
1774	 0.248734750379341 
1775	 0.248717243575936 
1776	 0.248638679217753 
1777	 0.248543444784306 
1778	 0.248464329887358 
1779	 0.248313467405676 
1780	 0.248216122824821 
1781	 0.248155623038566 
1782	 0.248061072871174 
1783	 0.247998765383644 
1784	 0.247948707824022 
1785	 0.247918080482306 
1786	 0.247895755344124 
1787	 0.247900190713201 
1788	 0.247882409082017 
1789	 0.247859030655023 
1790	 0.247828428709805 
1791	 0.247788104211537 
1792	 0.247741891865508 
1793	 0.247687811725091 
1794	 0.247644527580897 
1795	 0.247585779132917 
1796	 0.24753922772106 
1797	 0.247506949191429 
1798	 0.247487255086936 
1799	 0.24748411611837 
1800	 0.247468487600208 
1801	 0.247042259532242 
1802	 0.247231143300742 
1803	 0.247441973281707 
1804	 0.24766368615139 
1805	 0.247892110626351 
1806	 0.248104094228689 
1807	 0.24830618859232 
1808	 0.248478128272906 
1809	 0.248658415771651 
1810	 0.248778569478784 
1811	 0.248849138303397 
1812	 0.24890715396686 
1813	 0.248960749389458 
1814	 0.248961660463038 
1815	 0.248955200095889 
1816	 0.248972400747912 
1817	 0.248967096096925 
1818	 0.248923532340494 
1819	 0.248929492160253 
1820	 0.24896022915679 
1821	 0.248962572853227 
1822	 0.248983966321497 
1823	 0.249001503713149 
1824	 0.249003876098716 
1825	 0.249001603941891 
1826	 0.2490194245737 
1827	 0.249037397544748 
1828	 0.249015781654872 
1829	 0.248959385337151 
1830	 0.248915748611162 
1831	 0.248852616911408 
1832	 0.248789056068939 
1833	 0.248730160516188 
1834	 0.24868400830582 
1835	 0.248650789703382 
1836	 0.248596416035304 
1837	 0.248555000633697 
1838	 0.248528651664372 
1839	 0.248489330207639 
1840	 0.248444893379957 
1841	 0.248393303600431 
1842	 0.248328958804908 
1843	 0.248258552492911 
1844	 0.248174237641351 
1845	 0.24805844885083 
1846	 0.247937501054734 
1847	 0.247829513861359 
1848	 0.247716231035828 
1849	 0.247594405377724 
1850	 0.247460753466657 
1851	 0.247338092975244 
1852	 0.247168987095868 
1853	 0.246969347201926 
1854	 0.246765204560104 
1855	 0.246524751590458 
1856	 0.246256423822689 
1857	 0.24596194371821 
1858	 0.245639388963853 
1859	 0.245298420336252 
1860	 0.244911879221685 
1861	 0.244495012112225 
1862	 0.244023553978626 
1863	 0.243521229725002 
1864	 0.242992691770952 
1865	 0.242417233954879 
1866	 0.241811250273399 
1867	 0.241184367139308 
1868	 0.240486676510882 
1869	 0.239714248483026 
1870	 0.238895491245855 
1871	 0.238013475608885 
1872	 0.237056382012904 
1873	 0.23605977401643 
1874	 0.235032910488357 
1875	 0.23391244518117 
1876	 0.232724275721599 
1877	 0.231445458320076 
1878	 0.230034853297227 
1879	 0.228557472434116 
1880	 0.226996824564342 
1881	 0.225333520985618 
1882	 0.223598954761864 
1883	 0.221798802843716 
1884	 0.219875856875557 
1885	 0.217890517071555 
1886	 0.215819919713632 
1887	 0.213655458769643 
1888	 0.211465535225869 
1889	 0.209164931326948 
1890	 0.20682046921204 
1891	 0.204493886413468 
1892	 0.202090350657781 
1893	 0.199737799436311 
1894	 0.197402161670068 
1895	 0.195104354861766 
1896	 0.192769799861724 
1897	 0.190515024967273 
1898	 0.188280618247902 
1899	 0.186091306741652 
1900	 0.184023511409395 
1901	 0.182025117663814 
1902	 0.180132858273173 
1903	 0.178376133072178 
1904	 0.176671626971067 
1905	 0.175028087502385 
1906	 0.173505995244087 
1907	 0.172073056662312 
1908	 0.170691572117771 
1909	 0.169434850098927 
1910	 0.168260230045158 
1911	 0.167181572407352 
1912	 0.166182528933674 
1913	 0.165226789514425 
1914	 0.164334894205227 
1915	 0.163508839626789 
1916	 0.162729839714466 
1917	 0.162021790267018 
1918	 0.161401368504707 
1919	 0.16082832391967 
1920	 0.16033067193654 
1921	 0.159878952531554 
1922	 0.15946794981167 
1923	 0.159094452146773 
1924	 0.158762140319793 
1925	 0.158460957996539 
1926	 0.158210006547056 
1927	 0.157996095983258 
1928	 0.157847989828173 
1929	 0.157736955283014 
1930	 0.157662508371905 
1931	 0.157646896466455 
1932	 0.157662644659794 
1933	 0.157717711242817 
1934	 0.157803527245252 
1935	 0.157898139042612 
1936	 0.158007335653057 
1937	 0.158148896474364 
1938	 0.158305201359126 
1939	 0.158495133204463 
1940	 0.158725239541594 
1941	 0.158966322629072 
1942	 0.15922977920043 
1943	 0.159529516265144 
1944	 0.159836804082389 
1945	 0.160170796739287 
1946	 0.16050607631201 
1947	 0.160840065908294 
1948	 0.161202470343477 
1949	 0.16158466157459 
1950	 0.161975228463574 
1951	 0.162385206739396 
1952	 0.162819680504282 
1953	 0.16322508398214 
1954	 0.16365223726512 
1955	 0.164100494696457 
1956	 0.16454752270376 
1957	 0.165020742286133 
1958	 0.165532330681246 
1959	 0.166023284593642 
1960	 0.166515935887488 
1961	 0.167018873896383 
1962	 0.167513628750329 
1963	 0.168031580090662 
1964	 0.16857004944447 
1965	 0.169116108527721 
1966	 0.169658039598236 
1967	 0.170213159072269 
1968	 0.170770445769685 
1969	 0.17133273496069 
1970	 0.171886539164221 
1971	 0.17244253326842 
1972	 0.173006044625607 
1973	 0.173562238197736 
1974	 0.174129587088767 
1975	 0.174722546024428 
1976	 0.175293771004943 
1977	 0.175854478517379 
1978	 0.176416339663112 
1979	 0.176978455815915 
1980	 0.177557668296773 
1981	 0.178128445344245 
1982	 0.178703797495876 
1983	 0.179279626228914 
1984	 0.179847626991534 
1985	 0.180425019664829 
1986	 0.181021621810254 
1987	 0.181600821999715 
1988	 0.182170087724062 
1989	 0.182746930064777 
1990	 0.183313505125538 
1991	 0.183897060322729 
1992	 0.184465482733391 
1993	 0.185034847527387 
1994	 0.185597630226669 
1995	 0.186142946762596 
1996	 0.186701134869372 
1997	 0.187269636209124 
1998	 0.187835836170172 
1999	 0.188410573331994 
2000	 0.188972241037845 
2001	 0.18953297200585 
2002	 0.190077775707989 
2003	 0.190634239104835 
2004	 0.191160879076059 
2005	 0.191696646028013 
2006	 0.192242297617242 
2007	 0.192765260443985 
2008	 0.193268642228174 
2009	 0.193781461989598 
2010	 0.194287687170441 
2011	 0.194788654123707 
2012	 0.195298884761671 
2013	 0.195792953606045 
2014	 0.196257841402719 
2015	 0.196738375492703 
2016	 0.197245203353693 
2017	 0.197749809341706 
2018	 0.198249112050469 
2019	 0.198771534102312 
2020	 0.199268116187468 
2021	 0.199735060801138 
2022	 0.200217919956924 
2023	 0.200719721731278 
2024	 0.201194377259814 
2025	 0.201648233508457 
2026	 0.202112533816287 
2027	 0.2025701225563 
2028	 0.203018328588233 
2029	 0.203477920814593 
2030	 0.20395997245859 
2031	 0.204406540084408 
2032	 0.204834216848146 
2033	 0.205270382851483 
2034	 0.205702176615906 
2035	 0.206118156155931 
2036	 0.206536853509702 
2037	 0.206938494633883 
2038	 0.207312630676157 
2039	 0.207688378296278 
2040	 0.208050340615028 
2041	 0.208427788211986 
2042	 0.208784508797526 
2043	 0.209142966312153 
2044	 0.209513949949503 
2045	 0.209891941551444 
2046	 0.210266943420281 
2047	 0.210663425632827 
2048	 0.21103149093499 
2049	 0.211383541936972 
2050	 0.211735757331389 
2051	 0.21207767299445 
2052	 0.212411623881937 
2053	 0.212740106806354 
2054	 0.213066472296915 
2055	 0.213374014886232 
2056	 0.213694407568941 
2057	 0.214014754532143 
2058	 0.214338823526786 
2059	 0.214662853787695 
2060	 0.214984060939839 
2061	 0.215313773941907 
2062	 0.215652206774302 
2063	 0.215985957210046 
2064	 0.216337150513287 
2065	 0.216661982789844 
2066	 0.21697442352968 
2067	 0.217277907322334 
2068	 0.217552693104164 
2069	 0.217841846409148 
2070	 0.218129881073265 
2071	 0.218415744907703 
2072	 0.21870285279803 
2073	 0.218995863611401 
2074	 0.219280787763805 
2075	 0.219568989903823 
2076	 0.219840143663214 
2077	 0.22009122634833 
2078	 0.220359021743852 
2079	 0.220622955189097 
2080	 0.220888777734779 
2081	 0.221162397468542 
2082	 0.221439978682491 
2083	 0.22171443182188 
2084	 0.221989031134886 
2085	 0.222281094055802 
2086	 0.222600055447342 
2087	 0.222885309178778 
2088	 0.223167361925793 
2089	 0.22344250601896 
2090	 0.223703005537883 
2091	 0.223957571480876 
2092	 0.224205169829491 
2093	 0.224454531386237 
2094	 0.224689578684638 
2095	 0.224931225405789 
2096	 0.22517081326789 
2097	 0.225425338987054 
2098	 0.225701106749329 
2099	 0.225948723500147 
2100	 0.226214694671833 
2101	 0.22650469216711 
2102	 0.226762779971686 
2103	 0.227006980166311 
2104	 0.227253794021065 
2105	 0.227474998004269 
2106	 0.227727691182666 
2107	 0.228000539843275 
2108	 0.228261047324523 
2109	 0.228536030404556 
2110	 0.228800083769879 
2111	 0.229044988181761 
2112	 0.229301054826704 
2113	 0.229563611789039 
2114	 0.229831785792476 
2115	 0.230075419338591 
2116	 0.23031290875179 
2117	 0.230545557506613 
2118	 0.230753124909606 
2119	 0.230980884044756 
2120	 0.231228168813131 
2121	 0.231449693886994 
2122	 0.23165405290873 
2123	 0.231874378846346 
2124	 0.232085476847104 
2125	 0.232303686253769 
2126	 0.232567694185245 
2127	 0.232776675023391 
2128	 0.232943236586859 
2129	 0.233123533904693 
2130	 0.233297089518331 
2131	 0.233441628367059 
2132	 0.233585429838285 
2133	 0.233742808045954 
2134	 0.233869587255762 
2135	 0.233972164845277 
2136	 0.234056972298893 
2137	 0.234128745843535 
2138	 0.234183650235881 
2139	 0.234187952400163 
2140	 0.234231614563679 
2141	 0.23430412178067 
2142	 0.234340239242729 
2143	 0.234384185639125 
2144	 0.234400368858394 
2145	 0.234368985566907 
2146	 0.234347553506379 
2147	 0.234315913898838 
2148	 0.234284926659918 
2149	 0.234263598630793 
2150	 0.234254381160395 
2151	 0.234217153170501 
2152	 0.234173022534426 
2153	 0.234131871641972 
2154	 0.234077835682545 
2155	 0.234016906863843 
2156	 0.233984739669519 
2157	 0.233896081330208 
2158	 0.233759891666336 
2159	 0.23362955108152 
2160	 0.233473820750174 
2161	 0.233315894125382 
2162	 0.233138283825053 
2163	 0.23297922470027 
2164	 0.232819880337564 
2165	 0.232666054504731 
2166	 0.232510480027151 
2167	 0.232378157569988 
2168	 0.232211898376092 
2169	 0.232006030803429 
2170	 0.231854497686424 
2171	 0.231728116918002 
2172	 0.231574948640025 
2173	 0.231455502792149 
2174	 0.231290060118801 
2175	 0.231072570963932 
2176	 0.230875134846386 
2177	 0.230680797143204 
2178	 0.230470339713132 
2179	 0.230230828415211 
2180	 0.230021523897167 
2181	 0.229814913469136 
2182	 0.229615234977543 
2183	 0.229432367494715 
2184	 0.229278807541955 
2185	 0.229083235952801 
2186	 0.228863388444241 
2187	 0.228662585063362 
2188	 0.228456790298353 
2189	 0.228246010792627 
2190	 0.228028887634162 
2191	 0.227839708000956 
2192	 0.227632650205944 
2193	 0.22747449315101 
2194	 0.227378672307253 
2195	 0.227253894156998 
2196	 0.227135506666848 
2197	 0.227024096417485 
2198	 0.226902621559545 
2199	 0.226798454542933 
2200	 0.226698687524226 
2201	 0.22662534501598 
2202	 0.22657867834855 
2203	 0.226527009776139 
2204	 0.226499011114011 
2205	 0.226500781048422 
2206	 0.226503818099921 
2207	 0.226513047091568 
2208	 0.226530693216354 
2209	 0.226566915257711 
2210	 0.226599942691941 
2211	 0.226630325230164 
2212	 0.226678732982349 
2213	 0.226748026136063 
2214	 0.226802904913407 
2215	 0.226869599522594 
2216	 0.226919542061215 
2217	 0.226935874722344 
2218	 0.226985804030705 
2219	 0.227052479990888 
2220	 0.227112239805134 
2221	 0.227193123664625 
2222	 0.227266824917595 
2223	 0.227306397483514 
2224	 0.227352395192354 
2225	 0.227384839992344 
2226	 0.227411854081213 
2227	 0.227413351694976 
2228	 0.22739676398942 
2229	 0.22737837030649 
2230	 0.227338363010427 
2231	 0.227310177344151 
2232	 0.227280345628067 
2233	 0.227255535084949 
2234	 0.227226276865005 
2235	 0.227204948742318 
2236	 0.227202155429036 
2237	 0.227182040232949 
2238	 0.227146717386399 
2239	 0.227127005145456 
2240	 0.227138718729748 
2241	 0.227098634674633 
2242	 0.227031237699797 
2243	 0.226974702990186 
2244	 0.226908651695508 
2245	 0.226785027236189 
2246	 0.226720819620039 
2247	 0.226673701467883 
2248	 0.226599381819929 
2249	 0.226513840686366 
2250	 0.226440204515821 
2251	 0.226349551297372 
2252	 0.226292373060352 
2253	 0.226263603768038 
2254	 0.22620485015139 
2255	 0.226151378316801 
2256	 0.226093004893408 
2257	 0.226007331089446 
2258	 0.225950744685343 
2259	 0.225916033603211 
2260	 0.225869780150834 
2261	 0.225821134311602 
2262	 0.225785016957113 
2263	 0.225767241244544 
2264	 0.225724478216134 
2265	 0.225665333833254 
2266	 0.225625502790363 
2267	 0.225560546512962 
2268	 0.225527671696672 
2269	 0.225533536279383 
2270	 0.225552040409036 
2271	 0.225546670420191 
2272	 0.225530747334679 
2273	 0.225476160539701 
2274	 0.225387967538079 
2275	 0.225306500372922 
2276	 0.225194163333754 
2277	 0.225116092033658 
2278	 0.225048321829138 
2279	 0.224983252863168 
2280	 0.224939721459983 
2281	 0.224872960476611 
2282	 0.224790242974773 
2283	 0.224724630727432 
2284	 0.224646046576974 
2285	 0.224601845048054 
2286	 0.224587712862435 
2287	 0.224562785402438 
2288	 0.224569896478398 
2289	 0.224540356196473 
2290	 0.224497898736728 
2291	 0.224435426949125 
2292	 0.224344591261321 
2293	 0.224253743251853 
2294	 0.224139009316706 
2295	 0.224040956874692 
2296	 0.223950131569785 
2297	 0.223846569452962 
2298	 0.223771493497687 
2299	 0.223687894505898 
2300	 0.223625561634315 
2301	 0.223526208471849 
2302	 0.223432386723924 
2303	 0.223366868968248 
2304	 0.223255642515291 
2305	 0.223168842082732 
2306	 0.223029460576038 
2307	 0.222828539583371 
2308	 0.222679219036746 
2309	 0.222525895936806 
2310	 0.222371432714912 
2311	 0.222234833635551 
2312	 0.222096852865385 
2313	 0.221945061507219 
2314	 0.221817846256622 
2315	 0.221729867151219 
2316	 0.221605833651615 
2317	 0.221467659399693 
2318	 0.221330601999737 
2319	 0.221186514516868 
2320	 0.221024726397776 
2321	 0.220863981472239 
2322	 0.220684747621396 
2323	 0.220445734293163 
2324	 0.22026692701277 
2325	 0.220113649502561 
2326	 0.219959590294116 
2327	 0.219825514897515 
2328	 0.219726868156219 
2329	 0.219572468802513 
2330	 0.219413961640203 
2331	 0.219290499531838 
2332	 0.219121961514408 
2333	 0.218957554149746 
2334	 0.218838030797669 
2335	 0.218735644996137 
2336	 0.218640560690394 
2337	 0.218553212083126 
2338	 0.218468232806887 
2339	 0.218291330478853 
2340	 0.218052560347218 
2341	 0.217818689451958 
2342	 0.21752935277702 
2343	 0.217292756295044 
2344	 0.217140390460055 
2345	 0.21693566276405 
2346	 0.216744919952633 
2347	 0.216545012474421 
2348	 0.216319025816508 
2349	 0.216083907291323 
2350	 0.215867771371302 
2351	 0.215633157510163 
2352	 0.215330322274792 
2353	 0.215108762722472 
2354	 0.214977276156126 
2355	 0.214731286913401 
2356	 0.214487044622368 
2357	 0.214187715859981 
2358	 0.213731958714539 
2359	 0.213407902164222 
2360	 0.213114157565991 
2361	 0.212851953579201 
2362	 0.212677115903984 
2363	 0.212475689615817 
2364	 0.212287444181811 
2365	 0.21209129317049 
2366	 0.211896267234108 
2367	 0.211687575123923 
2368	 0.211525922837323 
2369	 0.211258918350985 
2370	 0.210912150858894 
2371	 0.210575635531586 
2372	 0.210263354673563 
2373	 0.209916659017114 
2374	 0.209635798644885 
2375	 0.209344591537882 
2376	 0.208961883208267 
2377	 0.208626857694975 
2378	 0.208374026209077 
2379	 0.208093037859898 
2380	 0.207796636616988 
2381	 0.207444361083401 
2382	 0.207029247529871 
2383	 0.206695562276078 
2384	 0.206381991009315 
2385	 0.206088396511985 
2386	 0.205813086871247 
2387	 0.205523412970451 
2388	 0.205242621099419 
2389	 0.204917078258489 
2390	 0.204590522669198 
2391	 0.204242478558681 
2392	 0.203873305166772 
2393	 0.203540579282195 
2394	 0.203211273282691 
2395	 0.202872617200298 
2396	 0.20254863157376 
2397	 0.202275432099377 
2398	 0.201969568948554 
2399	 0.201668988066363 
2400	 0.20137311734607 
2401	 0.20097032947464 
2402	 0.200583764528764 
2403	 0.200260640719146 
2404	 0.19992829359691 
2405	 0.199581469461045 
2406	 0.19924301446079 
2407	 0.198836603714488 
2408	 0.198368117543946 
2409	 0.197864197301636 
2410	 0.19733108684844 
2411	 0.196871184667186 
2412	 0.196503993899137 
2413	 0.19619012526831 
2414	 0.195848249486022 
2415	 0.19552487568418 
2416	 0.195174964567904 
2417	 0.194759134040243 
2418	 0.194348644146647 
2419	 0.193937949851809 
2420	 0.193524247110586 
2421	 0.193091093559803 
2422	 0.192681496127833 
2423	 0.192307299543184 
2424	 0.191908923575734 
2425	 0.1914730921086 
2426	 0.191040382407542 
2427	 0.190654611143351 
2428	 0.190229708802605 
2429	 0.189767981637797 
2430	 0.189347387540481 
2431	 0.188926999436187 
2432	 0.188444449807136 
2433	 0.187924373178141 
2434	 0.187430330747079 
2435	 0.186873532694851 
2436	 0.186452453580753 
2437	 0.186161802293244 
2438	 0.185806881001955 
2439	 0.18552732054839 
2440	 0.185137220265142 
2441	 0.184657699172771 
2442	 0.184143369875014 
2443	 0.183538352140898 
2444	 0.183041552982114 
2445	 0.182517780384656 
2446	 0.18209081231312 
2447	 0.18176057952988 
2448	 0.181426177665166 
2449	 0.181217115966386 
2450	 0.180900093375324 
2451	 0.180554398100921 
2452	 0.180230961133408 
2453	 0.179817402506464 
2454	 0.179389117716819 
2455	 0.178978782704216 
2456	 0.178597787836285 
2457	 0.1781706461791 
2458	 0.177784403774957 
2459	 0.177532453638602 
2460	 0.177140893097442 
2461	 0.176649698038941 
2462	 0.176216888158712 
2463	 0.175725591098234 
2464	 0.175318384261583 
2465	 0.174995422345009 
2466	 0.174552120672506 
2467	 0.174135239844718 
2468	 0.173721111851653 
2469	 0.173170927635134 
2470	 0.172857215379907 
2471	 0.172501930376389 
2472	 0.17227469749569 
2473	 0.172052058674671 
2474	 0.171783226857584 
2475	 0.171395743016781 
2476	 0.170962995707077 
2477	 0.170644149635011 
2478	 0.170260351456236 
2479	 0.170079899517527 
2480	 0.169719343210872 
2481	 0.168969443074766 
2482	 0.168370346693151 
2483	 0.167803682135922 
2484	 0.167448156756201 
2485	 0.167354705910135 
2486	 0.167150928643892 
2487	 0.166909886507734 
2488	 0.166686465263497 
2489	 0.166466007936448 
2490	 0.166220537392357 
2491	 0.165996680644837 
2492	 0.165853771843077 
2493	 0.165488619683891 
2494	 0.165136256465292 
2495	 0.164970513934993 
2496	 0.164613955571957 
2497	 0.164396986091758 
2498	 0.164118004776513 
2499	 0.163497872321212 
2500	 0.163093748613954 
