Wavelength	mm1900008.asd
350	 4.79616228773258E-02 
351	 5.50084495711107E-02 
352	 4.83163640741707E-02 
353	 0.032505030213818 
354	 4.09919972682018E-02 
355	 4.31231503561373E-02 
356	 3.93707478515103E-02 
357	 3.80199261416093E-02 
358	 4.41689285447438E-02 
359	 4.42524311583927E-02 
360	 4.01577666778451E-02 
361	 4.23783464100712E-02 
362	 3.63292602381493E-02 
363	 3.40901494215896E-02 
364	 0.039598404695019 
365	 3.97378879888911E-02 
366	 3.83295542311428E-02 
367	 3.74302442657558E-02 
368	 3.84418111640685E-02 
369	 4.19869713017664E-02 
370	 4.25948334774452E-02 
371	 4.11865375654366E-02 
372	 4.24594639375371E-02 
373	 3.91561940417293E-02 
374	 3.89411037791076E-02 
375	 4.40360611865976E-02 
376	 4.45278281355162E-02 
377	 4.08854264001255E-02 
378	 3.90336531030647E-02 
379	 4.35743015393313E-02 
380	 4.59735308222532E-02 
381	 4.53512909844279E-02 
382	 4.32773054392623E-02 
383	 4.27597252298558E-02 
384	 4.29195119883033E-02 
385	 4.19925401609311E-02 
386	 4.05706120943833E-02 
387	 4.42479209829245E-02 
388	 4.57459075731953E-02 
389	 4.53668309875136E-02 
390	 4.53495738814369E-02 
391	 4.43892831052539E-02 
392	 4.41962922538114E-02 
393	 4.52081136391326E-02 
394	 4.66156204935057E-02 
395	 4.71906708026558E-02 
396	 4.66783464684196E-02 
397	 4.56346146958766E-02 
398	 4.57843932163903E-02 
399	 4.67150856896032E-02 
400	 4.81139086448869E-02 
401	 4.94490476152362E-02 
402	 4.92092126554984E-02 
403	 4.83362985704128E-02 
404	 4.77170294929456E-02 
405	 4.79411350036267E-02 
406	 4.87621397785851E-02 
407	 4.96072957696315E-02 
408	 4.97375269862334E-02 
409	 4.77443398537004E-02 
410	 4.76282378456911E-02 
411	 4.89863598173879E-02 
412	 0.049529800547171 
413	 5.02286040145389E-02 
414	 5.01090351559918E-02 
415	 4.92696149339035E-02 
416	 4.93140655903726E-02 
417	 4.91137361301546E-02 
418	 4.90985383662707E-02 
419	 4.96578606061603E-02 
420	 4.98527792966164E-02 
421	 4.98357396242261E-02 
422	 4.98816423312824E-02 
423	 5.02180382456348E-02 
424	 4.97030546789948E-02 
425	 4.91435232356079E-02 
426	 4.91524762311954E-02 
427	 4.96228032326275E-02 
428	 4.98104005085938E-02 
429	 4.97587927677622E-02 
430	 4.97211417525885E-02 
431	 4.94737762326625E-02 
432	 4.92197161759878E-02 
433	 4.91802754521174E-02 
434	 0.049544086319041 
435	 4.96757436713062E-02 
436	 4.94035177034721E-02 
437	 4.88637723830332E-02 
438	 4.86251952715245E-02 
439	 0.048958080152977 
440	 4.93702621535761E-02 
441	 4.91499531366476E-02 
442	 4.92849487093146E-02 
443	 4.94136808753233E-02 
444	 4.93536750080765E-02 
445	 4.93907963764887E-02 
446	 0.049384473009233 
447	 4.94400460106037E-02 
448	 4.96216324893938E-02 
449	 4.95163128757692E-02 
450	 4.96154667250888E-02 
451	 4.98529697104601E-02 
452	 4.97169810777475E-02 
453	 4.98742191695472E-02 
454	 5.00564424976796E-02 
455	 5.00505253890927E-02 
456	 5.02094045368835E-02 
457	 5.01419633965381E-02 
458	 4.99319883689942E-02 
459	 4.98713239382481E-02 
460	 5.00420753578082E-02 
461	 5.00730095542203E-02 
462	 4.98688459972263E-02 
463	 4.97651955043732E-02 
464	 4.98352129953002E-02 
465	 4.99324447929924E-02 
466	 4.99160975718145E-02 
467	 4.99786339528305E-02 
468	 5.00015559721252E-02 
469	 4.99281514742693E-02 
470	 4.97722760945004E-02 
471	 4.97436548445849E-02 
472	 0.049731219710119 
473	 4.96614858782955E-02 
474	 4.97007735281125E-02 
475	 4.96463871867843E-02 
476	 4.95302070031435E-02 
477	 4.94927184503905E-02 
478	 4.96376241954186E-02 
479	 4.97518309237607E-02 
480	 4.97434285915219E-02 
481	 4.97191744915922E-02 
482	 4.98594771999888E-02 
483	 5.01213701979341E-02 
484	 0.050308830542778 
485	 4.98872900553219E-02 
486	 0.049676798887561 
487	 4.98030348746439E-02 
488	 4.97951334357715E-02 
489	 4.97586671397076E-02 
490	 4.97615193207223E-02 
491	 4.98168282742191E-02 
492	 4.98150222682127E-02 
493	 4.97105725094582E-02 
494	 4.96647209252385E-02 
495	 4.98698639627968E-02 
496	 4.99529935473754E-02 
497	 0.049863895494536 
498	 4.97242773753426E-02 
499	 4.98615015164242E-02 
500	 4.98567730150938E-02 
501	 4.97660429894783E-02 
502	 4.97579958451915E-02 
503	 4.98451937694742E-02 
504	 4.98563849936546E-02 
505	 4.97701500269716E-02 
506	 4.97080893145437E-02 
507	 4.97406439593786E-02 
508	 4.98613499921448E-02 
509	 4.99932849515276E-02 
510	 4.99299738250888E-02 
511	 4.97723372516676E-02 
512	 4.96849399149048E-02 
513	 4.98215791027698E-02 
514	 4.99111211573495E-02 
515	 0.049935447443771 
516	 4.99521812685693E-02 
517	 5.01138740695173E-02 
518	 5.00067994234904E-02 
519	 4.98554301259995E-02 
520	 0.049983438747117 
521	 5.00491020192504E-02 
522	 5.00553821792651E-02 
523	 5.00271396743289E-02 
524	 4.99917697013531E-02 
525	 4.99625972198777E-02 
526	 4.99845322974052E-02 
527	 5.00763761763111E-02 
528	 5.01824267663857E-02 
529	 5.01645408491467E-02 
530	 5.01090608952421E-02 
531	 5.02227425100083E-02 
532	 5.02356486237107E-02 
533	 5.03003506560321E-02 
534	 5.04547798947855E-02 
535	 5.03518149030583E-02 
536	 5.03595332001821E-02 
537	 5.04760223438683E-02 
538	 5.05616902063639E-02 
539	 5.06231128816457E-02 
540	 5.06390788330047E-02 
541	 5.06422309534336E-02 
542	 5.07373701349621E-02 
543	 5.07714595168268E-02 
544	 5.07984041051485E-02 
545	 5.09121851078096E-02 
546	 5.11517006804264E-02 
547	 5.12384611652287E-02 
548	 5.12251216986588E-02 
549	 0.051428615357771 
550	 5.15007341758088E-02 
551	 0.051594066120422 
552	 5.18172803557721E-02 
553	 5.19280419017701E-02 
554	 5.20173030703867E-02 
555	 0.052161896317107 
556	 5.24123399499328E-02 
557	 5.26249937770452E-02 
558	 0.052791254561684 
559	 5.29737678443601E-02 
560	 5.33435536238947E-02 
561	 5.36005425342022E-02 
562	 5.38054490836309E-02 
563	 5.41097594118022E-02 
564	 5.44069076975247E-02 
565	 0.05471096776869 
566	 5.50292713754857E-02 
567	 5.53552185874508E-02 
568	 5.57557829884289E-02 
569	 0.056205976975881 
570	 5.66689369398452E-02 
571	 5.71577246489168E-02 
572	 5.76195544500565E-02 
573	 5.81081546798674E-02 
574	 5.87300718297858E-02 
575	 5.92308823658351E-02 
576	 5.97235665659491E-02 
577	 6.03001978388433E-02 
578	 6.08747279389379E-02 
579	 6.14957741906481E-02 
580	 6.21304675091522E-02 
581	 6.27297842878289E-02 
582	 6.33754648225059E-02 
583	 6.40592027774743E-02 
584	 6.47664617710179E-02 
585	 6.54890850586497E-02 
586	 6.62627198585928E-02 
587	 6.70602346429243E-02 
588	 6.78467083739769E-02 
589	 6.86459589492577E-02 
590	 6.94479744101042E-02 
591	 7.02523204081576E-02 
592	 7.10665590737716E-02 
593	 0.071785035604326 
594	 7.24892065973053E-02 
595	 7.32454243635022E-02 
596	 7.39834945955272E-02 
597	 7.46979360291303E-02 
598	 7.53945891563646E-02 
599	 7.60927844972583E-02 
600	 7.68329665492089E-02 
601	 7.75499180791185E-02 
602	 7.82082542870666E-02 
603	 7.88480773077367E-02 
604	 7.94994779415071E-02 
605	 8.01358498752542E-02 
606	 8.07293976212173E-02 
607	 8.13811306081286E-02 
608	 8.19732975659621E-02 
609	 8.24978066142984E-02 
610	 8.30836877900169E-02 
611	 8.36408649529652E-02 
612	 8.41284018661303E-02 
613	 8.45341471508332E-02 
614	 8.48954431455377E-02 
615	 8.52906964910066E-02 
616	 8.56819499667291E-02 
617	 8.59656969997506E-02 
618	 8.63470954206165E-02 
619	 8.67165602365405E-02 
620	 8.69921219200033E-02 
621	 8.72434035459564E-02 
622	 8.75208910519683E-02 
623	 8.77922841958906E-02 
624	 8.80074498067297E-02 
625	 8.82664945065369E-02 
626	 8.85190191757662E-02 
627	 8.87431960663121E-02 
628	 8.89698558362908E-02 
629	 8.91994716591634E-02 
630	 8.94049486229555E-02 
631	 8.95777084636013E-02 
632	 8.98154547000752E-02 
633	 9.00064103006776E-02 
634	 0.090156469929494 
635	 9.03652460238887E-02 
636	 9.05581986067655E-02 
637	 9.07559384036542E-02 
638	 9.09662012192722E-02 
639	 9.11276088336688E-02 
640	 9.12583119997289E-02 
641	 9.14182484107202E-02 
642	 9.16631681633473E-02 
643	 0.091848689961043 
644	 9.20447995180955E-02 
645	 9.22764494820368E-02 
646	 9.24739065845234E-02 
647	 9.26368234667429E-02 
648	 9.28394624482947E-02 
649	 9.31264597785254E-02 
650	 0.09331747110447 
651	 9.35380854682378E-02 
652	 9.37993733567725E-02 
653	 9.40123026823857E-02 
654	 9.42636563340631E-02 
655	 9.44965732139775E-02 
656	 9.46959016275723E-02 
657	 9.50223224277687E-02 
658	 9.53092131813654E-02 
659	 9.55618005302144E-02 
660	 9.58542334624842E-02 
661	 9.61061007410891E-02 
662	 9.64008288268091E-02 
663	 0.096746300900846 
664	 9.70193284961422E-02 
665	 9.73268517714542E-02 
666	 9.76488743206717E-02 
667	 9.79481580307705E-02 
668	 9.82711980853344E-02 
669	 9.86006318131676E-02 
670	 9.89403508512599E-02 
671	 9.93086193732219E-02 
672	 9.96465707197161E-02 
673	 0.100011864038136 
674	 0.100426706831461 
675	 0.100779663016524 
676	 0.101137983661188 
677	 0.101524111936791 
678	 0.101942147000304 
679	 0.102404854194388 
680	 0.102850113757752 
681	 0.10325916806314 
682	 0.103676442044599 
683	 0.104136238877215 
684	 0.10459631858643 
685	 0.105024281292459 
686	 0.105502934043489 
687	 0.106017959260514 
688	 0.106531732500035 
689	 0.106998180418345 
690	 0.107479232189138 
691	 0.107972220642222 
692	 0.108472208039428 
693	 0.108992652385471 
694	 0.109502613898464 
695	 0.110025843594472 
696	 0.110588664429489 
697	 0.111109348834417 
698	 0.111652530260643 
699	 0.112225282727392 
700	 0.112767197874117 
701	 0.113338724076579 
702	 0.113894303547695 
703	 0.114409260381539 
704	 0.114980698002728 
705	 0.115549733696763 
706	 0.116103916087885 
707	 0.116657374883319 
708	 0.117233804588003 
709	 0.117835007429735 
710	 0.118429293122282 
711	 0.118941446783245 
712	 0.119499895916407 
713	 0.12007458665593 
714	 0.120614773901618 
715	 0.121168134488076 
716	 0.121749496624176 
717	 0.1223105168572 
718	 0.122774400842429 
719	 0.123292131437852 
720	 0.123820226557755 
721	 0.124316597665014 
722	 0.124802007978605 
723	 0.125272580706549 
724	 0.125728521677514 
725	 0.12617126234159 
726	 0.126604886934072 
727	 0.127001178940626 
728	 0.127363430680607 
729	 0.127726214336606 
730	 0.128128249827924 
731	 0.128508242569815 
732	 0.128818218986918 
733	 0.12908329226624 
734	 0.129335136013804 
735	 0.129574474213924 
736	 0.129792015404109 
737	 0.130013415590178 
738	 0.130234201902207 
739	 0.130428726576915 
740	 0.130554050521222 
741	 0.130671435746485 
742	 0.130746702106499 
743	 0.130769392467141 
744	 0.130854778849383 
745	 0.130883182997165 
746	 0.130873675619543 
747	 0.130894031835463 
748	 0.130848352507835 
749	 0.130769585312972 
750	 0.130693306877394 
751	 0.13064213716177 
752	 0.130534770540567 
753	 0.130382432733715 
754	 0.130209950981226 
755	 0.130003414554244 
756	 0.129839651656281 
757	 0.129674580715891 
758	 0.129422300894434 
759	 0.12919642763186 
760	 0.128957041663959 
761	 0.128682162182896 
762	 0.128390369387763 
763	 0.128101583199234 
764	 0.127817139778707 
765	 0.12752568344482 
766	 0.127190649494665 
767	 0.126874423763643 
768	 0.126570511803772 
769	 0.126239896413712 
770	 0.125895038301187 
771	 0.125526757898888 
772	 0.125146267600939 
773	 0.124788892190233 
774	 0.124401008414832 
775	 0.124030422864274 
776	 0.123703278862718 
777	 0.12332437857119 
778	 0.122946340196472 
779	 0.122578732425058 
780	 0.122207939549961 
781	 0.121802815535828 
782	 0.121414888865569 
783	 0.12104407511952 
784	 0.120634300795559 
785	 0.120250261876583 
786	 0.119896889382808 
787	 0.119556128411284 
788	 0.119183220735962 
789	 0.118834994178886 
790	 0.118470684892153 
791	 0.118047126242263 
792	 0.117703383859612 
793	 0.117372566003839 
794	 0.117021216127631 
795	 0.116655231562273 
796	 0.116262735567783 
797	 0.11590785165182 
798	 0.115611625992742 
799	 0.115300169000077 
800	 0.114960870515065 
801	 0.114622560144215 
802	 0.114310837159865 
803	 0.113974964613216 
804	 0.113664351033439 
805	 0.11336480860346 
806	 0.113036538636669 
807	 0.112799468856422 
808	 0.112519540433407 
809	 0.112164062444626 
810	 0.111864419205994 
811	 0.111609587364425 
812	 0.111346461141897 
813	 0.111053174615805 
814	 0.110825328220345 
815	 0.110601094231127 
816	 0.110354141698529 
817	 0.110083994802955 
818	 0.109835731880902 
819	 0.109630506691943 
820	 0.109433831597204 
821	 0.109178082856606 
822	 0.108973938426018 
823	 0.108748337810397 
824	 0.108488756438799 
825	 0.108323343635582 
826	 0.108195135530113 
827	 0.108039271284323 
828	 0.107830368119629 
829	 0.10768076535312 
830	 0.107475559954153 
831	 0.107257184977319 
832	 0.10712444737157 
833	 0.107011357250497 
834	 0.106880764034217 
835	 0.106727182479395 
836	 0.106577615303308 
837	 0.106490931951569 
838	 0.106403479960162 
839	 0.106282541168582 
840	 0.106184955571225 
841	 0.106027135846525 
842	 0.105900092293777 
843	 0.105867703245157 
844	 0.105754617625765 
845	 0.105674446303954 
846	 0.105607559461687 
847	 0.105500925613455 
848	 0.105487670756388 
849	 0.105462189000146 
850	 0.105392954917021 
851	 0.105328773240684 
852	 0.105323010248928 
853	 0.10530712012339 
854	 0.105255235431646 
855	 0.105229036031153 
856	 0.105229295595169 
857	 0.105213630722072 
858	 0.105175366313878 
859	 0.105233213272079 
860	 0.10524450493936 
861	 0.105223643542263 
862	 0.105226530537847 
863	 0.105211074269885 
864	 0.105263919853864 
865	 0.105360523521122 
866	 0.105411537261912 
867	 0.105418393509303 
868	 0.105436362380754 
869	 0.105490604602878 
870	 0.1055667387537 
871	 0.105647847271557 
872	 0.105711812409591 
873	 0.105761912725758 
874	 0.105839639767544 
875	 0.105980698493491 
876	 0.106103072276386 
877	 0.106152637684225 
878	 0.106217959893925 
879	 0.106374619936425 
880	 0.106527371114515 
881	 0.106582229304823 
882	 0.106727940880186 
883	 0.106890044846869 
884	 0.107025154933827 
885	 0.107128698966855 
886	 0.107289275978848 
887	 0.107485655116348 
888	 0.107663469263551 
889	 0.10776980025555 
890	 0.107964878537001 
891	 0.108143854800153 
892	 0.10828775446929 
893	 0.108519250040125 
894	 0.108749736342708 
895	 0.108941954199397 
896	 0.10911515558145 
897	 0.10936779309665 
898	 0.109623949721232 
899	 0.109841213239601 
900	 0.110030104949145 
901	 0.110313913044559 
902	 0.110599089918351 
903	 0.110858649692353 
904	 0.111107606958731 
905	 0.111431983667165 
906	 0.111687845125065 
907	 0.111922372075492 
908	 0.112253228465839 
909	 0.112645224720087 
910	 0.112931976250186 
911	 0.113160593978174 
912	 0.11349597279999 
913	 0.113822819981398 
914	 0.114172828024455 
915	 0.114530600932699 
916	 0.114845184991169 
917	 0.115225674805054 
918	 0.11557238128662 
919	 0.115873181991495 
920	 0.11623973576399 
921	 0.116662494869634 
922	 0.117088820873916 
923	 0.117499180014106 
924	 0.117935224262937 
925	 0.118348463259982 
926	 0.118771310968454 
927	 0.119206776464326 
928	 0.119573207400515 
929	 0.120091678379321 
930	 0.120611339826477 
931	 0.121026966214106 
932	 0.121570016886773 
933	 0.122027022133681 
934	 0.122491552565542 
935	 0.123054624817707 
936	 0.123540168565284 
937	 0.123963890880939 
938	 0.124444346602663 
939	 0.125059508977549 
940	 0.125627827441515 
941	 0.126173676781788 
942	 0.126740212521225 
943	 0.12735549222288 
944	 0.127954226487034 
945	 0.128488763518479 
946	 0.129038055862156 
947	 0.129694057377234 
948	 0.13034503105889 
949	 0.130945494795131 
950	 0.131477465152826 
951	 0.131995175169322 
952	 0.13279036423421 
953	 0.133518939436739 
954	 0.134159051388311 
955	 0.134857645513895 
956	 0.135469648214651 
957	 0.136193103512742 
958	 0.136962627879907 
959	 0.137595624305461 
960	 0.138275816364621 
961	 0.139076288987109 
962	 0.139856296612639 
963	 0.140429245146258 
964	 0.141158070847994 
965	 0.141943569940741 
966	 0.142747375619182 
967	 0.143579180744548 
968	 0.144345370260906 
969	 0.145199532619749 
970	 0.146013763328193 
971	 0.146566114418849 
972	 0.147310703081334 
973	 0.148231100917595 
974	 0.149168789042625 
975	 0.149960835183362 
976	 0.150867645720046 
977	 0.151755328628029 
978	 0.152540610152991 
979	 0.153252044275352 
980	 0.154198263380628 
981	 0.155176651389965 
982	 0.156051992328338 
983	 0.156806951328022 
984	 0.157630279750005 
985	 0.158443399641124 
986	 0.159242298885886 
987	 0.160075831670871 
988	 0.160990898518467 
989	 0.16188343259408 
990	 0.162732396188691 
991	 0.163602686836675 
992	 0.164711786850002 
993	 0.165434688265101 
994	 0.166120879497153 
995	 0.167273664761445 
996	 0.168049660855502 
997	 0.168927715037283 
998	 0.169939228844372 
999	 0.1709034178387 
1000	 0.171596680850626 
1001	 0.170596810905363 
1002	 0.171494787294953 
1003	 0.172332818277385 
1004	 0.173129535504225 
1005	 0.173878195666501 
1006	 0.174689108909616 
1007	 0.17548613457058 
1008	 0.17628638718532 
1009	 0.177097033323239 
1010	 0.177837254770602 
1011	 0.17857362565493 
1012	 0.179322927596942 
1013	 0.180102139066179 
1014	 0.180891022364815 
1015	 0.181626636612401 
1016	 0.182351949241716 
1017	 0.183063708378208 
1018	 0.183748234350058 
1019	 0.184402844168499 
1020	 0.185099045194175 
1021	 0.185804021638003 
1022	 0.186483751444868 
1023	 0.187199363301934 
1024	 0.187878094583966 
1025	 0.188526132864951 
1026	 0.189232890012781 
1027	 0.189906504587385 
1028	 0.190585129180053 
1029	 0.191288005651278 
1030	 0.191893626891333 
1031	 0.192505845873825 
1032	 0.193106920352453 
1033	 0.193741588161396 
1034	 0.194344185005112 
1035	 0.194952266535686 
1036	 0.19555478720926 
1037	 0.196159206425957 
1038	 0.196781220081933 
1039	 0.197382682264817 
1040	 0.197944617481881 
1041	 0.198508179505484 
1042	 0.19908997861165 
1043	 0.199670358962281 
1044	 0.200262685351879 
1045	 0.200898305124825 
1046	 0.201544258800509 
1047	 0.202118892718593 
1048	 0.2026848575489 
1049	 0.203270606998229 
1050	 0.203833755979098 
1051	 0.204413925427314 
1052	 0.204983761503299 
1053	 0.205554326329157 
1054	 0.20610412835265 
1055	 0.206613396782931 
1056	 0.2071619027218 
1057	 0.207724265731563 
1058	 0.20831981531328 
1059	 0.208875274301149 
1060	 0.209441007753796 
1061	 0.209957121543819 
1062	 0.210480634665552 
1063	 0.211033733373539 
1064	 0.211591394459765 
1065	 0.212178431605109 
1066	 0.21271017084375 
1067	 0.213152296391274 
1068	 0.213634495585108 
1069	 0.214125405298346 
1070	 0.2146509625387 
1071	 0.215269479848651 
1072	 0.215787064570252 
1073	 0.216227838263844 
1074	 0.216757750840389 
1075	 0.217308920788384 
1076	 0.217778291387328 
1077	 0.218345232308417 
1078	 0.218866222989542 
1079	 0.21923966568818 
1080	 0.2196957102195 
1081	 0.220126704230397 
1082	 0.220550449080679 
1083	 0.221008870151046 
1084	 0.221485981425815 
1085	 0.221944486934163 
1086	 0.222422568359593 
1087	 0.222877595231087 
1088	 0.223296597305935 
1089	 0.223778194258711 
1090	 0.224244318989756 
1091	 0.224690726448369 
1092	 0.225158185630815 
1093	 0.225570876533305 
1094	 0.225968765706222 
1095	 0.226416914058688 
1096	 0.226836287490081 
1097	 0.227247537311584 
1098	 0.227685854007505 
1099	 0.228125544000668 
1100	 0.228567844688824 
1101	 0.229055750514319 
1102	 0.229501553260472 
1103	 0.229936251408528 
1104	 0.230343400342075 
1105	 0.230714024026029 
1106	 0.231119713630037 
1107	 0.23155610181905 
1108	 0.232005685417471 
1109	 0.232475097422962 
1110	 0.232923011462258 
1111	 0.233372998768177 
1112	 0.233823196931051 
1113	 0.234233954261111 
1114	 0.234609946460738 
1115	 0.235032525440286 
1116	 0.235427853577549 
1117	 0.235859982879412 
1118	 0.236348457485759 
1119	 0.236831720216581 
1120	 0.237280717966959 
1121	 0.237700517108196 
1122	 0.238115983119202 
1123	 0.238519115848442 
1124	 0.238934355108418 
1125	 0.239353092715233 
1126	 0.239766576703984 
1127	 0.240185790580744 
1128	 0.240593596951245 
1129	 0.240993647181883 
1130	 0.241393351945928 
1131	 0.241774048498448 
1132	 0.242177414086009 
1133	 0.242596656284025 
1134	 0.243001240252424 
1135	 0.243413391219656 
1136	 0.243829419876517 
1137	 0.244198038676344 
1138	 0.244565563392301 
1139	 0.244936655483179 
1140	 0.245298987466873 
1141	 0.24565330500363 
1142	 0.246013527670974 
1143	 0.246358705788923 
1144	 0.246687391342861 
1145	 0.247015469647597 
1146	 0.247336508818568 
1147	 0.247660365398937 
1148	 0.247981595396325 
1149	 0.248296238501621 
1150	 0.248602448950766 
1151	 0.248922314599677 
1152	 0.24924172934029 
1153	 0.249556170818854 
1154	 0.249862097095269 
1155	 0.250158323389086 
1156	 0.250474888903103 
1157	 0.250806032625891 
1158	 0.251105800323423 
1159	 0.25141127719882 
1160	 0.251709418439132 
1161	 0.25196224865248 
1162	 0.252246380715684 
1163	 0.252566017037046 
1164	 0.252860822564676 
1165	 0.253145249079179 
1166	 0.253437415592007 
1167	 0.253710732409192 
1168	 0.253983307666074 
1169	 0.254268674105997 
1170	 0.25456653496692 
1171	 0.254845057336108 
1172	 0.255137161597217 
1173	 0.255394494978421 
1174	 0.255617882680471 
1175	 0.255858068301363 
1176	 0.256089893473567 
1177	 0.256320824619251 
1178	 0.256549363968937 
1179	 0.256789395153087 
1180	 0.257033677133772 
1181	 0.257272258478658 
1182	 0.25753354389121 
1183	 0.257770804767411 
1184	 0.257990992201846 
1185	 0.258190750317791 
1186	 0.258394635851261 
1187	 0.258580382446897 
1188	 0.258779237235056 
1189	 0.258979394268358 
1190	 0.259182525484459 
1191	 0.259392565732664 
1192	 0.259596949991879 
1193	 0.259808423797174 
1194	 0.260006193959276 
1195	 0.260190483953697 
1196	 0.2603797043581 
1197	 0.260573521215101 
1198	 0.260751883393684 
1199	 0.260923473922483 
1200	 0.261094132371252 
1201	 0.261254827120812 
1202	 0.26139455349013 
1203	 0.2615525070556 
1204	 0.261715771196184 
1205	 0.26187641206485 
1206	 0.26203686432141 
1207	 0.262203078931063 
1208	 0.262381981038083 
1209	 0.262540912675928 
1210	 0.26269673339603 
1211	 0.262847690721963 
1212	 0.262974663796309 
1213	 0.263115292672157 
1214	 0.263283518927095 
1215	 0.263420397018237 
1216	 0.263544433408018 
1217	 0.263656648727215 
1218	 0.263773282378914 
1219	 0.263866480387892 
1220	 0.263979413469356 
1221	 0.264102694349872 
1222	 0.264230290310472 
1223	 0.264371772618705 
1224	 0.264491781004338 
1225	 0.26460982865663 
1226	 0.264726398028707 
1227	 0.264818075359756 
1228	 0.264927903352961 
1229	 0.265053030449703 
1230	 0.265175635938632 
1231	 0.265312333474671 
1232	 0.265431570461782 
1233	 0.265543626471388 
1234	 0.265650898691167 
1235	 0.265755638796764 
1236	 0.265854254697969 
1237	 0.265938249569534 
1238	 0.266006818301081 
1239	 0.266095300677802 
1240	 0.266171640051603 
1241	 0.266263537636587 
1242	 0.266389771129589 
1243	 0.266489710549156 
1244	 0.266575843764534 
1245	 0.266667175199629 
1246	 0.266765591144061 
1247	 0.266843835905599 
1248	 0.266912517165772 
1249	 0.266975056341548 
1250	 0.267023442157983 
1251	 0.267076714990125 
1252	 0.267150600171569 
1253	 0.2672472028361 
1254	 0.267325581492121 
1255	 0.267417138779924 
1256	 0.267484471628885 
1257	 0.26753497842645 
1258	 0.26758504859801 
1259	 0.267613158534046 
1260	 0.267664637649731 
1261	 0.267719867773621 
1262	 0.267780766125881 
1263	 0.267864888982361 
1264	 0.267934225059059 
1265	 0.268006198065827 
1266	 0.26806565329206 
1267	 0.268109326987129 
1268	 0.268152920157744 
1269	 0.268205897569071 
1270	 0.268246939678211 
1271	 0.26831490005593 
1272	 0.268403835751204 
1273	 0.268487978965229 
1274	 0.268590594776152 
1275	 0.268673434302317 
1276	 0.268746056110605 
1277	 0.268826693089763 
1278	 0.268892926125161 
1279	 0.268976297496437 
1280	 0.269080088622058 
1281	 0.269173597799987 
1282	 0.269270710645573 
1283	 0.269366956184096 
1284	 0.269459113569805 
1285	 0.269546764175305 
1286	 0.269648889218457 
1287	 0.269755025626407 
1288	 0.269860404797713 
1289	 0.269979512288215 
1290	 0.270071716499717 
1291	 0.270147120610524 
1292	 0.270234893647433 
1293	 0.270320437951461 
1294	 0.270396739388835 
1295	 0.270483987719884 
1296	 0.27054830859959 
1297	 0.270592679803837 
1298	 0.270630856836053 
1299	 0.270660897768098 
1300	 0.270682475743793 
1301	 0.270683818141587 
1302	 0.270689921768318 
1303	 0.270692561859622 
1304	 0.270696001412598 
1305	 0.270685689276112 
1306	 0.270686848848927 
1307	 0.270673963809031 
1308	 0.270636391102486 
1309	 0.270607084282341 
1310	 0.270577159410211 
1311	 0.27052817733855 
1312	 0.270470298629735 
1313	 0.270414094938729 
1314	 0.270351636899709 
1315	 0.270272626226077 
1316	 0.270184978199897 
1317	 0.270100075865116 
1318	 0.269996592842452 
1319	 0.269902134392868 
1320	 0.269812219251653 
1321	 0.269729425872316 
1322	 0.269648385332352 
1323	 0.269567846988958 
1324	 0.269493023479602 
1325	 0.26941832561844 
1326	 0.269345825705835 
1327	 0.269261871441884 
1328	 0.269177246726455 
1329	 0.269121502940405 
1330	 0.269044434733866 
1331	 0.268961006684556 
1332	 0.268868761429407 
1333	 0.268767665350092 
1334	 0.268669146081916 
1335	 0.268560256632082 
1336	 0.268463146630568 
1337	 0.268367479768513 
1338	 0.268282727355253 
1339	 0.268210896452507 
1340	 0.268128208368065 
1341	 0.268046601915758 
1342	 0.267966776264638 
1343	 0.267866408727432 
1344	 0.267800013534509 
1345	 0.267744198287812 
1346	 0.267693452149383 
1347	 0.267647586486498 
1348	 0.267593147855936 
1349	 0.267522296692421 
1350	 0.267461711975384 
1351	 0.267407752712189 
1352	 0.267360285112664 
1353	 0.267300018970811 
1354	 0.267252162074079 
1355	 0.267177812460471 
1356	 0.267071013506159 
1357	 0.266994136485479 
1358	 0.266918437011982 
1359	 0.266846926738031 
1360	 0.266801764119838 
1361	 0.2667265029993 
1362	 0.266630600102089 
1363	 0.266543931798259 
1364	 0.266453898366887 
1365	 0.266364562300033 
1366	 0.2662818885475 
1367	 0.266186609798231 
1368	 0.266112904923415 
1369	 0.266014721027402 
1370	 0.265900305317325 
1371	 0.265793222059742 
1372	 0.265639058209739 
1373	 0.265460011579164 
1374	 0.265273753799967 
1375	 0.26507297795632 
1376	 0.264849494884839 
1377	 0.264623057296464 
1378	 0.264351099198709 
1379	 0.264039683085516 
1380	 0.26372443269912 
1381	 0.263387637776822 
1382	 0.263020469640226 
1383	 0.262655630851416 
1384	 0.26223604890437 
1385	 0.261778857913079 
1386	 0.26128645058181 
1387	 0.260756026594058 
1388	 0.260193204675824 
1389	 0.259604250079419 
1390	 0.25896514924785 
1391	 0.258285639921275 
1392	 0.257566992076119 
1393	 0.256808355197467 
1394	 0.256013918004169 
1395	 0.255170055093806 
1396	 0.25432275883908 
1397	 0.253469715959311 
1398	 0.252583666715635 
1399	 0.251718011258572 
1400	 0.250865878626598 
1401	 0.249991241542548 
1402	 0.249091573108079 
1403	 0.248230762652927 
1404	 0.247356475466389 
1405	 0.246535950615864 
1406	 0.245761066869714 
1407	 0.244988947329994 
1408	 0.244220909207466 
1409	 0.243503863337632 
1410	 0.242789941316664 
1411	 0.242151383475615 
1412	 0.241569934162421 
1413	 0.24103948361888 
1414	 0.240560414710086 
1415	 0.240108572466267 
1416	 0.239687956812951 
1417	 0.239310643284824 
1418	 0.238953704262882 
1419	 0.238624546980125 
1420	 0.238318039943331 
1421	 0.23802649119707 
1422	 0.23777061497141 
1423	 0.237521271083689 
1424	 0.237273823589269 
1425	 0.237047393623936 
1426	 0.236810000239598 
1427	 0.23655274473153 
1428	 0.236334408972661 
1429	 0.236124637166667 
1430	 0.23593968563664 
1431	 0.235789705435224 
1432	 0.23563626758101 
1433	 0.235489051131201 
1434	 0.23536240223944 
1435	 0.235239542732078 
1436	 0.235143627047722 
1437	 0.235085649044708 
1438	 0.235014749471047 
1439	 0.234948796288125 
1440	 0.234897550388705 
1441	 0.234840927420915 
1442	 0.234779995131719 
1443	 0.234727075405646 
1444	 0.234685889111488 
1445	 0.234664245163613 
1446	 0.234660824534412 
1447	 0.234689921452626 
1448	 0.234718922723458 
1449	 0.234703539921486 
1450	 0.234693694774911 
1451	 0.234689712299925 
1452	 0.234657062492467 
1453	 0.234669181475173 
1454	 0.23471970883388 
1455	 0.234750591404595 
1456	 0.234790886895385 
1457	 0.234829567603319 
1458	 0.234856767186194 
1459	 0.234899716334759 
1460	 0.234941216157441 
1461	 0.235011140005787 
1462	 0.235102478920568 
1463	 0.235195424160865 
1464	 0.235308650111541 
1465	 0.235423283581572 
1466	 0.235530848343186 
1467	 0.235662590142659 
1468	 0.235807144109187 
1469	 0.235969858254699 
1470	 0.236155247878491 
1471	 0.236344264028169 
1472	 0.236547765144031 
1473	 0.236764852565688 
1474	 0.236958664286338 
1475	 0.237156786388875 
1476	 0.237365147939626 
1477	 0.237572503727744 
1478	 0.237805391403234 
1479	 0.238058327044963 
1480	 0.238310589071975 
1481	 0.238553569551633 
1482	 0.238809767331896 
1483	 0.239077912112564 
1484	 0.239329884584604 
1485	 0.239581698534099 
1486	 0.239839078775623 
1487	 0.240081682225099 
1488	 0.24033836787532 
1489	 0.240618137970512 
1490	 0.240878229635539 
1491	 0.241129383151401 
1492	 0.241384167872695 
1493	 0.241635466400519 
1494	 0.24188441270226 
1495	 0.242139752727002 
1496	 0.242381979727754 
1497	 0.242619311023478 
1498	 0.242845334066657 
1499	 0.2430502118769 
1500	 0.243268026277001 
1501	 0.243484572705041 
1502	 0.243701058281998 
1503	 0.243919421390763 
1504	 0.244147912842086 
1505	 0.244369769597904 
1506	 0.244572814397022 
1507	 0.244786149218777 
1508	 0.245001429357152 
1509	 0.245215586113412 
1510	 0.245428671621184 
1511	 0.245606066349792 
1512	 0.24577611692306 
1513	 0.245948541892892 
1514	 0.246135829661704 
1515	 0.246349774143495 
1516	 0.246559532893707 
1517	 0.246763532098503 
1518	 0.246960266694824 
1519	 0.24715987863912 
1520	 0.247364667641567 
1521	 0.247556826289222 
1522	 0.247747196209176 
1523	 0.247924218010093 
1524	 0.248091221654004 
1525	 0.248252090599339 
1526	 0.248394116221236 
1527	 0.248549657462323 
1528	 0.248706117627577 
1529	 0.248855993124776 
1530	 0.249016730553061 
1531	 0.249166215247191 
1532	 0.249301475413186 
1533	 0.249439886620684 
1534	 0.249572499321937 
1535	 0.249707279219865 
1536	 0.249840911212189 
1537	 0.249972742770306 
1538	 0.25010451477823 
1539	 0.250241917402095 
1540	 0.250382006387052 
1541	 0.250519777304114 
1542	 0.250671634865265 
1543	 0.250800942616684 
1544	 0.250908770237196 
1545	 0.251026542658648 
1546	 0.251144768720713 
1547	 0.251247219114912 
1548	 0.251360051945521 
1549	 0.251466308643884 
1550	 0.25157307046348 
1551	 0.251685059921632 
1552	 0.251776850840532 
1553	 0.25186642868905 
1554	 0.251952134729553 
1555	 0.252037553780547 
1556	 0.252128670759119 
1557	 0.252229759682083 
1558	 0.252330335950623 
1559	 0.252410161567242 
1560	 0.252510018004453 
1561	 0.252625765293141 
1562	 0.252722872489081 
1563	 0.252820236601711 
1564	 0.252912159583237 
1565	 0.252992196929224 
1566	 0.253076514172359 
1567	 0.253163825826836 
1568	 0.253245128952651 
1569	 0.253320955783527 
1570	 0.253394820427372 
1571	 0.253472137009123 
1572	 0.253532700958395 
1573	 0.253577819615708 
1574	 0.253632970844792 
1575	 0.253682622205014 
1576	 0.2537339232023 
1577	 0.253792593597073 
1578	 0.253847002072795 
1579	 0.253884216145934 
1580	 0.253946579751516 
1581	 0.254027249133054 
1582	 0.25409844361702 
1583	 0.254182605217328 
1584	 0.254254798573115 
1585	 0.25431824903694 
1586	 0.254380336519255 
1587	 0.254449917947354 
1588	 0.254500160575064 
1589	 0.254529578062396 
1590	 0.254563627961373 
1591	 0.254575539709525 
1592	 0.25461138194666 
1593	 0.254669813476597 
1594	 0.254716986361894 
1595	 0.254769026709909 
1596	 0.254821057663591 
1597	 0.254860992384143 
1598	 0.25490965439875 
1599	 0.254987148206512 
1600	 0.255032073075839 
1601	 0.255055578867967 
1602	 0.255086698691491 
1603	 0.255088270038311 
1604	 0.25511217877774 
1605	 0.255160808444606 
1606	 0.255199628791116 
1607	 0.255243469784929 
1608	 0.255283997222424 
1609	 0.255321332480397 
1610	 0.255360892652317 
1611	 0.255396628454475 
1612	 0.25542214370412 
1613	 0.2554194495885 
1614	 0.255427799878162 
1615	 0.255451535817146 
1616	 0.255476662648089 
1617	 0.25552577722968 
1618	 0.255584507110452 
1619	 0.255616647832613 
1620	 0.255637154016882 
1621	 0.2556545479934 
1622	 0.255660111799727 
1623	 0.255657962377599 
1624	 0.255651428565286 
1625	 0.255639828626168 
1626	 0.255606422505072 
1627	 0.25560252338481 
1628	 0.255603059903268 
1629	 0.255625659215444 
1630	 0.255673083421681 
1631	 0.255705347990973 
1632	 0.255749951622894 
1633	 0.255778270264974 
1634	 0.255806575973622 
1635	 0.255804335692724 
1636	 0.255782652173777 
1637	 0.255765889371708 
1638	 0.255708782923659 
1639	 0.255711248594362 
1640	 0.25574146273081 
1641	 0.255776246737775 
1642	 0.255847221358607 
1643	 0.255889549731919 
1644	 0.255934147831487 
1645	 0.255959971176496 
1646	 0.25596289809464 
1647	 0.25598508686137 
1648	 0.256013491023331 
1649	 0.25602112107485 
1650	 0.256031490145952 
1651	 0.256027745317808 
1652	 0.255988303884855 
1653	 0.255981457455601 
1654	 0.255993362727695 
1655	 0.255990212443069 
1656	 0.255998835303021 
1657	 0.255981938991449 
1658	 0.255942258498741 
1659	 0.255912311034336 
1660	 0.255872855956871 
1661	 0.255838971158991 
1662	 0.255809868580485 
1663	 0.255778305022378 
1664	 0.25573279736886 
1665	 0.255716868081231 
1666	 0.255715029448853 
1667	 0.25571748280693 
1668	 0.255760077819586 
1669	 0.255751364078005 
1670	 0.255714614106099 
1671	 0.255691317158555 
1672	 0.25564322750216 
1673	 0.25561533547466 
1674	 0.255607841314373 
1675	 0.255591388918172 
1676	 0.255581563413632 
1677	 0.255549607054767 
1678	 0.255492067159493 
1679	 0.255471996435263 
1680	 0.255449510801193 
1681	 0.2554423270476 
1682	 0.255482995224602 
1683	 0.255486366634478 
1684	 0.255469087107111 
1685	 0.255460521421727 
1686	 0.255453872175679 
1687	 0.255433213144472 
1688	 0.255402637900108 
1689	 0.25537801343011 
1690	 0.255344765188829 
1691	 0.255315385678695 
1692	 0.255285723681903 
1693	 0.255271814763961 
1694	 0.255274456364246 
1695	 0.255250266427123 
1696	 0.255214858092023 
1697	 0.255204650522164 
1698	 0.255192728844034 
1699	 0.255172693266483 
1700	 0.255192442067559 
1701	 0.255159132391329 
1702	 0.255068841284875 
1703	 0.255012380121663 
1704	 0.254957155055019 
1705	 0.254897434657968 
1706	 0.254838283298638 
1707	 0.254786453559466 
1708	 0.254737747017704 
1709	 0.254681264700551 
1710	 0.254633171424125 
1711	 0.254574969898402 
1712	 0.254504977048503 
1713	 0.254427050308206 
1714	 0.254339945762157 
1715	 0.254266583200799 
1716	 0.254184709234899 
1717	 0.254111684037875 
1718	 0.2540440691531 
1719	 0.254001750371493 
1720	 0.253977237147833 
1721	 0.253939057557006 
1722	 0.253932626335739 
1723	 0.253882588082579 
1724	 0.253798302693731 
1725	 0.253718649907935 
1726	 0.253618135451523 
1727	 0.253541007226316 
1728	 0.253465976654395 
1729	 0.253394802459888 
1730	 0.25334492747896 
1731	 0.25327417010534 
1732	 0.253196265731902 
1733	 0.253109673693619 
1734	 0.253022404036744 
1735	 0.25290765586328 
1736	 0.252758984795137 
1737	 0.252648905534796 
1738	 0.252532804754841 
1739	 0.252434658237612 
1740	 0.252372348407013 
1741	 0.252285495542727 
1742	 0.252190414345116 
1743	 0.252099101710586 
1744	 0.252005637778095 
1745	 0.251917763053113 
1746	 0.251836717475327 
1747	 0.251717740117313 
1748	 0.251608169769426 
1749	 0.251459599974889 
1750	 0.2513299950831 
1751	 0.251244371183417 
1752	 0.2511365778739 
1753	 0.251024552662864 
1754	 0.250898740727065 
1755	 0.250745422225747 
1756	 0.250606899988811 
1757	 0.250477639541346 
1758	 0.250378647617628 
1759	 0.250297533641999 
1760	 0.250208156601951 
1761	 0.250125108060961 
1762	 0.250010368670094 
1763	 0.24989307816211 
1764	 0.249801890458104 
1765	 0.249680302629765 
1766	 0.249549240396086 
1767	 0.249429246014317 
1768	 0.249291499069898 
1769	 0.249183169705508 
1770	 0.249138697974751 
1771	 0.249080826190474 
1772	 0.249012363854482 
1773	 0.248969664977728 
1774	 0.248902847461436 
1775	 0.248837520837126 
1776	 0.248750672078591 
1777	 0.248622665528493 
1778	 0.248506802892564 
1779	 0.248397750817258 
1780	 0.248313580775108 
1781	 0.248255392786556 
1782	 0.248202958164411 
1783	 0.248182933287438 
1784	 0.248132709997314 
1785	 0.24806543546237 
1786	 0.248012083427667 
1787	 0.247945363290497 
1788	 0.247891856397758 
1789	 0.247869505139218 
1790	 0.24783372702653 
1791	 0.247772518077342 
1792	 0.247732195409425 
1793	 0.247691641874875 
1794	 0.247690027938187 
1795	 0.247745158380919 
1796	 0.247747522521988 
1797	 0.247745255164477 
1798	 0.247729278523777 
1799	 0.247657857452629 
1800	 0.247636944428787 
1801	 0.247140983661267 
1802	 0.24734275125147 
1803	 0.247535598936993 
1804	 0.247713832472294 
1805	 0.247909498478308 
1806	 0.248124475113688 
1807	 0.248314877077191 
1808	 0.248468060810607 
1809	 0.248615519641132 
1810	 0.248728881012413 
1811	 0.248783579270054 
1812	 0.248857479696426 
1813	 0.248955546586056 
1814	 0.248984684978811 
1815	 0.249005352731847 
1816	 0.249015695266243 
1817	 0.249018404742461 
1818	 0.24899434623677 
1819	 0.24899186363059 
1820	 0.24898757084289 
1821	 0.248992187844003 
1822	 0.249029223671307 
1823	 0.249039410551534 
1824	 0.249071396580221 
1825	 0.24910730190904 
1826	 0.249124385678758 
1827	 0.249127780093204 
1828	 0.249086989839293 
1829	 0.249005096488384 
1830	 0.248933827251324 
1831	 0.248824277004058 
1832	 0.248713785975315 
1833	 0.248664796036867 
1834	 0.248644113065513 
1835	 0.248632512689376 
1836	 0.248625861051436 
1837	 0.248616771015795 
1838	 0.248569851704571 
1839	 0.248523581354141 
1840	 0.248463337632078 
1841	 0.248418249641716 
1842	 0.248342999470591 
1843	 0.248272964942306 
1844	 0.248173506685632 
1845	 0.248056987302908 
1846	 0.2479539153781 
1847	 0.247828352198088 
1848	 0.247731573577384 
1849	 0.247625939777656 
1850	 0.247488317709589 
1851	 0.247327337187344 
1852	 0.24717122933498 
1853	 0.246981024677793 
1854	 0.246756333469917 
1855	 0.246518166926901 
1856	 0.246228429983787 
1857	 0.245907913527828 
1858	 0.245603339484946 
1859	 0.245251155965917 
1860	 0.24485856312378 
1861	 0.244445537206362 
1862	 0.244003237770875 
1863	 0.243480222683461 
1864	 0.242945748024999 
1865	 0.242388134070054 
1866	 0.241744653970365 
1867	 0.241056371975824 
1868	 0.240338494885749 
1869	 0.239552825224937 
1870	 0.238726372571066 
1871	 0.237839792477806 
1872	 0.236915083039201 
1873	 0.235899306035494 
1874	 0.234833267398732 
1875	 0.233710708800347 
1876	 0.232523919690755 
1877	 0.231252611259805 
1878	 0.229865154229876 
1879	 0.228415841854407 
1880	 0.22685871539425 
1881	 0.225173618822659 
1882	 0.223438206373714 
1883	 0.221648615229688 
1884	 0.219693915100374 
1885	 0.217686539782359 
1886	 0.215629080370507 
1887	 0.213422194349933 
1888	 0.21116384604931 
1889	 0.208845282664156 
1890	 0.206475803771182 
1891	 0.204134572781733 
1892	 0.201767995025701 
1893	 0.199418179570896 
1894	 0.197069193722674 
1895	 0.19473730023081 
1896	 0.192392084426578 
1897	 0.190134457732874 
1898	 0.187915653782232 
1899	 0.185740950608995 
1900	 0.183659113560878 
1901	 0.181637264073235 
1902	 0.179733864913069 
1903	 0.177952514824144 
1904	 0.176245311948808 
1905	 0.174625419490627 
1906	 0.173110753027234 
1907	 0.171691600397477 
1908	 0.170339683359066 
1909	 0.169082325748771 
1910	 0.167919057351126 
1911	 0.16682697039486 
1912	 0.165826483502176 
1913	 0.164897763742825 
1914	 0.164074639724536 
1915	 0.163278882333916 
1916	 0.162545680639081 
1917	 0.161858285651586 
1918	 0.161231509508871 
1919	 0.160647207865747 
1920	 0.160116410796265 
1921	 0.159638837398237 
1922	 0.15920375074413 
1923	 0.158810554372543 
1924	 0.158472633507121 
1925	 0.158196931493066 
1926	 0.15795906668517 
1927	 0.157761541909917 
1928	 0.157617104821211 
1929	 0.157525100731419 
1930	 0.157470530002179 
1931	 0.157454335895155 
1932	 0.15747841734481 
1933	 0.157541267061599 
1934	 0.157621849963378 
1935	 0.157718983381154 
1936	 0.157842011796168 
1937	 0.15798131728614 
1938	 0.158118286580776 
1939	 0.158313771730914 
1940	 0.158556080184556 
1941	 0.15880740250154 
1942	 0.159099699404963 
1943	 0.159398736490984 
1944	 0.159697718025693 
1945	 0.160024332513346 
1946	 0.160359254586012 
1947	 0.160714560538154 
1948	 0.161074689716757 
1949	 0.161432789018885 
1950	 0.161818413202997 
1951	 0.162223885845607 
1952	 0.16263960242105 
1953	 0.163072461301683 
1954	 0.16354451439887 
1955	 0.164010901693152 
1956	 0.164466979399111 
1957	 0.164936234237055 
1958	 0.165403545272686 
1959	 0.165886119809836 
1960	 0.166380738443577 
1961	 0.166882737120542 
1962	 0.167394638241178 
1963	 0.167918835078978 
1964	 0.168447580666893 
1965	 0.168996620369037 
1966	 0.169572844975748 
1967	 0.170131781067008 
1968	 0.170687844221613 
1969	 0.171249865793052 
1970	 0.171802193343422 
1971	 0.172338830457776 
1972	 0.172886333458307 
1973	 0.173425870033524 
1974	 0.173986720785074 
1975	 0.174559232711947 
1976	 0.175134489266424 
1977	 0.175725345209483 
1978	 0.176322509728786 
1979	 0.176905484849054 
1980	 0.177492016815618 
1981	 0.178067167342357 
1982	 0.178634373349413 
1983	 0.179198491885231 
1984	 0.179742008381916 
1985	 0.180309555138976 
1986	 0.180886596874317 
1987	 0.181462392687023 
1988	 0.182045706208627 
1989	 0.18265099165905 
1990	 0.183214441988381 
1991	 0.183770334916072 
1992	 0.184333635876174 
1993	 0.184883320720359 
1994	 0.185443103727976 
1995	 0.186018698272257 
1996	 0.186581297834819 
1997	 0.18713881116768 
1998	 0.187700413256792 
1999	 0.188244444367897 
2000	 0.188809975255766 
2001	 0.189401740774228 
2002	 0.189980817535257 
2003	 0.190536441352686 
2004	 0.19110393753166 
2005	 0.19164099408737 
2006	 0.192139448289226 
2007	 0.192654917564328 
2008	 0.193160144234417 
2009	 0.193677312845265 
2010	 0.194198719233594 
2011	 0.194717949201998 
2012	 0.195266790375655 
2013	 0.195773898102408 
2014	 0.196249964050827 
2015	 0.196729446059185 
2016	 0.197193050368787 
2017	 0.19766660845379 
2018	 0.198174236640693 
2019	 0.198733538021858 
2020	 0.199246745448158 
2021	 0.199775531775474 
2022	 0.200271383966656 
2023	 0.200733512288168 
2024	 0.20119847431941 
2025	 0.201635921723958 
2026	 0.202092937277962 
2027	 0.202561391207061 
2028	 0.203015779815186 
2029	 0.203473184946168 
2030	 0.203946177458231 
2031	 0.204398050613832 
2032	 0.20483696792121 
2033	 0.205272972051696 
2034	 0.205706378248427 
2035	 0.206128281193883 
2036	 0.206553575861604 
2037	 0.206944634208309 
2038	 0.207304966466568 
2039	 0.207672417169645 
2040	 0.208011750064672 
2041	 0.208353711724659 
2042	 0.208742947864741 
2043	 0.209118065353275 
2044	 0.20949207536451 
2045	 0.209875054813921 
2046	 0.210251513629775 
2047	 0.210614855399224 
2048	 0.210987560440343 
2049	 0.211385654078374 
2050	 0.21174530843145 
2051	 0.212079023473278 
2052	 0.212423517771129 
2053	 0.21275179066398 
2054	 0.213079564626167 
2055	 0.213411859174922 
2056	 0.213750275367254 
2057	 0.214070642994973 
2058	 0.214366206076367 
2059	 0.214687808250767 
2060	 0.215025662251963 
2061	 0.215336811160351 
2062	 0.21563839072552 
2063	 0.215952840874299 
2064	 0.216254116277331 
2065	 0.216563190178902 
2066	 0.21690177547573 
2067	 0.217215524572716 
2068	 0.21750448232039 
2069	 0.217807163859911 
2070	 0.218099005233191 
2071	 0.218372192509643 
2072	 0.218678602112746 
2073	 0.219004228337399 
2074	 0.219308110180208 
2075	 0.219639551916913 
2076	 0.219924752612504 
2077	 0.220160397753415 
2078	 0.220421483620117 
2079	 0.220671112098851 
2080	 0.22092801571202 
2081	 0.221193701883542 
2082	 0.221463932100658 
2083	 0.221723413364835 
2084	 0.221998628307427 
2085	 0.222299628584776 
2086	 0.222632216931062 
2087	 0.222935725416501 
2088	 0.223262022399412 
2089	 0.223550552970126 
2090	 0.223823248247627 
2091	 0.22406363036402 
2092	 0.22426027949256 
2093	 0.224484187553512 
2094	 0.224681210212254 
2095	 0.224898821919124 
2096	 0.225141251787821 
2097	 0.225382642545152 
2098	 0.225616950498102 
2099	 0.225861509442958 
2100	 0.226126972361938 
2101	 0.226424933953051 
2102	 0.22668599938367 
2103	 0.226947940963839 
2104	 0.227204041739881 
2105	 0.227428497632824 
2106	 0.227683755820727 
2107	 0.227958156366209 
2108	 0.228227094426477 
2109	 0.228505547423463 
2110	 0.228776801072997 
2111	 0.229040149770811 
2112	 0.229313231857875 
2113	 0.229589104176099 
2114	 0.229874216994297 
2115	 0.23013658724648 
2116	 0.230402145165161 
2117	 0.230648304820376 
2118	 0.230855248318627 
2119	 0.231105843136004 
2120	 0.231377103442243 
2121	 0.231629741440684 
2122	 0.23190775302288 
2123	 0.232148636305449 
2124	 0.23235933711523 
2125	 0.232567767132357 
2126	 0.232768827463205 
2127	 0.232952695347103 
2128	 0.233121211734724 
2129	 0.233282028022253 
2130	 0.233426631737657 
2131	 0.233558171636719 
2132	 0.233697079127171 
2133	 0.233846096495144 
2134	 0.233954234748418 
2135	 0.234047198050915 
2136	 0.234131177052897 
2137	 0.234186074955489 
2138	 0.234238105743339 
2139	 0.234285789057121 
2140	 0.234326217557625 
2141	 0.234347320183203 
2142	 0.234367837217037 
2143	 0.234393521115564 
2144	 0.234404651977783 
2145	 0.234408566520419 
2146	 0.234396275140409 
2147	 0.234358721181247 
2148	 0.234329610140981 
2149	 0.234299189278978 
2150	 0.234248545987608 
2151	 0.234227796388995 
2152	 0.23424012975706 
2153	 0.234211759695229 
2154	 0.23418940844414 
2155	 0.234136285627732 
2156	 0.234053086090312 
2157	 0.233960180788265 
2158	 0.233868413914321 
2159	 0.233733890906836 
2160	 0.233547977527356 
2161	 0.233377175632054 
2162	 0.233161898060717 
2163	 0.232981730462131 
2164	 0.232816255861428 
2165	 0.23267717953764 
2166	 0.232529942139618 
2167	 0.232402867862563 
2168	 0.232251470268557 
2169	 0.23209681283496 
2170	 0.23192978324676 
2171	 0.231743536781203 
2172	 0.23156991245676 
2173	 0.23140452409135 
2174	 0.231216398193499 
2175	 0.231027239157038 
2176	 0.23082312452023 
2177	 0.230569339720501 
2178	 0.230357542399501 
2179	 0.230163306634829 
2180	 0.22997002187928 
2181	 0.22981208802529 
2182	 0.229631475213137 
2183	 0.229440902967323 
2184	 0.22923172900028 
2185	 0.229046002103404 
2186	 0.228858065217014 
2187	 0.228674083289622 
2188	 0.228514382867527 
2189	 0.228326524034393 
2190	 0.22810863278441 
2191	 0.227924603433189 
2192	 0.227745368957659 
2193	 0.227571126977575 
2194	 0.227402268825791 
2195	 0.227259857007477 
2196	 0.227129505803684 
2197	 0.227007943203781 
2198	 0.226901259021104 
2199	 0.226820597351394 
2200	 0.226784141793602 
2201	 0.226711454607826 
2202	 0.226616009940233 
2203	 0.226566188596818 
2204	 0.226523003321878 
2205	 0.226447837661086 
2206	 0.226430270344069 
2207	 0.226475051613416 
2208	 0.226503782881697 
2209	 0.226540804555928 
2210	 0.226582128225142 
2211	 0.226644526127399 
2212	 0.226696016908366 
2213	 0.226747784681504 
2214	 0.22679409324475 
2215	 0.226842349591042 
2216	 0.226883840316888 
2217	 0.226902243404954 
2218	 0.226938941601282 
2219	 0.226984870880973 
2220	 0.227033573071356 
2221	 0.227096258265705 
2222	 0.22716256732652 
2223	 0.227190883971788 
2224	 0.227210356753531 
2225	 0.227246444795279 
2226	 0.227278068012379 
2227	 0.227295758267148 
2228	 0.227322486229601 
2229	 0.227336958423107 
2230	 0.227331046689276 
2231	 0.227319031930746 
2232	 0.227310958644587 
2233	 0.227292235796875 
2234	 0.227233748713833 
2235	 0.227211237219415 
2236	 0.227225065812288 
2237	 0.227208259490991 
2238	 0.227180909521504 
2239	 0.22716030871116 
2240	 0.227135664289229 
2241	 0.227093860565949 
2242	 0.227047910911292 
2243	 0.227007591576541 
2244	 0.226959382670644 
2245	 0.226898918141401 
2246	 0.226847402907203 
2247	 0.226785707163541 
2248	 0.22671364891849 
2249	 0.226611011861112 
2250	 0.226541803029001 
2251	 0.226484807855038 
2252	 0.226427037964407 
2253	 0.226386222168982 
2254	 0.2263183603745 
2255	 0.22624327313831 
2256	 0.226160211439362 
2257	 0.226041726030892 
2258	 0.225969477033024 
2259	 0.225918881508274 
2260	 0.225857117678447 
2261	 0.225791865460701 
2262	 0.22576278951201 
2263	 0.225767014538136 
2264	 0.225744212800839 
2265	 0.225758189927961 
2266	 0.22573769190232 
2267	 0.225649858801207 
2268	 0.22559348850565 
2269	 0.225538196714833 
2270	 0.225502667046877 
2271	 0.225483681308128 
2272	 0.225474891292365 
2273	 0.225460175718831 
2274	 0.225414444147069 
2275	 0.225334969156061 
2276	 0.225209993035423 
2277	 0.225107407075941 
2278	 0.224962875663973 
2279	 0.224883707080072 
2280	 0.224843287012924 
2281	 0.224783143382331 
2282	 0.224739202945993 
2283	 0.224705835097862 
2284	 0.224681334233107 
2285	 0.224639097315141 
2286	 0.224621772626206 
2287	 0.224567301632548 
2288	 0.224454409608028 
2289	 0.224385272996124 
2290	 0.224326704186879 
2291	 0.22426886917144 
2292	 0.224246085892826 
2293	 0.224182875788417 
2294	 0.22408897635172 
2295	 0.22401476566916 
2296	 0.223921303350166 
2297	 0.223851479335963 
2298	 0.223812749183542 
2299	 0.223708449944354 
2300	 0.223590155523394 
2301	 0.223460486786716 
2302	 0.223318435569294 
2303	 0.22320933604835 
2304	 0.223105646696538 
2305	 0.222986829606155 
2306	 0.222862032897756 
2307	 0.222733041245517 
2308	 0.22258672293845 
2309	 0.222417081157535 
2310	 0.22227360406953 
2311	 0.222132418003136 
2312	 0.221982992410075 
2313	 0.221844525092469 
2314	 0.221700873670727 
2315	 0.221537264000437 
2316	 0.221397172774321 
2317	 0.221275129920999 
2318	 0.221146918715434 
2319	 0.221035443300822 
2320	 0.220890890846112 
2321	 0.220733415407795 
2322	 0.220568174845437 
2323	 0.220388634640346 
2324	 0.220198860716244 
2325	 0.219979658539992 
2326	 0.219784568398436 
2327	 0.219575326105499 
2328	 0.219387344750647 
2329	 0.219253124689349 
2330	 0.219143340973646 
2331	 0.219080665514568 
2332	 0.21898003767819 
2333	 0.218834192921566 
2334	 0.218732221619547 
2335	 0.218587792323876 
2336	 0.218440866420057 
2337	 0.21829187437829 
2338	 0.218109436466189 
2339	 0.217955446395109 
2340	 0.217727459572812 
2341	 0.217484121406583 
2342	 0.217301732983259 
2343	 0.217094393384963 
2344	 0.216946455169657 
2345	 0.216768604220305 
2346	 0.216617899135869 
2347	 0.21642091709311 
2348	 0.216174394474177 
2349	 0.215950344252636 
2350	 0.215763892251509 
2351	 0.21550218158397 
2352	 0.215198029583478 
2353	 0.214906573851071 
2354	 0.214539798407949 
2355	 0.214240398113555 
2356	 0.213986070954354 
2357	 0.213736759353034 
2358	 0.213524061644516 
2359	 0.213277114299063 
2360	 0.213035977071814 
2361	 0.212777507627162 
2362	 0.212456460812167 
2363	 0.212212722662262 
2364	 0.212003219156713 
2365	 0.211794694108707 
2366	 0.211664837121615 
2367	 0.211460754025736 
2368	 0.211244606238473 
2369	 0.21098177157173 
2370	 0.210633759361649 
2371	 0.210339122545885 
2372	 0.21002650793385 
2373	 0.209671853673171 
2374	 0.209397987405878 
2375	 0.209073598656232 
2376	 0.208704622339146 
2377	 0.208356568848483 
2378	 0.208025833910015 
2379	 0.207741276617312 
2380	 0.207510061443997 
2381	 0.207281514481863 
2382	 0.207027733430914 
2383	 0.206667198591528 
2384	 0.206228823323733 
2385	 0.205877515706357 
2386	 0.205523760406199 
2387	 0.20518244986558 
2388	 0.20487588773343 
2389	 0.20453902211572 
2390	 0.204235421429794 
2391	 0.203919041553376 
2392	 0.203639808028013 
2393	 0.203416361761746 
2394	 0.203156019055538 
2395	 0.202791373145977 
2396	 0.202398675720271 
2397	 0.202097930129401 
2398	 0.201714663864427 
2399	 0.20143209070783 
2400	 0.201265890209866 
2401	 0.200896055229241 
2402	 0.200525084949504 
2403	 0.200146305826695 
2404	 0.199676149533818 
2405	 0.199270503082477 
2406	 0.198869043633318 
2407	 0.198439182658078 
2408	 0.198008865189766 
2409	 0.197555370708336 
2410	 0.197169793552633 
2411	 0.196837126698879 
2412	 0.196466974311285 
2413	 0.19612207581519 
2414	 0.195669911766667 
2415	 0.195163503500393 
2416	 0.194769310378783 
2417	 0.194425410634856 
2418	 0.194032082594105 
2419	 0.193736795716458 
2420	 0.193346276344858 
2421	 0.192874977719701 
2422	 0.192446619688382 
2423	 0.191997461313326 
2424	 0.191576623850877 
2425	 0.191167133319032 
2426	 0.190724451041638 
2427	 0.190345358172844 
2428	 0.189835036425596 
2429	 0.189175013247444 
2430	 0.188642501564883 
2431	 0.188009568025295 
2432	 0.18759398839743 
2433	 0.187489026163676 
2434	 0.187108486629252 
2435	 0.186666746623904 
2436	 0.186273464173321 
2437	 0.185730756185716 
2438	 0.185301463109987 
2439	 0.185045922776047 
2440	 0.184671130493814 
2441	 0.184222942501902 
2442	 0.183818557685133 
2443	 0.183397419720959 
2444	 0.183013499220806 
2445	 0.1826562570114 
2446	 0.182234624426798 
2447	 0.181803388829117 
2448	 0.181408144049226 
2449	 0.181000031340407 
2450	 0.180645184095304 
2451	 0.180365063062477 
2452	 0.17994609598024 
2453	 0.179521447357913 
2454	 0.178954523157527 
2455	 0.178180110350241 
2456	 0.177681374139344 
2457	 0.177200900391315 
2458	 0.176833832137536 
2459	 0.176719949013989 
2460	 0.176396811880756 
2461	 0.17600625177241 
2462	 0.175615147982293 
2463	 0.175145154039949 
2464	 0.174735455189908 
2465	 0.174343339463769 
2466	 0.173971709135909 
2467	 0.173674371555876 
2468	 0.173242751925642 
2469	 0.172761244788068 
2470	 0.172319731432318 
2471	 0.171853699491778 
2472	 0.17139942166443 
2473	 0.170871775220407 
2474	 0.170390672261408 
2475	 0.170004910122623 
2476	 0.169769596610189 
2477	 0.169662439043683 
2478	 0.169554027590318 
2479	 0.169205842304736 
2480	 0.168744799038551 
2481	 0.168305974485155 
2482	 0.167856372203568 
2483	 0.167546868705872 
2484	 0.167303587287531 
2485	 0.166951915014884 
2486	 0.166578937324782 
2487	 0.166284599525302 
2488	 0.165933549902419 
2489	 0.165666880817657 
2490	 0.165468871162279 
2491	 0.165285947057872 
2492	 0.165060465123263 
2493	 0.164661035668778 
2494	 0.16410501190713 
2495	 0.163332672723442 
2496	 0.162752168918549 
2497	 0.162334144534998 
2498	 0.162080057895688 
2499	 0.162109720612053 
2500	 0.16195445634805 
