Wavelength	mm1900002.asd
350	 3.46040710925522E-02 
351	 4.29141474928728E-02 
352	 4.44899794172883E-02 
353	 3.25237969293734E-02 
354	 4.47120325056253E-02 
355	 5.21215057030294E-02 
356	 5.09516833885404E-02 
357	 4.57206494757649E-02 
358	 4.33909530601676E-02 
359	 0.040024492096261 
360	 3.80813580749837E-02 
361	 4.26930100186665E-02 
362	 3.89123889726258E-02 
363	 3.50366174739381E-02 
364	 3.62023185967558E-02 
365	 3.82969332325885E-02 
366	 4.10537258451072E-02 
367	 4.27483327025007E-02 
368	 0.041980011118493 
369	 3.86570326314761E-02 
370	 3.83414392935055E-02 
371	 4.06049088313964E-02 
372	 4.11089466257267E-02 
373	 4.25943965014697E-02 
374	 4.20047440433441E-02 
375	 3.90560425409953E-02 
376	 3.93332277833596E-02 
377	 3.92417936112965E-02 
378	 4.02932710370603E-02 
379	 0.043859793703852 
380	 4.49732231589676E-02 
381	 4.36992502462401E-02 
382	 4.18787091776754E-02 
383	 4.21883011456114E-02 
384	 4.22122276994408E-02 
385	 4.22131442914821E-02 
386	 4.29860946462868E-02 
387	 4.59685346713083E-02 
388	 4.55878679099089E-02 
389	 4.41387548572039E-02 
390	 4.51769471774253E-02 
391	 4.52971010495677E-02 
392	 4.34700959877542E-02 
393	 4.20332476109872E-02 
394	 4.53738329352065E-02 
395	 4.53716980416811E-02 
396	 4.52818131966867E-02 
397	 4.72254341044674E-02 
398	 4.67376675704896E-02 
399	 4.63536710187588E-02 
400	 4.73543705790062E-02 
401	 4.96335239365605E-02 
402	 0.048163534974262 
403	 4.74893380181944E-02 
404	 4.84924419118177E-02 
405	 4.79218875905968E-02 
406	 4.83803725037299E-02 
407	 4.90200120042679E-02 
408	 4.89345817897832E-02 
409	 4.86617071214039E-02 
410	 4.90763384774186E-02 
411	 4.94721756398144E-02 
412	 4.87836953294357E-02 
413	 4.91687691823192E-02 
414	 4.98543167651236E-02 
415	 4.99319151339594E-02 
416	 4.86410472086003E-02 
417	 4.84435768004182E-02 
418	 4.91511928707596E-02 
419	 0.049894262491392 
420	 5.01778571558278E-02 
421	 4.93930100035676E-02 
422	 4.85606060216179E-02 
423	 4.94154296260046E-02 
424	 0.049438147711357 
425	 4.92987149418498E-02 
426	 4.93569528701306E-02 
427	 4.85372153166123E-02 
428	 4.85048594753939E-02 
429	 4.89353142657842E-02 
430	 4.90100168524387E-02 
431	 4.89920124331918E-02 
432	 4.89115578862943E-02 
433	 4.88221479207247E-02 
434	 4.88000848013972E-02 
435	 4.87812209618938E-02 
436	 4.86979597936303E-02 
437	 0.048530081204923 
438	 4.83107616806281E-02 
439	 4.86256869850086E-02 
440	 4.90241352771366E-02 
441	 4.87181310443639E-02 
442	 4.87960116884141E-02 
443	 4.90308981615782E-02 
444	 4.91372094970909E-02 
445	 4.89328168770225E-02 
446	 4.89528057108957E-02 
447	 0.048939652033461 
448	 4.86290062931724E-02 
449	 4.87529721293483E-02 
450	 4.89193197591114E-02 
451	 4.90111509883952E-02 
452	 4.91621532866563E-02 
453	 4.91262144529622E-02 
454	 4.90014268168013E-02 
455	 4.89557007185462E-02 
456	 4.91990831995426E-02 
457	 4.93540049323278E-02 
458	 4.94141322538335E-02 
459	 4.95096283508794E-02 
460	 4.93893842762226E-02 
461	 4.92852897653333E-02 
462	 4.92769035550636E-02 
463	 4.91703338773381E-02 
464	 4.92096406804525E-02 
465	 4.92472975087683E-02 
466	 4.91279637638696E-02 
467	 4.90958614043501E-02 
468	 4.92272737761643E-02 
469	 4.93358882390941E-02 
470	 4.90794835038441E-02 
471	 0.049080636774958 
472	 4.91912829511305E-02 
473	 0.049208878206616 
474	 4.91106711912484E-02 
475	 4.90902077608561E-02 
476	 4.91123681662509E-02 
477	 4.90476039380167E-02 
478	 4.88966314570967E-02 
479	 4.88154925194303E-02 
480	 4.89089434083577E-02 
481	 4.92055189255305E-02 
482	 0.049197596265483 
483	 4.91406088761261E-02 
484	 4.93395220283718E-02 
485	 4.93814355909131E-02 
486	 4.92073438096953E-02 
487	 4.89830411282574E-02 
488	 4.90226918340218E-02 
489	 0.048956257408298 
490	 4.90501257930775E-02 
491	 4.93626534043892E-02 
492	 4.91642669440928E-02 
493	 4.89723148129841E-02 
494	 4.89667976269743E-02 
495	 4.91332611259434E-02 
496	 4.92635576239218E-02 
497	 4.92283568482206E-02 
498	 4.91115689447121E-02 
499	 4.93048665793632E-02 
500	 4.91445240938448E-02 
501	 4.89005643644612E-02 
502	 4.89772088884164E-02 
503	 4.90717181524673E-02 
504	 4.91815339078055E-02 
505	 4.92538080518951E-02 
506	 4.91969868471937E-02 
507	 4.92903988353452E-02 
508	 4.93309091530622E-02 
509	 0.049189060613031 
510	 4.91791483339116E-02 
511	 4.92158074029369E-02 
512	 4.92121704503944E-02 
513	 4.91104711408106E-02 
514	 4.91601791838985E-02 
515	 0.049242660927282 
516	 4.92799209026118E-02 
517	 4.93386455597217E-02 
518	 4.93724698792013E-02 
519	 4.93414444882195E-02 
520	 4.92561219974618E-02 
521	 4.93585636181245E-02 
522	 4.95065379637276E-02 
523	 4.95596162425492E-02 
524	 4.94114968855435E-02 
525	 4.94296363495628E-02 
526	 0.049465418617955 
527	 4.93842105160761E-02 
528	 4.95035324487983E-02 
529	 4.95200673094901E-02 
530	 4.94821273547948E-02 
531	 0.049637867571993 
532	 4.96592284013571E-02 
533	 4.96347127307016E-02 
534	 4.96610777364268E-02 
535	 4.97439158953317E-02 
536	 4.96877637086446E-02 
537	 4.96566137327024E-02 
538	 4.98747761705544E-02 
539	 4.99208676399859E-02 
540	 4.99372428127567E-02 
541	 5.00044235104422E-02 
542	 5.00593184748835E-02 
543	 5.01305067902199E-02 
544	 5.02630482828509E-02 
545	 5.04592655452715E-02 
546	 5.05452650381208E-02 
547	 5.05840399916194E-02 
548	 5.06502091230536E-02 
549	 5.08116072806337E-02 
550	 5.09245757468415E-02 
551	 5.10013672535058E-02 
552	 5.10916231501845E-02 
553	 5.12675426542973E-02 
554	 5.14105464627117E-02 
555	 5.15590805774272E-02 
556	 5.18135542248703E-02 
557	 5.20333726279577E-02 
558	 5.21883710742022E-02 
559	 5.23460775808958E-02 
560	 0.052734229937938 
561	 5.30212226158395E-02 
562	 5.32505558302909E-02 
563	 0.053569105723111 
564	 5.39189239334762E-02 
565	 5.42196890466483E-02 
566	 5.44909521273275E-02 
567	 0.054862405443446 
568	 5.52966773248277E-02 
569	 5.57429202806873E-02 
570	 5.61742540448385E-02 
571	 5.66598681404071E-02 
572	 5.71869241050097E-02 
573	 5.77305407404988E-02 
574	 0.058257908199284 
575	 5.87435875061966E-02 
576	 5.93113977126473E-02 
577	 5.99865863849541E-02 
578	 6.05167181671311E-02 
579	 6.11272566961124E-02 
580	 6.17990911469991E-02 
581	 6.24299204758974E-02 
582	 6.31079759701228E-02 
583	 6.37994993691041E-02 
584	 6.44793617694858E-02 
585	 6.51478270360811E-02 
586	 6.59789461659666E-02 
587	 6.68330622791855E-02 
588	 6.75567270120262E-02 
589	 0.068379284238384 
590	 6.92219761085819E-02 
591	 0.070039953342799 
592	 7.08319962768711E-02 
593	 7.15892672404167E-02 
594	 7.23531029120406E-02 
595	 7.31264785730526E-02 
596	 7.37809658874566E-02 
597	 0.074437701889711 
598	 7.51490568246072E-02 
599	 7.59180926740723E-02 
600	 7.66468713431283E-02 
601	 7.73495721521226E-02 
602	 7.80359246248807E-02 
603	 0.078684933906789 
604	 7.92993253006787E-02 
605	 7.99214959864146E-02 
606	 8.05872119148014E-02 
607	 0.081219245426222 
608	 8.17878181742438E-02 
609	 8.23280000767372E-02 
610	 8.29419511288003E-02 
611	 8.34537978772921E-02 
612	 0.083899542594557 
613	 8.43411274168857E-02 
614	 8.47469153851382E-02 
615	 8.51068007986635E-02 
616	 8.54562986765033E-02 
617	 0.085848633912283 
618	 8.61636512640952E-02 
619	 8.64430588502748E-02 
620	 8.67348118601161E-02 
621	 8.70506221102523E-02 
622	 8.73258227642209E-02 
623	 8.75708386404229E-02 
624	 8.78203770033334E-02 
625	 8.80343084068449E-02 
626	 8.82447314846417E-02 
627	 8.84665295687175E-02 
628	 8.86840169012096E-02 
629	 8.89268369327738E-02 
630	 8.91428378590825E-02 
631	 8.92983616300115E-02 
632	 0.089519099135311 
633	 8.97186910948017E-02 
634	 0.089875866394309 
635	 9.00304897021298E-02 
636	 9.02517139629543E-02 
637	 9.04807168712888E-02 
638	 9.06617398565802E-02 
639	 9.07972548921393E-02 
640	 9.09739593458442E-02 
641	 9.11759426773129E-02 
642	 9.13491068999721E-02 
643	 9.15662350440921E-02 
644	 9.18018434773526E-02 
645	 9.20150107280258E-02 
646	 9.21538579152162E-02 
647	 9.23259600346342E-02 
648	 9.25438734762584E-02 
649	 9.27819610263439E-02 
650	 9.29904007039007E-02 
651	 9.32070136597244E-02 
652	 9.34469334204814E-02 
653	 9.37023158218432E-02 
654	 9.39577270187765E-02 
655	 9.41911721211642E-02 
656	 9.44127924464685E-02 
657	 9.47178904382336E-02 
658	 9.50005190927798E-02 
659	 9.52356523796215E-02 
660	 9.54499797520941E-02 
661	 9.57333986072024E-02 
662	 9.60520309109621E-02 
663	 9.63672919467415E-02 
664	 0.096651875911977 
665	 9.69799552523577E-02 
666	 9.73077422234907E-02 
667	 9.75914578227223E-02 
668	 9.79384573664882E-02 
669	 9.82764420480114E-02 
670	 9.85898640370893E-02 
671	 9.89152575623389E-02 
672	 9.92800878473585E-02 
673	 9.96750850576012E-02 
674	 0.10008280719744 
675	 0.100490892823376 
676	 0.100852555080131 
677	 0.101204129036665 
678	 0.101612587445285 
679	 0.102061230676892 
680	 0.102518687029721 
681	 0.102952392653153 
682	 0.103330178081833 
683	 0.103786578392366 
684	 0.104277131143479 
685	 0.104732646173501 
686	 0.105178965225932 
687	 0.105673171923403 
688	 0.106193915469798 
689	 0.106669382825669 
690	 0.107153783297844 
691	 0.107662297957251 
692	 0.108188137805941 
693	 0.108693986388559 
694	 0.109193377615662 
695	 0.109704243519256 
696	 0.110243731666398 
697	 0.110808456140184 
698	 0.111369121522405 
699	 0.111920379633552 
700	 0.112482945083499 
701	 0.113082590127006 
702	 0.113647413566668 
703	 0.114144779726765 
704	 0.114710632741712 
705	 0.115268534431857 
706	 0.115815120023742 
707	 0.116381321612359 
708	 0.11695495363625 
709	 0.117546116612484 
710	 0.118141366000694 
711	 0.118693088047404 
712	 0.11921508493107 
713	 0.11974056051346 
714	 0.12029964524083 
715	 0.120888130401743 
716	 0.121460592460405 
717	 0.121999222863477 
718	 0.122512310937222 
719	 0.12303791435488 
720	 0.123561684539027 
721	 0.124061184009278 
722	 0.124512023920476 
723	 0.125006014961272 
724	 0.12549954092183 
725	 0.125929021607652 
726	 0.126393982404927 
727	 0.126808134187281 
728	 0.127156464647023 
729	 0.127500174536057 
730	 0.127910589436995 
731	 0.128286712772941 
732	 0.128563633833038 
733	 0.128836878301943 
734	 0.129107174551692 
735	 0.129344515407268 
736	 0.1295274886479 
737	 0.129791052151789 
738	 0.130017738059538 
739	 0.130175085336887 
740	 0.130341256727463 
741	 0.130445136796356 
742	 0.130509633091766 
743	 0.13057116769021 
744	 0.130654690902842 
745	 0.130666702054253 
746	 0.130647311194022 
747	 0.130676979780557 
748	 0.130624084249144 
749	 0.130526001778633 
750	 0.130433164492909 
751	 0.130389919354955 
752	 0.130288439804456 
753	 0.130128789925696 
754	 0.129943509371484 
755	 0.12977366815575 
756	 0.129617911115924 
757	 0.129433029288763 
758	 0.129172972070303 
759	 0.128939017365916 
760	 0.128708161709396 
761	 0.128455625893149 
762	 0.128170804906528 
763	 0.127901209552885 
764	 0.127607882322076 
765	 0.127267392104735 
766	 0.126962076251038 
767	 0.126647514391092 
768	 0.126324322021598 
769	 0.12600755755228 
770	 0.125647112943288 
771	 0.125277908648809 
772	 0.12492325315925 
773	 0.124581555812086 
774	 0.124181546075756 
775	 0.123791237626082 
776	 0.123454131001438 
777	 0.123056863362123 
778	 0.122658475313201 
779	 0.122286173297035 
780	 0.12193743174676 
781	 0.12151821807711 
782	 0.121126034568553 
783	 0.120771729124232 
784	 0.120364348295706 
785	 0.119957425201493 
786	 0.119580364358017 
787	 0.119233826199481 
788	 0.11885996821103 
789	 0.118516530926988 
790	 0.118157752485387 
791	 0.117737112073202 
792	 0.117411716000522 
793	 0.117075080860713 
794	 0.116704331693482 
795	 0.116356511461271 
796	 0.115979399305785 
797	 0.115608287704031 
798	 0.115271904939193 
799	 0.114965239541876 
800	 0.114638909267974 
801	 0.114312387750963 
802	 0.114006430104902 
803	 0.113648444284318 
804	 0.113354854520985 
805	 0.113090542691549 
806	 0.112744397045729 
807	 0.112454930676694 
808	 0.112173177240638 
809	 0.11187195576796 
810	 0.111578359928536 
811	 0.111310912255566 
812	 0.111028464238755 
813	 0.110721022465154 
814	 0.110503011324145 
815	 0.110279340074702 
816	 0.110034528038443 
817	 0.10978506336786 
818	 0.109520443918647 
819	 0.109293865156842 
820	 0.109090010134894 
821	 0.108840861182473 
822	 0.108609047864332 
823	 0.108404062841947 
824	 0.108221970535499 
825	 0.1080499273377 
826	 0.107899268721198 
827	 0.107717697838761 
828	 0.107481471002314 
829	 0.107308696511955 
830	 0.107118338983979 
831	 0.106926007648846 
832	 0.106786468903154 
833	 0.106690671796692 
834	 0.106551946389135 
835	 0.106376394155908 
836	 0.10625715735263 
837	 0.10616416408152 
838	 0.106047267641221 
839	 0.105902719562109 
840	 0.105811321332413 
841	 0.105696544317623 
842	 0.10556675224046 
843	 0.105455077923921 
844	 0.10539702724442 
845	 0.105341288651816 
846	 0.105261608044292 
847	 0.10516229654282 
848	 0.105135466706436 
849	 0.105080097216147 
850	 0.104986987851971 
851	 0.10493315822133 
852	 0.104922863902095 
853	 0.104910370516901 
854	 0.104875740269783 
855	 0.104848407457656 
856	 0.104856807927155 
857	 0.104840499328491 
858	 0.104785536376622 
859	 0.104858434543635 
860	 0.104879574470677 
861	 0.104853876768873 
862	 0.104846345968961 
863	 0.10486065326804 
864	 0.104904923270823 
865	 0.104956756265268 
866	 0.104984243179916 
867	 0.105025539179928 
868	 0.105096239957 
869	 0.105173591228721 
870	 0.105206015947884 
871	 0.105254492752331 
872	 0.10533772658271 
873	 0.105440239420815 
874	 0.105506322464313 
875	 0.10560268191665 
876	 0.105702320317403 
877	 0.105784914536753 
878	 0.105909713109616 
879	 0.106049610760068 
880	 0.106162628339731 
881	 0.10623906251662 
882	 0.106419564836483 
883	 0.106588424761813 
884	 0.106710700555243 
885	 0.106814247323587 
886	 0.106968670065606 
887	 0.107162570504925 
888	 0.107345613965115 
889	 0.107459770288316 
890	 0.107635114899515 
891	 0.107826186347204 
892	 0.108005300577453 
893	 0.108197041390865 
894	 0.108424485394779 
895	 0.108645727283402 
896	 0.108840667856725 
897	 0.109051157166433 
898	 0.109298036556795 
899	 0.109537232578534 
900	 0.109744669761584 
901	 0.109996175367033 
902	 0.110268033412808 
903	 0.11054771831074 
904	 0.110826291403728 
905	 0.111103153004011 
906	 0.111367190605867 
907	 0.111644933888932 
908	 0.111967310535155 
909	 0.112296292283346 
910	 0.112608076741241 
911	 0.112887633178146 
912	 0.113146961146768 
913	 0.113526493820305 
914	 0.113877401101307 
915	 0.114180877140697 
916	 0.114548908706871 
917	 0.114952703486587 
918	 0.115337190756978 
919	 0.115666734677892 
920	 0.115944172001894 
921	 0.116299737920485 
922	 0.116764874200113 
923	 0.117263286480135 
924	 0.117614697377472 
925	 0.118105618866003 
926	 0.118605231501818 
927	 0.118991901548556 
928	 0.119327637563753 
929	 0.119859068833154 
930	 0.12044502909196 
931	 0.120919237598612 
932	 0.121313358676092 
933	 0.121754816745999 
934	 0.122271268640023 
935	 0.122829439681216 
936	 0.123339123649673 
937	 0.123788479410367 
938	 0.124260281308643 
939	 0.124820838297883 
940	 0.125360029990137 
941	 0.125918036739564 
942	 0.126519159201799 
943	 0.127150638488723 
944	 0.127685469675926 
945	 0.128218861691529 
946	 0.128847289148958 
947	 0.129583855203686 
948	 0.130121045824166 
949	 0.130719612224164 
950	 0.131382600334141 
951	 0.132010985800275 
952	 0.132775536062911 
953	 0.133429047252906 
954	 0.13401312916267 
955	 0.134709804910657 
956	 0.135430572099581 
957	 0.136152019159326 
958	 0.136855787896639 
959	 0.137530747064668 
960	 0.138169425842133 
961	 0.138880129565204 
962	 0.139665754307094 
963	 0.140444166428504 
964	 0.141128987366366 
965	 0.14188855340699 
966	 0.142673157709187 
967	 0.143340433106185 
968	 0.14419353719716 
969	 0.14504306818226 
970	 0.145808118715423 
971	 0.14653751754429 
972	 0.14740698303864 
973	 0.148322217121854 
974	 0.149155999211422 
975	 0.149864760095816 
976	 0.150905880948365 
977	 0.151794992423359 
978	 0.15250159559415 
979	 0.153320447275531 
980	 0.15429615082 
981	 0.15513496448775 
982	 0.155928654206635 
983	 0.156913738583184 
984	 0.157643739395764 
985	 0.158481698266705 
986	 0.159413615374057 
987	 0.160227067576448 
988	 0.161020765143179 
989	 0.161908644984425 
990	 0.162861135908089 
991	 0.163782628630805 
992	 0.164660028395734 
993	 0.165586690362884 
994	 0.166487121402661 
995	 0.16727558958591 
996	 0.168150459817796 
997	 0.169153268514463 
998	 0.17006784174945 
999	 0.170756981268904 
1000	 0.171691000782988 
1001	 0.170717202005544 
1002	 0.171579261372654 
1003	 0.172419569863324 
1004	 0.17323014584763 
1005	 0.173996403417599 
1006	 0.174775388510801 
1007	 0.175515591444769 
1008	 0.176334657360556 
1009	 0.177142035716673 
1010	 0.17794383141176 
1011	 0.178747314226911 
1012	 0.179495464474501 
1013	 0.180275734288033 
1014	 0.18105560018249 
1015	 0.181790489616192 
1016	 0.182517911323406 
1017	 0.183218999270854 
1018	 0.183864512810733 
1019	 0.184546924014692 
1020	 0.185242338602345 
1021	 0.185905817560453 
1022	 0.186608663263941 
1023	 0.18726298554362 
1024	 0.187896833858289 
1025	 0.188612063283149 
1026	 0.189324567892202 
1027	 0.190008604210005 
1028	 0.190734030075606 
1029	 0.191438293703322 
1030	 0.19209051660172 
1031	 0.192722451878341 
1032	 0.193353058826094 
1033	 0.193943928559728 
1034	 0.194511867364697 
1035	 0.195048950937036 
1036	 0.195586057382274 
1037	 0.196213379387915 
1038	 0.19682084336761 
1039	 0.1974286451138 
1040	 0.198082175331589 
1041	 0.198666042735006 
1042	 0.199239115999888 
1043	 0.199826340019655 
1044	 0.200392601573352 
1045	 0.200938135859061 
1046	 0.201493007246154 
1047	 0.202096082235486 
1048	 0.202680100505061 
1049	 0.203214329583877 
1050	 0.203796164662704 
1051	 0.204356544293843 
1052	 0.204884504762665 
1053	 0.20547962343958 
1054	 0.206102907427948 
1055	 0.206684478287644 
1056	 0.207238857788207 
1057	 0.207793159314408 
1058	 0.208325608693176 
1059	 0.208865478281799 
1060	 0.209382883340433 
1061	 0.209960725843657 
1062	 0.210522650295664 
1063	 0.211077832794879 
1064	 0.211631206643626 
1065	 0.212168164301153 
1066	 0.212700557143579 
1067	 0.213190615806828 
1068	 0.213722514533982 
1069	 0.214250619969353 
1070	 0.214760895234929 
1071	 0.21528206463001 
1072	 0.215815455666909 
1073	 0.216325508258905 
1074	 0.216827373992514 
1075	 0.217349370667776 
1076	 0.217828528623139 
1077	 0.218284233073915 
1078	 0.218744233518782 
1079	 0.219212757160357 
1080	 0.219681381539382 
1081	 0.220133590249233 
1082	 0.220610686394555 
1083	 0.221080193337222 
1084	 0.221540074041787 
1085	 0.222007531689073 
1086	 0.222488852189365 
1087	 0.222939912377599 
1088	 0.223368788965069 
1089	 0.223822412521858 
1090	 0.224263674643855 
1091	 0.224709338196452 
1092	 0.225148132501582 
1093	 0.225583011448113 
1094	 0.226036742585203 
1095	 0.226479600823919 
1096	 0.226911603890533 
1097	 0.227348917787981 
1098	 0.227779333629947 
1099	 0.228185538220651 
1100	 0.228599199504622 
1101	 0.229011189889697 
1102	 0.229437458512684 
1103	 0.229865944152397 
1104	 0.230296084907611 
1105	 0.230729773932756 
1106	 0.231167025664391 
1107	 0.231566687658605 
1108	 0.231974073327376 
1109	 0.232390911600168 
1110	 0.232819752977865 
1111	 0.233247672886579 
1112	 0.233684383302014 
1113	 0.234110553109682 
1114	 0.234536953491659 
1115	 0.23495698809083 
1116	 0.235358717448883 
1117	 0.235784579569533 
1118	 0.236213354330594 
1119	 0.236657556833568 
1120	 0.237105815848806 
1121	 0.237560431473677 
1122	 0.238001088374191 
1123	 0.238444568221558 
1124	 0.23887997852045 
1125	 0.23932047569766 
1126	 0.239732314694629 
1127	 0.240122604390476 
1128	 0.240517513103564 
1129	 0.240894677456513 
1130	 0.241286379762983 
1131	 0.241683900581371 
1132	 0.242080523739576 
1133	 0.24248831381431 
1134	 0.242880758652697 
1135	 0.243264384147409 
1136	 0.243648741513424 
1137	 0.244044233096749 
1138	 0.244406061022324 
1139	 0.244776760457084 
1140	 0.245158490791274 
1141	 0.245517135840103 
1142	 0.245869420786159 
1143	 0.246203987985811 
1144	 0.246514460576495 
1145	 0.246833986779733 
1146	 0.247132898049689 
1147	 0.247446286403009 
1148	 0.247770631164416 
1149	 0.248095833672035 
1150	 0.24842301887505 
1151	 0.248763566444942 
1152	 0.249085700972394 
1153	 0.249405053300127 
1154	 0.249703267386877 
1155	 0.249971446458187 
1156	 0.250264221696248 
1157	 0.250552558306719 
1158	 0.25084860896881 
1159	 0.251168872665288 
1160	 0.251466557473004 
1161	 0.251746742340916 
1162	 0.252039297911993 
1163	 0.252333719297092 
1164	 0.252621373435771 
1165	 0.252905365572008 
1166	 0.253207155686379 
1167	 0.253486528988681 
1168	 0.253760856991598 
1169	 0.254034509898232 
1170	 0.254306945824215 
1171	 0.254573993413964 
1172	 0.254841666002941 
1173	 0.255097501781267 
1174	 0.25535870205777 
1175	 0.255590188118676 
1176	 0.255780694779125 
1177	 0.256004816954062 
1178	 0.256226691325407 
1179	 0.256452655878946 
1180	 0.256705888544364 
1181	 0.256947161146654 
1182	 0.257188868729759 
1183	 0.257413812606274 
1184	 0.257623639592952 
1185	 0.257814173911713 
1186	 0.25803100548518 
1187	 0.258250392995919 
1188	 0.258451224555134 
1189	 0.258672601305012 
1190	 0.258864831369292 
1191	 0.25900648252415 
1192	 0.259182354644389 
1193	 0.25937376472643 
1194	 0.259558098848373 
1195	 0.259747058921092 
1196	 0.259932403333687 
1197	 0.260113139915564 
1198	 0.260295606207341 
1199	 0.260478480811037 
1200	 0.260664575616498 
1201	 0.260843545939112 
1202	 0.261025553688456 
1203	 0.261191180403496 
1204	 0.261344149524767 
1205	 0.2615015709823 
1206	 0.261646528835172 
1207	 0.261802487585972 
1208	 0.261971053695317 
1209	 0.262127505810056 
1210	 0.262285389184135 
1211	 0.262433827656816 
1212	 0.26257087165433 
1213	 0.262708071659069 
1214	 0.262837124067307 
1215	 0.26297024599961 
1216	 0.263103988647153 
1217	 0.263241180369257 
1218	 0.263367655995681 
1219	 0.263489496638306 
1220	 0.263615800922532 
1221	 0.263736086947678 
1222	 0.263860353586509 
1223	 0.263996440568382 
1224	 0.264118903450634 
1225	 0.264236357466317 
1226	 0.264347669290585 
1227	 0.264442808744823 
1228	 0.264552127647454 
1229	 0.264667467619393 
1230	 0.26477680976007 
1231	 0.264903117910542 
1232	 0.265009119251212 
1233	 0.265103580397571 
1234	 0.265175947753941 
1235	 0.265273359619955 
1236	 0.265369908655133 
1237	 0.26546834435804 
1238	 0.265590186936933 
1239	 0.265680312711252 
1240	 0.265744814668811 
1241	 0.265826224718986 
1242	 0.265902505193546 
1243	 0.26598295688339 
1244	 0.266075086299711 
1245	 0.266160424665588 
1246	 0.26623849088444 
1247	 0.266321001738604 
1248	 0.266404947741182 
1249	 0.26648618346966 
1250	 0.266596516564048 
1251	 0.26669119445148 
1252	 0.266774621205052 
1253	 0.26686634170924 
1254	 0.266929630384328 
1255	 0.266958741934471 
1256	 0.267006479635822 
1257	 0.267046097541152 
1258	 0.267093494989021 
1259	 0.267142606025733 
1260	 0.26719864935341 
1261	 0.267270127226559 
1262	 0.267325182569326 
1263	 0.26737557310836 
1264	 0.267428878403939 
1265	 0.267463713248896 
1266	 0.267513211925916 
1267	 0.267573326769601 
1268	 0.267643303770853 
1269	 0.267705259957418 
1270	 0.267767226728091 
1271	 0.267834932936289 
1272	 0.267899694561707 
1273	 0.26797507453001 
1274	 0.268057212407105 
1275	 0.26814630401398 
1276	 0.268248633613051 
1277	 0.268339513515145 
1278	 0.268434791027328 
1279	 0.26852596166227 
1280	 0.268598780352168 
1281	 0.268690306202415 
1282	 0.268794250568997 
1283	 0.268895447833511 
1284	 0.269004969438869 
1285	 0.26911448870514 
1286	 0.269218900681699 
1287	 0.269317342981547 
1288	 0.269408507998271 
1289	 0.269487041659595 
1290	 0.269584116943161 
1291	 0.269683554786799 
1292	 0.269779980771983 
1293	 0.269904167920313 
1294	 0.269980472127764 
1295	 0.27002711848743 
1296	 0.270076974096737 
1297	 0.270096682160213 
1298	 0.270135979426372 
1299	 0.270191756228333 
1300	 0.270229374833958 
1301	 0.270270671806442 
1302	 0.270289826487415 
1303	 0.270282243425036 
1304	 0.270281170066814 
1305	 0.270282061492067 
1306	 0.270281957401775 
1307	 0.270267528214658 
1308	 0.270238787048814 
1309	 0.270195365572664 
1310	 0.27012004168523 
1311	 0.270056563133758 
1312	 0.269991392393699 
1313	 0.269923157568279 
1314	 0.269846960687592 
1315	 0.269774040909257 
1316	 0.269700131784314 
1317	 0.269628378381111 
1318	 0.269561683019721 
1319	 0.2694862661351 
1320	 0.269401848844558 
1321	 0.269327798259971 
1322	 0.269250539940193 
1323	 0.269191068868093 
1324	 0.269101658163002 
1325	 0.269005745316064 
1326	 0.26891737055089 
1327	 0.268800499150319 
1328	 0.268712455410791 
1329	 0.26865000556813 
1330	 0.268574944782861 
1331	 0.268506099018108 
1332	 0.268418253104181 
1333	 0.268329616149223 
1334	 0.268225481141354 
1335	 0.268085296647338 
1336	 0.267985996750325 
1337	 0.267892045416993 
1338	 0.267809762376092 
1339	 0.267758000131314 
1340	 0.267692414191257 
1341	 0.267636704884179 
1342	 0.267564319454079 
1343	 0.267475824667197 
1344	 0.267391739118024 
1345	 0.267337529928238 
1346	 0.267267761202715 
1347	 0.267213702424128 
1348	 0.267183323613432 
1349	 0.267106260067463 
1350	 0.267017766287407 
1351	 0.266956604812713 
1352	 0.266904890567561 
1353	 0.266847319545366 
1354	 0.266812806906559 
1355	 0.266752008989124 
1356	 0.266671398198759 
1357	 0.266597960761667 
1358	 0.266506881529848 
1359	 0.266438518212688 
1360	 0.266390621974833 
1361	 0.266328394337563 
1362	 0.266281066211153 
1363	 0.266212473287899 
1364	 0.266118764306988 
1365	 0.266032613670534 
1366	 0.265937340045267 
1367	 0.265851061360592 
1368	 0.265777680103837 
1369	 0.265700827873509 
1370	 0.265592348004899 
1371	 0.265461249306299 
1372	 0.265308480207686 
1373	 0.265124710024843 
1374	 0.26493561471729 
1375	 0.264736916460842 
1376	 0.264523690260224 
1377	 0.264303685193643 
1378	 0.264042570401992 
1379	 0.263757400598317 
1380	 0.263456194059531 
1381	 0.263127204399681 
1382	 0.262775541018449 
1383	 0.262419752028264 
1384	 0.262022762013299 
1385	 0.261598732573804 
1386	 0.261133173882716 
1387	 0.260647834676204 
1388	 0.260109357849701 
1389	 0.259517341304885 
1390	 0.258898768603583 
1391	 0.258247039874177 
1392	 0.257553056803012 
1393	 0.256826632858744 
1394	 0.256061808816238 
1395	 0.25524587031412 
1396	 0.254415394995666 
1397	 0.253593619558796 
1398	 0.252762100084655 
1399	 0.251918262851325 
1400	 0.25106470437106 
1401	 0.250220598214266 
1402	 0.249351561521405 
1403	 0.248522661003039 
1404	 0.247708453993793 
1405	 0.246926933022852 
1406	 0.246167297932798 
1407	 0.245423789222123 
1408	 0.24469330605353 
1409	 0.244006741640641 
1410	 0.243333548104536 
1411	 0.242713781061301 
1412	 0.242130163856272 
1413	 0.241608443701939 
1414	 0.241138342478602 
1415	 0.240685684301181 
1416	 0.240288261352287 
1417	 0.239917366010196 
1418	 0.239550720125793 
1419	 0.239231827133781 
1420	 0.238943460289309 
1421	 0.238668101019821 
1422	 0.238419363738063 
1423	 0.238175961593836 
1424	 0.23793026412248 
1425	 0.23768615656789 
1426	 0.237453008035864 
1427	 0.237211517073747 
1428	 0.237005024905069 
1429	 0.23681854959063 
1430	 0.236644532986261 
1431	 0.236500983405058 
1432	 0.236348841559929 
1433	 0.236197883712007 
1434	 0.23606027744458 
1435	 0.235916253921793 
1436	 0.235804455519176 
1437	 0.235717632204036 
1438	 0.235637107348608 
1439	 0.235576871319463 
1440	 0.235529208356618 
1441	 0.235466896091217 
1442	 0.235410165025556 
1443	 0.235357221946211 
1444	 0.235312027673711 
1445	 0.235291584964637 
1446	 0.235285623284835 
1447	 0.235282624286462 
1448	 0.235278996318486 
1449	 0.235260697109782 
1450	 0.235232693610339 
1451	 0.235230018831287 
1452	 0.235236159035355 
1453	 0.23524128084046 
1454	 0.235261152207636 
1455	 0.235284422712777 
1456	 0.235304262143001 
1457	 0.235328785579957 
1458	 0.235366423092096 
1459	 0.235404822054854 
1460	 0.235422815057119 
1461	 0.235478692580112 
1462	 0.235558627157925 
1463	 0.235643361439221 
1464	 0.235748800639079 
1465	 0.235865460793844 
1466	 0.236001347329571 
1467	 0.236129619987663 
1468	 0.236249204337642 
1469	 0.23639719322404 
1470	 0.236554592840505 
1471	 0.236717960609251 
1472	 0.236921074917744 
1473	 0.237131406584845 
1474	 0.237321756225438 
1475	 0.2375255660282 
1476	 0.237709738750139 
1477	 0.237903078774346 
1478	 0.238120071563131 
1479	 0.238325215421043 
1480	 0.238559149581718 
1481	 0.23880519135513 
1482	 0.239049425877652 
1483	 0.239302141073052 
1484	 0.239550533520512 
1485	 0.239800539415403 
1486	 0.240048343525227 
1487	 0.240293656918581 
1488	 0.240543011452777 
1489	 0.240795985705192 
1490	 0.241046610907337 
1491	 0.241304402165401 
1492	 0.241543929405527 
1493	 0.241770864862059 
1494	 0.242001108846472 
1495	 0.242224059681299 
1496	 0.242445005715327 
1497	 0.242667991364683 
1498	 0.242888094804257 
1499	 0.24310215874898 
1500	 0.24331469725378 
1501	 0.24352004552351 
1502	 0.243735766854557 
1503	 0.243953884785871 
1504	 0.244168438276443 
1505	 0.24441112638619 
1506	 0.244642928081173 
1507	 0.244855134547214 
1508	 0.245071341978962 
1509	 0.245261121339116 
1510	 0.245440637889318 
1511	 0.24561981597206 
1512	 0.245796054298786 
1513	 0.2459835716289 
1514	 0.246182364520879 
1515	 0.246381101538948 
1516	 0.246579476990765 
1517	 0.246778158370456 
1518	 0.24697992684383 
1519	 0.247161059983343 
1520	 0.24733669668707 
1521	 0.247510503059494 
1522	 0.247660292966442 
1523	 0.247829209704417 
1524	 0.248019076489445 
1525	 0.248186041392533 
1526	 0.248337497427314 
1527	 0.248498701237553 
1528	 0.248666549854747 
1529	 0.248812890469526 
1530	 0.24895724910365 
1531	 0.249097093627588 
1532	 0.249201013032133 
1533	 0.249333172779176 
1534	 0.249492991076508 
1535	 0.249628578361936 
1536	 0.249764559008517 
1537	 0.249893176932109 
1538	 0.249999568051549 
1539	 0.250117126239134 
1540	 0.250241192568249 
1541	 0.250362742457552 
1542	 0.250479457438596 
1543	 0.250599686627043 
1544	 0.250730747973438 
1545	 0.250847487891835 
1546	 0.25095904187315 
1547	 0.251071432637382 
1548	 0.251167888568351 
1549	 0.251245419934881 
1550	 0.251335144462021 
1551	 0.251421590897911 
1552	 0.25149862146475 
1553	 0.251593067473451 
1554	 0.251682870948242 
1555	 0.251764663579284 
1556	 0.251873113387583 
1557	 0.251986562416305 
1558	 0.252077606235174 
1559	 0.252179485638925 
1560	 0.252274563467371 
1561	 0.2523560463933 
1562	 0.252443097878094 
1563	 0.252536840661822 
1564	 0.252628992595578 
1565	 0.252716994788382 
1566	 0.252800646468282 
1567	 0.252888515120994 
1568	 0.252964629905278 
1569	 0.253031652284859 
1570	 0.253099555791244 
1571	 0.253164470014174 
1572	 0.253225328638154 
1573	 0.253276460466589 
1574	 0.253338150946444 
1575	 0.253403470661487 
1576	 0.253464801821414 
1577	 0.253531951484652 
1578	 0.253590751612035 
1579	 0.253631124397679 
1580	 0.253695670363597 
1581	 0.253773127661662 
1582	 0.25384724746208 
1583	 0.25394519447295 
1584	 0.254016590291134 
1585	 0.254066690662235 
1586	 0.254123354821426 
1587	 0.254175857498888 
1588	 0.2542208413182 
1589	 0.254269707521 
1590	 0.254306445535982 
1591	 0.254317639203293 
1592	 0.254347515162492 
1593	 0.254374647056711 
1594	 0.254416019285269 
1595	 0.254478254406845 
1596	 0.25453130655082 
1597	 0.254591905151339 
1598	 0.254646071565663 
1599	 0.254703767520903 
1600	 0.254743186487959 
1601	 0.254768541546442 
1602	 0.254793302062284 
1603	 0.254793399125014 
1604	 0.254810187566401 
1605	 0.254835083482667 
1606	 0.254863318392125 
1607	 0.254891459980217 
1608	 0.254939710478211 
1609	 0.254992945562429 
1610	 0.255041922366723 
1611	 0.25507851692758 
1612	 0.255101258902091 
1613	 0.255103737716209 
1614	 0.255111331191747 
1615	 0.255136953138913 
1616	 0.255171506665319 
1617	 0.255217815276175 
1618	 0.255255305594184 
1619	 0.255289569524419 
1620	 0.2553184364843 
1621	 0.255335196994129 
1622	 0.255346513059462 
1623	 0.255343160475547 
1624	 0.255321441489961 
1625	 0.255309894875313 
1626	 0.25528634785347 
1627	 0.25528434786495 
1628	 0.255292316603816 
1629	 0.255304536994576 
1630	 0.255328155151137 
1631	 0.25534839555131 
1632	 0.25536760229994 
1633	 0.255398588557605 
1634	 0.255447727417344 
1635	 0.255464269857939 
1636	 0.255476398470832 
1637	 0.255482021488055 
1638	 0.25545986978493 
1639	 0.25545537082759 
1640	 0.255449832038439 
1641	 0.255470825457069 
1642	 0.255503270243142 
1643	 0.255536195813989 
1644	 0.255600107061074 
1645	 0.255633540212458 
1646	 0.255652670170806 
1647	 0.255667299267388 
1648	 0.255679800977062 
1649	 0.25567491749066 
1650	 0.255648072715787 
1651	 0.255634526295587 
1652	 0.255604684644269 
1653	 0.255603328576797 
1654	 0.255626841885777 
1655	 0.255632786288485 
1656	 0.255656829494554 
1657	 0.255645782677616 
1658	 0.255607037885479 
1659	 0.255577826113332 
1660	 0.255534046056198 
1661	 0.255497050905714 
1662	 0.255456607911547 
1663	 0.255433469270091 
1664	 0.255410127640075 
1665	 0.255404424489799 
1666	 0.255430972966491 
1667	 0.25543245718853 
1668	 0.255434189526244 
1669	 0.255426636522426 
1670	 0.255405905195643 
1671	 0.255386142305606 
1672	 0.25536731888118 
1673	 0.2553370520374 
1674	 0.255291420870859 
1675	 0.255258922993593 
1676	 0.255211310568718 
1677	 0.255198748289935 
1678	 0.255226216069521 
1679	 0.255216101342616 
1680	 0.255212610899068 
1681	 0.255191583233008 
1682	 0.25512635444648 
1683	 0.2551001745327 
1684	 0.255084668378043 
1685	 0.255082013020053 
1686	 0.25511467729105 
1687	 0.255110643775759 
1688	 0.255097518053944 
1689	 0.255084482385145 
1690	 0.255052974972136 
1691	 0.25502371114119 
1692	 0.255001029180669 
1693	 0.254973360530143 
1694	 0.254923794256841 
1695	 0.254901800199559 
1696	 0.254891066195464 
1697	 0.25489050199016 
1698	 0.254920854892012 
1699	 0.254916979588366 
1700	 0.25491822888274 
1701	 0.254889199515983 
1702	 0.254821078548982 
1703	 0.254766767715287 
1704	 0.254701658385515 
1705	 0.254640653171501 
1706	 0.254580741562692 
1707	 0.254525055727424 
1708	 0.254479910153746 
1709	 0.254409367664047 
1710	 0.254327200495239 
1711	 0.254252414090795 
1712	 0.254155365899347 
1713	 0.254079040867331 
1714	 0.254021407159971 
1715	 0.253957422784411 
1716	 0.253882289719516 
1717	 0.253840463051229 
1718	 0.253820031073718 
1719	 0.253794222893838 
1720	 0.253803474929456 
1721	 0.253766239183156 
1722	 0.253705611624095 
1723	 0.253646423014041 
1724	 0.253559855488477 
1725	 0.253488855300629 
1726	 0.25343004999477 
1727	 0.253348647508281 
1728	 0.253257278013502 
1729	 0.253170023428215 
1730	 0.25306879372911 
1731	 0.252982345213741 
1732	 0.252906379470454 
1733	 0.252828281112418 
1734	 0.25275790413034 
1735	 0.252664341635537 
1736	 0.252556342313062 
1737	 0.252468781302227 
1738	 0.252376874192706 
1739	 0.252292173130822 
1740	 0.252224464250148 
1741	 0.252147038312936 
1742	 0.252064620890121 
1743	 0.251974413597864 
1744	 0.251893414717986 
1745	 0.251786726413108 
1746	 0.251652304096589 
1747	 0.25153677375142 
1748	 0.251417755467849 
1749	 0.251320239426807 
1750	 0.251222941545043 
1751	 0.251098552396401 
1752	 0.250968845476025 
1753	 0.250838786127633 
1754	 0.250703659555639 
1755	 0.250567014917803 
1756	 0.2504432012044 
1757	 0.250301355882554 
1758	 0.250159391999938 
1759	 0.25005814336297 
1760	 0.24998539550414 
1761	 0.249924286246601 
1762	 0.249851074307809 
1763	 0.249765428763633 
1764	 0.249643453474178 
1765	 0.249498584265112 
1766	 0.249382881570703 
1767	 0.24929853129872 
1768	 0.249212086389668 
1769	 0.249131755887723 
1770	 0.249048682341844 
1771	 0.248940983833149 
1772	 0.248860730561173 
1773	 0.248799765062514 
1774	 0.248753830005579 
1775	 0.248715312729294 
1776	 0.248623842698815 
1777	 0.248529431403895 
1778	 0.248451535115449 
1779	 0.248337455089943 
1780	 0.248255620438234 
1781	 0.248208531529313 
1782	 0.248133925983263 
1783	 0.248074171918476 
1784	 0.248008431772802 
1785	 0.24790685948646 
1786	 0.247854329459198 
1787	 0.247838621686581 
1788	 0.24782273580168 
1789	 0.247849911876045 
1790	 0.247823793543951 
1791	 0.24776587742868 
1792	 0.247717516656625 
1793	 0.247629211832774 
1794	 0.247604974080672 
1795	 0.247621358666095 
1796	 0.247626540942118 
1797	 0.247664007413417 
1798	 0.247662289412973 
1799	 0.247644495336742 
1800	 0.247626681139791 
1801	 0.247018172979941 
1802	 0.24720835003972 
1803	 0.247427247674316 
1804	 0.247675281250722 
1805	 0.247927926780104 
1806	 0.248167914509527 
1807	 0.248366523218824 
1808	 0.24852924827281 
1809	 0.248671385941972 
1810	 0.248782686524741 
1811	 0.248845093955911 
1812	 0.248903736377542 
1813	 0.24896632319979 
1814	 0.248979712430563 
1815	 0.248984862685753 
1816	 0.248998996819805 
1817	 0.249007143925424 
1818	 0.249004287619831 
1819	 0.249006995242902 
1820	 0.249012817856428 
1821	 0.249003839208922 
1822	 0.249031630143695 
1823	 0.249043898488556 
1824	 0.249069535317455 
1825	 0.249116464656976 
1826	 0.249149768092464 
1827	 0.249161425552272 
1828	 0.249135873701664 
1829	 0.249073713367414 
1830	 0.249024039882166 
1831	 0.248942250238358 
1832	 0.248871285533334 
1833	 0.248810731669739 
1834	 0.248770676396501 
1835	 0.24874484319638 
1836	 0.248681584748334 
1837	 0.248646390190423 
1838	 0.248644198527589 
1839	 0.248606025718743 
1840	 0.248554741305543 
1841	 0.248483956514767 
1842	 0.248407199296559 
1843	 0.248315169783141 
1844	 0.248210379877138 
1845	 0.248105526407296 
1846	 0.247995136574017 
1847	 0.247880940972879 
1848	 0.247743429690647 
1849	 0.24761467491545 
1850	 0.247486499133291 
1851	 0.247375661845376 
1852	 0.247220153893211 
1853	 0.24705786698738 
1854	 0.246856637366546 
1855	 0.246604042495948 
1856	 0.246338026337342 
1857	 0.246035590798798 
1858	 0.245739579807556 
1859	 0.245433861969398 
1860	 0.245073496539704 
1861	 0.244674777715098 
1862	 0.244246984487221 
1863	 0.243768435646473 
1864	 0.243249599592439 
1865	 0.242721580622157 
1866	 0.242134513492189 
1867	 0.241477436995922 
1868	 0.240788676520714 
1869	 0.240038002611034 
1870	 0.239239503782589 
1871	 0.238393208034763 
1872	 0.237522569704728 
1873	 0.236582225097434 
1874	 0.235564813275011 
1875	 0.234476023811738 
1876	 0.233341156690259 
1877	 0.232118680584545 
1878	 0.230800457616964 
1879	 0.229413228570125 
1880	 0.227906956801398 
1881	 0.226268497174592 
1882	 0.224569854522214 
1883	 0.222785719715082 
1884	 0.220882119837789 
1885	 0.218938634646592 
1886	 0.216919192035975 
1887	 0.214803368551289 
1888	 0.212627622735192 
1889	 0.21036843061913 
1890	 0.208061031486411 
1891	 0.205768201132674 
1892	 0.20342868342026 
1893	 0.201116925778663 
1894	 0.198799584284163 
1895	 0.196504824461213 
1896	 0.194214015316332 
1897	 0.191984416208644 
1898	 0.189782408590561 
1899	 0.18763958008321 
1900	 0.185598985018115 
1901	 0.183610997732158 
1902	 0.181733132557334 
1903	 0.179993100697867 
1904	 0.17829673494746 
1905	 0.176656970316651 
1906	 0.175123382680982 
1907	 0.173693804263131 
1908	 0.172347979185181 
1909	 0.171117604299845 
1910	 0.169969450762141 
1911	 0.168894007669999 
1912	 0.167897871250136 
1913	 0.166952170245758 
1914	 0.166067355206629 
1915	 0.165255107810919 
1916	 0.164513260383665 
1917	 0.163809888531842 
1918	 0.1631944552987 
1919	 0.162638847555861 
1920	 0.16212666126805 
1921	 0.161657983277896 
1922	 0.161217864100537 
1923	 0.160828530665022 
1924	 0.160491474498924 
1925	 0.16020207158456 
1926	 0.159965286691593 
1927	 0.159788998842109 
1928	 0.159641990227708 
1929	 0.159547919578528 
1930	 0.159482388052906 
1931	 0.159426208332697 
1932	 0.159417477134448 
1933	 0.159454120828262 
1934	 0.159503324241635 
1935	 0.159576867935095 
1936	 0.15968538515259 
1937	 0.159816942243081 
1938	 0.159962533438312 
1939	 0.160137659132541 
1940	 0.160345238781324 
1941	 0.160581367028827 
1942	 0.160829247522496 
1943	 0.161101629692795 
1944	 0.161417582410183 
1945	 0.161749129287352 
1946	 0.162075752386623 
1947	 0.162410595891588 
1948	 0.162762292816597 
1949	 0.163109632966349 
1950	 0.163483594635443 
1951	 0.16388095004394 
1952	 0.164301611685402 
1953	 0.164713258090604 
1954	 0.165140406703218 
1955	 0.165604341362124 
1956	 0.166056934835415 
1957	 0.166521279894675 
1958	 0.1670057859525 
1959	 0.167489967248737 
1960	 0.167969414513001 
1961	 0.168467029995507 
1962	 0.168980768475674 
1963	 0.169499993940409 
1964	 0.170030554047283 
1965	 0.170559284217026 
1966	 0.171095126824957 
1967	 0.171653426534076 
1968	 0.17221109375498 
1969	 0.172785757767243 
1970	 0.173336087987091 
1971	 0.173877805095836 
1972	 0.174428621437927 
1973	 0.174968403604457 
1974	 0.175515829072969 
1975	 0.176077555277359 
1976	 0.176634009799985 
1977	 0.177186462209978 
1978	 0.177757121896107 
1979	 0.178338220955217 
1980	 0.178915208560234 
1981	 0.17947311886534 
1982	 0.180008327401814 
1983	 0.180561999643839 
1984	 0.181099799926113 
1985	 0.181663043524724 
1986	 0.182258193024089 
1987	 0.182834547804781 
1988	 0.183408172763204 
1989	 0.183992181234677 
1990	 0.184565131349045 
1991	 0.185127223912476 
1992	 0.185682889716394 
1993	 0.186221978418188 
1994	 0.186783494608515 
1995	 0.187351447034775 
1996	 0.187910535595972 
1997	 0.188480428014705 
1998	 0.189047344063502 
1999	 0.189602279975858 
2000	 0.190157672531524 
2001	 0.190725063905561 
2002	 0.191289702281336 
2003	 0.191817574189867 
2004	 0.192340877514611 
2005	 0.192858926515647 
2006	 0.193360529390698 
2007	 0.193863915105619 
2008	 0.194361723857934 
2009	 0.194861182396332 
2010	 0.195356622910849 
2011	 0.195852713749643 
2012	 0.196356731096279 
2013	 0.19685214743695 
2014	 0.197337011377761 
2015	 0.197822858063618 
2016	 0.198319648617993 
2017	 0.198813515032199 
2018	 0.199304102803397 
2019	 0.19980691157753 
2020	 0.200288455944309 
2021	 0.20075909206471 
2022	 0.201218747275839 
2023	 0.20165494469787 
2024	 0.202109380754378 
2025	 0.20255934398978 
2026	 0.20301429884744 
2027	 0.203493453219061 
2028	 0.203955975637527 
2029	 0.204398654929339 
2030	 0.204823775539881 
2031	 0.205262906159482 
2032	 0.205688528041118 
2033	 0.206118910876006 
2034	 0.206577940366457 
2035	 0.20699148394404 
2036	 0.207373042705941 
2037	 0.207767953269485 
2038	 0.208160548155533 
2039	 0.208526787167812 
2040	 0.208880291899041 
2041	 0.209228816012135 
2042	 0.209563798987175 
2043	 0.209894428823948 
2044	 0.210249976376891 
2045	 0.210630419382119 
2046	 0.211004449437821 
2047	 0.211387735444201 
2048	 0.211766105424951 
2049	 0.212158678978548 
2050	 0.21252827482706 
2051	 0.212897876444296 
2052	 0.213242277378602 
2053	 0.213551449291607 
2054	 0.213873989656623 
2055	 0.214195520636265 
2056	 0.214494661721287 
2057	 0.214805948485643 
2058	 0.215123343526548 
2059	 0.215441686676909 
2060	 0.215766065353389 
2061	 0.216070984237774 
2062	 0.216369746896451 
2063	 0.216671210453676 
2064	 0.216956653626943 
2065	 0.217247879004761 
2066	 0.217554688759197 
2067	 0.217848927804914 
2068	 0.218134126561685 
2069	 0.218409029464804 
2070	 0.218694982299684 
2071	 0.218980092361524 
2072	 0.21926879861342 
2073	 0.219563233511186 
2074	 0.219855931987312 
2075	 0.220160371812162 
2076	 0.220441222766117 
2077	 0.220710832132831 
2078	 0.220980337827944 
2079	 0.221227722770483 
2080	 0.221488797603047 
2081	 0.221752598742791 
2082	 0.222024229087372 
2083	 0.222303845556159 
2084	 0.222585312901687 
2085	 0.222862790869443 
2086	 0.223146738904838 
2087	 0.223427132452193 
2088	 0.223696545642057 
2089	 0.223980042011615 
2090	 0.224290926101036 
2091	 0.224559196639748 
2092	 0.224816041355519 
2093	 0.225063120059462 
2094	 0.225265854267731 
2095	 0.225495292229932 
2096	 0.22573380588684 
2097	 0.225974074152403 
2098	 0.226217642072154 
2099	 0.226471228573921 
2100	 0.226722007814456 
2101	 0.226971340892175 
2102	 0.227230188072263 
2103	 0.22749946136479 
2104	 0.227759159033072 
2105	 0.22802626617698 
2106	 0.228279416748684 
2107	 0.228522988825773 
2108	 0.228763844395102 
2109	 0.228977134688755 
2110	 0.229226589621682 
2111	 0.229499514035 
2112	 0.229759008798162 
2113	 0.2300340229701 
2114	 0.230316706224417 
2115	 0.230562126748878 
2116	 0.230769508104242 
2117	 0.231013157579489 
2118	 0.231259951999182 
2119	 0.231499844550686 
2120	 0.231759727081307 
2121	 0.231992683065531 
2122	 0.232205099691823 
2123	 0.232415218669938 
2124	 0.23262776456897 
2125	 0.232817005943093 
2126	 0.232983493084642 
2127	 0.233150970684964 
2128	 0.233283201296191 
2129	 0.233442814627163 
2130	 0.233622861030125 
2131	 0.233806483535233 
2132	 0.233955918671948 
2133	 0.234115734056021 
2134	 0.234233625048432 
2135	 0.23430122702889 
2136	 0.23438413941078 
2137	 0.234461897295177 
2138	 0.234525244208306 
2139	 0.234582071752773 
2140	 0.234623411664257 
2141	 0.234646728972272 
2142	 0.234665075244112 
2143	 0.234671195445489 
2144	 0.234669658026625 
2145	 0.234648648241541 
2146	 0.234637816492602 
2147	 0.234621598653286 
2148	 0.234609759167399 
2149	 0.234604030196303 
2150	 0.234616459868456 
2151	 0.23460373529965 
2152	 0.234588779565121 
2153	 0.234559064828339 
2154	 0.234526655213351 
2155	 0.234460549146664 
2156	 0.23437339710996 
2157	 0.234274869265744 
2158	 0.23415156678449 
2159	 0.234012860780434 
2160	 0.233848737740601 
2161	 0.233694661197139 
2162	 0.233511045097121 
2163	 0.233350767475083 
2164	 0.23321766134313 
2165	 0.233084934264236 
2166	 0.23291874161503 
2167	 0.232740085711398 
2168	 0.232566999649838 
2169	 0.2323664500346 
2170	 0.232186639107421 
2171	 0.232023970773902 
2172	 0.231856119926686 
2173	 0.231681668675994 
2174	 0.231516193875281 
2175	 0.231382181105793 
2176	 0.231204296601945 
2177	 0.230993102955386 
2178	 0.230801517955466 
2179	 0.230593102301799 
2180	 0.230390986995198 
2181	 0.230220151391206 
2182	 0.230025951638757 
2183	 0.229817342946309 
2184	 0.229588138354907 
2185	 0.229380179263536 
2186	 0.229171828848067 
2187	 0.228963436979736 
2188	 0.22876121201197 
2189	 0.228562524161849 
2190	 0.228352896352783 
2191	 0.228164639879155 
2192	 0.227995213995087 
2193	 0.227823266359144 
2194	 0.227646062127486 
2195	 0.22749489848364 
2196	 0.227350763854041 
2197	 0.227228001778852 
2198	 0.227135827745608 
2199	 0.227048314251182 
2200	 0.226985689558102 
2201	 0.226913198137927 
2202	 0.226831506522936 
2203	 0.226767778706395 
2204	 0.226726349157007 
2205	 0.226680447573362 
2206	 0.226680301866131 
2207	 0.226745804295434 
2208	 0.226751096019882 
2209	 0.226740701270163 
2210	 0.226761305087976 
2211	 0.22675400661516 
2212	 0.226795713043772 
2213	 0.226904150636636 
2214	 0.226976204940707 
2215	 0.227051569460933 
2216	 0.227119939651159 
2217	 0.227183899068991 
2218	 0.227238815708545 
2219	 0.227288857903719 
2220	 0.227332090103016 
2221	 0.227367024719542 
2222	 0.227385971271363 
2223	 0.227413380572011 
2224	 0.227466610477112 
2225	 0.227517361199345 
2226	 0.227594067394724 
2227	 0.227619958011505 
2228	 0.227638601029953 
2229	 0.227628580354118 
2230	 0.227566355735786 
2231	 0.227543024057875 
2232	 0.22751296135398 
2233	 0.227499410444897 
2234	 0.22750615084911 
2235	 0.227503937937361 
2236	 0.227538104373417 
2237	 0.227510681278104 
2238	 0.22742891597866 
2239	 0.227382535406668 
2240	 0.227308320912829 
2241	 0.22725121121584 
2242	 0.22723950148325 
2243	 0.227207662271186 
2244	 0.227181501126712 
2245	 0.227110731741226 
2246	 0.22704963096243 
2247	 0.226978549904294 
2248	 0.226916479428612 
2249	 0.226849847567052 
2250	 0.226781387071896 
2251	 0.226715778495134 
2252	 0.226660404462323 
2253	 0.226607334194839 
2254	 0.226534092755215 
2255	 0.226460780451968 
2256	 0.226392163106943 
2257	 0.226297351087424 
2258	 0.226232545870566 
2259	 0.226199176762443 
2260	 0.226152436742675 
2261	 0.226103423084424 
2262	 0.226055616651181 
2263	 0.226010336196895 
2264	 0.225964478034366 
2265	 0.225898978772302 
2266	 0.225870389883349 
2267	 0.225885809320407 
2268	 0.225867545107664 
2269	 0.225857544778677 
2270	 0.225833026121171 
2271	 0.225794204042303 
2272	 0.225773153085808 
2273	 0.22574870894874 
2274	 0.225709872692913 
2275	 0.225642427984809 
2276	 0.225524527340293 
2277	 0.225449358707091 
2278	 0.22536716630389 
2279	 0.225312217452339 
2280	 0.225289096135595 
2281	 0.225243473671355 
2282	 0.225199732822876 
2283	 0.225159173595965 
2284	 0.225087949501844 
2285	 0.225077361129702 
2286	 0.225140846218926 
2287	 0.225123325993613 
2288	 0.225115729795904 
2289	 0.225069813004669 
2290	 0.224926928709471 
2291	 0.224838047697573 
2292	 0.224766245541634 
2293	 0.224699976774763 
2294	 0.224656039860895 
2295	 0.22459582467115 
2296	 0.224535258702765 
2297	 0.224477688367325 
2298	 0.224403281730043 
2299	 0.224271197673552 
2300	 0.224152716094844 
2301	 0.224054180266991 
2302	 0.22393040833616 
2303	 0.223847302125753 
2304	 0.223754291791826 
2305	 0.223612678217768 
2306	 0.223490159854823 
2307	 0.223353912899019 
2308	 0.223233644551851 
2309	 0.223131878125493 
2310	 0.223007301808184 
2311	 0.222883329306508 
2312	 0.222746211672142 
2313	 0.222586554110509 
2314	 0.222438129245614 
2315	 0.222279827070739 
2316	 0.222140852330098 
2317	 0.222011617897498 
2318	 0.221879503261942 
2319	 0.221768572475735 
2320	 0.221633013352934 
2321	 0.221506434360383 
2322	 0.221342617731448 
2323	 0.221106502218343 
2324	 0.220938129325981 
2325	 0.220791490259927 
2326	 0.220634962494712 
2327	 0.220522487529007 
2328	 0.220392869092452 
2329	 0.220188737037698 
2330	 0.219967472022062 
2331	 0.21980365904521 
2332	 0.219691968077877 
2333	 0.219609643861603 
2334	 0.219537904900145 
2335	 0.219454936816695 
2336	 0.219332959932438 
2337	 0.219181935334889 
2338	 0.219054321964822 
2339	 0.218886172084395 
2340	 0.218670790497823 
2341	 0.218496890141899 
2342	 0.218304317796999 
2343	 0.218105383781215 
2344	 0.217932571676279 
2345	 0.217725017900943 
2346	 0.217496971475974 
2347	 0.217276074395547 
2348	 0.217041514447023 
2349	 0.216815253953898 
2350	 0.216600595633863 
2351	 0.216363340406478 
2352	 0.216089638522334 
2353	 0.215858040487729 
2354	 0.215675409900319 
2355	 0.215441001031087 
2356	 0.215202021781226 
2357	 0.21494521475793 
2358	 0.214598477614673 
2359	 0.214345622377442 
2360	 0.214165665313415 
2361	 0.213949126217602 
2362	 0.21378794280418 
2363	 0.213541078705127 
2364	 0.213175955611853 
2365	 0.212916133844552 
2366	 0.212689066252947 
2367	 0.21245551391517 
2368	 0.212309718921867 
2369	 0.212095905818096 
2370	 0.211852318151818 
2371	 0.211544768601141 
2372	 0.211202592938371 
2373	 0.210859544228784 
2374	 0.210555951070977 
2375	 0.210244454644741 
2376	 0.209988943498772 
2377	 0.20975299057726 
2378	 0.209509716932186 
2379	 0.209240846004548 
2380	 0.208886962315081 
2381	 0.208583339549617 
2382	 0.208252139126476 
2383	 0.207868374472471 
2384	 0.207561329357152 
2385	 0.20723000140914 
2386	 0.206870680828349 
2387	 0.206562694766824 
2388	 0.206340423581785 
2389	 0.206112683487677 
2390	 0.205760012629602 
2391	 0.205385428723888 
2392	 0.204973476391795 
2393	 0.204540234646854 
2394	 0.204228876205234 
2395	 0.203939018660946 
2396	 0.203620611767173 
2397	 0.2033529201438 
2398	 0.20307565294664 
2399	 0.202773484609105 
2400	 0.20249969686624 
2401	 0.202166195869574 
2402	 0.201730083628176 
2403	 0.201311385806809 
2404	 0.200926007931235 
2405	 0.200552069299321 
2406	 0.200210923668293 
2407	 0.199839857061235 
2408	 0.199423314342891 
2409	 0.198926135902127 
2410	 0.198440989058154 
2411	 0.198058809266186 
2412	 0.1976589850158 
2413	 0.197298628498488 
2414	 0.196885742140398 
2415	 0.196419689032113 
2416	 0.196056337384192 
2417	 0.195718384762006 
2418	 0.195394712374478 
2419	 0.195222106898398 
2420	 0.194895425707696 
2421	 0.194502018024231 
2422	 0.194069351403956 
2423	 0.193524332175867 
2424	 0.193089541636812 
2425	 0.192664014377944 
2426	 0.192233127492224 
2427	 0.191861940873903 
2428	 0.191427436983899 
2429	 0.190934820549697 
2430	 0.190472259619733 
2431	 0.190013456905711 
2432	 0.189630354450447 
2433	 0.189307214310641 
2434	 0.188897804647702 
2435	 0.18849123351734 
2436	 0.188064246488439 
2437	 0.187523449063946 
2438	 0.187113853732921 
2439	 0.186814316170317 
2440	 0.186447719885078 
2441	 0.186098936409109 
2442	 0.185732784809304 
2443	 0.185361222623552 
2444	 0.184974351417799 
2445	 0.184557232961942 
2446	 0.184132151701107 
2447	 0.183670216287324 
2448	 0.183230555694289 
2449	 0.182830708275619 
2450	 0.182459662306311 
2451	 0.182064911708363 
2452	 0.181661143785641 
2453	 0.181304198200565 
2454	 0.180875001993353 
2455	 0.180380565894528 
2456	 0.180006970176044 
2457	 0.17966979882839 
2458	 0.179275125677643 
2459	 0.178963562582299 
2460	 0.178625187085602 
2461	 0.178185281041579 
2462	 0.177817400571485 
2463	 0.177498541517033 
2464	 0.17713403454536 
2465	 0.176818096846712 
2466	 0.17631509898439 
2467	 0.175651123794144 
2468	 0.175168733058283 
2469	 0.174632385761366 
2470	 0.174258971714931 
2471	 0.173927831991856 
2472	 0.173577802225264 
2473	 0.173226361231143 
2474	 0.172874592766809 
2475	 0.172583646773848 
2476	 0.172253001115969 
2477	 0.171974682673104 
2478	 0.171720074052027 
2479	 0.171370686179289 
2480	 0.170970442731756 
2481	 0.170551210480025 
2482	 0.170368569564023 
2483	 0.170089836206843 
2484	 0.169536458389937 
2485	 0.169206253083513 
2486	 0.168777417104199 
2487	 0.168441266637114 
2488	 0.168422721459385 
2489	 0.168222135445686 
2490	 0.167880509880372 
2491	 0.167380236480423 
2492	 0.166993054425469 
2493	 0.166757385934138 
2494	 0.166423897573218 
2495	 0.166299472310167 
2496	 0.166168886827186 
2497	 0.165859552641722 
2498	 0.165668552061446 
2499	 0.165347742892909 
2500	 0.164854006563664 
