Wavelength	mm1900001.asd
350	 3.75446597990134E-02 
351	 3.88022069517452E-02 
352	 3.40156286269568E-02 
353	 3.11937078926643E-02 
354	 0.044404795552577 
355	 3.46846189471041E-02 
356	 0.025257624312136 
357	 3.91755295857233E-02 
358	 3.68981017627899E-02 
359	 0.036396807530976 
360	 4.02767471598264E-02 
361	 4.07738784619473E-02 
362	 4.26685831768258E-02 
363	 4.30719494093856E-02 
364	 4.12278753308017E-02 
365	 4.11095721174598E-02 
366	 3.77775147672496E-02 
367	 3.43304137098652E-02 
368	 0.034528221020129 
369	 3.61489990581862E-02 
370	 3.79321955268976E-02 
371	 3.88374007269178E-02 
372	 3.84420617593427E-02 
373	 4.16984642172724E-02 
374	 4.24514191118947E-02 
375	 3.86620558625706E-02 
376	 3.75511432096375E-02 
377	 3.71703151231182E-02 
378	 0.038821816109093 
379	 4.29191918678776E-02 
380	 4.34256614779007E-02 
381	 4.13217522829713E-02 
382	 3.98057327188282E-02 
383	 4.27396489425259E-02 
384	 4.40039958615472E-02 
385	 4.33882254156295E-02 
386	 4.22182436651771E-02 
387	 4.29756691549446E-02 
388	 4.33801981704629E-02 
389	 4.31116084904996E-02 
390	 4.25134431191544E-02 
391	 4.17187384843129E-02 
392	 4.19918656064497E-02 
393	 4.35388195974302E-02 
394	 4.55140318398826E-02 
395	 4.55249871844484E-02 
396	 4.45485021817701E-02 
397	 4.41599551682089E-02 
398	 4.61580256700771E-02 
399	 4.69220240047605E-02 
400	 4.70465540214528E-02 
401	 4.81727392845596E-02 
402	 4.81830357056609E-02 
403	 0.048187243613304 
404	 4.79568934993571E-02 
405	 4.58917830410121E-02 
406	 4.68846379495074E-02 
407	 4.89513964656756E-02 
408	 4.95251581243331E-02 
409	 4.78790676641801E-02 
410	 4.78255443434396E-02 
411	 4.88976672660881E-02 
412	 4.88346294915187E-02 
413	 4.85936177488049E-02 
414	 4.87132711814632E-02 
415	 4.91257166505436E-02 
416	 4.90675301642229E-02 
417	 4.86810572641455E-02 
418	 4.85027885985022E-02 
419	 4.88414760303166E-02 
420	 4.90369050252962E-02 
421	 4.83325217794703E-02 
422	 4.79327903346654E-02 
423	 4.98096568409563E-02 
424	 4.98475096069516E-02 
425	 4.92811425232913E-02 
426	 4.91219531917326E-02 
427	 0.048622674368395 
428	 4.85355079358838E-02 
429	 4.87484106410276E-02 
430	 4.88693159906773E-02 
431	 4.86464850735889E-02 
432	 4.83524932426376E-02 
433	 0.048380399068759 
434	 4.91354821995175E-02 
435	 4.86807941507009E-02 
436	 4.81416928761333E-02 
437	 4.83965398377959E-02 
438	 4.79796785074972E-02 
439	 4.81985115909631E-02 
440	 4.87765074472414E-02 
441	 0.048764452595735 
442	 4.87230416673577E-02 
443	 4.86635935268605E-02 
444	 4.85892899382992E-02 
445	 4.85749829761397E-02 
446	 4.84196427922311E-02 
447	 4.85214174131648E-02 
448	 4.90908549127567E-02 
449	 4.88187207813478E-02 
450	 4.86707806171639E-02 
451	 4.88654463887712E-02 
452	 4.89377011276978E-02 
453	 4.90056166958473E-02 
454	 4.91050447385183E-02 
455	 4.92326623896603E-02 
456	 0.049308261637751 
457	 4.94509814502978E-02 
458	 4.93912800081067E-02 
459	 4.88622182102379E-02 
460	 4.89733621343422E-02 
461	 4.90736900792082E-02 
462	 4.89182653492357E-02 
463	 0.0490551535237 
464	 4.91549648429075E-02 
465	 4.91411890514122E-02 
466	 4.90853053137382E-02 
467	 4.93825741110072E-02 
468	 4.95520288488499E-02 
469	 4.94446446965763E-02 
470	 4.92220935408922E-02 
471	 4.92297651322443E-02 
472	 4.91788700385185E-02 
473	 4.89566541623998E-02 
474	 4.91780217198831E-02 
475	 4.91290185436818E-02 
476	 4.88659771901777E-02 
477	 4.87803611051089E-02 
478	 0.049006033513795 
479	 4.91226338530457E-02 
480	 4.90236512032777E-02 
481	 4.91013532958806E-02 
482	 0.049030493859428 
483	 4.90352517508701E-02 
484	 4.93004589067304E-02 
485	 4.92641411516962E-02 
486	 0.049100409417485 
487	 0.048984022119273 
488	 4.90449643972424E-02 
489	 0.048871760311789 
490	 4.87861409220824E-02 
491	 4.90111905971182E-02 
492	 4.92740698438914E-02 
493	 4.91527635626627E-02 
494	 4.89146275885404E-02 
495	 4.90682912567137E-02 
496	 4.90968180500857E-02 
497	 4.91026998106249E-02 
498	 4.91591138837425E-02 
499	 4.92133309771335E-02 
500	 4.91511329348397E-02 
501	 4.90670710667125E-02 
502	 4.90773875399605E-02 
503	 4.90927925964196E-02 
504	 4.90895746205633E-02 
505	 4.90572588464611E-02 
506	 4.90028407753093E-02 
507	 4.91302602734273E-02 
508	 4.91894024353517E-02 
509	 4.90529266623318E-02 
510	 0.049169716399613 
511	 4.92122315680675E-02 
512	 4.91307931008122E-02 
513	 4.90417685538248E-02 
514	 4.91307936435791E-02 
515	 4.91791188125508E-02 
516	 4.91374097568797E-02 
517	 4.93424148273014E-02 
518	 4.93353435085071E-02 
519	 4.92524688343759E-02 
520	 4.93411908653281E-02 
521	 4.93307577450661E-02 
522	 4.92916436369427E-02 
523	 4.93014043351651E-02 
524	 4.94205357992777E-02 
525	 4.93782346344624E-02 
526	 4.93576315651521E-02 
527	 4.94999213663821E-02 
528	 4.94792342620897E-02 
529	 4.94475239314402E-02 
530	 4.94426167665141E-02 
531	 0.049434620803713 
532	 4.95503600187094E-02 
533	 4.96522973713553E-02 
534	 4.96592252234438E-02 
535	 4.96718538844274E-02 
536	 4.97411220203558E-02 
537	 4.98394622170511E-02 
538	 4.99019992536408E-02 
539	 4.98705159228473E-02 
540	 4.99279960120385E-02 
541	 5.00864167155066E-02 
542	 5.01098170667242E-02 
543	 5.01530982208306E-02 
544	 5.02489015952398E-02 
545	 0.050377207559262 
546	 5.04443117486834E-02 
547	 5.05199247525944E-02 
548	 5.06031480498116E-02 
549	 5.06389637309952E-02 
550	 5.08075173313543E-02 
551	 5.10181634533683E-02 
552	 5.11770779879334E-02 
553	 5.13149921059683E-02 
554	 5.14580419851792E-02 
555	 5.16283461304542E-02 
556	 5.18442559590269E-02 
557	 5.21358746663262E-02 
558	 5.23566123244178E-02 
559	 5.25025952637006E-02 
560	 0.052862685995753 
561	 0.053100749540065 
562	 5.32808039833217E-02 
563	 5.35741152940755E-02 
564	 5.39287756524649E-02 
565	 5.42378864797346E-02 
566	 5.45051857346211E-02 
567	 5.48596656894212E-02 
568	 5.53210929538709E-02 
569	 5.57934168665394E-02 
570	 5.62123261407445E-02 
571	 5.67240307553443E-02 
572	 5.72725872248444E-02 
573	 5.78209550698905E-02 
574	 5.83503547606659E-02 
575	 5.88898688922037E-02 
576	 5.94663097513656E-02 
577	 6.00692448044508E-02 
578	 6.05915434486965E-02 
579	 6.12376112092845E-02 
580	 6.19509739805665E-02 
581	 6.25881263328005E-02 
582	 6.32666130822474E-02 
583	 6.39535277626247E-02 
584	 6.46410547045324E-02 
585	 6.53778018250431E-02 
586	 6.61552467299024E-02 
587	 6.69472074049932E-02 
588	 6.77391722561245E-02 
589	 6.86083765918498E-02 
590	 6.94305042060581E-02 
591	 7.02066935569959E-02 
592	 7.10528090729952E-02 
593	 7.18203295180904E-02 
594	 7.25642778706024E-02 
595	 7.33323165820792E-02 
596	 7.40430124287243E-02 
597	 0.07475556695132 
598	 7.54782287759274E-02 
599	 7.61959612219726E-02 
600	 0.076924909859015 
601	 7.76424171279291E-02 
602	 7.83253481453468E-02 
603	 7.89562766271422E-02 
604	 7.96035092602003E-02 
605	 8.02808506839611E-02 
606	 0.080964588532602 
607	 8.15569345274132E-02 
608	 8.21232239742784E-02 
609	 8.26843308375994E-02 
610	 8.32006293723084E-02 
611	 8.36977006411104E-02 
612	 8.42116494450747E-02 
613	 8.47283378375109E-02 
614	 8.50594853118928E-02 
615	 8.53914276694636E-02 
616	 0.085767834803744 
617	 8.61273545268258E-02 
618	 8.64817784368064E-02 
619	 8.67934269074672E-02 
620	 8.70607676704926E-02 
621	 8.73727516643703E-02 
622	 8.76755005447881E-02 
623	 8.79150436265869E-02 
624	 8.80701469412072E-02 
625	 8.83388583336687E-02 
626	 8.85932419035115E-02 
627	 8.87853923474856E-02 
628	 8.90068408443491E-02 
629	 8.92261418342125E-02 
630	 8.94242356817767E-02 
631	 8.95977705386346E-02 
632	 8.97906739153017E-02 
633	 8.99956668257495E-02 
634	 9.02037673737682E-02 
635	 9.04055057365852E-02 
636	 9.05940818944171E-02 
637	 9.07822925774159E-02 
638	 9.09688574148518E-02 
639	 9.11072567982115E-02 
640	 9.12376353065218E-02 
641	 9.14023833108636E-02 
642	 9.16314303479522E-02 
643	 9.18565462379739E-02 
644	 9.20674237745542E-02 
645	 9.22760993133012E-02 
646	 9.25206898008993E-02 
647	 0.092647820408805 
648	 0.092790464473538 
649	 0.093082640790276 
650	 9.32827287800178E-02 
651	 9.35141023293167E-02 
652	 0.093783572857614 
653	 9.39976547819544E-02 
654	 9.42844076574098E-02 
655	 9.45513172802943E-02 
656	 9.47479190206264E-02 
657	 9.50327055128567E-02 
658	 9.52732519993743E-02 
659	 9.54980604753465E-02 
660	 9.57949834610569E-02 
661	 9.60812647343744E-02 
662	 9.63773355196943E-02 
663	 9.66891904711013E-02 
664	 9.69867078227536E-02 
665	 9.73297554833453E-02 
666	 9.76479834862281E-02 
667	 0.097891146216245 
668	 0.098250574578624 
669	 9.86045197477949E-02 
670	 9.89265933994575E-02 
671	 9.92753500480745E-02 
672	 9.96449308760071E-02 
673	 0.10003502876254 
674	 0.100445520868073 
675	 0.100887589203725 
676	 0.101258942097204 
677	 0.101597934483739 
678	 0.101994722296918 
679	 0.102399935385587 
680	 0.10283713277671 
681	 0.103295935028274 
682	 0.103716216988074 
683	 0.104105113122902 
684	 0.104558370523855 
685	 0.10512308857574 
686	 0.105595596170137 
687	 0.106054179366733 
688	 0.106535766879503 
689	 0.107043520675479 
690	 0.107585500395533 
691	 0.108103171425721 
692	 0.108576973204681 
693	 0.109084037254361 
694	 0.109571131643882 
695	 0.110085581243168 
696	 0.110681503105994 
697	 0.111254101287594 
698	 0.111775524393409 
699	 0.112287913507457 
700	 0.112894308079605 
701	 0.113487893336905 
702	 0.114049981492562 
703	 0.114592148918748 
704	 0.115154427292846 
705	 0.115703623245951 
706	 0.116261139427107 
707	 0.116862999403119 
708	 0.117420693744712 
709	 0.118011270498491 
710	 0.11863924234112 
711	 0.119182485429965 
712	 0.119708267126735 
713	 0.120241049072901 
714	 0.120794176421735 
715	 0.121380550936947 
716	 0.121966501403368 
717	 0.122517453940476 
718	 0.123009508315795 
719	 0.123524237654732 
720	 0.124053560570534 
721	 0.124567480859089 
722	 0.125019595726563 
723	 0.12551053684317 
724	 0.126002078681934 
725	 0.12643095785102 
726	 0.126873347146177 
727	 0.12727430602685 
728	 0.127647780328907 
729	 0.128069670524035 
730	 0.128447306205911 
731	 0.128784091150824 
732	 0.129095446387054 
733	 0.129375810714106 
734	 0.129679937807072 
735	 0.129954164111363 
736	 0.130131511049957 
737	 0.130368946404009 
738	 0.13057210837154 
739	 0.130710962303472 
740	 0.130845042185561 
741	 0.130974941314229 
742	 0.131077438994356 
743	 0.131138028532801 
744	 0.131183793940128 
745	 0.131188662379086 
746	 0.131186931952837 
747	 0.131219861937021 
748	 0.131167285943088 
749	 0.131080133648542 
750	 0.131001028965933 
751	 0.130941517945337 
752	 0.13083558177517 
753	 0.130672836762376 
754	 0.130473858837055 
755	 0.130298739382558 
756	 0.130152561087074 
757	 0.129982619616112 
758	 0.129724655616599 
759	 0.129468615082583 
760	 0.129216978517262 
761	 0.128963279783771 
762	 0.128700611839655 
763	 0.128418748908779 
764	 0.128131069959111 
765	 0.127838251440801 
766	 0.127477413423535 
767	 0.127153249360081 
768	 0.126854615324283 
769	 0.126515376212279 
770	 0.126150708770095 
771	 0.12577222595282 
772	 0.125394701009568 
773	 0.125034687821601 
774	 0.124645785461329 
775	 0.124266448702455 
776	 0.123919888671456 
777	 0.123534596374498 
778	 0.123143996241098 
779	 0.122768292796828 
780	 0.122411667324983 
781	 0.122016635119124 
782	 0.121629329138017 
783	 0.121253739081282 
784	 0.1208452761651 
785	 0.120457478736625 
786	 0.120084190722917 
787	 0.119710359446699 
788	 0.119325372683792 
789	 0.118980447127198 
790	 0.118619661301672 
791	 0.118186992265555 
792	 0.117847547846121 
793	 0.117516772646865 
794	 0.117156994176187 
795	 0.116783177886594 
796	 0.116378820526518 
797	 0.116023719501345 
798	 0.115737651298612 
799	 0.115408172711496 
800	 0.115083560644864 
801	 0.114761138255427 
802	 0.114425720154446 
803	 0.114063084030435 
804	 0.113747096815973 
805	 0.113457479742928 
806	 0.113127238788216 
807	 0.112853139606212 
808	 0.112566045580672 
809	 0.112253166930754 
810	 0.111994584933265 
811	 0.111737506900592 
812	 0.111445028149508 
813	 0.111128181577329 
814	 0.110916952925713 
815	 0.110709144623276 
816	 0.110459235737345 
817	 0.110166455394959 
818	 0.109920508044229 
819	 0.109710049204038 
820	 0.109506367661205 
821	 0.10927555622255 
822	 0.1090398840275 
823	 0.108805490426029 
824	 0.108583961294381 
825	 0.10839732149135 
826	 0.108250873999819 
827	 0.108077381000198 
828	 0.107843917947417 
829	 0.107694167878434 
830	 0.107479506641592 
831	 0.107245333823565 
832	 0.107113127247495 
833	 0.107039180832583 
834	 0.106925483379982 
835	 0.106767427733772 
836	 0.106648412610059 
837	 0.106534514190793 
838	 0.106407218723438 
839	 0.106273278842432 
840	 0.106178716609475 
841	 0.106066936639335 
842	 0.105952939453267 
843	 0.105857545540164 
844	 0.105749048684185 
845	 0.105707582731258 
846	 0.105662701822597 
847	 0.105524539527044 
848	 0.105524647512762 
849	 0.1054921116478 
850	 0.105398700030215 
851	 0.105353238782903 
852	 0.105327132445008 
853	 0.105306501807263 
854	 0.105278700078949 
855	 0.105233376409121 
856	 0.105233154999924 
857	 0.105226066321098 
858	 0.105182233860886 
859	 0.105200627125569 
860	 0.105215156290976 
861	 0.105235547509687 
862	 0.105276863926322 
863	 0.1052553028224 
864	 0.1052792043832 
865	 0.105354742070692 
866	 0.105416991814659 
867	 0.105420823686806 
868	 0.105436016257366 
869	 0.105496810543326 
870	 0.105585813222813 
871	 0.105679203133953 
872	 0.10573789769497 
873	 0.105770800141868 
874	 0.105861562076999 
875	 0.10596591470292 
876	 0.106069623968518 
877	 0.106168927281879 
878	 0.106266339623714 
879	 0.106397301305555 
880	 0.10652552619546 
881	 0.106622984536926 
882	 0.106809960343078 
883	 0.106971200985197 
884	 0.107082437600805 
885	 0.107185145368511 
886	 0.107340643667137 
887	 0.107558697959435 
888	 0.10776900162159 
889	 0.10786724498303 
890	 0.108050953301525 
891	 0.108223626057862 
892	 0.108367088634554 
893	 0.108598709408579 
894	 0.108796839555311 
895	 0.109010754574413 
896	 0.109256424941385 
897	 0.109432325453886 
898	 0.109693892875133 
899	 0.109948233812593 
900	 0.110126729646136 
901	 0.11040272973203 
902	 0.110688299726651 
903	 0.110953558140249 
904	 0.111203142483262 
905	 0.111496698273578 
906	 0.11179560229145 
907	 0.112087504082452 
908	 0.112378205922885 
909	 0.112688342330375 
910	 0.113017314716803 
911	 0.113302062107499 
912	 0.11348856208327 
913	 0.113844936610151 
914	 0.114238547532837 
915	 0.114599182385172 
916	 0.114953825829898 
917	 0.11536937837698 
918	 0.115732736765527 
919	 0.116040048899603 
920	 0.116427307461079 
921	 0.116829192154414 
922	 0.117244301233652 
923	 0.117671121031272 
924	 0.118097719374703 
925	 0.118558089983354 
926	 0.119006720403664 
927	 0.119406524484163 
928	 0.119765346079062 
929	 0.120300227951116 
930	 0.120863742708524 
931	 0.121324848457343 
932	 0.121825445299662 
933	 0.122297442213307 
934	 0.122758173315362 
935	 0.123248097080234 
936	 0.123815354056226 
937	 0.124227389300622 
938	 0.124669101987099 
939	 0.125336673824977 
940	 0.125965012807869 
941	 0.126474302193948 
942	 0.127003227072858 
943	 0.127679866056876 
944	 0.12820942774085 
945	 0.128728453045628 
946	 0.129333408397346 
947	 0.130036554428305 
948	 0.130607594530026 
949	 0.13123855998535 
950	 0.131916238671376 
951	 0.132551727316096 
952	 0.133287969712391 
953	 0.13394232614519 
954	 0.134581720560927 
955	 0.135360398422858 
956	 0.136051339269454 
957	 0.136735512437474 
958	 0.137423252599979 
959	 0.138074539472021 
960	 0.138659552488735 
961	 0.139433926746226 
962	 0.140305418953854 
963	 0.141002150398909 
964	 0.141709368149214 
965	 0.142446871431518 
966	 0.14323824069623 
967	 0.144084108298915 
968	 0.144827089876651 
969	 0.14558189847648 
970	 0.146366683546807 
971	 0.147126014482895 
972	 0.147872759121945 
973	 0.148811926838488 
974	 0.149819596320165 
975	 0.150611806327142 
976	 0.151406287247855 
977	 0.152192791532411 
978	 0.152997000643216 
979	 0.153867771811988 
980	 0.154819277468882 
981	 0.155779950862977 
982	 0.156656494030152 
983	 0.157406100350852 
984	 0.158245501792932 
985	 0.159110020390523 
986	 0.159943730241126 
987	 0.160746347693594 
988	 0.161717037733895 
989	 0.162579642823971 
990	 0.163354442314006 
991	 0.16425058903148 
992	 0.165505913466294 
993	 0.166403619616593 
994	 0.167235703642426 
995	 0.168450463283813 
996	 0.169069596217649 
997	 0.169761389818419 
998	 0.170660308839957 
999	 0.171635146316774 
1000	 0.172525503662681 
1001	 0.171419940551692 
1002	 0.172235698619725 
1003	 0.172990052999718 
1004	 0.173796783653146 
1005	 0.174715524814125 
1006	 0.175559161306539 
1007	 0.176375062901473 
1008	 0.177168098377799 
1009	 0.177932699828862 
1010	 0.178683698046211 
1011	 0.179469318037449 
1012	 0.180276828684879 
1013	 0.181082078377611 
1014	 0.181876651352134 
1015	 0.182625862766223 
1016	 0.183321810440252 
1017	 0.184039945440873 
1018	 0.184762363774496 
1019	 0.185449395237258 
1020	 0.186139181305183 
1021	 0.186889116462369 
1022	 0.187576257264499 
1023	 0.188249118075325 
1024	 0.188953828325967 
1025	 0.189600885638817 
1026	 0.190204238621206 
1027	 0.190886682401474 
1028	 0.191606671361104 
1029	 0.192253060074381 
1030	 0.192895932053177 
1031	 0.193535236831883 
1032	 0.194163660134459 
1033	 0.194724629120316 
1034	 0.195312948652687 
1035	 0.195920383428896 
1036	 0.196501594564386 
1037	 0.19711568624222 
1038	 0.197722822011598 
1039	 0.198299069146761 
1040	 0.198919511264463 
1041	 0.199531934794424 
1042	 0.200138164699751 
1043	 0.200758397773561 
1044	 0.201352969443124 
1045	 0.201925858505618 
1046	 0.202491257754666 
1047	 0.203071417990394 
1048	 0.203673372868593 
1049	 0.204281049642016 
1050	 0.204861367636847 
1051	 0.205403733904411 
1052	 0.205918681463325 
1053	 0.206485650341875 
1054	 0.207076958062072 
1055	 0.207644095391359 
1056	 0.208247115505425 
1057	 0.208820250625203 
1058	 0.209362947388565 
1059	 0.209888372487387 
1060	 0.210401675429257 
1061	 0.210897899713606 
1062	 0.211405120433287 
1063	 0.211947955038167 
1064	 0.212518011145841 
1065	 0.213085887745415 
1066	 0.21362429113173 
1067	 0.214155226996933 
1068	 0.214674752283739 
1069	 0.215212697126678 
1070	 0.215740814628651 
1071	 0.216258748757889 
1072	 0.216775584490435 
1073	 0.217305148631257 
1074	 0.217810607300755 
1075	 0.218291659502533 
1076	 0.218803664210133 
1077	 0.219291739766291 
1078	 0.219707281227958 
1079	 0.220194615324908 
1080	 0.220701462860766 
1081	 0.22117381926093 
1082	 0.221686330497348 
1083	 0.222172216437132 
1084	 0.222627138243433 
1085	 0.223082821110874 
1086	 0.223545617437092 
1087	 0.223988143258398 
1088	 0.22440458054608 
1089	 0.224840490560586 
1090	 0.22527219071108 
1091	 0.225689606305478 
1092	 0.226067912021726 
1093	 0.226458216397375 
1094	 0.226934800071609 
1095	 0.22743835523222 
1096	 0.227942968391266 
1097	 0.228442788101282 
1098	 0.22888673803255 
1099	 0.229230692862715 
1100	 0.229629131002458 
1101	 0.23002280535809 
1102	 0.230443489768859 
1103	 0.230890379526144 
1104	 0.231321745692264 
1105	 0.231750647149917 
1106	 0.232192728193286 
1107	 0.232602946713293 
1108	 0.233025403336123 
1109	 0.233485764428216 
1110	 0.233911835285252 
1111	 0.234324893064185 
1112	 0.234721174868677 
1113	 0.235137413162192 
1114	 0.235532554210089 
1115	 0.235954517778747 
1116	 0.236403305226783 
1117	 0.236852793743101 
1118	 0.23731595999155 
1119	 0.237768718395763 
1120	 0.23820471597119 
1121	 0.238623082275646 
1122	 0.239037964906065 
1123	 0.239419887106707 
1124	 0.239821584007792 
1125	 0.240239279656 
1126	 0.240649878421721 
1127	 0.241045742713123 
1128	 0.241460600651193 
1129	 0.24188867302147 
1130	 0.242308013265685 
1131	 0.242753870923273 
1132	 0.243152350610991 
1133	 0.243509629555416 
1134	 0.243891786294458 
1135	 0.244247452843842 
1136	 0.244629828255102 
1137	 0.245045720940009 
1138	 0.245429086540391 
1139	 0.245806484470285 
1140	 0.246177010321451 
1141	 0.246530778052979 
1142	 0.246864315948668 
1143	 0.247214223933238 
1144	 0.247572748265407 
1145	 0.247893724322004 
1146	 0.248205761470063 
1147	 0.24851091591949 
1148	 0.248766816431227 
1149	 0.249057287312791 
1150	 0.249360962220792 
1151	 0.24967787741648 
1152	 0.250004107191156 
1153	 0.250331457214019 
1154	 0.250640820489336 
1155	 0.250943021383079 
1156	 0.251248474385663 
1157	 0.251537027382605 
1158	 0.251842409753548 
1159	 0.252173522462342 
1160	 0.252475712884709 
1161	 0.252767499133041 
1162	 0.253057394779096 
1163	 0.253343580460342 
1164	 0.253613717819978 
1165	 0.25385762157335 
1166	 0.254128587130701 
1167	 0.254405835623515 
1168	 0.2546705675625 
1169	 0.254949218442281 
1170	 0.255266650918186 
1171	 0.255528646867282 
1172	 0.255761979896169 
1173	 0.256006748592112 
1174	 0.256221088399273 
1175	 0.256468798573176 
1176	 0.25674589346936 
1177	 0.257001287950173 
1178	 0.257263753000465 
1179	 0.25751513587927 
1180	 0.257766938586941 
1181	 0.257992049371679 
1182	 0.258196869267453 
1183	 0.258394302936908 
1184	 0.258607033224384 
1185	 0.258806168860871 
1186	 0.259013267523383 
1187	 0.259246135634772 
1188	 0.25945366253292 
1189	 0.259643665834818 
1190	 0.259834903998528 
1191	 0.260014627910116 
1192	 0.260209555376035 
1193	 0.26041529544637 
1194	 0.260603364502327 
1195	 0.260791269206159 
1196	 0.260979450990584 
1197	 0.261154778912231 
1198	 0.261329327551944 
1199	 0.26150438591195 
1200	 0.261692141543634 
1201	 0.261859055066461 
1202	 0.262009807127941 
1203	 0.262169179646431 
1204	 0.262322899461492 
1205	 0.262484118267315 
1206	 0.262650137060754 
1207	 0.26281351747544 
1208	 0.262989508510437 
1209	 0.263144259794157 
1210	 0.263288977674757 
1211	 0.263429936316143 
1212	 0.263543864116277 
1213	 0.263679154197571 
1214	 0.263834582267782 
1215	 0.263973736557866 
1216	 0.264110097861834 
1217	 0.264249336393137 
1218	 0.264388524986058 
1219	 0.264518762217075 
1220	 0.264649381410876 
1221	 0.264797373223909 
1222	 0.264916737864588 
1223	 0.265006404405239 
1224	 0.26511726328411 
1225	 0.265230145800407 
1226	 0.26533652260801 
1227	 0.265451755500587 
1228	 0.265557833078265 
1229	 0.265646849367937 
1230	 0.265744188622848 
1231	 0.265848553561875 
1232	 0.265946852338807 
1233	 0.266043167202971 
1234	 0.26613980919715 
1235	 0.266232570650661 
1236	 0.266318842931812 
1237	 0.266410492433414 
1238	 0.266502846132997 
1239	 0.266594786236458 
1240	 0.26669301461523 
1241	 0.266779739646712 
1242	 0.266855102959112 
1243	 0.266941479529721 
1244	 0.267024873676155 
1245	 0.267113304035831 
1246	 0.267217062292167 
1247	 0.267310644510598 
1248	 0.267405293078804 
1249	 0.267486788344781 
1250	 0.267566745231822 
1251	 0.267654686008665 
1252	 0.267734322570122 
1253	 0.267811639124995 
1254	 0.267887535210316 
1255	 0.267962429338899 
1256	 0.268029810638109 
1257	 0.268097566339321 
1258	 0.268152758661159 
1259	 0.268194068557757 
1260	 0.268237521512562 
1261	 0.268258091658351 
1262	 0.268309012308619 
1263	 0.268384841692517 
1264	 0.268446487949092 
1265	 0.268530107534083 
1266	 0.268592196191396 
1267	 0.268637829770203 
1268	 0.26866279828684 
1269	 0.268705525234506 
1270	 0.268735448800138 
1271	 0.268800086879367 
1272	 0.268888113846192 
1273	 0.268963688797002 
1274	 0.269061745305341 
1275	 0.269136697643854 
1276	 0.269185298410913 
1277	 0.269259809104156 
1278	 0.269329863929708 
1279	 0.269421440559266 
1280	 0.269539834455672 
1281	 0.269649589885526 
1282	 0.269773457538808 
1283	 0.269888912658088 
1284	 0.26999766706241 
1285	 0.270110057707252 
1286	 0.27021891208104 
1287	 0.270319716323149 
1288	 0.270413471570684 
1289	 0.270500401006014 
1290	 0.270581922239154 
1291	 0.270649833685763 
1292	 0.27072946945636 
1293	 0.270815362856823 
1294	 0.27088995315362 
1295	 0.270969321598301 
1296	 0.271030356422118 
1297	 0.271076622828645 
1298	 0.271117251205533 
1299	 0.271155210365718 
1300	 0.27117784309343 
1301	 0.271173705966802 
1302	 0.271185621792855 
1303	 0.271203590887578 
1304	 0.271201337799727 
1305	 0.271221323608321 
1306	 0.271214993733459 
1307	 0.27117155409652 
1308	 0.271152051472198 
1309	 0.271119105221437 
1310	 0.271079194282004 
1311	 0.271033752740806 
1312	 0.270988880876365 
1313	 0.270928339469925 
1314	 0.270858812839646 
1315	 0.270780270029531 
1316	 0.270677168254156 
1317	 0.270594995791836 
1318	 0.270505676995426 
1319	 0.270434745499951 
1320	 0.270395162458111 
1321	 0.270337243386658 
1322	 0.270282217883519 
1323	 0.270219905767315 
1324	 0.270138596193244 
1325	 0.270054280778705 
1326	 0.269974151696024 
1327	 0.269887710482985 
1328	 0.269793296557282 
1329	 0.269696807831959 
1330	 0.269607670355581 
1331	 0.269522698145584 
1332	 0.26942325266849 
1333	 0.269326711096812 
1334	 0.269218202168214 
1335	 0.269065563251276 
1336	 0.268973707605507 
1337	 0.268921343810727 
1338	 0.268850249310361 
1339	 0.268802198198045 
1340	 0.268737197591711 
1341	 0.268648639448679 
1342	 0.268570961067881 
1343	 0.268485806471793 
1344	 0.268434161709533 
1345	 0.268387741419957 
1346	 0.268325437669537 
1347	 0.268276499303591 
1348	 0.26822494488298 
1349	 0.268144292831168 
1350	 0.268068254246581 
1351	 0.268004017500244 
1352	 0.26793502166614 
1353	 0.267884737412755 
1354	 0.267868788036165 
1355	 0.267812621531021 
1356	 0.267742979270551 
1357	 0.267680127387102 
1358	 0.267597019041355 
1359	 0.267522246324608 
1360	 0.267459904289506 
1361	 0.267392969449996 
1362	 0.267330816836457 
1363	 0.267254504048161 
1364	 0.267166681023572 
1365	 0.267085350021555 
1366	 0.2669963089796 
1367	 0.266903258405766 
1368	 0.266834762423872 
1369	 0.266768738420426 
1370	 0.266665286671729 
1371	 0.266544502824857 
1372	 0.266392895714562 
1373	 0.266204669140204 
1374	 0.266021055241007 
1375	 0.265835126784972 
1376	 0.265616156043118 
1377	 0.26538477444255 
1378	 0.265123360540169 
1379	 0.264820498794423 
1380	 0.264523206292542 
1381	 0.264226711037103 
1382	 0.263885670483477 
1383	 0.263543619133718 
1384	 0.263148638249344 
1385	 0.26270540543467 
1386	 0.262240448844009 
1387	 0.261755084976819 
1388	 0.261218170880128 
1389	 0.260649616524296 
1390	 0.260032737724586 
1391	 0.259358087919436 
1392	 0.258660605234188 
1393	 0.257934634940231 
1394	 0.257179753423447 
1395	 0.256380912752159 
1396	 0.255582504151687 
1397	 0.254776721060515 
1398	 0.253937703683914 
1399	 0.253118527669294 
1400	 0.25231512934146 
1401	 0.251479909034843 
1402	 0.250615225475419 
1403	 0.249794092967763 
1404	 0.248952876175983 
1405	 0.248176577542914 
1406	 0.247454878547456 
1407	 0.246725909859825 
1408	 0.246009156341533 
1409	 0.245330737221962 
1410	 0.244647394502801 
1411	 0.24403314435708 
1412	 0.243460449083051 
1413	 0.242949547927732 
1414	 0.242490959963475 
1415	 0.24206053114753 
1416	 0.241670122602591 
1417	 0.241299797097532 
1418	 0.240942813982957 
1419	 0.240612853974742 
1420	 0.240314495144311 
1421	 0.240034138351681 
1422	 0.239774332581937 
1423	 0.239527073522829 
1424	 0.23927520445862 
1425	 0.239022308330043 
1426	 0.238789502783909 
1427	 0.238551446963963 
1428	 0.238353920740496 
1429	 0.238190735089683 
1430	 0.238023296080064 
1431	 0.23787899665881 
1432	 0.237730418973797 
1433	 0.237576201937536 
1434	 0.237443217149009 
1435	 0.237313389384793 
1436	 0.237209578231075 
1437	 0.237130119940671 
1438	 0.237055285273242 
1439	 0.237006109448672 
1440	 0.236951952414307 
1441	 0.236874924769034 
1442	 0.236811416342354 
1443	 0.236749393766787 
1444	 0.236695556202701 
1445	 0.236684876684676 
1446	 0.23667096115159 
1447	 0.236655730749028 
1448	 0.236661578121355 
1449	 0.236649643287835 
1450	 0.236633633315989 
1451	 0.236621185981516 
1452	 0.23659665152473 
1453	 0.236600595028821 
1454	 0.236616993454906 
1455	 0.236639246138466 
1456	 0.236689010666817 
1457	 0.236716415660665 
1458	 0.236730483571329 
1459	 0.236760409854447 
1460	 0.236776508333379 
1461	 0.236828898320186 
1462	 0.236901614803584 
1463	 0.236987816994391 
1464	 0.237110123984962 
1465	 0.237217821838089 
1466	 0.237326764207385 
1467	 0.237447810611824 
1468	 0.237550644742576 
1469	 0.237688624813299 
1470	 0.237853905983615 
1471	 0.238030438801032 
1472	 0.238215984455433 
1473	 0.238427186416417 
1474	 0.238628056233175 
1475	 0.238826835699178 
1476	 0.239016564327615 
1477	 0.239207665384594 
1478	 0.239421632632991 
1479	 0.239630923927729 
1480	 0.239865914809665 
1481	 0.240124258296261 
1482	 0.240367532696227 
1483	 0.240616899099165 
1484	 0.240849194251839 
1485	 0.2410609636147 
1486	 0.241301868583168 
1487	 0.241541434703953 
1488	 0.241797293558417 
1489	 0.242093360023071 
1490	 0.242350480613092 
1491	 0.242599064895311 
1492	 0.242832235429541 
1493	 0.243035318057223 
1494	 0.243256692384183 
1495	 0.243484445489249 
1496	 0.243700852922041 
1497	 0.243917521902118 
1498	 0.244131009638702 
1499	 0.244328110401362 
1500	 0.24453484953057 
1501	 0.244747027607368 
1502	 0.244958131838655 
1503	 0.24517458827795 
1504	 0.245381171818785 
1505	 0.245588376768248 
1506	 0.245805329468963 
1507	 0.246008013253845 
1508	 0.246213587849068 
1509	 0.246410855005654 
1510	 0.24660031110104 
1511	 0.246792906678512 
1512	 0.24696854859314 
1513	 0.247150643498373 
1514	 0.24734837438116 
1515	 0.247538698891935 
1516	 0.247737040721729 
1517	 0.247930308925439 
1518	 0.248123544986283 
1519	 0.248306903414596 
1520	 0.24848793253228 
1521	 0.248660438810009 
1522	 0.248821010021781 
1523	 0.248984994288744 
1524	 0.249146269589722 
1525	 0.249308670812226 
1526	 0.249472116280571 
1527	 0.249632400470693 
1528	 0.249798235498815 
1529	 0.24994333388916 
1530	 0.250076071462516 
1531	 0.25020482411312 
1532	 0.250310884109414 
1533	 0.250434922324554 
1534	 0.250574387327287 
1535	 0.250697157481237 
1536	 0.250806010031122 
1537	 0.250933849069454 
1538	 0.251068004639251 
1539	 0.251190741213985 
1540	 0.251327601051439 
1541	 0.251453008407622 
1542	 0.251555070505964 
1543	 0.251663855531664 
1544	 0.251780542556709 
1545	 0.251891661617074 
1546	 0.25199751075652 
1547	 0.252099457110315 
1548	 0.252215853255207 
1549	 0.252307104636484 
1550	 0.252396796217831 
1551	 0.252498836466796 
1552	 0.252583995905458 
1553	 0.252678677977615 
1554	 0.252779171911851 
1555	 0.25286325443331 
1556	 0.252938028804627 
1557	 0.253024217738473 
1558	 0.253127492837285 
1559	 0.253224473938924 
1560	 0.253316391890358 
1561	 0.253419998945464 
1562	 0.253506306769043 
1563	 0.253570450758346 
1564	 0.253656975932794 
1565	 0.253752657109579 
1566	 0.253845495732954 
1567	 0.253947510809539 
1568	 0.254026519279272 
1569	 0.254098717584607 
1570	 0.254167345602369 
1571	 0.254219266979363 
1572	 0.254278675015325 
1573	 0.254340013631749 
1574	 0.254398447043888 
1575	 0.254453028122919 
1576	 0.254508092977072 
1577	 0.254565281087812 
1578	 0.254618487828072 
1579	 0.254658196303523 
1580	 0.25472165450276 
1581	 0.254797424811779 
1582	 0.254867828281566 
1583	 0.254957533471325 
1584	 0.255029096746448 
1585	 0.2550863570985 
1586	 0.255148687595454 
1587	 0.255216523574501 
1588	 0.255265630541929 
1589	 0.255303227144941 
1590	 0.255339987332352 
1591	 0.255356207540878 
1592	 0.255388544722516 
1593	 0.255427389676283 
1594	 0.255469054766669 
1595	 0.255518616643951 
1596	 0.255567164734458 
1597	 0.255631842131926 
1598	 0.255674586291678 
1599	 0.25570527702339 
1600	 0.255730680396203 
1601	 0.255725785572917 
1602	 0.25574357029371 
1603	 0.255769382190345 
1604	 0.255803317144873 
1605	 0.255856393551805 
1606	 0.255902916840317 
1607	 0.255962156076701 
1608	 0.256001767341695 
1609	 0.256022305516408 
1610	 0.256051328687756 
1611	 0.25606933610915 
1612	 0.256088635330018 
1613	 0.256094235510026 
1614	 0.256102952151459 
1615	 0.256136566996815 
1616	 0.25616115083073 
1617	 0.256206764531411 
1618	 0.256266509136777 
1619	 0.256298265755004 
1620	 0.256331229376948 
1621	 0.256361777115167 
1622	 0.256404660495972 
1623	 0.256401420583649 
1624	 0.25637243278088 
1625	 0.256350106754928 
1626	 0.256293352046227 
1627	 0.25628109762748 
1628	 0.256286130974725 
1629	 0.256306288129296 
1630	 0.25634671345404 
1631	 0.256380949448862 
1632	 0.256431762779552 
1633	 0.256468491711243 
1634	 0.25650803847957 
1635	 0.256524553384919 
1636	 0.25653230964529 
1637	 0.256527063903384 
1638	 0.25649080417136 
1639	 0.256483408710668 
1640	 0.256473453984573 
1641	 0.256485039358644 
1642	 0.256520415755837 
1643	 0.256542512927429 
1644	 0.256569024098858 
1645	 0.25659958220976 
1646	 0.25662794107017 
1647	 0.256660666282209 
1648	 0.256719142823432 
1649	 0.256730248191513 
1650	 0.256719025964448 
1651	 0.256705633515772 
1652	 0.256654254247731 
1653	 0.256637412432906 
1654	 0.256632848353109 
1655	 0.256631302909833 
1656	 0.256649801735079 
1657	 0.256644361063064 
1658	 0.256633271039391 
1659	 0.256618896208805 
1660	 0.256600731230643 
1661	 0.256561350576785 
1662	 0.256499444921878 
1663	 0.256462739502879 
1664	 0.256410125590001 
1665	 0.256382861974205 
1666	 0.256382674719713 
1667	 0.256387630520249 
1668	 0.256412185523994 
1669	 0.256411554565335 
1670	 0.256426890816799 
1671	 0.256408471419265 
1672	 0.256335352380412 
1673	 0.256311921094954 
1674	 0.256300447629673 
1675	 0.256289914062799 
1676	 0.256317747986361 
1677	 0.256301282245611 
1678	 0.256253630387199 
1679	 0.256223742066317 
1680	 0.25617105036573 
1681	 0.256152164394308 
1682	 0.256162633411171 
1683	 0.25615910552422 
1684	 0.256170849233962 
1685	 0.256165037667273 
1686	 0.25615067020339 
1687	 0.256129230977415 
1688	 0.256090074214391 
1689	 0.256066236410694 
1690	 0.256052836253643 
1691	 0.256017633057361 
1692	 0.255969425826449 
1693	 0.255942982114377 
1694	 0.255903668265416 
1695	 0.255882970635362 
1696	 0.255895470356677 
1697	 0.255893264976875 
1698	 0.255893196261776 
1699	 0.255877787139892 
1700	 0.255864920587673 
1701	 0.255833733923682 
1702	 0.255770453255868 
1703	 0.255729072508358 
1704	 0.255696309850242 
1705	 0.255647722699801 
1706	 0.255602008048375 
1707	 0.255547832770295 
1708	 0.255472242191499 
1709	 0.255413488528123 
1710	 0.255366545732569 
1711	 0.25530577874943 
1712	 0.255242650994917 
1713	 0.255173560659891 
1714	 0.255081599643501 
1715	 0.255021586661983 
1716	 0.254980770435648 
1717	 0.254932007955499 
1718	 0.254901062083414 
1719	 0.254854357640154 
1720	 0.254791298734548 
1721	 0.254733315120899 
1722	 0.254675320521777 
1723	 0.254619310138126 
1724	 0.254569635668667 
1725	 0.254501737746577 
1726	 0.254427025275767 
1727	 0.254351470257811 
1728	 0.254258981400034 
1729	 0.25418034638553 
1730	 0.254112601443789 
1731	 0.254035681969691 
1732	 0.253957506801218 
1733	 0.253877223382077 
1734	 0.253797993005946 
1735	 0.253703545623156 
1736	 0.25359951253805 
1737	 0.253496157272956 
1738	 0.25337118980355 
1739	 0.253280821708512 
1740	 0.253215308368736 
1741	 0.253125209634855 
1742	 0.253050978332473 
1743	 0.252949745406271 
1744	 0.252804448149695 
1745	 0.252706594998375 
1746	 0.252627282369875 
1747	 0.25253333806926 
1748	 0.252451912298392 
1749	 0.252337304261467 
1750	 0.25222035552387 
1751	 0.252098993667052 
1752	 0.251978180489049 
1753	 0.251858632637731 
1754	 0.251723235800166 
1755	 0.251604706604027 
1756	 0.251482243945674 
1757	 0.25136693774614 
1758	 0.251269028457973 
1759	 0.251133675264465 
1760	 0.251033984103218 
1761	 0.250970558420594 
1762	 0.250870915510656 
1763	 0.250798527295451 
1764	 0.250713327137057 
1765	 0.250579793219883 
1766	 0.250462953470118 
1767	 0.250345786889165 
1768	 0.250227190155179 
1769	 0.250118514795535 
1770	 0.250031901766874 
1771	 0.249975157410056 
1772	 0.249914194919876 
1773	 0.249871999058256 
1774	 0.249817714336016 
1775	 0.249744954196404 
1776	 0.249685666539 
1777	 0.249602687106021 
1778	 0.249501662731008 
1779	 0.249398741670092 
1780	 0.249311470650747 
1781	 0.249227430626334 
1782	 0.249165007882409 
1783	 0.2491163358845 
1784	 0.249071916455577 
1785	 0.24906959063578 
1786	 0.249033798393 
1787	 0.248978118359633 
1788	 0.248932575172512 
1789	 0.248868900726657 
1790	 0.248828538795964 
1791	 0.248809955159466 
1792	 0.2487768211693 
1793	 0.24874490746375 
1794	 0.248718079575279 
1795	 0.248690772567149 
1796	 0.248663973877482 
1797	 0.248635222254309 
1798	 0.248615819427747 
1799	 0.248600053580013 
1800	 0.24858253463398 
1801	 0.248098660487215 
1802	 0.248252732314186 
1803	 0.248434095607753 
1804	 0.248686379386743 
1805	 0.248947298858632 
1806	 0.249169922446879 
1807	 0.249410565444534 
1808	 0.249592552695248 
1809	 0.249741990543842 
1810	 0.249859426682023 
1811	 0.249943526398208 
1812	 0.249998024788926 
1813	 0.250044908724574 
1814	 0.250053201382962 
1815	 0.250065360492767 
1816	 0.250085632245117 
1817	 0.250086037679984 
1818	 0.250055692255171 
1819	 0.25006664386455 
1820	 0.250092153370144 
1821	 0.250098698808221 
1822	 0.250133880856073 
1823	 0.250159227301523 
1824	 0.25018977695058 
1825	 0.250195535655724 
1826	 0.250196126813702 
1827	 0.25022065356049 
1828	 0.250202779094555 
1829	 0.250163824023745 
1830	 0.250114801759243 
1831	 0.250050132914412 
1832	 0.249939206524254 
1833	 0.24983724437904 
1834	 0.249771163234838 
1835	 0.249720525107508 
1836	 0.249704709647452 
1837	 0.249739153716451 
1838	 0.249729142474944 
1839	 0.249700757673009 
1840	 0.249658257611145 
1841	 0.24961502700917 
1842	 0.249533630211971 
1843	 0.249452068574065 
1844	 0.249370917268119 
1845	 0.249267188461528 
1846	 0.249152211562644 
1847	 0.249046804913534 
1848	 0.248930042550206 
1849	 0.248788633622931 
1850	 0.248650612839155 
1851	 0.24850978554257 
1852	 0.248359148102843 
1853	 0.248193752361138 
1854	 0.24802131120411 
1855	 0.247818041613522 
1856	 0.247571989962494 
1857	 0.247306102183373 
1858	 0.247031085230903 
1859	 0.246716317648466 
1860	 0.246365816520398 
1861	 0.245990141787185 
1862	 0.245574039959794 
1863	 0.245094389339908 
1864	 0.244584242620893 
1865	 0.244030338703435 
1866	 0.243435877589484 
1867	 0.242801204187727 
1868	 0.24210836927605 
1869	 0.241370504556376 
1870	 0.240570669340159 
1871	 0.239714916767782 
1872	 0.238804564171332 
1873	 0.23785705218099 
1874	 0.236850464397437 
1875	 0.235785300483689 
1876	 0.234658998518542 
1877	 0.233451179897115 
1878	 0.232165382108716 
1879	 0.230799523646353 
1880	 0.229319696131196 
1881	 0.227729299656553 
1882	 0.226070915989458 
1883	 0.22432378611945 
1884	 0.222443554280104 
1885	 0.220530124874509 
1886	 0.218544026603185 
1887	 0.21643619313935 
1888	 0.214276778229848 
1889	 0.212054041843711 
1890	 0.209775791631772 
1891	 0.207521280676137 
1892	 0.205239576629146 
1893	 0.202970823559234 
1894	 0.200689601985361 
1895	 0.198444176127461 
1896	 0.196188785832358 
1897	 0.193976374009573 
1898	 0.191801884761639 
1899	 0.18967401545054 
1900	 0.187644803515734 
1901	 0.185676311849486 
1902	 0.183809375847444 
1903	 0.182065386994954 
1904	 0.18037768702637 
1905	 0.178746982982085 
1906	 0.177236671799372 
1907	 0.175818256623451 
1908	 0.174471567950232 
1909	 0.173239863344145 
1910	 0.172079584604882 
1911	 0.170991283006679 
1912	 0.169985942468085 
1913	 0.169054798249283 
1914	 0.16821414887282 
1915	 0.167417679530297 
1916	 0.166689168552429 
1917	 0.16602257079574 
1918	 0.165410090309171 
1919	 0.164834924442977 
1920	 0.164305654359716 
1921	 0.16381201283547 
1922	 0.163364798704274 
1923	 0.16296723086563 
1924	 0.162623911016143 
1925	 0.162352561298481 
1926	 0.162111896755921 
1927	 0.161910646968582 
1928	 0.161755650781552 
1929	 0.161654691311827 
1930	 0.161565921406683 
1931	 0.161523051843781 
1932	 0.161531959327224 
1933	 0.16155455427553 
1934	 0.1616142807873 
1935	 0.16170427625569 
1936	 0.161842101064073 
1937	 0.161968511227472 
1938	 0.162101295190632 
1939	 0.162272696153426 
1940	 0.162459512287121 
1941	 0.162661384238709 
1942	 0.162912101241849 
1943	 0.163204890632788 
1944	 0.163490243407224 
1945	 0.163794497360785 
1946	 0.164108687181029 
1947	 0.164426358407215 
1948	 0.164769542558411 
1949	 0.165138931764008 
1950	 0.165506401845585 
1951	 0.165878183584547 
1952	 0.166281723939351 
1953	 0.166682475993828 
1954	 0.167108092206492 
1955	 0.167568499828094 
1956	 0.168026707872201 
1957	 0.168496798930224 
1958	 0.168988254258077 
1959	 0.169471442567781 
1960	 0.169957693277397 
1961	 0.170448027676601 
1962	 0.17093168306167 
1963	 0.171432878770392 
1964	 0.171944876759735 
1965	 0.172462049661815 
1966	 0.172998271803182 
1967	 0.173545688936115 
1968	 0.174085322077495 
1969	 0.174631543719048 
1970	 0.175172588581449 
1971	 0.175707506012329 
1972	 0.176247767453668 
1973	 0.176782345067871 
1974	 0.177331171975496 
1975	 0.177888811946942 
1976	 0.178448668604579 
1977	 0.179018356354015 
1978	 0.17959586316756 
1979	 0.180180315755745 
1980	 0.180747680532026 
1981	 0.181300284542124 
1982	 0.181832585213141 
1983	 0.182385534647001 
1984	 0.182920119686891 
1985	 0.183477457112264 
1986	 0.184064912530452 
1987	 0.184637303854754 
1988	 0.18520415981188 
1989	 0.185788411210796 
1990	 0.186362498225285 
1991	 0.186915277198527 
1992	 0.187463747093619 
1993	 0.187995063011655 
1994	 0.188538972193773 
1995	 0.189080250588128 
1996	 0.189623473070515 
1997	 0.190164737464686 
1998	 0.190717333551414 
1999	 0.191285544393879 
2000	 0.191835703977224 
2001	 0.192394603759664 
2002	 0.192935751464577 
2003	 0.193467296764223 
2004	 0.193986397037841 
2005	 0.194503299640159 
2006	 0.19501810915044 
2007	 0.195531863942274 
2008	 0.196025900502272 
2009	 0.196541617788042 
2010	 0.197085893594934 
2011	 0.197596058365308 
2012	 0.19810523539758 
2013	 0.198598146771375 
2014	 0.199054642444252 
2015	 0.199521669630679 
2016	 0.199994149381181 
2017	 0.200471035922658 
2018	 0.200954627876859 
2019	 0.201460487664869 
2020	 0.201934252414736 
2021	 0.202397666209813 
2022	 0.20286243059589 
2023	 0.203302704960306 
2024	 0.203760953164378 
2025	 0.204251588215098 
2026	 0.204703679730461 
2027	 0.205145840032897 
2028	 0.205570821170361 
2029	 0.205991487525716 
2030	 0.206380380402121 
2031	 0.206800540453958 
2032	 0.207235790597458 
2033	 0.207656509665825 
2034	 0.208080232746243 
2035	 0.208494949060803 
2036	 0.208911370050854 
2037	 0.209306650159028 
2038	 0.209699713204906 
2039	 0.210068822181376 
2040	 0.210405728987818 
2041	 0.210736033640274 
2042	 0.211074065444985 
2043	 0.211410813326982 
2044	 0.211769237142903 
2045	 0.21215416380686 
2046	 0.212519013356826 
2047	 0.212890079630677 
2048	 0.213250961421521 
2049	 0.213610783585662 
2050	 0.213953946549219 
2051	 0.214283297561286 
2052	 0.21461554460187 
2053	 0.214933755123692 
2054	 0.215251457559206 
2055	 0.215569890024187 
2056	 0.215887326776132 
2057	 0.21620616164776 
2058	 0.216524653898381 
2059	 0.216835185585728 
2060	 0.217132410265965 
2061	 0.217457263132554 
2062	 0.217796246123444 
2063	 0.218117540164076 
2064	 0.218468850220115 
2065	 0.218781950871426 
2066	 0.219056279628843 
2067	 0.219335094407407 
2068	 0.219590456185373 
2069	 0.219866266161749 
2070	 0.220135523707755 
2071	 0.220392787394933 
2072	 0.220674680581582 
2073	 0.220973215009894 
2074	 0.221259990115077 
2075	 0.221570979391435 
2076	 0.22184571577845 
2077	 0.222082233614393 
2078	 0.222349059843811 
2079	 0.222609230622552 
2080	 0.222878390717776 
2081	 0.223181937750262 
2082	 0.223462316422099 
2083	 0.223720643971498 
2084	 0.223988715426945 
2085	 0.224269960668581 
2086	 0.22455335551602 
2087	 0.224836224658568 
2088	 0.225143011397469 
2089	 0.225421073104698 
2090	 0.225682550364452 
2091	 0.225941565527034 
2092	 0.226194530334337 
2093	 0.226439203369493 
2094	 0.226664083420759 
2095	 0.226904669938044 
2096	 0.22714194136718 
2097	 0.227386501317647 
2098	 0.227652129901519 
2099	 0.227903409929796 
2100	 0.228149711392815 
2101	 0.22838923122765 
2102	 0.228635676785289 
2103	 0.228873590718709 
2104	 0.229125335822224 
2105	 0.22939841863484 
2106	 0.229648030085335 
2107	 0.229885268605956 
2108	 0.230132002256159 
2109	 0.230362727771428 
2110	 0.230613195741617 
2111	 0.230882641670997 
2112	 0.231150585156173 
2113	 0.231432307419541 
2114	 0.231707281009426 
2115	 0.231968934089434 
2116	 0.232233460220351 
2117	 0.232471723531299 
2118	 0.232678701819422 
2119	 0.232908762640105 
2120	 0.233129011412355 
2121	 0.233364380184329 
2122	 0.233633802201124 
2123	 0.233862116455019 
2124	 0.234091956778029 
2125	 0.234284350974836 
2126	 0.234423316295679 
2127	 0.234584554624468 
2128	 0.234734629036239 
2129	 0.234882605386577 
2130	 0.235041677122967 
2131	 0.235185889553503 
2132	 0.235335696923375 
2133	 0.235492272963534 
2134	 0.235609608504565 
2135	 0.235716227838075 
2136	 0.235810460855892 
2137	 0.235853727085108 
2138	 0.235931403698172 
2139	 0.236054544837718 
2140	 0.236112439639286 
2141	 0.236151269217499 
2142	 0.236169068519648 
2143	 0.236128536664523 
2144	 0.236102970521611 
2145	 0.236064181948254 
2146	 0.2360369430495 
2147	 0.236019127789069 
2148	 0.235987473530891 
2149	 0.235962076668284 
2150	 0.235947900750351 
2151	 0.235919973469317 
2152	 0.23588088025926 
2153	 0.235847829876241 
2154	 0.235827148484304 
2155	 0.235776885722006 
2156	 0.235736440011213 
2157	 0.235644769535913 
2158	 0.235519275328715 
2159	 0.235370125674169 
2160	 0.235153313191659 
2161	 0.234974993736818 
2162	 0.234779515687012 
2163	 0.23460661411786 
2164	 0.234465769755393 
2165	 0.234328389473262 
2166	 0.234174507962324 
2167	 0.234024488589006 
2168	 0.233861401615166 
2169	 0.23368317158524 
2170	 0.233508294500829 
2171	 0.233322885998493 
2172	 0.233149961834013 
2173	 0.23298904714601 
2174	 0.232809559651932 
2175	 0.23264068789902 
2176	 0.232445459351215 
2177	 0.232210998026047 
2178	 0.231996333280737 
2179	 0.231767652536432 
2180	 0.231557500025255 
2181	 0.231370526242071 
2182	 0.23117700411087 
2183	 0.230973623262823 
2184	 0.230805844403789 
2185	 0.230610168968781 
2186	 0.230408155173953 
2187	 0.230199253190567 
2188	 0.229969753340969 
2189	 0.229768306559356 
2190	 0.229564478674445 
2191	 0.229382974100306 
2192	 0.22923093339005 
2193	 0.229071822508191 
2194	 0.228924872838987 
2195	 0.228768785853796 
2196	 0.228588943354908 
2197	 0.228450647707562 
2198	 0.228301478331851 
2199	 0.228208973666426 
2200	 0.228197346922597 
2201	 0.228159872682474 
2202	 0.228138491849687 
2203	 0.228130399189009 
2204	 0.228106904133195 
2205	 0.228053417851419 
2206	 0.228052373020882 
2207	 0.228074365371772 
2208	 0.228097144690762 
2209	 0.228148460479327 
2210	 0.228188598101863 
2211	 0.228220905268242 
2212	 0.228268547616035 
2213	 0.228343682644188 
2214	 0.228388744150587 
2215	 0.228426690589557 
2216	 0.228460993211866 
2217	 0.228457227949245 
2218	 0.228487771429761 
2219	 0.228534968532893 
2220	 0.228589652588119 
2221	 0.22868235422567 
2222	 0.228748837562467 
2223	 0.22879210740775 
2224	 0.228832663375488 
2225	 0.228853986644522 
2226	 0.228851029361616 
2227	 0.22883919058901 
2228	 0.228803324074157 
2229	 0.228796264369351 
2230	 0.228781813946518 
2231	 0.228775578224739 
2232	 0.228805885227447 
2233	 0.22880098343019 
2234	 0.228766291662708 
2235	 0.228750137263621 
2236	 0.22873499954243 
2237	 0.22871803583504 
2238	 0.228707966848738 
2239	 0.228688841004516 
2240	 0.228659929882082 
2241	 0.228636020182102 
2242	 0.228621632485736 
2243	 0.228590430813516 
2244	 0.228575642639621 
2245	 0.22851312247587 
2246	 0.228407785953094 
2247	 0.228326785340586 
2248	 0.228261698940749 
2249	 0.228188186046746 
2250	 0.228142306102291 
2251	 0.228141935006791 
2252	 0.228098919682314 
2253	 0.228050629281926 
2254	 0.22798660955592 
2255	 0.227900511053076 
2256	 0.227821800330356 
2257	 0.22771726993758 
2258	 0.227652892741452 
2259	 0.227615657330865 
2260	 0.22756760919687 
2261	 0.227535248306568 
2262	 0.227500626960407 
2263	 0.227468076704949 
2264	 0.227419575435547 
2265	 0.227342788003382 
2266	 0.227312047832245 
2267	 0.227302209201088 
2268	 0.227279679928094 
2269	 0.227284203931947 
2270	 0.22730204078378 
2271	 0.227270418643324 
2272	 0.227195914935794 
2273	 0.227157278595933 
2274	 0.227113613854616 
2275	 0.227069623508633 
2276	 0.227053010701186 
2277	 0.226973812622804 
2278	 0.226844946122229 
2279	 0.226767501218621 
2280	 0.226650693352118 
2281	 0.226598287968418 
2282	 0.226627078699175 
2283	 0.226603159861797 
2284	 0.226580226635097 
2285	 0.226556870155017 
2286	 0.226530317576139 
2287	 0.226480357934924 
2288	 0.226410332085904 
2289	 0.226354595157094 
2290	 0.226280373354961 
2291	 0.226223140999968 
2292	 0.22620964925888 
2293	 0.22616060599322 
2294	 0.226094234159618 
2295	 0.226009852658993 
2296	 0.225888026744905 
2297	 0.225786243175945 
2298	 0.225676685653823 
2299	 0.225600950245532 
2300	 0.225575844035522 
2301	 0.225503938529733 
2302	 0.225394448804658 
2303	 0.22529657978884 
2304	 0.225132586766075 
2305	 0.224987094662804 
2306	 0.224876325234056 
2307	 0.224791040093369 
2308	 0.224689761253067 
2309	 0.224617609070495 
2310	 0.224503011646534 
2311	 0.224369240859109 
2312	 0.224229922780027 
2313	 0.224063692463717 
2314	 0.223925764483247 
2315	 0.223796055704167 
2316	 0.223652567547948 
2317	 0.223506553192449 
2318	 0.223373031309631 
2319	 0.223236678889212 
2320	 0.223090911040783 
2321	 0.222989893246915 
2322	 0.222828364955447 
2323	 0.222590102174077 
2324	 0.222399811504993 
2325	 0.222181192886074 
2326	 0.222012057364513 
2327	 0.221897084896744 
2328	 0.221787810144941 
2329	 0.221646910977042 
2330	 0.221521345836029 
2331	 0.221386158998782 
2332	 0.221282934531689 
2333	 0.221224605157642 
2334	 0.221116779078312 
2335	 0.220967396298399 
2336	 0.220834978224573 
2337	 0.220724666468568 
2338	 0.220586024803267 
2339	 0.220495437844196 
2340	 0.220339604160805 
2341	 0.220065918204654 
2342	 0.219856668147609 
2343	 0.219640389395003 
2344	 0.219455606951561 
2345	 0.219275445662005 
2346	 0.219148755724966 
2347	 0.218962847641052 
2348	 0.218753257487825 
2349	 0.218530338713246 
2350	 0.218300010485038 
2351	 0.218057390748112 
2352	 0.217773984719588 
2353	 0.21752069866412 
2354	 0.217276342887476 
2355	 0.217024369910708 
2356	 0.216781947410191 
2357	 0.216520186419445 
2358	 0.2162313964475 
2359	 0.215977477642515 
2360	 0.215748930412868 
2361	 0.215503411385835 
2362	 0.21526820950771 
2363	 0.215012186291517 
2364	 0.214687280404785 
2365	 0.214450830849497 
2366	 0.214310331612632 
2367	 0.2140855323774 
2368	 0.213863717209303 
2369	 0.213631476208829 
2370	 0.213364329110946 
2371	 0.21303294464739 
2372	 0.21275401961412 
2373	 0.212469644763371 
2374	 0.212094622073261 
2375	 0.211822270297899 
2376	 0.211589852141761 
2377	 0.211303707496991 
2378	 0.2110561545512 
2379	 0.21074707034233 
2380	 0.210368005629842 
2381	 0.210025264022248 
2382	 0.209735119840169 
2383	 0.209403552264101 
2384	 0.209089701728105 
2385	 0.208851823918331 
2386	 0.208555426716413 
2387	 0.208263654255291 
2388	 0.208010196638087 
2389	 0.207677199249379 
2390	 0.207276824118296 
2391	 0.206892671583938 
2392	 0.206573264559173 
2393	 0.206272192859502 
2394	 0.206010505942757 
2395	 0.205829494431401 
2396	 0.20557138058188 
2397	 0.205206907382879 
2398	 0.204829053711919 
2399	 0.204424565594463 
2400	 0.204096726363595 
2401	 0.203819605991985 
2402	 0.203432685150274 
2403	 0.203088572524153 
2404	 0.202775787173608 
2405	 0.202331835416057 
2406	 0.202013835992083 
2407	 0.201749428982145 
2408	 0.201295583744599 
2409	 0.200855228329167 
2410	 0.200399982712867 
2411	 0.199907607009964 
2412	 0.199495503312343 
2413	 0.199088553537591 
2414	 0.198703552821333 
2415	 0.198339560914136 
2416	 0.197951212597834 
2417	 0.19751790808349 
2418	 0.197154959314846 
2419	 0.196807943326615 
2420	 0.196469927519323 
2421	 0.196235590387676 
2422	 0.195896432927645 
2423	 0.195497476338689 
2424	 0.195103880552143 
2425	 0.194624142264679 
2426	 0.194189256912327 
2427	 0.193824600852578 
2428	 0.193387662457859 
2429	 0.192914739029023 
2430	 0.192460709215708 
2431	 0.191956447452837 
2432	 0.191508050506066 
2433	 0.191142783435287 
2434	 0.190708723383379 
2435	 0.190180489095413 
2436	 0.189770810461478 
2437	 0.189412012881605 
2438	 0.189061724428646 
2439	 0.188848349797926 
2440	 0.188465967948821 
2441	 0.188000790752845 
2442	 0.187499050735792 
2443	 0.186860630853402 
2444	 0.186386599863299 
2445	 0.185946059436466 
2446	 0.185513221446424 
2447	 0.185196227591596 
2448	 0.184793384881894 
2449	 0.184294515084173 
2450	 0.183859766070924 
2451	 0.183428995753195 
2452	 0.183015361322042 
2453	 0.182723156048929 
2454	 0.182436215185179 
2455	 0.182142095932403 
2456	 0.181848022879545 
2457	 0.181572468635604 
2458	 0.181139083350112 
2459	 0.180548052527993 
2460	 0.180170822024163 
2461	 0.179903579272519 
2462	 0.179511751194626 
2463	 0.179128735887502 
2464	 0.178725417263143 
2465	 0.17817939385786 
2466	 0.177736510045318 
2467	 0.177501323220619 
2468	 0.177237419925593 
2469	 0.17684009449706 
2470	 0.176431635430997 
2471	 0.176004516841299 
2472	 0.17543037578458 
2473	 0.175213002238377 
2474	 0.175018349717579 
2475	 0.174702190544564 
2476	 0.174342880502505 
2477	 0.173905725580856 
2478	 0.173420503874659 
2479	 0.173026138912604 
2480	 0.172817176988348 
2481	 0.17248115958757 
2482	 0.172145084444389 
2483	 0.171983986210814 
2484	 0.171667090716298 
2485	 0.171332244683474 
2486	 0.171068918834097 
2487	 0.170684175729517 
2488	 0.170475448657378 
2489	 0.170388691458122 
2490	 0.170150487577911 
2491	 0.169862098982897 
2492	 0.169472299622313 
2493	 0.169051804591698 
2494	 0.16880060096866 
2495	 0.168535590370933 
2496	 0.168233538339264 
2497	 0.167900298467693 
2498	 0.167574986853893 
2499	 0.167411449486948 
2500	 0.167129397689138 
