Wavelength	mm1900006.asd
350	 4.89206843529101E-02 
351	 5.17912960593893E-02 
352	 4.46762005793555E-02 
353	 3.26654537990494E-02 
354	 2.92091654197847E-02 
355	 3.31491272043341E-02 
356	 3.90131077681053E-02 
357	 4.20316080430469E-02 
358	 0.045229104062832 
359	 4.12289910534677E-02 
360	 3.67320088330396E-02 
361	 4.46332832067588E-02 
362	 4.09924146052801E-02 
363	 3.88129875341628E-02 
364	 4.30771775626905E-02 
365	 3.92213378302824E-02 
366	 3.78260165612978E-02 
367	 4.04474986143448E-02 
368	 4.43260064374003E-02 
369	 4.03893085265296E-02 
370	 3.94639171516443E-02 
371	 4.14790259510598E-02 
372	 3.94787547338463E-02 
373	 4.30545947267136E-02 
374	 0.044810344059584 
375	 0.041680826699554 
376	 4.15610379881872E-02 
377	 4.14725260011597E-02 
378	 4.09294338303796E-02 
379	 0.040494639850048 
380	 4.26131491535847E-02 
381	 4.27416692742202E-02 
382	 4.22477596851535E-02 
383	 4.61255984328746E-02 
384	 4.41334661204277E-02 
385	 0.041450259424241 
386	 4.24560482359801E-02 
387	 0.046185595847827 
388	 4.58057987314684E-02 
389	 4.37113990618274E-02 
390	 4.41615460639467E-02 
391	 4.40860502467564E-02 
392	 4.52359889294221E-02 
393	 4.69932004871306E-02 
394	 4.67665291268397E-02 
395	 4.53816927560015E-02 
396	 4.52753367139657E-02 
397	 4.73812036718127E-02 
398	 4.93320797731382E-02 
399	 4.92573393022657E-02 
400	 4.78112348988065E-02 
401	 4.67701626424677E-02 
402	 4.75642365076852E-02 
403	 0.048093167127704 
404	 4.78087350965815E-02 
405	 4.79289291885418E-02 
406	 4.86069948522345E-02 
407	 4.93657887536125E-02 
408	 4.95677696332649E-02 
409	 4.82661020695176E-02 
410	 4.82524817641228E-02 
411	 4.92471724419048E-02 
412	 4.96323507876456E-02 
413	 4.98478685587117E-02 
414	 4.97520745448731E-02 
415	 4.96183406125598E-02 
416	 5.03022089223479E-02 
417	 5.01280127132525E-02 
418	 4.98986849412142E-02 
419	 5.03322920341734E-02 
420	 4.96852927034184E-02 
421	 4.91161508357067E-02 
422	 4.92772599240524E-02 
423	 5.02348971282619E-02 
424	 4.98039022576996E-02 
425	 4.94538681796433E-02 
426	 4.99000075519378E-02 
427	 4.96441721950569E-02 
428	 4.93907320897525E-02 
429	 4.93361891739473E-02 
430	 4.94489700637318E-02 
431	 0.049354975664897 
432	 4.91915261454542E-02 
433	 4.90532760658025E-02 
434	 4.89669941996647E-02 
435	 4.90836789188228E-02 
436	 4.91586755556034E-02 
437	 4.90030037483232E-02 
438	 4.87149002182009E-02 
439	 4.87206583840381E-02 
440	 4.89804841180106E-02 
441	 4.92044718824963E-02 
442	 4.92521265181326E-02 
443	 4.93232890643916E-02 
444	 4.94438049289831E-02 
445	 4.93229831069259E-02 
446	 4.91698934713439E-02 
447	 4.91769607629786E-02 
448	 4.93991583003706E-02 
449	 4.93511036015807E-02 
450	 4.93778481155632E-02 
451	 4.96055398740782E-02 
452	 4.99280574045692E-02 
453	 4.99241318845615E-02 
454	 4.96843663616485E-02 
455	 4.94734173027222E-02 
456	 4.97661149312487E-02 
457	 4.98825048713745E-02 
458	 4.98301465988782E-02 
459	 4.98968498127604E-02 
460	 4.98991275364852E-02 
461	 4.98356902948081E-02 
462	 0.049752494982829 
463	 4.97361953201994E-02 
464	 4.98201452047512E-02 
465	 4.97652981672359E-02 
466	 4.94575613249401E-02 
467	 0.049547657954829 
468	 4.99013381832672E-02 
469	 0.050118628429498 
470	 4.96975814336869E-02 
471	 4.97919517409962E-02 
472	 4.99286566420816E-02 
473	 4.96957792046306E-02 
474	 4.94527411945627E-02 
475	 4.94594127571447E-02 
476	 4.96093915071495E-02 
477	 4.96447780555863E-02 
478	 4.96476984888205E-02 
479	 4.96980662239673E-02 
480	 4.97560026003251E-02 
481	 4.96097539440419E-02 
482	 4.97098933522435E-02 
483	 4.98671248975125E-02 
484	 4.98225411104193E-02 
485	 4.98132582246988E-02 
486	 4.97800125423924E-02 
487	 4.97058058508316E-02 
488	 4.96189455989188E-02 
489	 0.04961535432478 
490	 4.96710789877002E-02 
491	 0.049726712788062 
492	 4.96839990894277E-02 
493	 4.97210173861892E-02 
494	 4.97952041308813E-02 
495	 4.97774054978612E-02 
496	 4.97626378963738E-02 
497	 4.96729765786346E-02 
498	 4.95557270723264E-02 
499	 4.96677354996302E-02 
500	 4.97687677310294E-02 
501	 4.97339377745333E-02 
502	 0.049573155650562 
503	 0.049717684400518 
504	 4.97675607329115E-02 
505	 4.96664902662643E-02 
506	 4.96890026656273E-02 
507	 4.97872017536803E-02 
508	 4.98758658977434E-02 
509	 4.98979862714505E-02 
510	 4.99095140811897E-02 
511	 4.97972524613766E-02 
512	 4.96479304176087E-02 
513	 4.96372741911741E-02 
514	 4.96951018134547E-02 
515	 0.049728254599647 
516	 4.97386969729639E-02 
517	 4.99072544905755E-02 
518	 4.99363892168246E-02 
519	 0.04988320092864 
520	 4.98988828709211E-02 
521	 4.99561345612566E-02 
522	 4.99718355486188E-02 
523	 4.99636339737465E-02 
524	 5.00534647574245E-02 
525	 0.050067541002553 
526	 0.049999575781718 
527	 4.99141226611108E-02 
528	 0.049959635719799 
529	 5.00785348231249E-02 
530	 5.01747549900846E-02 
531	 5.01467917043918E-02 
532	 5.01337567168367E-02 
533	 5.01646089433132E-02 
534	 5.02207579566394E-02 
535	 5.02147387796905E-02 
536	 5.02588692669451E-02 
537	 5.03667768522862E-02 
538	 5.04962912059566E-02 
539	 5.05368052798672E-02 
540	 5.05056535062291E-02 
541	 5.04985335235433E-02 
542	 5.06999795494004E-02 
543	 5.08521379645462E-02 
544	 5.09171489737084E-02 
545	 5.09418367723741E-02 
546	 5.10347079286161E-02 
547	 5.11506485307977E-02 
548	 5.12622635423062E-02 
549	 5.13625398385065E-02 
550	 0.051460225608791 
551	 5.15691167703715E-02 
552	 5.17051804629826E-02 
553	 5.19001008737593E-02 
554	 5.20331856509587E-02 
555	 5.21498342573895E-02 
556	 5.23673428429513E-02 
557	 5.25844995093732E-02 
558	 5.27514129013913E-02 
559	 5.29111939888477E-02 
560	 5.32681289731684E-02 
561	 5.35635444108212E-02 
562	 5.37963988386514E-02 
563	 5.40528544787996E-02 
564	 5.43584217285558E-02 
565	 5.46747892562512E-02 
566	 5.50060026439817E-02 
567	 5.54067096374726E-02 
568	 5.58138300361656E-02 
569	 5.61979152104724E-02 
570	 5.65820130250483E-02 
571	 5.71397754774548E-02 
572	 5.76960932858987E-02 
573	 5.81817699828546E-02 
574	 0.058621001229272 
575	 5.91699326082176E-02 
576	 5.97779843948358E-02 
577	 6.03746911130312E-02 
578	 6.09140653590575E-02 
579	 6.15153872323837E-02 
580	 6.21450694399581E-02 
581	 6.27314461509045E-02 
582	 6.34435230758393E-02 
583	 6.41447287127414E-02 
584	 6.47914831021923E-02 
585	 6.55107298739593E-02 
586	 0.066288922658121 
587	 0.067077304329786 
588	 6.78419023132417E-02 
589	 6.86818310370477E-02 
590	 6.95159302142905E-02 
591	 7.03118368986818E-02 
592	 0.071090048694186 
593	 7.18320425753184E-02 
594	 0.072565246953349 
595	 7.33020404778095E-02 
596	 7.39865995074235E-02 
597	 7.47179727785164E-02 
598	 7.54602732912601E-02 
599	 7.61219200047771E-02 
600	 7.67964812656278E-02 
601	 7.75393899532699E-02 
602	 7.83146407430395E-02 
603	 0.078934542794336 
604	 7.95238972611411E-02 
605	 8.01529600646819E-02 
606	 8.08441341681372E-02 
607	 8.14634564790053E-02 
608	 8.20189334522199E-02 
609	 8.25619158863876E-02 
610	 8.31795885987913E-02 
611	 8.36866616912297E-02 
612	 8.41244198377573E-02 
613	 8.45612954733512E-02 
614	 8.49572886590972E-02 
615	 8.53455262233759E-02 
616	 8.57142285899257E-02 
617	 8.60276971611631E-02 
618	 8.63981450279514E-02 
619	 8.67479460047449E-02 
620	 8.70206733170324E-02 
621	 8.72549427078554E-02 
622	 8.75302841510048E-02 
623	 8.78254163907964E-02 
624	 8.80787758534334E-02 
625	 8.82851496601536E-02 
626	 8.85038798179191E-02 
627	 8.87458098656125E-02 
628	 8.89500774148341E-02 
629	 0.089221211871262 
630	 8.94534049450332E-02 
631	 8.95629937795106E-02 
632	 0.089776888158801 
633	 0.090004192509208 
634	 9.01973429147211E-02 
635	 9.03553329433381E-02 
636	 9.05498856712134E-02 
637	 0.090765064898334 
638	 9.09589811396037E-02 
639	 9.10540631744972E-02 
640	 0.091226831522334 
641	 9.14618975558465E-02 
642	 9.16593664796841E-02 
643	 9.18437671666057E-02 
644	 9.20475595718416E-02 
645	 9.22717904256425E-02 
646	 9.24696791077458E-02 
647	 9.26736774095863E-02 
648	 9.28875990417514E-02 
649	 9.31072777862122E-02 
650	 9.33276471621756E-02 
651	 9.35775744894132E-02 
652	 0.093823001061875 
653	 0.093987810834533 
654	 9.42596258500359E-02 
655	 9.45268494341745E-02 
656	 9.47210019931689E-02 
657	 9.50302897317106E-02 
658	 9.52725820968563E-02 
659	 9.54867076580245E-02 
660	 9.57955238354957E-02 
661	 9.60965698924844E-02 
662	 9.64029586484822E-02 
663	 9.67186936297333E-02 
664	 0.097018438111532 
665	 9.73330673573781E-02 
666	 9.76245053980078E-02 
667	 9.78753617735537E-02 
668	 9.82346535554584E-02 
669	 9.85928989101714E-02 
670	 9.89205294618799E-02 
671	 9.92613421480769E-02 
672	 9.96432357992602E-02 
673	 0.100019857705677 
674	 0.100373597694405 
675	 0.100793652909714 
676	 0.101171316731561 
677	 0.101524710261751 
678	 0.101920341495396 
679	 0.102329022886071 
680	 0.102777872210882 
681	 0.103248711485902 
682	 0.103660638983881 
683	 0.104078102941696 
684	 0.10452913733195 
685	 0.105018623834164 
686	 0.105507964904634 
687	 0.106018584627388 
688	 0.106521451524393 
689	 0.106963676102487 
690	 0.107468932861042 
691	 0.107977825114562 
692	 0.108458369263905 
693	 0.108991888336267 
694	 0.109509500469666 
695	 0.110029584070095 
696	 0.110586915000983 
697	 0.111122611131285 
698	 0.111657306858416 
699	 0.112211808942151 
700	 0.112798680481636 
701	 0.113350539259494 
702	 0.113875057098871 
703	 0.114405501898144 
704	 0.115000960934636 
705	 0.11557236144588 
706	 0.116124195151072 
707	 0.116701465192681 
708	 0.117242431137822 
709	 0.117796808161869 
710	 0.118385491738412 
711	 0.118974688211705 
712	 0.119522433246466 
713	 0.120053921100167 
714	 0.120603657110562 
715	 0.121152217719805 
716	 0.121719019904137 
717	 0.122274454261486 
718	 0.122764235745944 
719	 0.123285504810085 
720	 0.123810971896276 
721	 0.124310558589641 
722	 0.124786663546472 
723	 0.125265640265384 
724	 0.125724199664426 
725	 0.126136344406005 
726	 0.126551949036201 
727	 0.12696552869755 
728	 0.127362983795238 
729	 0.127728772789253 
730	 0.128136986063341 
731	 0.128515114128051 
732	 0.128808412185931 
733	 0.129060856083121 
734	 0.129334562089645 
735	 0.129598932926938 
736	 0.12980022764318 
737	 0.130020385950737 
738	 0.130228648774561 
739	 0.130407582483083 
740	 0.130562823803862 
741	 0.130663798876426 
742	 0.130740389915911 
743	 0.130819573140176 
744	 0.130889450383702 
745	 0.130896751216037 
746	 0.130878428285659 
747	 0.130898003376847 
748	 0.130869529096005 
749	 0.130788244436763 
750	 0.130689389136705 
751	 0.130643824547852 
752	 0.130537502176023 
753	 0.130375705266763 
754	 0.130192503467838 
755	 0.130012749940723 
756	 0.129854517681952 
757	 0.129673959166552 
758	 0.129413784722891 
759	 0.129170640818494 
760	 0.12893405701076 
761	 0.128680647760772 
762	 0.128385528017603 
763	 0.128107693785754 
764	 0.127825934682388 
765	 0.127516178912203 
766	 0.127202742369523 
767	 0.126888240513265 
768	 0.126568529382284 
769	 0.126234669436794 
770	 0.125875236740437 
771	 0.125516762017559 
772	 0.125166747535503 
773	 0.124806083049019 
774	 0.124426098766514 
775	 0.12405915309026 
776	 0.123714917695734 
777	 0.123314426708997 
778	 0.122909571394606 
779	 0.122529440962268 
780	 0.122178644756135 
781	 0.121781309800678 
782	 0.121395496324205 
783	 0.121029439746305 
784	 0.120632195268405 
785	 0.12026043602612 
786	 0.119893280413 
787	 0.119514843937881 
788	 0.119155347378343 
789	 0.118831373698807 
790	 0.118481653365224 
791	 0.11805326100154 
792	 0.117695485937076 
793	 0.117359581461368 
794	 0.117013289393529 
795	 0.11664897152406 
796	 0.116260092759765 
797	 0.115899277208069 
798	 0.115586889085219 
799	 0.115271326578365 
800	 0.114939110857811 
801	 0.114614578987857 
802	 0.114313367702574 
803	 0.113959374093767 
804	 0.113653961420506 
805	 0.113377779683018 
806	 0.113047254961321 
807	 0.1127517016069 
808	 0.112455967637462 
809	 0.112146715203322 
810	 0.111854948431717 
811	 0.111589849427603 
812	 0.111313180658168 
813	 0.111017199469095 
814	 0.110809549029439 
815	 0.11059737110086 
816	 0.110345798254745 
817	 0.110060933293227 
818	 0.109813562318567 
819	 0.109605712762384 
820	 0.109406675906583 
821	 0.109170311021218 
822	 0.108969657689438 
823	 0.108754949158965 
824	 0.108517650996965 
825	 0.108343761517097 
826	 0.108215466978639 
827	 0.108052597083304 
828	 0.107814559805728 
829	 0.107642572904583 
830	 0.107446833378706 
831	 0.107245914975627 
832	 0.107101903822141 
833	 0.107000695514069 
834	 0.106874179039695 
835	 0.106717423346406 
836	 0.106588693116632 
837	 0.1065092131647 
838	 0.10639893167803 
839	 0.106242569363791 
840	 0.106163247067603 
841	 0.106031058037669 
842	 0.105895374508056 
843	 0.105817044946436 
844	 0.10573181867468 
845	 0.105671442500542 
846	 0.105614260693609 
847	 0.105528978705085 
848	 0.105475397775366 
849	 0.105423479851175 
850	 0.10536136889716 
851	 0.105299757605889 
852	 0.105262056460588 
853	 0.105249085265629 
854	 0.105244508442612 
855	 0.105215212087782 
856	 0.105225210109644 
857	 0.105221877727586 
858	 0.105177318641309 
859	 0.105200751667935 
860	 0.105194357796287 
861	 0.105183214880086 
862	 0.105209526946349 
863	 0.105184014580144 
864	 0.105211365340391 
865	 0.105280246558324 
866	 0.10531421186398 
867	 0.105354770290809 
868	 0.105404949936628 
869	 0.105471330960906 
870	 0.10556314527458 
871	 0.105644725657098 
872	 0.105710561811916 
873	 0.105767342502765 
874	 0.105830775919267 
875	 0.105931556390383 
876	 0.106014421339845 
877	 0.10605999044227 
878	 0.106200232985914 
879	 0.106352101856888 
880	 0.106488138758871 
881	 0.106611083490587 
882	 0.106762822317437 
883	 0.106925142388039 
884	 0.107055360500561 
885	 0.107129706695081 
886	 0.107307429967461 
887	 0.1074977127919 
888	 0.107654401012705 
889	 0.107792344524801 
890	 0.107953086772138 
891	 0.108133615452368 
892	 0.108331010563339 
893	 0.108548296893372 
894	 0.108730172413601 
895	 0.108940096782527 
896	 0.109189145414957 
897	 0.10935441241472 
898	 0.109603058274194 
899	 0.109877668823698 
900	 0.110102955606258 
901	 0.110316779046524 
902	 0.110570176125747 
903	 0.110872404007266 
904	 0.111188906903613 
905	 0.111400526514628 
906	 0.111626994662639 
907	 0.111935464480168 
908	 0.112324013813862 
909	 0.112628929693847 
910	 0.112908033714695 
911	 0.113201130731156 
912	 0.113518173327113 
913	 0.113806939020775 
914	 0.114146991188882 
915	 0.114505516140962 
916	 0.114770425027756 
917	 0.1151400260307 
918	 0.115542133228988 
919	 0.115913871387987 
920	 0.116253267007644 
921	 0.116675131729657 
922	 0.117080973367479 
923	 0.117461487130583 
924	 0.117978812370374 
925	 0.118370585025385 
926	 0.118765258675099 
927	 0.119238502138839 
928	 0.119614654308199 
929	 0.120076259520573 
930	 0.12059633818051 
931	 0.121103173545027 
932	 0.121558121601832 
933	 0.122017676273452 
934	 0.122479169330415 
935	 0.122946982772634 
936	 0.123506339809182 
937	 0.12396828960986 
938	 0.124409954277945 
939	 0.124965241800239 
940	 0.125632932068276 
941	 0.126204349562635 
942	 0.12673333771608 
943	 0.127336114572001 
944	 0.127903103278582 
945	 0.128430239131102 
946	 0.129002683817972 
947	 0.129683424844277 
948	 0.130261786309634 
949	 0.130898825526934 
950	 0.131559473281006 
951	 0.132155003013819 
952	 0.132893916274267 
953	 0.133542610954272 
954	 0.134162587165777 
955	 0.134929209241112 
956	 0.135608542916104 
957	 0.136284288035951 
958	 0.136956373565954 
959	 0.137581283242342 
960	 0.138210342611268 
961	 0.139003792901256 
962	 0.139839844218036 
963	 0.140475909125085 
964	 0.141120569172433 
965	 0.14192272873117 
966	 0.142770114737399 
967	 0.143456122997593 
968	 0.14432019598472 
969	 0.145110993220712 
970	 0.145804977521528 
971	 0.14655341572121 
972	 0.14737610319323 
973	 0.148234684396563 
974	 0.14911652478503 
975	 0.150006163009486 
976	 0.150728793426998 
977	 0.151632436768485 
978	 0.152607183825639 
979	 0.153330862461716 
980	 0.154212691777864 
981	 0.155171831068755 
982	 0.156050326487108 
983	 0.156749710380922 
984	 0.157599239124589 
985	 0.158492037599189 
986	 0.159346850623166 
987	 0.160149868097913 
988	 0.161062073827587 
989	 0.161906575345619 
990	 0.162751115550469 
991	 0.163724349699144 
992	 0.164580076084933 
993	 0.165460574610346 
994	 0.166376778764589 
995	 0.167269684346847 
996	 0.168101858238544 
997	 0.168948915323464 
998	 0.16981790957302 
999	 0.170686318781427 
1000	 0.17152642902066 
1001	 0.170468348218 
1002	 0.171267152681892 
1003	 0.17208264889408 
1004	 0.172897280692823 
1005	 0.173786666690971 
1006	 0.174609686486757 
1007	 0.175389215623855 
1008	 0.176182975896128 
1009	 0.176960420032602 
1010	 0.177755544098095 
1011	 0.178561432094198 
1012	 0.179352910974544 
1013	 0.180150161944162 
1014	 0.180912127758377 
1015	 0.181728410137243 
1016	 0.182476286008711 
1017	 0.183165135385236 
1018	 0.183794032137642 
1019	 0.184483402203133 
1020	 0.185089118585992 
1021	 0.185741508074841 
1022	 0.186516130212064 
1023	 0.187225625168604 
1024	 0.187912096222401 
1025	 0.18861161574678 
1026	 0.189241875517755 
1027	 0.189850254343316 
1028	 0.190555124072671 
1029	 0.191246660214404 
1030	 0.191877414463104 
1031	 0.192496694734316 
1032	 0.193121922802683 
1033	 0.193655998929142 
1034	 0.194214873343882 
1035	 0.194852938431005 
1036	 0.195468278781914 
1037	 0.196100611959157 
1038	 0.196727313255062 
1039	 0.197298033637869 
1040	 0.197856724177093 
1041	 0.198446002541818 
1042	 0.199043164414796 
1043	 0.19961566528143 
1044	 0.200199122016724 
1045	 0.200803207834599 
1046	 0.201417185314647 
1047	 0.202007843300647 
1048	 0.20261383788022 
1049	 0.203227340903705 
1050	 0.203809745783151 
1051	 0.204376392998966 
1052	 0.204920415166967 
1053	 0.20544803243374 
1054	 0.205992984406628 
1055	 0.206579510801041 
1056	 0.207175457356209 
1057	 0.207739459560043 
1058	 0.208315510963958 
1059	 0.208875767767225 
1060	 0.209395089553632 
1061	 0.209919302514969 
1062	 0.210481910520411 
1063	 0.211005998761465 
1064	 0.2115374939888 
1065	 0.212072399033997 
1066	 0.21258474764519 
1067	 0.213169562002331 
1068	 0.213719236352991 
1069	 0.214148840722263 
1070	 0.214654699068576 
1071	 0.215182301261916 
1072	 0.215694232206521 
1073	 0.216252739257684 
1074	 0.216781512813505 
1075	 0.217307288400367 
1076	 0.217712481613763 
1077	 0.218186068774877 
1078	 0.218652854565814 
1079	 0.219131872964492 
1080	 0.219626085558942 
1081	 0.220079265535376 
1082	 0.22057046730874 
1083	 0.2210356387846 
1084	 0.221458017308468 
1085	 0.22193027222277 
1086	 0.22245085624133 
1087	 0.222893693013366 
1088	 0.223296918530042 
1089	 0.22375280070048 
1090	 0.224188722020976 
1091	 0.224628828936364 
1092	 0.225090230197913 
1093	 0.225547551540644 
1094	 0.225978842289908 
1095	 0.226385726300777 
1096	 0.226841126133705 
1097	 0.227293858544998 
1098	 0.227709623569442 
1099	 0.228093151978677 
1100	 0.228496396598439 
1101	 0.228864276566457 
1102	 0.229283520155649 
1103	 0.229740827426348 
1104	 0.230186897136115 
1105	 0.230662935973869 
1106	 0.231113089216819 
1107	 0.231525632557349 
1108	 0.231976152915566 
1109	 0.232401530507836 
1110	 0.232796759333236 
1111	 0.233218073088288 
1112	 0.233650399132842 
1113	 0.234070308574135 
1114	 0.234502945022669 
1115	 0.234920622791533 
1116	 0.235310644373031 
1117	 0.235734661974785 
1118	 0.236175703153674 
1119	 0.236594277062185 
1120	 0.237052929904778 
1121	 0.237489215004886 
1122	 0.237906050669787 
1123	 0.23834376204501 
1124	 0.238771250727451 
1125	 0.239203429545147 
1126	 0.239618820332944 
1127	 0.240017903401133 
1128	 0.240428090251418 
1129	 0.240827522952861 
1130	 0.241240988411143 
1131	 0.24168120906991 
1132	 0.242088058854969 
1133	 0.242480296692497 
1134	 0.242877027117474 
1135	 0.2432513387257 
1136	 0.243650299880768 
1137	 0.244039964027204 
1138	 0.244412979649553 
1139	 0.244786562083716 
1140	 0.245147858449063 
1141	 0.24549936539695 
1142	 0.2458609058285 
1143	 0.246195524620605 
1144	 0.24649913053138 
1145	 0.246815048926767 
1146	 0.247113167683739 
1147	 0.247428460426023 
1148	 0.247754702638725 
1149	 0.248076945472373 
1150	 0.248405688694709 
1151	 0.248745684152417 
1152	 0.249034428322704 
1153	 0.249348246336966 
1154	 0.249657244112317 
1155	 0.249949773379748 
1156	 0.250259874980074 
1157	 0.250591147708825 
1158	 0.250905774775995 
1159	 0.251223951976604 
1160	 0.251531668205143 
1161	 0.25183266657635 
1162	 0.252126359232057 
1163	 0.25240572654321 
1164	 0.252693886623578 
1165	 0.252971775396889 
1166	 0.253272827467914 
1167	 0.253576780166884 
1168	 0.253852587465703 
1169	 0.254128764063517 
1170	 0.254402272956346 
1171	 0.254655979726705 
1172	 0.254898544134177 
1173	 0.255136489594443 
1174	 0.255337568347763 
1175	 0.255580939766595 
1176	 0.255848472696468 
1177	 0.256099774484756 
1178	 0.256380397513271 
1179	 0.256631091528917 
1180	 0.256853686594358 
1181	 0.257077176889748 
1182	 0.257298905156425 
1183	 0.257495576460736 
1184	 0.257715182109448 
1185	 0.257935524351557 
1186	 0.258163395348019 
1187	 0.2584181695531 
1188	 0.258630928511475 
1189	 0.258830322617391 
1190	 0.259022236809637 
1191	 0.2591774587557 
1192	 0.259360451872241 
1193	 0.259558830985204 
1194	 0.259746098588875 
1195	 0.259940068206158 
1196	 0.260123953556117 
1197	 0.260292984309201 
1198	 0.260467486235223 
1199	 0.260642018318477 
1200	 0.260815622482894 
1201	 0.260990042812786 
1202	 0.261166843058049 
1203	 0.261340155351261 
1204	 0.26151339497392 
1205	 0.261682698942167 
1206	 0.261851987597575 
1207	 0.26201525521597 
1208	 0.262173590370535 
1209	 0.262330271458438 
1210	 0.262499181275561 
1211	 0.262637098559926 
1212	 0.26274209376881 
1213	 0.262868588177088 
1214	 0.262974429128722 
1215	 0.263099204312851 
1216	 0.263238118932422 
1217	 0.263414475835726 
1218	 0.263547704628673 
1219	 0.26367018587899 
1220	 0.263795637166826 
1221	 0.263899598955544 
1222	 0.264024918461298 
1223	 0.264169669910289 
1224	 0.264298161983965 
1225	 0.264433154643297 
1226	 0.264549843287243 
1227	 0.26465210016489 
1228	 0.264752507731579 
1229	 0.264831572854825 
1230	 0.264926386745877 
1231	 0.265022235265206 
1232	 0.265125044888695 
1233	 0.265234788153505 
1234	 0.265359757614205 
1235	 0.265468753683153 
1236	 0.265578079287479 
1237	 0.265682732100165 
1238	 0.265780715317805 
1239	 0.265879061850572 
1240	 0.265981943928079 
1241	 0.26607141713097 
1242	 0.26614917736928 
1243	 0.266230084834754 
1244	 0.266298271010468 
1245	 0.266378596140342 
1246	 0.266472587752373 
1247	 0.266557031306695 
1248	 0.266638290888573 
1249	 0.26672195226052 
1250	 0.266820656382518 
1251	 0.266901400748476 
1252	 0.266979057645908 
1253	 0.267065868174317 
1254	 0.267131357358067 
1255	 0.267169015258396 
1256	 0.267224725015752 
1257	 0.267287597439138 
1258	 0.267335725345836 
1259	 0.267372807168785 
1260	 0.267422999201131 
1261	 0.267458397034443 
1262	 0.267517132657865 
1263	 0.26761860860862 
1264	 0.267685662196231 
1265	 0.267735498430858 
1266	 0.267795998839489 
1267	 0.267842852559875 
1268	 0.267895676140363 
1269	 0.267950697916489 
1270	 0.26802025473949 
1271	 0.26808120899093 
1272	 0.268131942857258 
1273	 0.268189498430898 
1274	 0.268248680029045 
1275	 0.268323233571889 
1276	 0.268394538853124 
1277	 0.268486566127816 
1278	 0.268610033533524 
1279	 0.268714097718411 
1280	 0.268817567167069 
1281	 0.268928853168441 
1282	 0.269049459828814 
1283	 0.269151037777661 
1284	 0.269255143534846 
1285	 0.269338792263453 
1286	 0.269428879924111 
1287	 0.26952430516965 
1288	 0.269617958600255 
1289	 0.269725870957272 
1290	 0.269828604153418 
1291	 0.269921197821283 
1292	 0.270019572871613 
1293	 0.27014438208323 
1294	 0.270224349546044 
1295	 0.270281539350894 
1296	 0.270333337083753 
1297	 0.270349594219304 
1298	 0.270388062107905 
1299	 0.270450085645372 
1300	 0.270478174984849 
1301	 0.270493243782304 
1302	 0.270503897644048 
1303	 0.270496665031231 
1304	 0.270472124872789 
1305	 0.270465968032629 
1306	 0.270455315256359 
1307	 0.270428624551234 
1308	 0.270400818390128 
1309	 0.270363092766181 
1310	 0.270316506974608 
1311	 0.27026105837551 
1312	 0.270194342032224 
1313	 0.270133957632739 
1314	 0.270070103509165 
1315	 0.270001294280555 
1316	 0.269934156037862 
1317	 0.269860202214159 
1318	 0.269776983409727 
1319	 0.269692552114935 
1320	 0.269603766050091 
1321	 0.269519291712914 
1322	 0.269429942281861 
1323	 0.269346950780235 
1324	 0.269260564903187 
1325	 0.269182630878451 
1326	 0.269105316974085 
1327	 0.269027749396731 
1328	 0.268954221946693 
1329	 0.268871234667564 
1330	 0.268789865412055 
1331	 0.2687084085887 
1332	 0.268612938536527 
1333	 0.268513735256486 
1334	 0.268410933299152 
1335	 0.268280307160853 
1336	 0.268184401085328 
1337	 0.268105627531192 
1338	 0.268024065018202 
1339	 0.267963029333857 
1340	 0.267883416567782 
1341	 0.267781929449084 
1342	 0.26770584562853 
1343	 0.267630974834215 
1344	 0.267571568351687 
1345	 0.267535863006227 
1346	 0.26749851637278 
1347	 0.267447122883592 
1348	 0.267417951282204 
1349	 0.267357845014398 
1350	 0.267269253712124 
1351	 0.267198563442962 
1352	 0.267113362709023 
1353	 0.267044339918915 
1354	 0.267002712535098 
1355	 0.266929541964834 
1356	 0.266837297280452 
1357	 0.266765075367981 
1358	 0.266684889952874 
1359	 0.266611565497624 
1360	 0.266562752131609 
1361	 0.266492849946464 
1362	 0.266416020591619 
1363	 0.266329902081974 
1364	 0.266222961726092 
1365	 0.26613511240309 
1366	 0.266052738692357 
1367	 0.265960704031232 
1368	 0.265890338181292 
1369	 0.265809855966647 
1370	 0.26569384788228 
1371	 0.265560286233576 
1372	 0.265407682073713 
1373	 0.265235154255055 
1374	 0.265050451455598 
1375	 0.264863022045187 
1376	 0.264632932660661 
1377	 0.264375105646516 
1378	 0.264096790730049 
1379	 0.263783893113273 
1380	 0.263464373747635 
1381	 0.263133799024316 
1382	 0.262776381278115 
1383	 0.262420191825612 
1384	 0.26200185486155 
1385	 0.261550629600514 
1386	 0.261064783070999 
1387	 0.260523265375478 
1388	 0.259963479436925 
1389	 0.259380985500315 
1390	 0.258772176053096 
1391	 0.25812271111773 
1392	 0.257442809786679 
1393	 0.256704185002587 
1394	 0.255910698065921 
1395	 0.255061290914865 
1396	 0.254201662484634 
1397	 0.253354811299599 
1398	 0.252499367797002 
1399	 0.251631213667452 
1400	 0.250763464778156 
1401	 0.249887738709364 
1402	 0.248979075018517 
1403	 0.248110494574829 
1404	 0.247234086236594 
1405	 0.246422243606995 
1406	 0.245646059738274 
1407	 0.244884864100709 
1408	 0.244165089645797 
1409	 0.243465267979144 
1410	 0.242755241243378 
1411	 0.242121105025775 
1412	 0.241533913198324 
1413	 0.240992772329288 
1414	 0.240512320348468 
1415	 0.240056940945114 
1416	 0.239649425635607 
1417	 0.239263324151628 
1418	 0.238881362235807 
1419	 0.238551761453245 
1420	 0.238243674211534 
1421	 0.237950368950972 
1422	 0.237696088968854 
1423	 0.237447729073239 
1424	 0.237190534787583 
1425	 0.23692582902635 
1426	 0.236684992052313 
1427	 0.236437725653024 
1428	 0.236228406406328 
1429	 0.23605105170659 
1430	 0.235878509550566 
1431	 0.235732629056271 
1432	 0.235583157678439 
1433	 0.235429974951605 
1434	 0.235298597509974 
1435	 0.235169781602748 
1436	 0.235066672373009 
1437	 0.234994854323565 
1438	 0.234924609170336 
1439	 0.234866769385531 
1440	 0.234828070138087 
1441	 0.234774762677271 
1442	 0.234722045536438 
1443	 0.234677350125245 
1444	 0.234627228597479 
1445	 0.234601277522716 
1446	 0.234592390172595 
1447	 0.23458561381491 
1448	 0.234577925147997 
1449	 0.234571745507053 
1450	 0.234571295325579 
1451	 0.234569726939045 
1452	 0.234569401325892 
1453	 0.234580617847045 
1454	 0.234591045829998 
1455	 0.234613711433608 
1456	 0.234650151338325 
1457	 0.234690115418153 
1458	 0.234737696534692 
1459	 0.23478736481852 
1460	 0.234839001949891 
1461	 0.234904388657734 
1462	 0.234966574230531 
1463	 0.235054576983694 
1464	 0.235169261253644 
1465	 0.235284598719452 
1466	 0.235409588258867 
1467	 0.235547549709468 
1468	 0.235680472263735 
1469	 0.235842864730922 
1470	 0.236031967836281 
1471	 0.236236641550578 
1472	 0.236445587530368 
1473	 0.236667249834442 
1474	 0.236864679097677 
1475	 0.23706241628957 
1476	 0.237272860789987 
1477	 0.237487621146175 
1478	 0.237719329664155 
1479	 0.237950855703591 
1480	 0.238166847692718 
1481	 0.238390624106944 
1482	 0.238625761533169 
1483	 0.238866702103431 
1484	 0.239106149868698 
1485	 0.239350228897105 
1486	 0.239607585440527 
1487	 0.239870064557952 
1488	 0.240134073450764 
1489	 0.240425898605935 
1490	 0.240685476868543 
1491	 0.240920616873196 
1492	 0.241169970565606 
1493	 0.241417425408558 
1494	 0.24165911815406 
1495	 0.241899857046568 
1496	 0.24214179351479 
1497	 0.242380751138671 
1498	 0.242617321897869 
1499	 0.242872930289137 
1500	 0.243099121120952 
1501	 0.243290448519136 
1502	 0.243499925690078 
1503	 0.24370102034195 
1504	 0.24390443559297 
1505	 0.244142417558427 
1506	 0.244385255615436 
1507	 0.244618729862011 
1508	 0.244845570183041 
1509	 0.245053038655698 
1510	 0.245249256169997 
1511	 0.245441295900183 
1512	 0.245625174630012 
1513	 0.245792244642262 
1514	 0.245985764893188 
1515	 0.246199646144316 
1516	 0.246391494773872 
1517	 0.24658275742642 
1518	 0.246781780949774 
1519	 0.246965839087353 
1520	 0.247128844524208 
1521	 0.247314412452757 
1522	 0.247509178591735 
1523	 0.247689283817274 
1524	 0.247872045194182 
1525	 0.248045085320193 
1526	 0.248209541002263 
1527	 0.24837425287375 
1528	 0.248542735706718 
1529	 0.248688637166007 
1530	 0.248816891377307 
1531	 0.248950181945811 
1532	 0.249064793554527 
1533	 0.249194948368184 
1534	 0.249333343921034 
1535	 0.249471984485374 
1536	 0.249624126653867 
1537	 0.249756124304906 
1538	 0.249878265714482 
1539	 0.25000674828335 
1540	 0.250125956996543 
1541	 0.250247303565009 
1542	 0.250373993522381 
1543	 0.250499473294462 
1544	 0.250620536458754 
1545	 0.250740844890468 
1546	 0.250876285013694 
1547	 0.250991779854562 
1548	 0.251076999005396 
1549	 0.251161142462165 
1550	 0.251233779666723 
1551	 0.251300462555715 
1552	 0.251398545852736 
1553	 0.251524831459829 
1554	 0.251649540229651 
1555	 0.251778449731036 
1556	 0.251896917883996 
1557	 0.251984166601682 
1558	 0.252077094473968 
1559	 0.252177237433313 
1560	 0.252278918626411 
1561	 0.252395834916636 
1562	 0.252484223346815 
1563	 0.252552589049109 
1564	 0.252647152216396 
1565	 0.252738388029989 
1566	 0.252830181317112 
1567	 0.252947392276845 
1568	 0.25303648292212 
1569	 0.253099012727444 
1570	 0.253176233425371 
1571	 0.253262447580664 
1572	 0.253330326717944 
1573	 0.253387838274978 
1574	 0.253453963352242 
1575	 0.25351853305724 
1576	 0.253569133995519 
1577	 0.253615352503618 
1578	 0.253666652584647 
1579	 0.253691813266807 
1580	 0.253750129891821 
1581	 0.253840135018198 
1582	 0.253916007550038 
1583	 0.253998172231556 
1584	 0.254078257173242 
1585	 0.254167258359702 
1586	 0.254231570030864 
1587	 0.254289373623359 
1588	 0.25433684211222 
1589	 0.254354844624089 
1590	 0.25438288841775 
1591	 0.254414740025089 
1592	 0.254438643580942 
1593	 0.254438105072003 
1594	 0.254472751698504 
1595	 0.254524066726728 
1596	 0.254574368704214 
1597	 0.254660221735617 
1598	 0.254723958153876 
1599	 0.254785216765454 
1600	 0.254823109223853 
1601	 0.254833602146362 
1602	 0.254853005613805 
1603	 0.254835752864076 
1604	 0.254855980635326 
1605	 0.254916087629892 
1606	 0.254961784560907 
1607	 0.255018716747426 
1608	 0.255076753148778 
1609	 0.255119605808995 
1610	 0.255143158139694 
1611	 0.255164275007995 
1612	 0.255200010122951 
1613	 0.255219508769664 
1614	 0.255233897871887 
1615	 0.255252041996602 
1616	 0.255263593634529 
1617	 0.255288802365802 
1618	 0.255331837846591 
1619	 0.255377488028519 
1620	 0.255407002255018 
1621	 0.255424238409232 
1622	 0.25543296958194 
1623	 0.255422001391265 
1624	 0.25538479913342 
1625	 0.255372478771439 
1626	 0.255350884700047 
1627	 0.255350377985792 
1628	 0.255367546965811 
1629	 0.255390061472971 
1630	 0.255418303242238 
1631	 0.255452358615449 
1632	 0.255507690859428 
1633	 0.255537443811915 
1634	 0.255565469129579 
1635	 0.255576056100535 
1636	 0.255566748320561 
1637	 0.255566030911703 
1638	 0.255551660523492 
1639	 0.255558173246385 
1640	 0.255567329329196 
1641	 0.255596131203599 
1642	 0.25564626394378 
1643	 0.255687141933801 
1644	 0.255744534099645 
1645	 0.255780744304898 
1646	 0.255812612313545 
1647	 0.255824689435996 
1648	 0.255817345918635 
1649	 0.255816130464657 
1650	 0.255803606241301 
1651	 0.255791539773032 
1652	 0.255783536946411 
1653	 0.255767718563083 
1654	 0.255730193958257 
1655	 0.25572257213557 
1656	 0.2557412372861 
1657	 0.255725303026355 
1658	 0.255709490174787 
1659	 0.255685213622993 
1660	 0.255631308570438 
1661	 0.255591946748264 
1662	 0.255559513084151 
1663	 0.255529339480101 
1664	 0.255487021957392 
1665	 0.255469106372929 
1666	 0.255471546688367 
1667	 0.255470850135553 
1668	 0.255493746081232 
1669	 0.25548304029165 
1670	 0.255459518748441 
1671	 0.255432707003302 
1672	 0.255381803633383 
1673	 0.255344361225714 
1674	 0.255305157212068 
1675	 0.255281050920492 
1676	 0.255270430284533 
1677	 0.255246491243684 
1678	 0.255223029335874 
1679	 0.255208304998272 
1680	 0.255181040489623 
1681	 0.255174774228544 
1682	 0.255200329725782 
1683	 0.255202084232147 
1684	 0.255193004190025 
1685	 0.255195466328316 
1686	 0.25520966331841 
1687	 0.255194289165312 
1688	 0.255166826974738 
1689	 0.25514782176334 
1690	 0.255108476742183 
1691	 0.255078968425894 
1692	 0.255071773301775 
1693	 0.255045630991692 
1694	 0.254993617449909 
1695	 0.254965516679265 
1696	 0.254939311819445 
1697	 0.254930544611394 
1698	 0.254960381344665 
1699	 0.254943221958099 
1700	 0.254916826766368 
1701	 0.254879579973435 
1702	 0.254804288035711 
1703	 0.254750949799223 
1704	 0.254707861012638 
1705	 0.254657545426886 
1706	 0.254601915635021 
1707	 0.254548766677485 
1708	 0.254508716777088 
1709	 0.254442521001837 
1710	 0.254356360590334 
1711	 0.254285145907505 
1712	 0.254202661732135 
1713	 0.25412760552563 
1714	 0.254062098681993 
1715	 0.254004925597944 
1716	 0.253949133274787 
1717	 0.253891797745784 
1718	 0.253846070817175 
1719	 0.253799589964718 
1720	 0.253747915232076 
1721	 0.253696304655838 
1722	 0.253658400699798 
1723	 0.253605835219772 
1724	 0.253542261855107 
1725	 0.253473241927059 
1726	 0.253406044184884 
1727	 0.253316034938247 
1728	 0.253193096305692 
1729	 0.253108412032399 
1730	 0.253024131916775 
1731	 0.252953522679283 
1732	 0.252924434088727 
1733	 0.252850914691475 
1734	 0.252760252695381 
1735	 0.25266523508235 
1736	 0.252554359433928 
1737	 0.252439733001891 
1738	 0.252309724866215 
1739	 0.252205028486303 
1740	 0.252098847885482 
1741	 0.252009299807287 
1742	 0.251949729265588 
1743	 0.251864048935676 
1744	 0.251773314885361 
1745	 0.251672644220169 
1746	 0.251561298744457 
1747	 0.251458740021874 
1748	 0.251353690090974 
1749	 0.251238659436376 
1750	 0.251126481237409 
1751	 0.251010405806835 
1752	 0.250882178400727 
1753	 0.250774316096133 
1754	 0.250651384208099 
1755	 0.250503398697545 
1756	 0.250371732942055 
1757	 0.250236191514198 
1758	 0.250100604420972 
1759	 0.250012940153181 
1760	 0.249948028127568 
1761	 0.249870685198792 
1762	 0.249794114650345 
1763	 0.249696653459628 
1764	 0.24956209592558 
1765	 0.24943628185954 
1766	 0.249325209059518 
1767	 0.249197635573569 
1768	 0.249074666442402 
1769	 0.248962678329187 
1770	 0.248868449323177 
1771	 0.248814036848026 
1772	 0.248779890106346 
1773	 0.248724726219627 
1774	 0.248662295994722 
1775	 0.248614168110383 
1776	 0.248514950765224 
1777	 0.24841688025513 
1778	 0.248351063025018 
1779	 0.24824221105424 
1780	 0.248157493394246 
1781	 0.248107120209863 
1782	 0.248036789934722 
1783	 0.247968092397419 
1784	 0.247920474725271 
1785	 0.247898157616581 
1786	 0.247867955870053 
1787	 0.247851503554067 
1788	 0.247827786705161 
1789	 0.247787902023788 
1790	 0.247751007307043 
1791	 0.247727118916529 
1792	 0.247682349604053 
1793	 0.247622317952832 
1794	 0.247588992977075 
1795	 0.247542425609533 
1796	 0.247509978836347 
1797	 0.247509819039569 
1798	 0.247484967232033 
1799	 0.247468697911792 
1800	 0.247434475787467 
1801	 0.246895816076802 
1802	 0.247058725337273 
1803	 0.24724306175351 
1804	 0.247465202700945 
1805	 0.2477176670412 
1806	 0.247980748536364 
1807	 0.248199170031818 
1808	 0.248365523691526 
1809	 0.248497355072269 
1810	 0.248610372029395 
1811	 0.248661941383734 
1812	 0.248722682004506 
1813	 0.248819221713628 
1814	 0.248845323729159 
1815	 0.24885874280843 
1816	 0.248886688065216 
1817	 0.248884870313433 
1818	 0.248839871259929 
1819	 0.248832118770963 
1820	 0.248824852237485 
1821	 0.2488147145955 
1822	 0.248848852172556 
1823	 0.248867938992378 
1824	 0.248899088807933 
1825	 0.248947618035876 
1826	 0.248943297893849 
1827	 0.248950637055759 
1828	 0.248923345337128 
1829	 0.24884071737442 
1830	 0.248778007306595 
1831	 0.248703276743478 
1832	 0.248633562617803 
1833	 0.248601647815577 
1834	 0.248568748224223 
1835	 0.248544120356634 
1836	 0.248536964961469 
1837	 0.248520616114708 
1838	 0.248503883714424 
1839	 0.248460003061803 
1840	 0.248410898442901 
1841	 0.24833675740067 
1842	 0.24824130149942 
1843	 0.248135459676686 
1844	 0.2480375534979 
1845	 0.247918764241647 
1846	 0.247761192740496 
1847	 0.247645719520263 
1848	 0.247522692445238 
1849	 0.247374502272944 
1850	 0.247240183855076 
1851	 0.247136586415223 
1852	 0.246963523208487 
1853	 0.24679209006017 
1854	 0.246618543277034 
1855	 0.246374310699931 
1856	 0.246124448952065 
1857	 0.245820173307926 
1858	 0.24548378455843 
1859	 0.245150665571382 
1860	 0.2447785176439 
1861	 0.244379652059593 
1862	 0.243953835046236 
1863	 0.243473460622558 
1864	 0.24291445230511 
1865	 0.242308610754142 
1866	 0.241678436302174 
1867	 0.241013763112017 
1868	 0.240304170632488 
1869	 0.239536623492288 
1870	 0.23870159652721 
1871	 0.23780697787323 
1872	 0.236847619104911 
1873	 0.235851839943124 
1874	 0.234788798148199 
1875	 0.233650371908229 
1876	 0.232470673885207 
1877	 0.231210705634597 
1878	 0.229850969300578 
1879	 0.228411416556502 
1880	 0.226860776398421 
1881	 0.225167151259877 
1882	 0.223430051412708 
1883	 0.221622407584114 
1884	 0.219692685811696 
1885	 0.217722565592482 
1886	 0.215695093170778 
1887	 0.213515689388788 
1888	 0.211269879644004 
1889	 0.208966817754757 
1890	 0.206596125607355 
1891	 0.204254829276553 
1892	 0.20188919295135 
1893	 0.199558055680168 
1894	 0.197227478479399 
1895	 0.194913527289248 
1896	 0.192616209744918 
1897	 0.190365486972954 
1898	 0.188128330612797 
1899	 0.185950960938266 
1900	 0.18385088169724 
1901	 0.181813150678626 
1902	 0.179900485979072 
1903	 0.178115400915148 
1904	 0.176395772918138 
1905	 0.174754303575671 
1906	 0.173244761656488 
1907	 0.171821361054677 
1908	 0.170464959930866 
1909	 0.169243404155568 
1910	 0.168085149762356 
1911	 0.166988164236943 
1912	 0.165984847545093 
1913	 0.165039997868734 
1914	 0.164162408779541 
1915	 0.163356914900978 
1916	 0.162628149197051 
1917	 0.161948972891045 
1918	 0.161352146126148 
1919	 0.16077172685443 
1920	 0.160241891768769 
1921	 0.159781028688796 
1922	 0.15934658986704 
1923	 0.158958913766409 
1924	 0.158613505484523 
1925	 0.158295465602125 
1926	 0.158048848140672 
1927	 0.157852981001982 
1928	 0.157713808520696 
1929	 0.157639471416409 
1930	 0.157617746302866 
1931	 0.157597494356883 
1932	 0.15761546482797 
1933	 0.157656284113179 
1934	 0.157722619150066 
1935	 0.157819675017126 
1936	 0.15795403457703 
1937	 0.158097410689203 
1938	 0.158259934429025 
1939	 0.158447560004633 
1940	 0.158641887715938 
1941	 0.158897264126594 
1942	 0.159162940343923 
1943	 0.159446782800618 
1944	 0.15976165394759 
1945	 0.160075359357937 
1946	 0.160410475515197 
1947	 0.160770948181332 
1948	 0.161134002187164 
1949	 0.161505393367487 
1950	 0.161892350453409 
1951	 0.162288861409233 
1952	 0.162703724934269 
1953	 0.163118016056982 
1954	 0.163560899240257 
1955	 0.164032941558047 
1956	 0.164512736552799 
1957	 0.164987781928227 
1958	 0.165481973169626 
1959	 0.165970252376941 
1960	 0.166431258516855 
1961	 0.166927318890921 
1962	 0.167453570139664 
1963	 0.16797777095237 
1964	 0.168497582086824 
1965	 0.169060162944834 
1966	 0.16962662668447 
1967	 0.170181449976015 
1968	 0.170748006890803 
1969	 0.1713379370864 
1970	 0.171897688001955 
1971	 0.172444870018 
1972	 0.172999536363456 
1973	 0.17353121109871 
1974	 0.174090606265432 
1975	 0.174673389325309 
1976	 0.175247324104367 
1977	 0.175828453854401 
1978	 0.176406667615259 
1979	 0.176955444599925 
1980	 0.177514160924789 
1981	 0.178074582889801 
1982	 0.178622851711646 
1983	 0.179191045975596 
1984	 0.179778696411808 
1985	 0.18035575082273 
1986	 0.180928938494783 
1987	 0.181519038059851 
1988	 0.182121417409409 
1989	 0.182723147214389 
1990	 0.183305246669811 
1991	 0.183883711981016 
1992	 0.184446000042308 
1993	 0.184965169028442 
1994	 0.185517263941728 
1995	 0.18608539193798 
1996	 0.186639869886547 
1997	 0.187191869078311 
1998	 0.18774781704646 
1999	 0.188293881889696 
2000	 0.188854228407511 
2001	 0.18943598463586 
2002	 0.190001647016601 
2003	 0.190573890798176 
2004	 0.191127095522284 
2005	 0.191655500330524 
2006	 0.192152963756644 
2007	 0.192667176246797 
2008	 0.19315390245507 
2009	 0.19366835681946 
2010	 0.194211489152318 
2011	 0.194729042671805 
2012	 0.195252438304275 
2013	 0.195760227557261 
2014	 0.19624811986367 
2015	 0.196732192276358 
2016	 0.19721687618804 
2017	 0.197697325906639 
2018	 0.198182776360384 
2019	 0.198670561318756 
2020	 0.199158986635223 
2021	 0.199654980928739 
2022	 0.200137473801448 
2023	 0.200619886811008 
2024	 0.201091502770113 
2025	 0.201542827503133 
2026	 0.202006788197273 
2027	 0.202480359333213 
2028	 0.202935832939774 
2029	 0.203394995367283 
2030	 0.203860382340969 
2031	 0.204310963771144 
2032	 0.204752937515954 
2033	 0.205189300643834 
2034	 0.205624334041219 
2035	 0.206044067127568 
2036	 0.206447695799722 
2037	 0.206853731105412 
2038	 0.207259812175586 
2039	 0.207646585843183 
2040	 0.208029897523085 
2041	 0.208391779001327 
2042	 0.208732479982957 
2043	 0.209082090687191 
2044	 0.209457311428917 
2045	 0.209854891353883 
2046	 0.210235662805409 
2047	 0.210636045928649 
2048	 0.211015927994999 
2049	 0.211389791544044 
2050	 0.211740973529198 
2051	 0.212082643063743 
2052	 0.212411159536818 
2053	 0.212690338674856 
2054	 0.212999412004843 
2055	 0.213313600642816 
2056	 0.213639066430428 
2057	 0.213965834637934 
2058	 0.214314447822178 
2059	 0.214636661735085 
2060	 0.214945598742743 
2061	 0.215262190339815 
2062	 0.215563856232724 
2063	 0.215887048632994 
2064	 0.216238481385405 
2065	 0.21656397688279 
2066	 0.216899349838695 
2067	 0.217207192032491 
2068	 0.217491398824537 
2069	 0.217754340528724 
2070	 0.218040962350523 
2071	 0.218319109111818 
2072	 0.218612797763529 
2073	 0.21893378615607 
2074	 0.219226096590194 
2075	 0.219516803179677 
2076	 0.219789179987076 
2077	 0.220028436987223 
2078	 0.220293935237402 
2079	 0.220562030997211 
2080	 0.220828519052835 
2081	 0.221107135142668 
2082	 0.221384153718169 
2083	 0.221659199169336 
2084	 0.221922556336582 
2085	 0.222203741237821 
2086	 0.22249622910687 
2087	 0.222787544691165 
2088	 0.223094121634827 
2089	 0.223375988892465 
2090	 0.223653575753868 
2091	 0.223920750654369 
2092	 0.224169103401814 
2093	 0.224417830699703 
2094	 0.224656900247014 
2095	 0.22490284911315 
2096	 0.225132773506567 
2097	 0.225385041063052 
2098	 0.22566591663991 
2099	 0.225937229887626 
2100	 0.226185754111446 
2101	 0.226432885993211 
2102	 0.22667374482594 
2103	 0.226877029758877 
2104	 0.227119120110817 
2105	 0.227380843983273 
2106	 0.227640658534727 
2107	 0.227917940730017 
2108	 0.228180377405699 
2109	 0.228429994957988 
2110	 0.228698848824176 
2111	 0.228980407750019 
2112	 0.229247724449688 
2113	 0.229521258910821 
2114	 0.229801043319297 
2115	 0.230049121590108 
2116	 0.230263643387797 
2117	 0.23050350673769 
2118	 0.230734522154534 
2119	 0.230982358157997 
2120	 0.231254170936017 
2121	 0.231501948710028 
2122	 0.231752677066777 
2123	 0.231985977747802 
2124	 0.232206989392436 
2125	 0.232414891262915 
2126	 0.232617029833093 
2127	 0.232799035464572 
2128	 0.232951767158595 
2129	 0.233106985809623 
2130	 0.233246318435487 
2131	 0.233390500474379 
2132	 0.23352340919299 
2133	 0.233655983801526 
2134	 0.23377725171223 
2135	 0.23388882285141 
2136	 0.233990365545723 
2137	 0.234098467145535 
2138	 0.234165951571343 
2139	 0.234192135256915 
2140	 0.234239284094982 
2141	 0.234265597597799 
2142	 0.234301507510202 
2143	 0.234381232086473 
2144	 0.234406982006568 
2145	 0.234396507327966 
2146	 0.234385559117735 
2147	 0.234341794677759 
2148	 0.234293378015363 
2149	 0.234261874578803 
2150	 0.23423408240044 
2151	 0.234214935034881 
2152	 0.234220714038511 
2153	 0.234189108173778 
2154	 0.2341602679723 
2155	 0.234101526337221 
2156	 0.234022381040062 
2157	 0.233912402047199 
2158	 0.233767998183043 
2159	 0.233625725220278 
2160	 0.233447458499399 
2161	 0.233280451708211 
2162	 0.233118781731642 
2163	 0.23295346550405 
2164	 0.232774644004382 
2165	 0.232605943218747 
2166	 0.232449719497332 
2167	 0.232310555285656 
2168	 0.232147731668777 
2169	 0.231985517846253 
2170	 0.231822128823897 
2171	 0.231644624719145 
2172	 0.231467773814661 
2173	 0.231302370657014 
2174	 0.231121197025091 
2175	 0.23092177691061 
2176	 0.230728615874291 
2177	 0.230533582458271 
2178	 0.230336524707563 
2179	 0.23013183355649 
2180	 0.229933857658055 
2181	 0.229744347004926 
2182	 0.22954812515055 
2183	 0.229361787821017 
2184	 0.229158371825626 
2185	 0.22894550305253 
2186	 0.228704347996625 
2187	 0.228505688669454 
2188	 0.228313799049322 
2189	 0.228125845824443 
2190	 0.22795869915091 
2191	 0.227796234145031 
2192	 0.227634366088519 
2193	 0.227476440168663 
2194	 0.227329583548432 
2195	 0.227194026233107 
2196	 0.227048896591743 
2197	 0.226927858131997 
2198	 0.226832359800977 
2199	 0.226746633601718 
2200	 0.226680589369089 
2201	 0.226614602170903 
2202	 0.226560172697855 
2203	 0.226509380550948 
2204	 0.22646920309248 
2205	 0.226423518672715 
2206	 0.226411850569736 
2207	 0.226430957609832 
2208	 0.226434167107153 
2209	 0.226437354399919 
2210	 0.226471854925119 
2211	 0.226514687646528 
2212	 0.226569493688772 
2213	 0.226670510933612 
2214	 0.226738828328175 
2215	 0.226794752465309 
2216	 0.226849245725185 
2217	 0.226899378335942 
2218	 0.226944525236846 
2219	 0.226968370155832 
2220	 0.227018935577275 
2221	 0.227086698883865 
2222	 0.227144077581624 
2223	 0.227225716509847 
2224	 0.227288514632656 
2225	 0.227317410255394 
2226	 0.227319836837759 
2227	 0.227312452730997 
2228	 0.227265392744693 
2229	 0.227253021652835 
2230	 0.227241370559551 
2231	 0.227233965563451 
2232	 0.227245824569012 
2233	 0.227240421143012 
2234	 0.227228776318587 
2235	 0.227210878019571 
2236	 0.227184083711956 
2237	 0.227159250384106 
2238	 0.227127061912876 
2239	 0.227099108620149 
2240	 0.227092261269999 
2241	 0.227055098278676 
2242	 0.227002587102399 
2243	 0.226942160998766 
2244	 0.226857288702313 
2245	 0.226765791001805 
2246	 0.226674144746022 
2247	 0.226613058771599 
2248	 0.226557154430364 
2249	 0.226521543116554 
2250	 0.226451648881012 
2251	 0.226379646570276 
2252	 0.226306458678487 
2253	 0.226198983474064 
2254	 0.226140717995713 
2255	 0.22613515259011 
2256	 0.226067388362503 
2257	 0.225980747554707 
2258	 0.225906176837605 
2259	 0.225780119819774 
2260	 0.225711144746348 
2261	 0.225681778230654 
2262	 0.225658603717873 
2263	 0.225688711971515 
2264	 0.225670429376967 
2265	 0.225639229779474 
2266	 0.225606015126023 
2267	 0.225521981267424 
2268	 0.225470131758396 
2269	 0.225434954468488 
2270	 0.225421676911086 
2271	 0.225388699552506 
2272	 0.225394730048722 
2273	 0.225392845932806 
2274	 0.225359989227236 
2275	 0.225306900694114 
2276	 0.225236002495831 
2277	 0.225147556847235 
2278	 0.225016773738694 
2279	 0.224917244291269 
2280	 0.224816965691695 
2281	 0.224725861242031 
2282	 0.224628376645469 
2283	 0.224574294150049 
2284	 0.224540018022952 
2285	 0.224515325835571 
2286	 0.22454861656385 
2287	 0.224536969627967 
2288	 0.224507710154835 
2289	 0.224485521815897 
2290	 0.224479609466451 
2291	 0.224416589727432 
2292	 0.224327340375672 
2293	 0.224225854632269 
2294	 0.224050327532513 
2295	 0.223921856281091 
2296	 0.223805929055336 
2297	 0.223699470149283 
2298	 0.223661785518066 
2299	 0.223596810607711 
2300	 0.223541769498073 
2301	 0.223497605925059 
2302	 0.223377591016461 
2303	 0.223252318920446 
2304	 0.223125303818955 
2305	 0.222986064486043 
2306	 0.222849491028141 
2307	 0.222722760556005 
2308	 0.222564476439514 
2309	 0.222366902238774 
2310	 0.222224282899331 
2311	 0.222090685210727 
2312	 0.221954809413021 
2313	 0.221857452445031 
2314	 0.221737847238288 
2315	 0.221587905230314 
2316	 0.221463917783705 
2317	 0.221365192763638 
2318	 0.221247222022696 
2319	 0.221136488596408 
2320	 0.220995273530133 
2321	 0.220837729379298 
2322	 0.220676831472595 
2323	 0.220495786080165 
2324	 0.220312174308326 
2325	 0.220101480636115 
2326	 0.219922324578694 
2327	 0.219755086086079 
2328	 0.219578346200074 
2329	 0.219426645233531 
2330	 0.219289765820152 
2331	 0.219160022475695 
2332	 0.219036939504159 
2333	 0.218931396893541 
2334	 0.218825633622259 
2335	 0.218691520413486 
2336	 0.218563861505273 
2337	 0.218420331124992 
2338	 0.218277037209429 
2339	 0.218124138271295 
2340	 0.217902449317813 
2341	 0.217652283734742 
2342	 0.217422956317104 
2343	 0.217263746612317 
2344	 0.217110958183953 
2345	 0.21692663246919 
2346	 0.216780015756899 
2347	 0.216585624961231 
2348	 0.216313927714318 
2349	 0.216099071982876 
2350	 0.215938189678129 
2351	 0.215707641424784 
2352	 0.215448389473324 
2353	 0.21518607618725 
2354	 0.214858085618302 
2355	 0.214588161048554 
2356	 0.214376697382207 
2357	 0.214115560788109 
2358	 0.213837841475505 
2359	 0.213571609838861 
2360	 0.213278555051079 
2361	 0.212985212700289 
2362	 0.212703718189798 
2363	 0.21245971143839 
2364	 0.212210012454209 
2365	 0.21197359240673 
2366	 0.211809200901916 
2367	 0.211567645044857 
2368	 0.211301512465787 
2369	 0.211025924073995 
2370	 0.210704337748526 
2371	 0.210376746153882 
2372	 0.210115517610844 
2373	 0.209772390419608 
2374	 0.209475425545341 
2375	 0.209203627008745 
2376	 0.208880095404564 
2377	 0.208609730617288 
2378	 0.208282547386147 
2379	 0.207979196470693 
2380	 0.207712053205113 
2381	 0.207360579114751 
2382	 0.207097750459837 
2383	 0.206816341322115 
2384	 0.206452843939263 
2385	 0.206150644087079 
2386	 0.205836500539425 
2387	 0.205525297596221 
2388	 0.205206686279931 
2389	 0.204876186269766 
2390	 0.204551452517365 
2391	 0.20420897073084 
2392	 0.203938726736984 
2393	 0.203701164800434 
2394	 0.203337461528085 
2395	 0.202984853093614 
2396	 0.202708708861283 
2397	 0.20240930400149 
2398	 0.202230809986771 
2399	 0.202005059324818 
2400	 0.20163985329534 
2401	 0.201253476360449 
2402	 0.200760606190062 
2403	 0.200308421849408 
2404	 0.199903158143154 
2405	 0.199449178959437 
2406	 0.199067319606643 
2407	 0.198716650708071 
2408	 0.198328272078558 
2409	 0.197924877349645 
2410	 0.197458383674707 
2411	 0.197015444904127 
2412	 0.196643942281619 
2413	 0.196266022694342 
2414	 0.195923855373162 
2415	 0.195583248252803 
2416	 0.195239456499852 
2417	 0.194882094870829 
2418	 0.194517947496418 
2419	 0.194168892238115 
2420	 0.193792792192206 
2421	 0.193363923181842 
2422	 0.192935014394096 
2423	 0.192523827650548 
2424	 0.192093754375254 
2425	 0.191659027058479 
2426	 0.191168927357727 
2427	 0.19061585829936 
2428	 0.190152764552338 
2429	 0.189661809693436 
2430	 0.189215656726146 
2431	 0.188938925022682 
2432	 0.188490864337279 
2433	 0.187872076431067 
2434	 0.187414028063427 
2435	 0.186972086678586 
2436	 0.186507805070336 
2437	 0.18613454092779 
2438	 0.185737155049532 
2439	 0.185264227441729 
2440	 0.184882063449069 
2441	 0.184639985970278 
2442	 0.184317207617386 
2443	 0.183993027223482 
2444	 0.183592112119048 
2445	 0.183062974020508 
2446	 0.182570286407503 
2447	 0.182030050862736 
2448	 0.181623646356768 
2449	 0.181373941866113 
2450	 0.181013059932702 
2451	 0.180612261840761 
2452	 0.180210073252676 
2453	 0.179745744142705 
2454	 0.179353906464321 
2455	 0.179059389357862 
2456	 0.178708411467449 
2457	 0.178336616139574 
2458	 0.177899974971084 
2459	 0.177363553171434 
2460	 0.176979594165651 
2461	 0.176638784322103 
2462	 0.176325798839677 
2463	 0.17618924129881 
2464	 0.175837790746434 
2465	 0.175353911273073 
2466	 0.174901201829049 
2467	 0.174333246305129 
2468	 0.173958240764528 
2469	 0.173759638592491 
2470	 0.173394852807772 
2471	 0.172866315455267 
2472	 0.172362852332319 
2473	 0.171914109385988 
2474	 0.171563100338634 
2475	 0.171410853974346 
2476	 0.171148628832828 
2477	 0.170810086658102 
2478	 0.170548526544308 
2479	 0.170228979733876 
2480	 0.169769843781748 
2481	 0.169289602181176 
2482	 0.168839977620033 
2483	 0.168481630513226 
2484	 0.168264785121714 
2485	 0.167965304836673 
2486	 0.167596837392287 
2487	 0.16722115462656 
2488	 0.166747529991372 
2489	 0.16642506514278 
2490	 0.166339096232199 
2491	 0.166076684621563 
2492	 0.165764263045248 
2493	 0.165680209235625 
2494	 0.165425275938959 
2495	 0.165068858861928 
2496	 0.164754616178507 
2497	 0.164348633115314 
2498	 0.164193006587981 
2499	 0.164099506706029 
2500	 0.163984511937953 
