Wavelength	mm1900009.asd
350	 0.044241818002068 
351	 3.85218166001957E-02 
352	 3.02433980031756E-02 
353	 2.55310259999055E-02 
354	 3.22841707235684E-02 
355	 3.64090754935886E-02 
356	 0.036931160223101 
357	 3.65655297044462E-02 
358	 3.62013275534135E-02 
359	 3.36843746537473E-02 
360	 3.20297888841282E-02 
361	 3.62786363729026E-02 
362	 3.54627385865755E-02 
363	 3.51352056734932E-02 
364	 3.75183588035534E-02 
365	 3.67488202845765E-02 
366	 3.21374174630265E-02 
367	 3.03969079872118E-02 
368	 3.56390666965114E-02 
369	 3.41773914838296E-02 
370	 3.49822093707885E-02 
371	 3.79725329531672E-02 
372	 3.70991028584186E-02 
373	 3.76002799912726E-02 
374	 3.84613400288754E-02 
375	 3.86628079724854E-02 
376	 3.86455602870317E-02 
377	 3.70230804812774E-02 
378	 3.60974457861246E-02 
379	 3.83129832473624E-02 
380	 4.22959947354121E-02 
381	 4.34084561319926E-02 
382	 4.21049824927075E-02 
383	 4.24626307276326E-02 
384	 4.17912862369132E-02 
385	 4.11576506616297E-02 
386	 0.041501172394351 
387	 4.26763923635381E-02 
388	 4.32014222468484E-02 
389	 4.25091084908121E-02 
390	 4.10778923618077E-02 
391	 4.23462104218517E-02 
392	 0.043470266272498 
393	 4.40493885290695E-02 
394	 4.57907342089292E-02 
395	 4.61941662905429E-02 
396	 4.57755942451548E-02 
397	 4.57028523643041E-02 
398	 4.78415653813691E-02 
399	 4.72075420012578E-02 
400	 4.52474329356771E-02 
401	 4.52595011409888E-02 
402	 4.60780772891805E-02 
403	 4.68827696700564E-02 
404	 4.73330371361276E-02 
405	 4.75754074298249E-02 
406	 4.72597246285632E-02 
407	 4.75795550972628E-02 
408	 4.88599962720507E-02 
409	 4.85305794906707E-02 
410	 4.80104693694935E-02 
411	 4.79519253056863E-02 
412	 0.048487640057958 
413	 4.90105768929445E-02 
414	 4.84705329347302E-02 
415	 4.73039420413082E-02 
416	 4.77894269538297E-02 
417	 4.83801686255786E-02 
418	 4.91146830530982E-02 
419	 5.00149030456858E-02 
420	 4.97875023075863E-02 
421	 0.049011811117573 
422	 4.87184107847997E-02 
423	 4.98661802231853E-02 
424	 4.96574997493587E-02 
425	 4.91224661201372E-02 
426	 4.90083907998987E-02 
427	 4.85900181216035E-02 
428	 4.85038414651866E-02 
429	 4.85986441617908E-02 
430	 4.85747680057471E-02 
431	 4.87635344726252E-02 
432	 4.88138202243542E-02 
433	 4.88164421206891E-02 
434	 4.92678776404416E-02 
435	 4.92394666138703E-02 
436	 4.89505727778445E-02 
437	 4.87374860466702E-02 
438	 4.85824687966556E-02 
439	 4.87439027677542E-02 
440	 4.89344752572138E-02 
441	 4.87132045998867E-02 
442	 4.87918141235882E-02 
443	 4.90729555587644E-02 
444	 0.049259924165933 
445	 4.88552949245194E-02 
446	 4.90398208774162E-02 
447	 4.93202212469942E-02 
448	 4.90519249770669E-02 
449	 4.91335716905185E-02 
450	 4.93757575221051E-02 
451	 0.049566939283552 
452	 0.049525885139466 
453	 0.049442981710765 
454	 4.92487850536418E-02 
455	 4.90611554571852E-02 
456	 4.96406358699411E-02 
457	 4.99115847250367E-02 
458	 4.97358005219485E-02 
459	 4.94660850445845E-02 
460	 4.95265287221359E-02 
461	 4.96016284221134E-02 
462	 4.95153146253162E-02 
463	 4.93789472721492E-02 
464	 4.95619053900187E-02 
465	 4.97906259718203E-02 
466	 4.97719851710922E-02 
467	 4.99468310102322E-02 
468	 5.00101211987705E-02 
469	 4.98457485298345E-02 
470	 4.95311451467253E-02 
471	 4.94484539118898E-02 
472	 4.94080320286615E-02 
473	 4.92895023728139E-02 
474	 4.93919799463911E-02 
475	 4.95290633416371E-02 
476	 4.96107804278177E-02 
477	 4.96100829943628E-02 
478	 4.96519673416964E-02 
479	 4.96592606090844E-02 
480	 4.95736112262132E-02 
481	 4.93766261618158E-02 
482	 4.95108788502425E-02 
483	 0.049670974008559 
484	 4.95412219634367E-02 
485	 4.97061966018599E-02 
486	 4.96609875783901E-02 
487	 4.94179637605276E-02 
488	 0.049422677437931 
489	 4.95752359682515E-02 
490	 4.96675999575824E-02 
491	 4.95981098434488E-02 
492	 4.95676917157219E-02 
493	 4.95418053768867E-02 
494	 4.95358474951682E-02 
495	 0.049566083205535 
496	 4.95039749368414E-02 
497	 4.94880264995531E-02 
498	 4.95866584160524E-02 
499	 4.97370778409842E-02 
500	 4.97698204581339E-02 
501	 4.97183571092688E-02 
502	 4.96721756600097E-02 
503	 0.04964498558901 
504	 4.95948902955355E-02 
505	 4.95609228868212E-02 
506	 4.96505444203718E-02 
507	 4.98157746344363E-02 
508	 4.99073300902666E-02 
509	 4.98590036222999E-02 
510	 4.98809540209773E-02 
511	 4.97450135240374E-02 
512	 0.049605230816961 
513	 4.97624229861525E-02 
514	 4.98812144283139E-02 
515	 4.99240810051203E-02 
516	 4.99159920025864E-02 
517	 4.99250043135627E-02 
518	 4.98820692578257E-02 
519	 4.98153309352724E-02 
520	 4.97913874599324E-02 
521	 4.99020529398531E-02 
522	 5.00056167800106E-02 
523	 0.050033356388211 
524	 5.00080829948406E-02 
525	 4.99518242517421E-02 
526	 0.04993259793597 
527	 4.99816168692984E-02 
528	 4.99868978643037E-02 
529	 5.00546811757755E-02 
530	 5.01484936288295E-02 
531	 5.01496266539418E-02 
532	 5.01478541379241E-02 
533	 5.01930586937086E-02 
534	 5.02809897707869E-02 
535	 5.03120434962163E-02 
536	 5.03082428972701E-02 
537	 5.03454144530955E-02 
538	 0.050481229968722 
539	 5.04837964265245E-02 
540	 5.04925835678813E-02 
541	 5.05683846945511E-02 
542	 5.06286289768129E-02 
543	 5.07043742506969E-02 
544	 5.08098043427549E-02 
545	 0.050938784711381 
546	 5.10221532354598E-02 
547	 5.11032472377202E-02 
548	 5.12051126602042E-02 
549	 5.13286626664547E-02 
550	 5.14459659851467E-02 
551	 5.15451913045516E-02 
552	 5.16453851603514E-02 
553	 5.18484114285469E-02 
554	 5.19743842459676E-02 
555	 5.20676304477474E-02 
556	 0.052277206897034 
557	 5.25305096046503E-02 
558	 5.27699004648713E-02 
559	 5.29910663143098E-02 
560	 5.32840313539043E-02 
561	 5.35235197613887E-02 
562	 5.37754329632506E-02 
563	 0.054131542681226 
564	 5.44457141812351E-02 
565	 5.47241418955143E-02 
566	 5.49999014059573E-02 
567	 5.53244474111405E-02 
568	 5.57169780305734E-02 
569	 5.61558095874987E-02 
570	 5.66121290236652E-02 
571	 5.70778209268287E-02 
572	 5.75532541994444E-02 
573	 5.80534666529906E-02 
574	 5.86000283611517E-02 
575	 5.91633440516494E-02 
576	 5.97293349698315E-02 
577	 6.02919450266163E-02 
578	 6.08499336325444E-02 
579	 6.14499566401967E-02 
580	 6.20843202867509E-02 
581	 6.27222417953218E-02 
582	 6.33560723588073E-02 
583	 6.40024488680457E-02 
584	 6.46887339799901E-02 
585	 6.54597418028345E-02 
586	 6.62263032767291E-02 
587	 6.69790259045528E-02 
588	 6.77449486661366E-02 
589	 6.86027120909646E-02 
590	 0.069428098621034 
591	 7.01860833999252E-02 
592	 7.09333667956761E-02 
593	 7.16885281351256E-02 
594	 7.24570254723146E-02 
595	 7.32166548420639E-02 
596	 0.073876281414559 
597	 7.45904200997245E-02 
598	 7.53400552038891E-02 
599	 0.076027300846874 
600	 7.67480165537941E-02 
601	 7.74863991833995E-02 
602	 7.82025401105442E-02 
603	 7.88390762353781E-02 
604	 0.079438933167593 
605	 8.00607624993206E-02 
606	 8.07394254031276E-02 
607	 8.13502572363092E-02 
608	 8.19112029047568E-02 
609	 8.24717166917794E-02 
610	 8.31038803713315E-02 
611	 0.08358883403211 
612	 0.084035170769268 
613	 8.45432404327295E-02 
614	 8.49033989693439E-02 
615	 8.52252863413418E-02 
616	 8.55783086617669E-02 
617	 8.59888686626163E-02 
618	 8.63668965950019E-02 
619	 8.66862550884351E-02 
620	 8.69560954876334E-02 
621	 8.72324801496427E-02 
622	 8.74942239591813E-02 
623	 8.77598546659686E-02 
624	 8.80469935407682E-02 
625	 8.82683887505673E-02 
626	 8.84607622367876E-02 
627	 8.86676626634689E-02 
628	 8.89276274899398E-02 
629	 8.91409725034167E-02 
630	 8.93247998898058E-02 
631	 8.95201610419577E-02 
632	 8.97178680077128E-02 
633	 8.99285714234345E-02 
634	 9.01376350980229E-02 
635	 9.03138297768863E-02 
636	 9.05005538030918E-02 
637	 9.07155130273834E-02 
638	 9.09396395714834E-02 
639	 9.10692006062224E-02 
640	 9.12412174443629E-02 
641	 9.14597007143869E-02 
642	 9.16633987724342E-02 
643	 9.18133921292549E-02 
644	 9.19967618923953E-02 
645	 9.22325953415302E-02 
646	 9.24246872385869E-02 
647	 9.25931643642481E-02 
648	 9.27858421941293E-02 
649	 9.30355623123519E-02 
650	 9.32702418168559E-02 
651	 9.35102033358485E-02 
652	 9.37639219066335E-02 
653	 9.40261064187185E-02 
654	 9.42625143724097E-02 
655	 9.44863047965619E-02 
656	 0.09471780105008 
657	 9.49684567212269E-02 
658	 9.52372502127388E-02 
659	 9.55222927278424E-02 
660	 9.58176737482305E-02 
661	 9.61003405608067E-02 
662	 9.63861238487168E-02 
663	 9.66844193233808E-02 
664	 0.096989216102161 
665	 9.73052642741583E-02 
666	 9.75904836573633E-02 
667	 9.78285498620107E-02 
668	 9.81526332275212E-02 
669	 0.098535276497938 
670	 9.89256599989353E-02 
671	 9.92641814461939E-02 
672	 9.96282453342169E-02 
673	 0.100011292504313 
674	 0.100394820899318 
675	 0.100763921482271 
676	 0.101163701788415 
677	 0.10157855389514 
678	 0.101973350924647 
679	 0.102380222441743 
680	 0.102806777577422 
681	 0.103237073364141 
682	 0.103627321762605 
683	 0.104080946992613 
684	 0.104564907873639 
685	 0.105030247092522 
686	 0.105513696238378 
687	 0.106007277355098 
688	 0.106506629922718 
689	 0.10700856688187 
690	 0.107497905837516 
691	 0.107986549549745 
692	 0.108479668985557 
693	 0.108958413120661 
694	 0.109464538819455 
695	 0.110002131893957 
696	 0.110556448147796 
697	 0.111095517559332 
698	 0.111654512278993 
699	 0.112229592982505 
700	 0.112773125161496 
701	 0.113324205082294 
702	 0.11386892919724 
703	 0.114405888055831 
704	 0.115009034719545 
705	 0.115549661767503 
706	 0.116074019864192 
707	 0.116695092766028 
708	 0.117256037249023 
709	 0.117817469544805 
710	 0.118401074271673 
711	 0.11894096858865 
712	 0.119483330771475 
713	 0.120034383198214 
714	 0.120592958549493 
715	 0.121173559405152 
716	 0.121742945926881 
717	 0.122274323489576 
718	 0.122756703790496 
719	 0.123281315996012 
720	 0.123816224071023 
721	 0.124318694175857 
722	 0.124760088305828 
723	 0.125234458466163 
724	 0.125718431074464 
725	 0.126157301601102 
726	 0.126567103288879 
727	 0.126964271781712 
728	 0.127354849689237 
729	 0.127735400122687 
730	 0.12812693658281 
731	 0.128497849307469 
732	 0.128814965280793 
733	 0.12905460956018 
734	 0.129323982209757 
735	 0.129600226249532 
736	 0.129817558792489 
737	 0.130023471377209 
738	 0.130229359697896 
739	 0.130412722412536 
740	 0.130520831515399 
741	 0.130651806770376 
742	 0.130763473653128 
743	 0.130818291321281 
744	 0.130879557259153 
745	 0.130885961919808 
746	 0.130873393684961 
747	 0.130904736618049 
748	 0.130889466593287 
749	 0.130798714039532 
750	 0.130678210036204 
751	 0.130650590870884 
752	 0.130517141424322 
753	 0.130338306212498 
754	 0.130193373165599 
755	 0.130030511956475 
756	 0.129860653562392 
757	 0.129665768739641 
758	 0.129422601377433 
759	 0.129173990942147 
760	 0.128925120914733 
761	 0.128668086925153 
762	 0.128384357750942 
763	 0.128121663370614 
764	 0.127847538446105 
765	 0.127527601157696 
766	 0.127169491437469 
767	 0.126862170533583 
768	 0.126574863177105 
769	 0.126226834854521 
770	 0.125874647406307 
771	 0.125518583488034 
772	 0.125153391709497 
773	 0.124773605756829 
774	 0.124413517135121 
775	 0.124056761424435 
776	 0.123685328131275 
777	 0.123310119588921 
778	 0.122930064347007 
779	 0.122558094557311 
780	 0.122203572963996 
781	 0.12181503545585 
782	 0.121429512096264 
783	 0.121062759213266 
784	 0.120700402925148 
785	 0.120303346369109 
786	 0.119920605863905 
787	 0.119573376514603 
788	 0.119166825834225 
789	 0.11882814254846 
790	 0.118495122553119 
791	 0.118077455534337 
792	 0.117738096285413 
793	 0.117397242228705 
794	 0.117018425013279 
795	 0.116618634627549 
796	 0.116246738158731 
797	 0.115918446988951 
798	 0.115617029626805 
799	 0.115281889570609 
800	 0.114943814498741 
801	 0.11462110512328 
802	 0.114316027751591 
803	 0.113981961275565 
804	 0.113667434139245 
805	 0.113363518167592 
806	 0.113036309779604 
807	 0.11277803886456 
808	 0.112513959024751 
809	 0.112204665598934 
810	 0.111881325584344 
811	 0.11159953844237 
812	 0.111319748592088 
813	 0.111022176904082 
814	 0.110806841090408 
815	 0.110601302965097 
816	 0.110365257101806 
817	 0.11009170916459 
818	 0.109865836232156 
819	 0.109658582549313 
820	 0.109438176880293 
821	 0.109185038005559 
822	 0.10897663053393 
823	 0.108761787863335 
824	 0.108527260196699 
825	 0.108352057756485 
826	 0.108209566313159 
827	 0.108048436202817 
828	 0.107841125078674 
829	 0.107658192666639 
830	 0.107458844859668 
831	 0.10727106818598 
832	 0.107140632986057 
833	 0.107012415584231 
834	 0.106869676477449 
835	 0.106728358212718 
836	 0.10662660822558 
837	 0.106505047199558 
838	 0.106407509248315 
839	 0.106335704200782 
840	 0.1061933193258 
841	 0.106032033274174 
842	 0.105902154287285 
843	 0.105826128436201 
844	 0.105741911488753 
845	 0.105682065946544 
846	 0.105620905255626 
847	 0.105526006589268 
848	 0.105482851729819 
849	 0.105447268073655 
850	 0.105399043025762 
851	 0.105346005755799 
852	 0.105282881091871 
853	 0.105258743883481 
854	 0.105262226524295 
855	 0.105189529420615 
856	 0.105207514198911 
857	 0.105232693931811 
858	 0.105199043836873 
859	 0.105245140820855 
860	 0.105260870587422 
861	 0.105239310154779 
862	 0.105212523575629 
863	 0.105195562612511 
864	 0.105265288048269 
865	 0.105356399996739 
866	 0.105346563755695 
867	 0.105384968589659 
868	 0.105433097420569 
869	 0.10546841254987 
870	 0.105505808678275 
871	 0.105614157474552 
872	 0.10569716184328 
873	 0.105725662310912 
874	 0.105819409793847 
875	 0.105943727308916 
876	 0.106048734337853 
877	 0.106115905499559 
878	 0.106219769173614 
879	 0.106333581766139 
880	 0.106454569650659 
881	 0.106584334965907 
882	 0.106707748077464 
883	 0.106898136383579 
884	 0.107076312255709 
885	 0.10712995372624 
886	 0.107298556901567 
887	 0.10747873305976 
888	 0.10762369390907 
889	 0.107763703888903 
890	 0.107969847645965 
891	 0.108133732821834 
892	 0.108267779791681 
893	 0.108546388370855 
894	 0.108753787248633 
895	 0.108937740776238 
896	 0.109148280469676 
897	 0.109343725465474 
898	 0.109594010113044 
899	 0.109858121624641 
900	 0.110091550204382 
901	 0.110320863587627 
902	 0.110558966113352 
903	 0.110834491666065 
904	 0.111146354780398 
905	 0.111373245159551 
906	 0.111645826479359 
907	 0.1119444219797 
908	 0.112202619929263 
909	 0.112525441514847 
910	 0.112872141930341 
911	 0.113191016911843 
912	 0.113452125832282 
913	 0.113775569972211 
914	 0.114119122157921 
915	 0.114449219456876 
916	 0.114765511044688 
917	 0.115164411699081 
918	 0.115578935802083 
919	 0.11593298262757 
920	 0.11618871891139 
921	 0.116617586753191 
922	 0.117049672311553 
923	 0.11741701363063 
924	 0.117905668791469 
925	 0.118327784339349 
926	 0.118744871799388 
927	 0.119189043638819 
928	 0.119542052598403 
929	 0.119993571538086 
930	 0.120518677748796 
931	 0.121041297829264 
932	 0.121513968376627 
933	 0.121952132235264 
934	 0.12244347064988 
935	 0.123028419446244 
936	 0.123567440073713 
937	 0.123982774424296 
938	 0.124402524112249 
939	 0.124962334305352 
940	 0.12555749838202 
941	 0.126141141859407 
942	 0.126721086933256 
943	 0.127318796705752 
944	 0.127902257774553 
945	 0.128432154985053 
946	 0.128985420478954 
947	 0.129630716104312 
948	 0.130157254238635 
949	 0.130748989566885 
950	 0.131416912573274 
951	 0.132084664783118 
952	 0.132770977793623 
953	 0.133439451968629 
954	 0.134094944135167 
955	 0.134771880473309 
956	 0.135521133831673 
957	 0.136180443723473 
958	 0.136798067378402 
959	 0.137519072750931 
960	 0.138194183756272 
961	 0.1389648628154 
962	 0.13977234973637 
963	 0.140444881813977 
964	 0.141015645356518 
965	 0.141777382952923 
966	 0.142702869860818 
967	 0.143543757857381 
968	 0.144232166368282 
969	 0.144998465012734 
970	 0.145788325846508 
971	 0.146429700178914 
972	 0.147393235712835 
973	 0.148314097503095 
974	 0.149103052724705 
975	 0.149901606651105 
976	 0.150743838027966 
977	 0.151580450449577 
978	 0.152416843960495 
979	 0.153282348232089 
980	 0.154087912218741 
981	 0.155048620867757 
982	 0.156028494386826 
983	 0.156759716300201 
984	 0.157541824923913 
985	 0.158379025735578 
986	 0.159233232598659 
987	 0.160074839282021 
988	 0.161039439844605 
989	 0.161790188803899 
990	 0.162533946775746 
991	 0.16359986785952 
992	 0.164467511119318 
993	 0.165386265121194 
994	 0.166338403785177 
995	 0.167210968551074 
996	 0.168072953170475 
997	 0.169071748399624 
998	 0.170032535310118 
999	 0.170756116279225 
1000	 0.171404475106412 
1001	 0.170557043149569 
1002	 0.171403123894973 
1003	 0.17227297961622 
1004	 0.173110593844739 
1005	 0.17396852238868 
1006	 0.174798308339711 
1007	 0.17561984644495 
1008	 0.176356276892104 
1009	 0.177113128407488 
1010	 0.177920820689955 
1011	 0.178707643262037 
1012	 0.179470388362165 
1013	 0.180241279543818 
1014	 0.180998438707129 
1015	 0.18170842579133 
1016	 0.182449201438704 
1017	 0.183160910436612 
1018	 0.18385541609492 
1019	 0.184501073083792 
1020	 0.185139464409408 
1021	 0.185763479740452 
1022	 0.186445673573295 
1023	 0.187093866055114 
1024	 0.187779922136982 
1025	 0.188550042262938 
1026	 0.189234821851215 
1027	 0.189903904182309 
1028	 0.190617078577139 
1029	 0.191227930432533 
1030	 0.191850338312762 
1031	 0.192485714648793 
1032	 0.193156427831796 
1033	 0.193703874089093 
1034	 0.194294608212301 
1035	 0.194929769228117 
1036	 0.19551974191991 
1037	 0.196156439829988 
1038	 0.196795653601935 
1039	 0.197354776959139 
1040	 0.19787449118452 
1041	 0.19844213869929 
1042	 0.199031841552684 
1043	 0.1996388043271 
1044	 0.200239131838516 
1045	 0.200868406063159 
1046	 0.201449159780213 
1047	 0.202003591164879 
1048	 0.202575851224838 
1049	 0.203162556889713 
1050	 0.203746763611175 
1051	 0.204351536811193 
1052	 0.204951486191396 
1053	 0.20550759940816 
1054	 0.206049556030966 
1055	 0.206613009997874 
1056	 0.20720282061882 
1057	 0.20777689656636 
1058	 0.208383846766941 
1059	 0.208938670630009 
1060	 0.209474549704074 
1061	 0.209949296958891 
1062	 0.21043750852026 
1063	 0.210993860686249 
1064	 0.211581343921586 
1065	 0.212157734553283 
1066	 0.212709211780991 
1067	 0.213235802449667 
1068	 0.213782777471867 
1069	 0.214308211184363 
1070	 0.214806782618613 
1071	 0.215290761317026 
1072	 0.21578246731439 
1073	 0.216222139004379 
1074	 0.216722692431877 
1075	 0.217287611903243 
1076	 0.217787882610138 
1077	 0.218268461649142 
1078	 0.21869021305604 
1079	 0.219125578076026 
1080	 0.219652256896692 
1081	 0.22017021378559 
1082	 0.220676936601765 
1083	 0.221145367731159 
1084	 0.221539380368714 
1085	 0.221992996876706 
1086	 0.222470742828006 
1087	 0.222924372325509 
1088	 0.223398156626342 
1089	 0.223830797183007 
1090	 0.224251512270375 
1091	 0.224680566025465 
1092	 0.225108557317442 
1093	 0.225557713759425 
1094	 0.226007665353971 
1095	 0.226431897495087 
1096	 0.226885130916817 
1097	 0.227331965536492 
1098	 0.227756257048922 
1099	 0.228154085488801 
1100	 0.228573796178814 
1101	 0.228971658617837 
1102	 0.229411621341481 
1103	 0.22989388978323 
1104	 0.230341174944826 
1105	 0.230813487553415 
1106	 0.231269576010623 
1107	 0.231667094888456 
1108	 0.232101056940876 
1109	 0.232553142635986 
1110	 0.232977057783864 
1111	 0.233408590135552 
1112	 0.233869630125923 
1113	 0.234289071501404 
1114	 0.234664850402877 
1115	 0.235072879548651 
1116	 0.235470848171609 
1117	 0.235899067105598 
1118	 0.236342532886239 
1119	 0.236810437685347 
1120	 0.237297024482058 
1121	 0.237743008574763 
1122	 0.238167774038849 
1123	 0.23857477751716 
1124	 0.238995973701244 
1125	 0.239409420974613 
1126	 0.239820626365748 
1127	 0.240243512032966 
1128	 0.240651758979054 
1129	 0.241028505949198 
1130	 0.241430074471835 
1131	 0.241865349689281 
1132	 0.242259882686269 
1133	 0.24261687229609 
1134	 0.24301401236044 
1135	 0.243414735839006 
1136	 0.243809988479975 
1137	 0.24423003994868 
1138	 0.244640758091618 
1139	 0.245017467003482 
1140	 0.245346587062873 
1141	 0.245703937516862 
1142	 0.246076331390886 
1143	 0.24641264325228 
1144	 0.246729028227355 
1145	 0.24705294403052 
1146	 0.247348908155294 
1147	 0.247660233099475 
1148	 0.247989146783122 
1149	 0.248313438229945 
1150	 0.248624684903664 
1151	 0.248961933860581 
1152	 0.249294926044991 
1153	 0.249588576006359 
1154	 0.249904019838228 
1155	 0.250217674853533 
1156	 0.250523259546705 
1157	 0.250834980987001 
1158	 0.251140955351042 
1159	 0.251441691356011 
1160	 0.251732812457679 
1161	 0.252007354809685 
1162	 0.252302139607195 
1163	 0.252603016911583 
1164	 0.252894967116928 
1165	 0.253200698745445 
1166	 0.253500807878152 
1167	 0.253780581973604 
1168	 0.254049866770004 
1169	 0.254324523887164 
1170	 0.254602194547637 
1171	 0.254871050817627 
1172	 0.255137088383557 
1173	 0.255396129631981 
1174	 0.255648928320364 
1175	 0.255897847083345 
1176	 0.256140552053723 
1177	 0.256383928742179 
1178	 0.25662237632615 
1179	 0.256862791162677 
1180	 0.257115285506327 
1181	 0.257345901184725 
1182	 0.257557915952467 
1183	 0.257776311007267 
1184	 0.258001470128833 
1185	 0.258222764155011 
1186	 0.25844020902341 
1187	 0.258670241465559 
1188	 0.258884717504586 
1189	 0.259080064675554 
1190	 0.259284607315485 
1191	 0.259503138754906 
1192	 0.259700730948148 
1193	 0.259877798702042 
1194	 0.260067393464905 
1195	 0.260264272630497 
1196	 0.260441918477485 
1197	 0.260618196061636 
1198	 0.260789825462923 
1199	 0.260951935645268 
1200	 0.261085316337946 
1201	 0.261249579529085 
1202	 0.261424403445032 
1203	 0.261598232547654 
1204	 0.261783056983699 
1205	 0.261959445699135 
1206	 0.26213908081621 
1207	 0.262308228614095 
1208	 0.26247515316581 
1209	 0.262632475778288 
1210	 0.262778968694379 
1211	 0.262924199180227 
1212	 0.263066528897228 
1213	 0.263200685217092 
1214	 0.26332009108969 
1215	 0.263449567356412 
1216	 0.263580141165914 
1217	 0.26371018959389 
1218	 0.263833740984469 
1219	 0.263958844616535 
1220	 0.264086139495661 
1221	 0.2642011727241 
1222	 0.264331782232487 
1223	 0.264491042295312 
1224	 0.264616634964843 
1225	 0.26472917738247 
1226	 0.264841756240877 
1227	 0.264935028277843 
1228	 0.265035116358214 
1229	 0.265135868035832 
1230	 0.265241535707316 
1231	 0.265347248987485 
1232	 0.265454371370814 
1233	 0.265564586293916 
1234	 0.265679235848132 
1235	 0.265801347039518 
1236	 0.265935414000314 
1237	 0.266047383786975 
1238	 0.266168791204453 
1239	 0.266262463144165 
1240	 0.266307854338095 
1241	 0.266399550969121 
1242	 0.266516251595163 
1243	 0.266605505258017 
1244	 0.266707229015487 
1245	 0.266794958259157 
1246	 0.266847999685685 
1247	 0.266913113594264 
1248	 0.266980050870579 
1249	 0.267055010756704 
1250	 0.267133271817796 
1251	 0.267213429502496 
1252	 0.267291251875084 
1253	 0.267385558579782 
1254	 0.267451522908295 
1255	 0.267499208078899 
1256	 0.267552635486022 
1257	 0.267589138310041 
1258	 0.267642391635493 
1259	 0.267699940367943 
1260	 0.267765258506667 
1261	 0.267849586649113 
1262	 0.26791626780725 
1263	 0.267981692328758 
1264	 0.268043068957333 
1265	 0.268087816581637 
1266	 0.268141956162969 
1267	 0.2682032422736 
1268	 0.268263088577648 
1269	 0.268315408710465 
1270	 0.26835678923207 
1271	 0.268426755678634 
1272	 0.268500865989875 
1273	 0.26857980521212 
1274	 0.268687918555448 
1275	 0.268769950466157 
1276	 0.268827236499102 
1277	 0.268915009591068 
1278	 0.269014073365165 
1279	 0.269109190383491 
1280	 0.269220174726162 
1281	 0.269325150584978 
1282	 0.269420636977987 
1283	 0.269522985566703 
1284	 0.269645136374101 
1285	 0.269739666750214 
1286	 0.269832306481357 
1287	 0.269933425052384 
1288	 0.270037688527979 
1289	 0.270148047389783 
1290	 0.270244253988761 
1291	 0.270346267809585 
1292	 0.27042810995217 
1293	 0.270484677648194 
1294	 0.270555395975045 
1295	 0.270635712672282 
1296	 0.270693163237764 
1297	 0.270744394139019 
1298	 0.270784774919438 
1299	 0.270810287707527 
1300	 0.270822898136981 
1301	 0.270828781933719 
1302	 0.270826215275971 
1303	 0.270803738568206 
1304	 0.270770188899385 
1305	 0.270775450188972 
1306	 0.270763160042826 
1307	 0.270741781802155 
1308	 0.270731249713552 
1309	 0.270699879440911 
1310	 0.270645430294255 
1311	 0.27059169068273 
1312	 0.270534042863935 
1313	 0.270474903626726 
1314	 0.270402530566623 
1315	 0.270336678838361 
1316	 0.270288930385532 
1317	 0.27020962865129 
1318	 0.27010316463538 
1319	 0.270016222093583 
1320	 0.269917875942291 
1321	 0.269832525088208 
1322	 0.269765519161177 
1323	 0.269695543192406 
1324	 0.269638097474787 
1325	 0.269549259501317 
1326	 0.269457723954828 
1327	 0.269383859027737 
1328	 0.269296222303175 
1329	 0.269214427385306 
1330	 0.269124270079165 
1331	 0.269035674419537 
1332	 0.268943280185787 
1333	 0.268843440826237 
1334	 0.268741710082637 
1335	 0.268625808691686 
1336	 0.268540584793779 
1337	 0.268470415059427 
1338	 0.268391858304411 
1339	 0.268337614765448 
1340	 0.268263880524132 
1341	 0.268158723434874 
1342	 0.268078921894657 
1343	 0.268006695105684 
1344	 0.26794196875252 
1345	 0.267898383133289 
1346	 0.267840897320657 
1347	 0.267777219346856 
1348	 0.267731963362259 
1349	 0.26765784389583 
1350	 0.267581486994775 
1351	 0.267520034384254 
1352	 0.267463015892788 
1353	 0.267398029419736 
1354	 0.267347535734911 
1355	 0.267273593152587 
1356	 0.267176691786914 
1357	 0.267096701992688 
1358	 0.267017477082022 
1359	 0.266937071846815 
1360	 0.266856358185468 
1361	 0.266779088005971 
1362	 0.26670733251515 
1363	 0.266628113213593 
1364	 0.266555654046047 
1365	 0.266470950351491 
1366	 0.26636961378944 
1367	 0.266271809861757 
1368	 0.2661827570343 
1369	 0.26609510392943 
1370	 0.265991786955162 
1371	 0.265870670639188 
1372	 0.265726900543341 
1373	 0.265566488163118 
1374	 0.265388188671013 
1375	 0.26520308093177 
1376	 0.264978478723727 
1377	 0.264732927820701 
1378	 0.264446620281819 
1379	 0.264115111852812 
1380	 0.263784668886734 
1381	 0.263430681796453 
1382	 0.263056422079205 
1383	 0.262687034427464 
1384	 0.262265802585111 
1385	 0.261819172471789 
1386	 0.261330180770467 
1387	 0.260805736733726 
1388	 0.260243556004993 
1389	 0.259647535837528 
1390	 0.259000382760852 
1391	 0.258325996428945 
1392	 0.257612779483646 
1393	 0.256850430432402 
1394	 0.256063348466776 
1395	 0.255221310304235 
1396	 0.254359345077795 
1397	 0.253506767621954 
1398	 0.25263471598001 
1399	 0.251765364956402 
1400	 0.250902154592244 
1401	 0.250027363906204 
1402	 0.249125449022676 
1403	 0.248261030243983 
1404	 0.247395153595012 
1405	 0.246572048746041 
1406	 0.245778998589212 
1407	 0.2450009265882 
1408	 0.244228447396738 
1409	 0.243507421497087 
1410	 0.242795622436356 
1411	 0.242156733502193 
1412	 0.24157132596558 
1413	 0.241045336514924 
1414	 0.240566286094931 
1415	 0.240126763991058 
1416	 0.239738110785159 
1417	 0.239366989643748 
1418	 0.23899594051231 
1419	 0.238651680212166 
1420	 0.238321065009888 
1421	 0.238020581014339 
1422	 0.23777075801764 
1423	 0.237535184172326 
1424	 0.23728303900494 
1425	 0.23702891067154 
1426	 0.236790461281275 
1427	 0.236537721630636 
1428	 0.236325732907203 
1429	 0.236141731235813 
1430	 0.235963222917186 
1431	 0.235811311640536 
1432	 0.235655846692197 
1433	 0.235501379606705 
1434	 0.235366669596483 
1435	 0.235228791730993 
1436	 0.235123360015583 
1437	 0.235049990104599 
1438	 0.23498196735356 
1439	 0.23494115317506 
1440	 0.234895903459079 
1441	 0.234842537287585 
1442	 0.234792382592521 
1443	 0.234746168348596 
1444	 0.234706261941249 
1445	 0.234693472475731 
1446	 0.23469838776133 
1447	 0.234706636704645 
1448	 0.234713691677115 
1449	 0.234698945701851 
1450	 0.234683812158174 
1451	 0.234686833809387 
1452	 0.234690979236272 
1453	 0.234708515312154 
1454	 0.234750675307301 
1455	 0.234776813141171 
1456	 0.234798017861119 
1457	 0.234828798790906 
1458	 0.234852670213847 
1459	 0.234898615234399 
1460	 0.234951392349822 
1461	 0.235024662436159 
1462	 0.235120950728454 
1463	 0.235220528734808 
1464	 0.235334807007885 
1465	 0.235454429907641 
1466	 0.23558697947049 
1467	 0.235716548908223 
1468	 0.235827450738919 
1469	 0.235982281786892 
1470	 0.236162185192149 
1471	 0.236339112151418 
1472	 0.23656028470868 
1473	 0.236805216753169 
1474	 0.237019854237092 
1475	 0.237235719043091 
1476	 0.237446634297102 
1477	 0.237658855713443 
1478	 0.237892319556994 
1479	 0.238132940858569 
1480	 0.238378879239599 
1481	 0.238628221472884 
1482	 0.238874803397202 
1483	 0.239117529054611 
1484	 0.239365649032281 
1485	 0.239614223419814 
1486	 0.239873050776635 
1487	 0.24013912657409 
1488	 0.240400789164769 
1489	 0.240675293998436 
1490	 0.240932919135111 
1491	 0.241180618818309 
1492	 0.24142824818265 
1493	 0.241668069117952 
1494	 0.241908862116878 
1495	 0.242151541966518 
1496	 0.242385459399648 
1497	 0.242616486232231 
1498	 0.242844482589387 
1499	 0.243060937571396 
1500	 0.243278700206901 
1501	 0.243490122197362 
1502	 0.243712797568624 
1503	 0.243935778288385 
1504	 0.244172555208159 
1505	 0.244414622965087 
1506	 0.244630390469961 
1507	 0.244838221785826 
1508	 0.245047764582052 
1509	 0.245239248608197 
1510	 0.24544326600397 
1511	 0.245648740452169 
1512	 0.24583229876271 
1513	 0.246029266987841 
1514	 0.246233948895428 
1515	 0.24642497931568 
1516	 0.246626950401893 
1517	 0.24682223123684 
1518	 0.247013046716943 
1519	 0.247207625140144 
1520	 0.247405541172283 
1521	 0.247595616629949 
1522	 0.247789204822599 
1523	 0.247970323230958 
1524	 0.248138908706445 
1525	 0.248308220694105 
1526	 0.248475542814954 
1527	 0.2486329940716 
1528	 0.248784311250708 
1529	 0.248934721788255 
1530	 0.249081106776336 
1531	 0.24921693376446 
1532	 0.249346060958273 
1533	 0.249471834994778 
1534	 0.249574516431893 
1535	 0.249704534612532 
1536	 0.249847050107834 
1537	 0.249990356932093 
1538	 0.250150263203212 
1539	 0.250298821459206 
1540	 0.250455695111255 
1541	 0.250592871822427 
1542	 0.250708798150339 
1543	 0.250837611086916 
1544	 0.250961220278595 
1545	 0.251079705502517 
1546	 0.251202832080686 
1547	 0.251330328916501 
1548	 0.251434361144239 
1549	 0.251524096839073 
1550	 0.251610638863923 
1551	 0.251706985798549 
1552	 0.251797741295436 
1553	 0.251901592534807 
1554	 0.252020928757018 
1555	 0.252115217729791 
1556	 0.252217205999532 
1557	 0.252328862686942 
1558	 0.252424676910425 
1559	 0.252520832471192 
1560	 0.252622453367955 
1561	 0.252729595431636 
1562	 0.252816901568185 
1563	 0.252894676175051 
1564	 0.252989755828695 
1565	 0.253079112812661 
1566	 0.253175429727159 
1567	 0.253303416282911 
1568	 0.253386348758506 
1569	 0.253443219019909 
1570	 0.253499967790058 
1571	 0.253534150228009 
1572	 0.253581969173341 
1573	 0.253625894137541 
1574	 0.253684756813902 
1575	 0.253757855822477 
1576	 0.253819563965179 
1577	 0.253885600510454 
1578	 0.253944913188088 
1579	 0.253988230429779 
1580	 0.254045917947744 
1581	 0.254112130158195 
1582	 0.254177655429267 
1583	 0.254249490605086 
1584	 0.254317590468897 
1585	 0.254380275589176 
1586	 0.254454353899493 
1587	 0.254549030067483 
1588	 0.254610931710121 
1589	 0.25466277940783 
1590	 0.254707094322831 
1591	 0.25471560702438 
1592	 0.254748156907904 
1593	 0.254787941142699 
1594	 0.254839359138966 
1595	 0.254907905311692 
1596	 0.254965898468312 
1597	 0.25502725102233 
1598	 0.255087580108792 
1599	 0.255158701698739 
1600	 0.255202308273209 
1601	 0.255231018360002 
1602	 0.255261054257354 
1603	 0.255258728113318 
1604	 0.255272881576929 
1605	 0.255295072624827 
1606	 0.255327101691283 
1607	 0.255374221792179 
1608	 0.255414848085356 
1609	 0.255452161601174 
1610	 0.255486508168824 
1611	 0.255498246660011 
1612	 0.255511630301803 
1613	 0.255528870070689 
1614	 0.25553473212848 
1615	 0.2555427046832 
1616	 0.255546886317264 
1617	 0.255555004950032 
1618	 0.255591224167476 
1619	 0.255634873637633 
1620	 0.255670618505571 
1621	 0.255698222599593 
1622	 0.255724153397742 
1623	 0.255743575609666 
1624	 0.255752600673525 
1625	 0.255760978636717 
1626	 0.255768041235706 
1627	 0.255771112104106 
1628	 0.255763605211569 
1629	 0.25576926082139 
1630	 0.255774752673445 
1631	 0.255794969897854 
1632	 0.255827577355882 
1633	 0.255855707309037 
1634	 0.255900853412924 
1635	 0.255914575058281 
1636	 0.2559156073775 
1637	 0.255909989883865 
1638	 0.255875543316913 
1639	 0.255876065939643 
1640	 0.255881859156703 
1641	 0.255901670974426 
1642	 0.255946735867006 
1643	 0.255977509451573 
1644	 0.256012972579145 
1645	 0.256039612653038 
1646	 0.256065415707367 
1647	 0.256079153154434 
1648	 0.256083543623216 
1649	 0.256085562264717 
1650	 0.256082164360404 
1651	 0.256069279304227 
1652	 0.256039184470434 
1653	 0.256034006402076 
1654	 0.25602897312101 
1655	 0.256030913074346 
1656	 0.256071318492374 
1657	 0.256058738617302 
1658	 0.256015177099141 
1659	 0.255984401437597 
1660	 0.255939415721126 
1661	 0.255888676330719 
1662	 0.255824033394455 
1663	 0.255794534229141 
1664	 0.255759530491279 
1665	 0.255749952241346 
1666	 0.255797087810133 
1667	 0.255802204803673 
1668	 0.255799864389283 
1669	 0.255782460111166 
1670	 0.255741998600005 
1671	 0.255716458386706 
1672	 0.255679976659255 
1673	 0.255658537233405 
1674	 0.255653439707022 
1675	 0.255640913479824 
1676	 0.255630570357073 
1677	 0.255617750577691 
1678	 0.255604227162701 
1679	 0.255589549206164 
1680	 0.25556776515825 
1681	 0.255558202066375 
1682	 0.255551276442283 
1683	 0.255550396436916 
1684	 0.255567540263041 
1685	 0.255567593167096 
1686	 0.255569697474076 
1687	 0.255554265759373 
1688	 0.25552190969967 
1689	 0.25549183376873 
1690	 0.255446908182202 
1691	 0.255413907819738 
1692	 0.255386613376414 
1693	 0.255354821778283 
1694	 0.255318702122409 
1695	 0.255296607525077 
1696	 0.255277710648769 
1697	 0.255263824119018 
1698	 0.25526869792188 
1699	 0.255260420733555 
1700	 0.255259092359568 
1701	 0.255226071231764 
1702	 0.255163687964006 
1703	 0.255123468508661 
1704	 0.255073865880997 
1705	 0.255029114248207 
1706	 0.25501748973549 
1707	 0.254963380439439 
1708	 0.254873467160544 
1709	 0.25480137140689 
1710	 0.254713664939481 
1711	 0.254644599361226 
1712	 0.254597513018584 
1713	 0.254527644016242 
1714	 0.254447364142509 
1715	 0.254379663923677 
1716	 0.254311286288276 
1717	 0.254238212991871 
1718	 0.25416783211308 
1719	 0.254107108558806 
1720	 0.254040762725544 
1721	 0.253980745476087 
1722	 0.253941673656674 
1723	 0.253886244954715 
1724	 0.25382325317829 
1725	 0.253753303676051 
1726	 0.253681028898045 
1727	 0.253602554817272 
1728	 0.253503826938361 
1729	 0.25342757909254 
1730	 0.25337060449624 
1731	 0.25328454348566 
1732	 0.253200981384149 
1733	 0.253097852984955 
1734	 0.252950111756738 
1735	 0.252852109619377 
1736	 0.252776314218055 
1737	 0.252680696869699 
1738	 0.252597343886497 
1739	 0.252507357546451 
1740	 0.252395997721764 
1741	 0.252308076742209 
1742	 0.252240741430795 
1743	 0.252164584406952 
1744	 0.252090913747424 
1745	 0.252003061974452 
1746	 0.251912486261722 
1747	 0.251818635988356 
1748	 0.25171942450637 
1749	 0.251600825071154 
1750	 0.251474348345133 
1751	 0.251349369752915 
1752	 0.251226414158685 
1753	 0.251108609269355 
1754	 0.250962221935138 
1755	 0.250811180006656 
1756	 0.250669082167324 
1757	 0.250546303158943 
1758	 0.25044984345137 
1759	 0.250344088457023 
1760	 0.250234716717263 
1761	 0.250129892255558 
1762	 0.250042341089374 
1763	 0.249957646479161 
1764	 0.249857899456167 
1765	 0.249742899461575 
1766	 0.249613169185066 
1767	 0.249483263924444 
1768	 0.249371095760326 
1769	 0.249267898648737 
1770	 0.249182752333203 
1771	 0.249130568927533 
1772	 0.249056474742516 
1773	 0.248970044187051 
1774	 0.248903803234845 
1775	 0.248833554215647 
1776	 0.248768204576841 
1777	 0.248715866057996 
1778	 0.24863738132463 
1779	 0.248532259141495 
1780	 0.248428273170964 
1781	 0.248350668108236 
1782	 0.248288434233381 
1783	 0.248202691090595 
1784	 0.248152643574076 
1785	 0.248116248115027 
1786	 0.24807480408579 
1787	 0.248079451757688 
1788	 0.24804892334912 
1789	 0.247968898794796 
1790	 0.247927458147923 
1791	 0.24789629593059 
1792	 0.247864259458072 
1793	 0.24786063311721 
1794	 0.247846006532025 
1795	 0.247819740808045 
1796	 0.247802377392928 
1797	 0.247777253951942 
1798	 0.247762806908106 
1799	 0.247775118017042 
1800	 0.247767808964163 
1801	 0.247151775907622 
1802	 0.247321978856626 
1803	 0.247511773513391 
1804	 0.247730465184417 
1805	 0.247971684086005 
1806	 0.248191718721295 
1807	 0.248414206578769 
1808	 0.248592786298086 
1809	 0.248735746203711 
1810	 0.248851374941279 
1811	 0.248940566045455 
1812	 0.24901912754884 
1813	 0.249053758225868 
1814	 0.249094198760407 
1815	 0.249115745419255 
1816	 0.249123132966003 
1817	 0.249121163236265 
1818	 0.249078315748488 
1819	 0.249079398745868 
1820	 0.249096011836329 
1821	 0.249103535979297 
1822	 0.249129696385491 
1823	 0.249156496261674 
1824	 0.249172766316024 
1825	 0.249187883893834 
1826	 0.249208388169367 
1827	 0.249224677999636 
1828	 0.249185532342511 
1829	 0.249086233562265 
1830	 0.249015820355581 
1831	 0.248908751239922 
1832	 0.248826601892915 
1833	 0.248794338378495 
1834	 0.248761530027611 
1835	 0.248741924218598 
1836	 0.248713724509492 
1837	 0.248680546134037 
1838	 0.248647965278779 
1839	 0.248610436948637 
1840	 0.248573091063267 
1841	 0.248531013278524 
1842	 0.248453431901431 
1843	 0.248375730875058 
1844	 0.248294633983648 
1845	 0.24816312364506 
1846	 0.248024732661637 
1847	 0.247899136092946 
1848	 0.247758350749451 
1849	 0.247610716298423 
1850	 0.247458111834631 
1851	 0.247311300746131 
1852	 0.247146685108 
1853	 0.246972843694619 
1854	 0.246771894608306 
1855	 0.24655851821589 
1856	 0.246314560651843 
1857	 0.246008493140941 
1858	 0.245696935196613 
1859	 0.245363640603356 
1860	 0.244978214763442 
1861	 0.244557624841327 
1862	 0.244087398412214 
1863	 0.243580464405189 
1864	 0.243047742586484 
1865	 0.24246499069045 
1866	 0.241871306725528 
1867	 0.241232315518249 
1868	 0.240493899901071 
1869	 0.239684672530367 
1870	 0.238824915829615 
1871	 0.237912593917315 
1872	 0.236935693507787 
1873	 0.235926124682628 
1874	 0.234882570541153 
1875	 0.233757673888576 
1876	 0.232576930528348 
1877	 0.231317275726829 
1878	 0.229932342589885 
1879	 0.228474097372264 
1880	 0.226916072489304 
1881	 0.225226801435763 
1882	 0.223490718457737 
1883	 0.22169454978496 
1884	 0.21977067669143 
1885	 0.21778416261305 
1886	 0.21570880574844 
1887	 0.213509170619969 
1888	 0.211233556673155 
1889	 0.20888981663078 
1890	 0.206526408250157 
1891	 0.204172255920332 
1892	 0.201771309950629 
1893	 0.199415458024701 
1894	 0.197069894134752 
1895	 0.194736919801097 
1896	 0.192415276042383 
1897	 0.190152902751668 
1898	 0.187912993216235 
1899	 0.185743117331623 
1900	 0.183661768522056 
1901	 0.181635675892043 
1902	 0.179728273914222 
1903	 0.177944510807756 
1904	 0.176227394756956 
1905	 0.174583118043382 
1906	 0.173066348169994 
1907	 0.171637634418932 
1908	 0.170287453638634 
1909	 0.169047610818186 
1910	 0.167892540276274 
1911	 0.166808452161617 
1912	 0.165798777829792 
1913	 0.164854801081108 
1914	 0.163983502536807 
1915	 0.163171765269614 
1916	 0.162431079504454 
1917	 0.161738599410026 
1918	 0.161123259450864 
1919	 0.160551165959959 
1920	 0.160054299886514 
1921	 0.159619898480809 
1922	 0.159203815000167 
1923	 0.158833655718298 
1924	 0.158501812989743 
1925	 0.158197422445979 
1926	 0.15794764230769 
1927	 0.157740533426386 
1928	 0.157583807783858 
1929	 0.157494567860443 
1930	 0.157434192889568 
1931	 0.157418280920792 
1932	 0.157444902857014 
1933	 0.157479051583606 
1934	 0.157549430210435 
1935	 0.157643668748689 
1936	 0.157759582942038 
1937	 0.157915895822538 
1938	 0.158109627615424 
1939	 0.158319769782973 
1940	 0.158570277563631 
1941	 0.158831224579852 
1942	 0.159099204889285 
1943	 0.159384375873434 
1944	 0.159689134234754 
1945	 0.160018115491661 
1946	 0.160343977988879 
1947	 0.160666096961801 
1948	 0.161030451047672 
1949	 0.161410952116203 
1950	 0.161804862544351 
1951	 0.162235260119128 
1952	 0.162672644096476 
1953	 0.163100249172842 
1954	 0.163554649833076 
1955	 0.16402655027639 
1956	 0.164523996304446 
1957	 0.165002504977623 
1958	 0.165482327239918 
1959	 0.165963507551271 
1960	 0.166424786141094 
1961	 0.166915669700326 
1962	 0.167426767393405 
1963	 0.16794400862509 
1964	 0.16847130479664 
1965	 0.169012834777186 
1966	 0.169566603208949 
1967	 0.170118644306134 
1968	 0.170684009729248 
1969	 0.17127018606919 
1970	 0.171841934253037 
1971	 0.172426249686572 
1972	 0.172993341928712 
1973	 0.173533269085515 
1974	 0.174095799639574 
1975	 0.174662701967101 
1976	 0.175228813584748 
1977	 0.175799225440209 
1978	 0.176395076262948 
1979	 0.176981134392806 
1980	 0.177565629283599 
1981	 0.178138986279663 
1982	 0.178702842560651 
1983	 0.179278888341803 
1984	 0.179847556504661 
1985	 0.180420956349046 
1986	 0.1810207392634 
1987	 0.181599059658047 
1988	 0.182162835650692 
1989	 0.182726187148287 
1990	 0.183291991451713 
1991	 0.183834857959602 
1992	 0.184401045818058 
1993	 0.184983553233753 
1994	 0.185546711845877 
1995	 0.186107057399663 
1996	 0.186671591934994 
1997	 0.18722009767343 
1998	 0.187784914370768 
1999	 0.188377595227125 
2000	 0.188949824559185 
2001	 0.189530383229532 
2002	 0.19008217221558 
2003	 0.190619793234465 
2004	 0.191145381080583 
2005	 0.191665313736152 
2006	 0.192164430039909 
2007	 0.192683718369148 
2008	 0.193196773482196 
2009	 0.193720159113822 
2010	 0.194266276762997 
2011	 0.194791450258854 
2012	 0.195320710856511 
2013	 0.195836135316504 
2014	 0.19633029229399 
2015	 0.196829508928598 
2016	 0.197322413328361 
2017	 0.197811927964588 
2018	 0.198310313667098 
2019	 0.198820273659014 
2020	 0.199309707007671 
2021	 0.199793659297755 
2022	 0.200280202823955 
2023	 0.200756626124721 
2024	 0.201236803263194 
2025	 0.20173117883948 
2026	 0.202205638350377 
2027	 0.202669942636728 
2028	 0.203129514148492 
2029	 0.203573399747627 
2030	 0.204000006872286 
2031	 0.204437780235164 
2032	 0.204866250109485 
2033	 0.205295753606877 
2034	 0.205743833939758 
2035	 0.206155959507245 
2036	 0.206551137922833 
2037	 0.206939293739331 
2038	 0.207293985329733 
2039	 0.207665034515421 
2040	 0.208043963031994 
2041	 0.208407805865166 
2042	 0.208778254540597 
2043	 0.209144121912311 
2044	 0.209517079213862 
2045	 0.209886317788124 
2046	 0.210265522462446 
2047	 0.210670641063341 
2048	 0.211042184649698 
2049	 0.211395959436623 
2050	 0.211754218824283 
2051	 0.212110185025553 
2052	 0.212446326728244 
2053	 0.212765510347351 
2054	 0.213097589984858 
2055	 0.213429862618881 
2056	 0.213734046669842 
2057	 0.214054936915686 
2058	 0.214390753658191 
2059	 0.214723729870854 
2060	 0.215039061142636 
2061	 0.215382536493448 
2062	 0.215764363639048 
2063	 0.216107226345718 
2064	 0.216454559582466 
2065	 0.216778507927603 
2066	 0.21706314281991 
2067	 0.217362429210347 
2068	 0.217657663078323 
2069	 0.21795128033127 
2070	 0.218246028132079 
2071	 0.218540660748559 
2072	 0.218843012711809 
2073	 0.219158565166594 
2074	 0.219444187655071 
2075	 0.219720470019158 
2076	 0.22000124043346 
2077	 0.220267930180751 
2078	 0.220529248551913 
2079	 0.220791703926514 
2080	 0.221055044969823 
2081	 0.22128512274353 
2082	 0.221549800630517 
2083	 0.221842285905797 
2084	 0.222138787970856 
2085	 0.222433595635077 
2086	 0.222746269558847 
2087	 0.223039643195923 
2088	 0.223326627362556 
2089	 0.223609809577367 
2090	 0.223892309556754 
2091	 0.224158217992118 
2092	 0.224412575702763 
2093	 0.22466363987427 
2094	 0.224900662220106 
2095	 0.225138536342048 
2096	 0.225366425428106 
2097	 0.225604716199409 
2098	 0.225844373280071 
2099	 0.226081665917582 
2100	 0.226332176567978 
2101	 0.226595942356779 
2102	 0.226855342107693 
2103	 0.227119665031602 
2104	 0.227382834245111 
2105	 0.227653077057564 
2106	 0.22791072236962 
2107	 0.22815355931662 
2108	 0.228413728867872 
2109	 0.228671817284378 
2110	 0.228938909933364 
2111	 0.229234771113858 
2112	 0.229509473739909 
2113	 0.229778435783155 
2114	 0.23004104731114 
2115	 0.230296090225859 
2116	 0.230536473521481 
2117	 0.230783761503123 
2118	 0.23102746799653 
2119	 0.231274535069015 
2120	 0.231529589689824 
2121	 0.231768847918302 
2122	 0.232008472699541 
2123	 0.232232498219412 
2124	 0.23244337081225 
2125	 0.232645414297058 
2126	 0.232834225642974 
2127	 0.233019457501146 
2128	 0.233208194602434 
2129	 0.233368125681287 
2130	 0.233494022635588 
2131	 0.233639339641564 
2132	 0.233773321289039 
2133	 0.233888142915259 
2134	 0.234006520115871 
2135	 0.234140068470597 
2136	 0.234245258922933 
2137	 0.234335950528349 
2138	 0.234407218413802 
2139	 0.234463564225943 
2140	 0.234507504867755 
2141	 0.234537503052132 
2142	 0.234545017173658 
2143	 0.234513197455175 
2144	 0.234505939594814 
2145	 0.234491992533772 
2146	 0.234474978130175 
2147	 0.23447354577924 
2148	 0.234470708343804 
2149	 0.234456916680958 
2150	 0.23442332628606 
2151	 0.23440167530753 
2152	 0.234386643110472 
2153	 0.23436562756216 
2154	 0.234349072460013 
2155	 0.23431229885528 
2156	 0.234295833352019 
2157	 0.234213727182685 
2158	 0.234087748852656 
2159	 0.233951932098598 
2160	 0.233751938441002 
2161	 0.233580173518306 
2162	 0.233422397248425 
2163	 0.233246725151146 
2164	 0.233061292289028 
2165	 0.232874607906114 
2166	 0.232697508305328 
2167	 0.232502522308599 
2168	 0.23234166159314 
2169	 0.232218832390077 
2170	 0.232060910007646 
2171	 0.231907828321701 
2172	 0.231736141889286 
2173	 0.231540228071451 
2174	 0.231348807238627 
2175	 0.231150340394219 
2176	 0.23095198204524 
2177	 0.230761013391292 
2178	 0.230547598974107 
2179	 0.230296951618725 
2180	 0.230086629713716 
2181	 0.229882843972257 
2182	 0.229680767244506 
2183	 0.229514490542923 
2184	 0.229342080187007 
2185	 0.229151802887407 
2186	 0.228938345770516 
2187	 0.228743223115879 
2188	 0.2285486923217 
2189	 0.22835278090937 
2190	 0.228152785442368 
2191	 0.227968295000272 
2192	 0.227779667745751 
2193	 0.227613398659946 
2194	 0.227454429774589 
2195	 0.227325701862632 
2196	 0.227238258336202 
2197	 0.227131317642795 
2198	 0.22702056045661 
2199	 0.226942279541869 
2200	 0.226870054380407 
2201	 0.226808710486392 
2202	 0.226783828790066 
2203	 0.226764168642289 
2204	 0.226742585806125 
2205	 0.226716487488578 
2206	 0.226689266119514 
2207	 0.226661743194849 
2208	 0.22665613064438 
2209	 0.22663843603371 
2210	 0.226665134225673 
2211	 0.226746186401725 
2212	 0.22679414322498 
2213	 0.226849786572846 
2214	 0.226899810598604 
2215	 0.226931834845561 
2216	 0.226980830746951 
2217	 0.227053583447935 
2218	 0.227103418600754 
2219	 0.227126357425389 
2220	 0.227179559732089 
2221	 0.227246389259139 
2222	 0.227308451368503 
2223	 0.227364363290662 
2224	 0.227418635462716 
2225	 0.227431386016076 
2226	 0.227382536503966 
2227	 0.227384097457425 
2228	 0.227392166517324 
2229	 0.227397254202864 
2230	 0.227423915163134 
2231	 0.227417685779341 
2232	 0.227389099566587 
2233	 0.227369536798706 
2234	 0.227333463809824 
2235	 0.227316319925247 
2236	 0.227324435317204 
2237	 0.227299089355277 
2238	 0.227256935727185 
2239	 0.227224332355463 
2240	 0.227177088667997 
2241	 0.227136250376554 
2242	 0.227125906399853 
2243	 0.227079637737416 
2244	 0.227017619423484 
2245	 0.226929853551953 
2246	 0.226842762202392 
2247	 0.226759572384461 
2248	 0.226680863952864 
2249	 0.226606657174856 
2250	 0.226550886190547 
2251	 0.226507299895962 
2252	 0.22645220007307 
2253	 0.226428742025182 
2254	 0.226344887752787 
2255	 0.226194557869656 
2256	 0.22611448168702 
2257	 0.22603007844633 
2258	 0.225972508272771 
2259	 0.225974148469491 
2260	 0.225952030163788 
2261	 0.225940097614976 
2262	 0.225902623417852 
2263	 0.225858538887307 
2264	 0.225804630794552 
2265	 0.225694154056338 
2266	 0.225637457507674 
2267	 0.22559807480625 
2268	 0.225580862808505 
2269	 0.225629221556748 
2270	 0.225649502734713 
2271	 0.225603259546919 
2272	 0.22556377897004 
2273	 0.225483782944527 
2274	 0.225390725395069 
2275	 0.225293127035324 
2276	 0.225188362230317 
2277	 0.225117676949204 
2278	 0.225029341618207 
2279	 0.224972736986482 
2280	 0.22498957007556 
2281	 0.224936589289456 
2282	 0.224845917820504 
2283	 0.224789294571282 
2284	 0.224722874993104 
2285	 0.224667589435617 
2286	 0.224637228221503 
2287	 0.224584943601284 
2288	 0.224517191800301 
2289	 0.22446779827655 
2290	 0.224432473542509 
2291	 0.224379864936814 
2292	 0.224329759541662 
2293	 0.224261794842105 
2294	 0.224182527562109 
2295	 0.22409346371753 
2296	 0.223983358032215 
2297	 0.223882123716409 
2298	 0.223790129122423 
2299	 0.223681682350202 
2300	 0.223633897713329 
2301	 0.223564330382822 
2302	 0.223427287493036 
2303	 0.22329721826092 
2304	 0.223125690064004 
2305	 0.222979273975192 
2306	 0.222860203870375 
2307	 0.222784518042797 
2308	 0.222670469828021 
2309	 0.222560200375797 
2310	 0.222443765173243 
2311	 0.222329737632576 
2312	 0.222186942414543 
2313	 0.22202116704487 
2314	 0.221862333725249 
2315	 0.221684594051871 
2316	 0.221511205227042 
2317	 0.2213464747483 
2318	 0.221182522919615 
2319	 0.220991804706908 
2320	 0.220821763565026 
2321	 0.220683419204487 
2322	 0.220530311429327 
2323	 0.220392218683316 
2324	 0.220229708412493 
2325	 0.220041479557699 
2326	 0.219858053782786 
2327	 0.219644015102228 
2328	 0.219462993302587 
2329	 0.219307044850567 
2330	 0.219177262125117 
2331	 0.219098604030456 
2332	 0.218972136030124 
2333	 0.218834852156779 
2334	 0.218707949688094 
2335	 0.218557957927478 
2336	 0.21845885518204 
2337	 0.21835749204027 
2338	 0.218214541684438 
2339	 0.218062345021618 
2340	 0.217843253660352 
2341	 0.217629345068535 
2342	 0.217462417499286 
2343	 0.217275655307635 
2344	 0.21710384867373 
2345	 0.216916188084238 
2346	 0.216714960269296 
2347	 0.216506063285685 
2348	 0.216314829112105 
2349	 0.216068091423457 
2350	 0.215780210420528 
2351	 0.215488436676747 
2352	 0.215126602663695 
2353	 0.214841665221471 
2354	 0.214614766749778 
2355	 0.214343110260914 
2356	 0.214087161609081 
2357	 0.213818825665265 
2358	 0.213481289892583 
2359	 0.213209205197241 
2360	 0.212988312589766 
2361	 0.212758911725799 
2362	 0.212564137332274 
2363	 0.212341973056405 
2364	 0.212106149315058 
2365	 0.211872232479971 
2366	 0.21163778466413 
2367	 0.211383182548534 
2368	 0.211105596423559 
2369	 0.210848795374529 
2370	 0.210599696003412 
2371	 0.210324670829522 
2372	 0.210026838836285 
2373	 0.209776971815833 
2374	 0.20944374118925 
2375	 0.209071950548677 
2376	 0.208760589093224 
2377	 0.208440233924848 
2378	 0.208205203898862 
2379	 0.207988504374207 
2380	 0.207663052602696 
2381	 0.207254517272192 
2382	 0.206835706355931 
2383	 0.206482323645599 
2384	 0.206194498907907 
2385	 0.205980682222308 
2386	 0.205687002557987 
2387	 0.205315518815743 
2388	 0.205038713163844 
2389	 0.204744874958881 
2390	 0.204442631190658 
2391	 0.204156144712735 
2392	 0.203763627255403 
2393	 0.203385243967836 
2394	 0.203023361978896 
2395	 0.20256894340547 
2396	 0.202232624309524 
2397	 0.201945979282294 
2398	 0.201603626408645 
2399	 0.201403829674797 
2400	 0.201124264517816 
2401	 0.200749445548778 
2402	 0.200410369144792 
2403	 0.200040438757333 
2404	 0.199692472098501 
2405	 0.1992503113431 
2406	 0.19883640445668 
2407	 0.198480334680243 
2408	 0.198141384512048 
2409	 0.197865376549568 
2410	 0.19741975026478 
2411	 0.196920950358731 
2412	 0.196415821535081 
2413	 0.19596153863896 
2414	 0.195671696522709 
2415	 0.195358892668098 
2416	 0.195019016890441 
2417	 0.194660347225875 
2418	 0.194255726793946 
2419	 0.193830193279145 
2420	 0.193389873897681 
2421	 0.192852594804164 
2422	 0.192443999122326 
2423	 0.192122346430598 
2424	 0.191728755062048 
2425	 0.191392728953294 
2426	 0.191002026273224 
2427	 0.190519208767543 
2428	 0.19004549745465 
2429	 0.18960888862024 
2430	 0.189106682550811 
2431	 0.188452815357749 
2432	 0.188002359209876 
2433	 0.187657211669754 
2434	 0.187233104816894 
2435	 0.186889412046338 
2436	 0.186489647854893 
2437	 0.18604245930272 
2438	 0.1856071051873 
2439	 0.185177027245298 
2440	 0.184751865505285 
2441	 0.184243667736167 
2442	 0.18377706939477 
2443	 0.183428406180878 
2444	 0.183019740599747 
2445	 0.182572866225833 
2446	 0.182083057987445 
2447	 0.181489672163241 
2448	 0.181035417163325 
2449	 0.180653208255194 
2450	 0.180329700534523 
2451	 0.180118109776888 
2452	 0.17975534271267 
2453	 0.179319645052627 
2454	 0.17891443755947 
2455	 0.178554045611498 
2456	 0.178139526602911 
2457	 0.177607460318682 
2458	 0.177269176570278 
2459	 0.176998630046171 
2460	 0.176688548252206 
2461	 0.176566779800206 
2462	 0.176234857251143 
2463	 0.1756930290087 
2464	 0.175212288402574 
2465	 0.174687265359825 
2466	 0.174208818015373 
2467	 0.173801925464522 
2468	 0.173355975443887 
2469	 0.172850420217002 
2470	 0.172542220819341 
2471	 0.172162640182216 
2472	 0.171755713969339 
2473	 0.171372116718908 
2474	 0.170992937103027 
2475	 0.170597347121262 
2476	 0.170218087625575 
2477	 0.169830346892074 
2478	 0.169422061970612 
2479	 0.169087841342618 
2480	 0.168644153393344 
2481	 0.168283731306442 
2482	 0.168044499146417 
2483	 0.16762182366709 
2484	 0.167451194969828 
2485	 0.167348072828067 
2486	 0.166877637369205 
2487	 0.16656313134261 
2488	 0.166261231137022 
2489	 0.165794552780695 
2490	 0.165504620411388 
2491	 0.165263136400246 
2492	 0.165063100197294 
2493	 0.164866270279927 
2494	 0.164699267039122 
2495	 0.164400217154969 
2496	 0.163933980191202 
2497	 0.163737432462604 
2498	 0.163710331754789 
2499	 0.163500405186998 
2500	 0.163172153366913 
