Wavelength	mm2000001.asd
350	 5.52259852770877E-02 
351	 6.43058586452378E-02 
352	 0.068632661049763 
353	 6.07855251052944E-02 
354	 5.06966161071072E-02 
355	 4.98683347831467E-02 
356	 5.35646638601037E-02 
357	 5.48011570894551E-02 
358	 5.78591467119976E-02 
359	 5.65714750688605E-02 
360	 5.35856528073189E-02 
361	 5.60173248372643E-02 
362	 5.27450938569402E-02 
363	 5.20693347421735E-02 
364	 5.60237858448405E-02 
365	 5.35040415013823E-02 
366	 5.05052356972577E-02 
367	 4.80118284371414E-02 
368	 4.67816582361617E-02 
369	 5.28309973512101E-02 
370	 5.50849560828168E-02 
371	 5.32955389755399E-02 
372	 5.44214722168596E-02 
373	 5.38155555074713E-02 
374	 5.26662439540332E-02 
375	 5.30723213323442E-02 
376	 5.79926912422719E-02 
377	 5.65774252366984E-02 
378	 5.37141478955139E-02 
379	 5.63519039346752E-02 
380	 5.85997621685129E-02 
381	 5.76975500425066E-02 
382	 5.63157398146641E-02 
383	 6.02009420059059E-02 
384	 6.13821238086548E-02 
385	 6.07146752481434E-02 
386	 6.01635593853986E-02 
387	 6.12919702867993E-02 
388	 0.061823103317748 
389	 6.20094453272702E-02 
390	 6.26765382510342E-02 
391	 6.30646898856528E-02 
392	 0.064800806456671 
393	 6.72091196194366E-02 
394	 6.78687588845316E-02 
395	 7.03358809193021E-02 
396	 0.071938298501841 
397	 7.18325438343041E-02 
398	 7.54894661147331E-02 
399	 7.78448018143684E-02 
400	 7.91749695538887E-02 
401	 8.12309684656514E-02 
402	 8.20668605246673E-02 
403	 8.33909761052473E-02 
404	 8.55011177906296E-02 
405	 8.71425302873214E-02 
406	 8.88233137743023E-02 
407	 9.03766951683782E-02 
408	 0.091679731199826 
409	 9.30354273741957E-02 
410	 9.38523271695544E-02 
411	 9.46088798813978E-02 
412	 9.60622558685957E-02 
413	 9.71620182405529E-02 
414	 9.81153087269793E-02 
415	 9.89266986472312E-02 
416	 0.099200619592985 
417	 9.92753304507311E-02 
418	 9.90248786100395E-02 
419	 9.85309568330149E-02 
420	 9.90125033647912E-02 
421	 9.90388233067702E-02 
422	 9.84420197928007E-02 
423	 9.78853776752218E-02 
424	 9.72904405447711E-02 
425	 9.64067689092934E-02 
426	 9.53465922254129E-02 
427	 9.49879351772037E-02 
428	 9.40220253327166E-02 
429	 9.28212132347998E-02 
430	 9.20598287155858E-02 
431	 9.09609053450244E-02 
432	 9.00962536202795E-02 
433	 8.94902169052099E-02 
434	 0.088624312495982 
435	 8.82634549691423E-02 
436	 8.84252012483539E-02 
437	 8.88759706795359E-02 
438	 8.90753621385502E-02 
439	 9.00364671345162E-02 
440	 9.15709638088966E-02 
441	 0.092907555751061 
442	 9.39410103769356E-02 
443	 9.53212471257929E-02 
444	 9.70881156212712E-02 
445	 9.82443056404298E-02 
446	 9.99047269475453E-02 
447	 0.101631304303978 
448	 0.10285247046808 
449	 0.104378550820752 
450	 0.106106925539114 
451	 0.107907939027996 
452	 0.109653764512411 
453	 0.111145527696448 
454	 0.112361564685976 
455	 0.113469694613491 
456	 0.115035790704419 
457	 0.11630933274577 
458	 0.117313154396565 
459	 0.118408370942447 
460	 0.119609949510954 
461	 0.12063135991694 
462	 0.121513944044565 
463	 0.122798762045156 
464	 0.123708858342123 
465	 0.124278635220475 
466	 0.12481572931734 
467	 0.125704152418498 
468	 0.126580689689577 
469	 0.127255728787292 
470	 0.127729127337677 
471	 0.128409102656685 
472	 0.129064742756408 
473	 0.129538847280736 
474	 0.130123366362802 
475	 0.13058081397686 
476	 0.13097902438845 
477	 0.131509086350538 
478	 0.132230232816521 
479	 0.132811444700946 
480	 0.133168391028004 
481	 0.133589872277517 
482	 0.134314083091161 
483	 0.13496171740035 
484	 0.13519816743958 
485	 0.135611248545483 
486	 0.136100258716778 
487	 0.136673177662898 
488	 0.137412592120938 
489	 0.137874221462353 
490	 0.13823824567044 
491	 0.138718122058183 
492	 0.139359404672299 
493	 0.139720902746614 
494	 0.140008027665328 
495	 0.140649043927431 
496	 0.141184844433586 
497	 0.141576467740284 
498	 0.14192248444188 
499	 0.142460741477847 
500	 0.143012294738236 
501	 0.143471996508106 
502	 0.143802802923643 
503	 0.144149258300242 
504	 0.144529112271142 
505	 0.144989898040655 
506	 0.145593675292387 
507	 0.145986410433381 
508	 0.146366745350787 
509	 0.14688535409866 
510	 0.147255977828285 
511	 0.147662329631675 
512	 0.148103381007662 
513	 0.148492550567891 
514	 0.14891513646718 
515	 0.14929963136233 
516	 0.149657365786374 
517	 0.150184676028413 
518	 0.150553219097338 
519	 0.150878374335427 
520	 0.151355346304218 
521	 0.151780623596052 
522	 0.152148246692941 
523	 0.152475062433794 
524	 0.152790587179727 
525	 0.153216610756275 
526	 0.153645063528888 
527	 0.153982442064925 
528	 0.154352746317789 
529	 0.15474103023629 
530	 0.155123112267934 
531	 0.155473821526181 
532	 0.155825219803815 
533	 0.156254618673049 
534	 0.156762734329719 
535	 0.157198154947077 
536	 0.157486296751855 
537	 0.157779832350634 
538	 0.158263416751312 
539	 0.15862479039601 
540	 0.158994913525896 
541	 0.159423022175719 
542	 0.15980301957094 
543	 0.160167980548914 
544	 0.16058759167032 
545	 0.161095278844392 
546	 0.161553870180567 
547	 0.161931610388904 
548	 0.162305376754741 
549	 0.162827246070374 
550	 0.163311483815189 
551	 0.16380257674267 
552	 0.164332558796305 
553	 0.16479004294062 
554	 0.165196991226272 
555	 0.165659076713531 
556	 0.166293883939713 
557	 0.166878874375768 
558	 0.167468573645201 
559	 0.168117490421814 
560	 0.16883888644596 
561	 0.16938510165471 
562	 0.169897815471294 
563	 0.170601502200183 
564	 0.171350606879208 
565	 0.172024760101804 
566	 0.17259336278753 
567	 0.173125699590275 
568	 0.173747580521412 
569	 0.174505984360204 
570	 0.175390928174977 
571	 0.176312867036391 
572	 0.177241372784726 
573	 0.178091912361273 
574	 0.178767701060271 
575	 0.17947165840421 
576	 0.180387238738596 
577	 0.181522672484914 
578	 0.18254076108876 
579	 0.183485211061922 
580	 0.184329247136907 
581	 0.185054053578106 
582	 0.185780127274865 
583	 0.186573762300611 
584	 0.187457791872045 
585	 0.188406709592776 
586	 0.189533760103022 
587	 0.190754771981591 
588	 0.191940710526433 
589	 0.193058863026036 
590	 0.194191084066601 
591	 0.195330624386039 
592	 0.19639074357811 
593	 0.197346283051752 
594	 0.198240464983202 
595	 0.199083897417873 
596	 0.199733285836174 
597	 0.200473076703496 
598	 0.201339371170094 
599	 0.202228922380458 
600	 0.203107126013691 
601	 0.204024724650637 
602	 0.204967910265565 
603	 0.205786519243766 
604	 0.206617892785583 
605	 0.207495081394849 
606	 0.208400655839549 
607	 0.209264738735858 
608	 0.210052081676122 
609	 0.210798082498361 
610	 0.211611404794983 
611	 0.212199711859873 
612	 0.212669860512416 
613	 0.213162274545974 
614	 0.213568186066489 
615	 0.214009981253929 
616	 0.214478332952276 
617	 0.214878184765919 
618	 0.215320915110821 
619	 0.21573970502192 
620	 0.216084917211743 
621	 0.216387900822786 
622	 0.216722455911956 
623	 0.217061337069033 
624	 0.217338063558715 
625	 0.217534330806437 
626	 0.217805709748793 
627	 0.218169239103179 
628	 0.218444258967191 
629	 0.218717588278879 
630	 0.218961399055573 
631	 0.219149026584849 
632	 0.219360784368989 
633	 0.219591059928752 
634	 0.219822163088867 
635	 0.220030976709601 
636	 0.220256069342915 
637	 0.220475641886119 
638	 0.22067704816825 
639	 0.220896943353671 
640	 0.221112423759143 
641	 0.221331130062867 
642	 0.221571086669315 
643	 0.221819542406555 
644	 0.222073898490164 
645	 0.222321491955797 
646	 0.222533584175996 
647	 0.222718639123862 
648	 0.222928080158278 
649	 0.223209807695446 
650	 0.22355869345309 
651	 0.223807973858338 
652	 0.223989755277324 
653	 0.224302433306028 
654	 0.22463828397279 
655	 0.224943367018923 
656	 0.225217279718395 
657	 0.225569485242403 
658	 0.225934084361298 
659	 0.226267793167974 
660	 0.226555094692265 
661	 0.226911258033638 
662	 0.227287582242953 
663	 0.227654466637791 
664	 0.228033725010428 
665	 0.228419657971634 
666	 0.228812355553997 
667	 0.229210216209346 
668	 0.229591602911398 
669	 0.230036801880127 
670	 0.230539102286525 
671	 0.231015949680024 
672	 0.231423310942122 
673	 0.231880173506171 
674	 0.232432350086548 
675	 0.232878277745447 
676	 0.233373907816343 
677	 0.233889858931732 
678	 0.234350454100331 
679	 0.23495020683734 
680	 0.235498126313491 
681	 0.235968066905946 
682	 0.236587927603401 
683	 0.237188397020284 
684	 0.237786175066998 
685	 0.238415719082365 
686	 0.238998627376167 
687	 0.239613441259951 
688	 0.240248040889524 
689	 0.240832841268393 
690	 0.241454220208039 
691	 0.242110903212973 
692	 0.242777923080879 
693	 0.243408892555647 
694	 0.244062073533872 
695	 0.244733900846298 
696	 0.245397341236695 
697	 0.246021504326144 
698	 0.246700207517603 
699	 0.247422953073186 
700	 0.248067679579697 
701	 0.248764585829171 
702	 0.249474656384949 
703	 0.250149347040993 
704	 0.250817295585894 
705	 0.251468151994611 
706	 0.252129912918641 
707	 0.252838604318435 
708	 0.25353325315398 
709	 0.254233322037719 
710	 0.254937500678544 
711	 0.255605265575305 
712	 0.256229469924143 
713	 0.256823501680924 
714	 0.257421910463294 
715	 0.258116077595836 
716	 0.258732734632955 
717	 0.259268162988049 
718	 0.259843030317577 
719	 0.260434882457629 
720	 0.260962247183112 
721	 0.261411525340041 
722	 0.261916544924704 
723	 0.262444789826625 
724	 0.26292007997973 
725	 0.263288967401099 
726	 0.263703396282262 
727	 0.264072645308545 
728	 0.264388062541891 
729	 0.264721456364193 
730	 0.264973732601388 
731	 0.265207010872637 
732	 0.265462812432191 
733	 0.265664623485688 
734	 0.265847015281121 
735	 0.265973519683148 
736	 0.266003704150023 
737	 0.266044661702919 
738	 0.266090578971198 
739	 0.266095221853882 
740	 0.265984074553798 
741	 0.265896228548468 
742	 0.265773051309262 
743	 0.265566740214485 
744	 0.265378868495366 
745	 0.265157159908629 
746	 0.264895227770702 
747	 0.26460251535376 
748	 0.264238193343547 
749	 0.263871664794173 
750	 0.263525899342764 
751	 0.263155286904407 
752	 0.262671870238869 
753	 0.262128306304862 
754	 0.261592237366991 
755	 0.261068737113766 
756	 0.260524350992797 
757	 0.25993487963228 
758	 0.259295336186267 
759	 0.258685182948099 
760	 0.258060147930666 
761	 0.257386940958124 
762	 0.25666294825525 
763	 0.255983255217738 
764	 0.25526494199663 
765	 0.254454783412338 
766	 0.253702830272076 
767	 0.253024039515505 
768	 0.252323333862445 
769	 0.251484437215061 
770	 0.25068462695821 
771	 0.249932764955286 
772	 0.24915850342187 
773	 0.248225836658346 
774	 0.247378871873938 
775	 0.246584406614957 
776	 0.245772738593781 
777	 0.244964028052391 
778	 0.244113769310986 
779	 0.243255519294884 
780	 0.24244124935867 
781	 0.241589168381196 
782	 0.240739747779378 
783	 0.239912215765418 
784	 0.239095116295373 
785	 0.238260459960152 
786	 0.237447470455044 
787	 0.236666266149211 
788	 0.235820313967874 
789	 0.235013750026766 
790	 0.234230507358786 
791	 0.233424017084522 
792	 0.23264359683756 
793	 0.23183774673286 
794	 0.231021096606469 
795	 0.230260032104314 
796	 0.22944899852309 
797	 0.228673724468478 
798	 0.227973749292307 
799	 0.227254022391918 
800	 0.226525424400124 
801	 0.225782011500272 
802	 0.225028285504448 
803	 0.224313116526032 
804	 0.223632128190047 
805	 0.222947014939586 
806	 0.222212347188549 
807	 0.221489723817789 
808	 0.220843045313422 
809	 0.220228274682911 
810	 0.2194700202863 
811	 0.218784552235761 
812	 0.218146567169884 
813	 0.21750443399936 
814	 0.216890973863111 
815	 0.216329963192995 
816	 0.21575499183666 
817	 0.21509868573102 
818	 0.214491648341535 
819	 0.213967366637551 
820	 0.213448092575549 
821	 0.212794584182344 
822	 0.212250357810122 
823	 0.211672112995597 
824	 0.211036993964617 
825	 0.210609485266733 
826	 0.210174136530055 
827	 0.209675186185424 
828	 0.209130875970186 
829	 0.208642282205446 
830	 0.208134773083352 
831	 0.207629780748469 
832	 0.207186468576423 
833	 0.206797367420851 
834	 0.206381258657903 
835	 0.205925322604274 
836	 0.205488287483704 
837	 0.205116459076055 
838	 0.204716083969881 
839	 0.204261303818784 
840	 0.203880159746202 
841	 0.203477752092895 
842	 0.203093641887934 
843	 0.202769456154059 
844	 0.202445248639481 
845	 0.202108188433317 
846	 0.201759359737163 
847	 0.201424453937479 
848	 0.201214646111472 
849	 0.200929096093613 
850	 0.200546495031396 
851	 0.200208034087228 
852	 0.199860514420853 
853	 0.199605970141714 
854	 0.199454115290298 
855	 0.199259120351006 
856	 0.198990334321755 
857	 0.198687991820429 
858	 0.198424726941745 
859	 0.198308031052911 
860	 0.198125006423293 
861	 0.1978868397801 
862	 0.197670528247246 
863	 0.197430411380903 
864	 0.197276769385357 
865	 0.197158818662016 
866	 0.196957359921875 
867	 0.196850330563821 
868	 0.196727536436855 
869	 0.196550089832861 
870	 0.196378921564955 
871	 0.196228677458178 
872	 0.196142931393918 
873	 0.196109859047072 
874	 0.196029593816733 
875	 0.195974666818659 
876	 0.195898384719233 
877	 0.195784554038727 
878	 0.195773102960955 
879	 0.195748556399695 
880	 0.195687080085656 
881	 0.195616119805236 
882	 0.195618646012794 
883	 0.19567963992691 
884	 0.195677883980678 
885	 0.195512398741833 
886	 0.195541032880614 
887	 0.195636378275475 
888	 0.195704886345442 
889	 0.195726644197579 
890	 0.195772576222197 
891	 0.19584133054236 
892	 0.195917558441742 
893	 0.195984130758246 
894	 0.196090362309551 
895	 0.19618260746465 
896	 0.196239004932289 
897	 0.196327483931144 
898	 0.19652294446721 
899	 0.196714875401833 
900	 0.196817394375412 
901	 0.196947585447371 
902	 0.197071391419018 
903	 0.197229221231761 
904	 0.197440307661974 
905	 0.197554489993339 
906	 0.197767433116732 
907	 0.198049612069392 
908	 0.19828871313151 
909	 0.198588963665918 
910	 0.198807015237204 
911	 0.198974189497319 
912	 0.199222350951795 
913	 0.199458056381525 
914	 0.199760521893054 
915	 0.2001006031926 
916	 0.2003639783653 
917	 0.200683725615575 
918	 0.20099360403364 
919	 0.201279383034326 
920	 0.201609679678976 
921	 0.201961816221834 
922	 0.202355696937179 
923	 0.20276377848868 
924	 0.203091973088074 
925	 0.203444705577585 
926	 0.203827474417921 
927	 0.204231014210081 
928	 0.204657809997358 
929	 0.205154308111802 
930	 0.205641450586643 
931	 0.206064261061355 
932	 0.206496793852785 
933	 0.206989078987785 
934	 0.207513503724669 
935	 0.208047729812036 
936	 0.208676180587582 
937	 0.209180516731226 
938	 0.209649635989382 
939	 0.210225978665075 
940	 0.210844162148205 
941	 0.211432333637075 
942	 0.212006849842863 
943	 0.212603078421463 
944	 0.213158830312661 
945	 0.213761387755174 
946	 0.214378942374596 
947	 0.214969834621267 
948	 0.215722803224881 
949	 0.216401163471856 
950	 0.21700402479521 
951	 0.217667115226492 
952	 0.218489179804838 
953	 0.219189795626328 
954	 0.219815732899742 
955	 0.22058016846293 
956	 0.221434535023663 
957	 0.222231480277401 
958	 0.222995708911051 
959	 0.22383030078382 
960	 0.224594998209552 
961	 0.225406855876596 
962	 0.226269625958603 
963	 0.227094004733214 
964	 0.227780142547728 
965	 0.228635766657833 
966	 0.22962707430404 
967	 0.230509048471006 
968	 0.231391400893288 
969	 0.23228937547262 
970	 0.233229430047356 
971	 0.234215624922576 
972	 0.235084041935066 
973	 0.236106385800356 
974	 0.237164405879917 
975	 0.237975237813216 
976	 0.23904350522675 
977	 0.240072927438061 
978	 0.241001948648059 
979	 0.241972850708862 
980	 0.243120470247611 
981	 0.244202919467967 
982	 0.245150962852685 
983	 0.246066874147775 
984	 0.24720289739523 
985	 0.248208343928537 
986	 0.249174408703422 
987	 0.250354148683578 
988	 0.251377610058635 
989	 0.252337222898978 
990	 0.253326152579798 
991	 0.254413635908916 
992	 0.25560024106697 
993	 0.256806195665406 
994	 0.257958976475415 
995	 0.259002561283818 
996	 0.259889549819379 
997	 0.260967480328925 
998	 0.262175627631266 
999	 0.263335955182835 
1000	 0.264539226224208 
1001	 0.258892219534401 
1002	 0.259916686546367 
1003	 0.260871941933553 
1004	 0.261872634457144 
1005	 0.262891480275962 
1006	 0.263896832840199 
1007	 0.264905021133768 
1008	 0.265950183447864 
1009	 0.266971350497633 
1010	 0.267947504275591 
1011	 0.268882212265907 
1012	 0.269844911462036 
1013	 0.270807952399115 
1014	 0.271699149941977 
1015	 0.272622093502946 
1016	 0.273645066380676 
1017	 0.27459560262916 
1018	 0.275510214028667 
1019	 0.276388114134951 
1020	 0.277347833698337 
1021	 0.278230523082904 
1022	 0.279060353164141 
1023	 0.279992284720593 
1024	 0.280889987964548 
1025	 0.281716956483834 
1026	 0.282619543670605 
1027	 0.283523508000814 
1028	 0.284355151375014 
1029	 0.285243556418535 
1030	 0.286138552951115 
1031	 0.286978452579245 
1032	 0.287780853502201 
1033	 0.288646023956881 
1034	 0.289506739500551 
1035	 0.290297009900884 
1036	 0.291123283418359 
1037	 0.291973368455661 
1038	 0.292812437412927 
1039	 0.293627685446774 
1040	 0.294460682614486 
1041	 0.295346903512992 
1042	 0.29618837114847 
1043	 0.297000652101145 
1044	 0.297809310923215 
1045	 0.298630067190395 
1046	 0.299404196891242 
1047	 0.300162629428756 
1048	 0.300963509465929 
1049	 0.301780029183842 
1050	 0.30259449617723 
1051	 0.303402861756535 
1052	 0.304162943581822 
1053	 0.304952528690834 
1054	 0.305754840011874 
1055	 0.306499185540052 
1056	 0.307298116485879 
1057	 0.308098614384688 
1058	 0.308897554565923 
1059	 0.309656488923196 
1060	 0.310419146279732 
1061	 0.311186759777401 
1062	 0.31188485893735 
1063	 0.312599512061723 
1064	 0.313381235842114 
1065	 0.314108229485453 
1066	 0.314720088133443 
1067	 0.315382604671319 
1068	 0.316121380771299 
1069	 0.316848394115677 
1070	 0.317574358710747 
1071	 0.318422276791385 
1072	 0.319139823881912 
1073	 0.319707539186842 
1074	 0.320373465870427 
1075	 0.321074149889725 
1076	 0.321735044548112 
1077	 0.32238212984065 
1078	 0.323029700154661 
1079	 0.323625869731166 
1080	 0.324235152401292 
1081	 0.324840519390213 
1082	 0.325466567201258 
1083	 0.326116707367688 
1084	 0.326772538203189 
1085	 0.327417825587773 
1086	 0.328117401093346 
1087	 0.328745299481072 
1088	 0.329310797954011 
1089	 0.329926549972083 
1090	 0.330507540747342 
1091	 0.331066401488508 
1092	 0.331681881794664 
1093	 0.332261243031369 
1094	 0.332822744756688 
1095	 0.333388905485867 
1096	 0.333965635274173 
1097	 0.334541017547012 
1098	 0.335106344831619 
1099	 0.335678221676227 
1100	 0.336265534347444 
1101	 0.336839102633921 
1102	 0.337412716328785 
1103	 0.338000903030518 
1104	 0.338605140894354 
1105	 0.339179195244551 
1106	 0.339738617386655 
1107	 0.34030035508272 
1108	 0.340856268482482 
1109	 0.341412304940708 
1110	 0.341998962875253 
1111	 0.342572433558264 
1112	 0.343172559240107 
1113	 0.343729590158081 
1114	 0.344237442912001 
1115	 0.344792481254889 
1116	 0.345357218832036 
1117	 0.345924187032209 
1118	 0.346510431043445 
1119	 0.34710388024265 
1120	 0.34768092835975 
1121	 0.348240381686737 
1122	 0.348785906287669 
1123	 0.349345624523726 
1124	 0.349909018568209 
1125	 0.350473101683623 
1126	 0.351021180763523 
1127	 0.351569780970444 
1128	 0.352121900520926 
1129	 0.352657604087602 
1130	 0.353208598969506 
1131	 0.353809301185585 
1132	 0.354339159939905 
1133	 0.354798591120149 
1134	 0.355313994373796 
1135	 0.35583004939085 
1136	 0.356340572712679 
1137	 0.356874888407786 
1138	 0.357411308220247 
1139	 0.357917749298614 
1140	 0.358373136545451 
1141	 0.358869244930685 
1142	 0.359381789245839 
1143	 0.359884658250309 
1144	 0.360414748804425 
1145	 0.360893234363646 
1146	 0.361330131473866 
1147	 0.36178743287171 
1148	 0.362223163059755 
1149	 0.362667299181235 
1150	 0.363128727146402 
1151	 0.36359299707944 
1152	 0.364028780319282 
1153	 0.364462327563468 
1154	 0.364905050610615 
1155	 0.365337948952017 
1156	 0.365799631248023 
1157	 0.366289223825213 
1158	 0.366754762324417 
1159	 0.367236038905924 
1160	 0.367693377854648 
1161	 0.368126473543449 
1162	 0.368561390450419 
1163	 0.368985485429487 
1164	 0.369418001832 
1165	 0.369848110489072 
1166	 0.370284812441389 
1167	 0.370722691771584 
1168	 0.371158060520671 
1169	 0.371589756695295 
1170	 0.372006842404747 
1171	 0.372452472578937 
1172	 0.37292159972013 
1173	 0.373359836780043 
1174	 0.373808576763843 
1175	 0.374235852349855 
1176	 0.374632030235593 
1177	 0.375035797086453 
1178	 0.375432405223668 
1179	 0.375838942516859 
1180	 0.376249053128941 
1181	 0.376653673997853 
1182	 0.377073150144531 
1183	 0.37747282721273 
1184	 0.377871128850995 
1185	 0.378254712814073 
1186	 0.378652233704519 
1187	 0.379059462196947 
1188	 0.379447408903596 
1189	 0.379827174756623 
1190	 0.380213643838635 
1191	 0.38058640576301 
1192	 0.380972833615503 
1193	 0.381383832173276 
1194	 0.381772223842178 
1195	 0.382156345383779 
1196	 0.382530293971964 
1197	 0.382885228157465 
1198	 0.383245785550541 
1199	 0.38360484167664 
1200	 0.383964420209616 
1201	 0.384311481678938 
1202	 0.384647359479127 
1203	 0.385001575392571 
1204	 0.385345892450711 
1205	 0.385711476449972 
1206	 0.38611233961179 
1207	 0.386483183585917 
1208	 0.386857525418964 
1209	 0.387211686065941 
1210	 0.387548232075163 
1211	 0.387879273807058 
1212	 0.388180771406811 
1213	 0.388505498263585 
1214	 0.388834407243312 
1215	 0.389166389483968 
1216	 0.389505519914092 
1217	 0.389869585167614 
1218	 0.390199611761369 
1219	 0.390518613056766 
1220	 0.390835952344751 
1221	 0.391137599206423 
1222	 0.391447260992089 
1223	 0.391758540375062 
1224	 0.392068737615046 
1225	 0.392380382950623 
1226	 0.392687052210837 
1227	 0.393004200006126 
1228	 0.393299128655707 
1229	 0.393572989290851 
1230	 0.393854471079404 
1231	 0.394114848959956 
1232	 0.394392659165113 
1233	 0.394679915188816 
1234	 0.394978893652158 
1235	 0.395283839636762 
1236	 0.395606010891989 
1237	 0.395911915895082 
1238	 0.396225571846522 
1239	 0.396521834961117 
1240	 0.396796473288666 
1241	 0.397087744233153 
1242	 0.397388167065991 
1243	 0.397673718637733 
1244	 0.397965580698688 
1245	 0.398241528176739 
1246	 0.398481100810304 
1247	 0.398747913791345 
1248	 0.399023423364682 
1249	 0.399305063308962 
1250	 0.399591184069423 
1251	 0.399858227250961 
1252	 0.40012104440659 
1253	 0.400368944533248 
1254	 0.400613007532765 
1255	 0.400854115757431 
1256	 0.401090124018124 
1257	 0.401311159946164 
1258	 0.401535754716379 
1259	 0.401747879089187 
1260	 0.401984015898879 
1261	 0.402237686251183 
1262	 0.402476782662096 
1263	 0.402742214940066 
1264	 0.402977816631722 
1265	 0.403165878707709 
1266	 0.403384825028225 
1267	 0.403617460928542 
1268	 0.403828840258796 
1269	 0.404068398981875 
1270	 0.404337621748557 
1271	 0.404576718021415 
1272	 0.404811400007744 
1273	 0.405050569976314 
1274	 0.405275708255319 
1275	 0.405516725985875 
1276	 0.405760156523119 
1277	 0.406017602981351 
1278	 0.406295871190208 
1279	 0.40655634203489 
1280	 0.406817972348386 
1281	 0.407086062405748 
1282	 0.407339021585916 
1283	 0.407607024651254 
1284	 0.407913491515365 
1285	 0.408180841725919 
1286	 0.408436828702584 
1287	 0.408689334683018 
1288	 0.408930659365069 
1289	 0.409154970492942 
1290	 0.409376363870853 
1291	 0.409595154323982 
1292	 0.4098027538574 
1293	 0.409991029686314 
1294	 0.410188648258995 
1295	 0.410402927647943 
1296	 0.410573247306507 
1297	 0.410737367539971 
1298	 0.410869824951182 
1299	 0.41093935044046 
1300	 0.411041511740181 
1301	 0.411151028539569 
1302	 0.411240587114107 
1303	 0.411323607378467 
1304	 0.411420824547118 
1305	 0.411471259315979 
1306	 0.411516242470454 
1307	 0.411561270568826 
1308	 0.41158860962479 
1309	 0.411622146316146 
1310	 0.411645487297015 
1311	 0.411680048495645 
1312	 0.411740193831643 
1313	 0.411754083231671 
1314	 0.411750645897578 
1315	 0.411744441610716 
1316	 0.411697429697165 
1317	 0.4116740264608 
1318	 0.411664110907635 
1319	 0.41165337056505 
1320	 0.411656326409633 
1321	 0.411636642649447 
1322	 0.411609588333721 
1323	 0.41158046371967 
1324	 0.411522630011437 
1325	 0.411460891671622 
1326	 0.411423009747671 
1327	 0.411374268624699 
1328	 0.411317969446848 
1329	 0.411287620951147 
1330	 0.411236651578593 
1331	 0.411178334764229 
1332	 0.411106359855021 
1333	 0.411023791528506 
1334	 0.410940007726024 
1335	 0.41083514850268 
1336	 0.410754047996519 
1337	 0.410692606373352 
1338	 0.410615108608688 
1339	 0.41053608325112 
1340	 0.410452986740904 
1341	 0.41036091786411 
1342	 0.410271717865488 
1343	 0.410176429726377 
1344	 0.410096829339273 
1345	 0.41002781746827 
1346	 0.409939098518413 
1347	 0.409849201418619 
1348	 0.409769116407545 
1349	 0.409650492131013 
1350	 0.409526297613573 
1351	 0.409410657215403 
1352	 0.409292081543136 
1353	 0.409167616134954 
1354	 0.409051974131391 
1355	 0.408914892440751 
1356	 0.408751114540821 
1357	 0.408610060772738 
1358	 0.408458898746399 
1359	 0.408336789923568 
1360	 0.408244587752304 
1361	 0.408136659238231 
1362	 0.408059119580269 
1363	 0.407937801355331 
1364	 0.407782511889226 
1365	 0.407638144611351 
1366	 0.407474005060994 
1367	 0.407314861282715 
1368	 0.407186089272312 
1369	 0.407024681080675 
1370	 0.406825347482689 
1371	 0.406600831749485 
1372	 0.406349062998013 
1373	 0.406079937905868 
1374	 0.405781574404866 
1375	 0.405487140833297 
1376	 0.405109726242319 
1377	 0.404694068569255 
1378	 0.404204842547515 
1379	 0.403635216902246 
1380	 0.403063559643357 
1381	 0.402451114628294 
1382	 0.401789394739654 
1383	 0.401131418327717 
1384	 0.400370501368618 
1385	 0.399555413157987 
1386	 0.398654399113208 
1387	 0.397668265688975 
1388	 0.396631289399065 
1389	 0.395526412909029 
1390	 0.394346161527785 
1391	 0.393138371574639 
1392	 0.391851120825693 
1393	 0.390463906606296 
1394	 0.389018597267059 
1395	 0.387464918385744 
1396	 0.385883898490066 
1397	 0.384313064459184 
1398	 0.382700321526285 
1399	 0.381107465037169 
1400	 0.379526769944492 
1401	 0.377930223077669 
1402	 0.376313272578162 
1403	 0.374728203910606 
1404	 0.373124480163355 
1405	 0.371585489135469 
1406	 0.370086670402418 
1407	 0.368597222892586 
1408	 0.367118026165748 
1409	 0.365704869071286 
1410	 0.364263153648394 
1411	 0.362976605649834 
1412	 0.361764499002251 
1413	 0.360676681284534 
1414	 0.359757045384245 
1415	 0.358910210342917 
1416	 0.358184540658632 
1417	 0.357547596253068 
1418	 0.356925366096974 
1419	 0.356363682254704 
1420	 0.355833864976793 
1421	 0.355314506904959 
1422	 0.354818564152325 
1423	 0.354304344231254 
1424	 0.353735060852106 
1425	 0.353106595816966 
1426	 0.352525006196443 
1427	 0.351889962807303 
1428	 0.35134739352882 
1429	 0.350869064942333 
1430	 0.350396646964446 
1431	 0.349970733493427 
1432	 0.349527098422192 
1433	 0.34908261933092 
1434	 0.348665278130599 
1435	 0.34824519231745 
1436	 0.347862854377269 
1437	 0.347511722859672 
1438	 0.347179472338017 
1439	 0.346883222382933 
1440	 0.346587312132179 
1441	 0.34627873850809 
1442	 0.345973348598703 
1443	 0.345654554523448 
1444	 0.345350664283084 
1445	 0.345069027241898 
1446	 0.344795720286366 
1447	 0.344524647141502 
1448	 0.344235933345449 
1449	 0.343910299332943 
1450	 0.343565608781944 
1451	 0.343216238203307 
1452	 0.342833138468661 
1453	 0.342462524817731 
1454	 0.342107907757867 
1455	 0.341724677682752 
1456	 0.341330732370841 
1457	 0.340916079913605 
1458	 0.340459100500075 
1459	 0.340033561052092 
1460	 0.339589957230734 
1461	 0.339186756029734 
1462	 0.338810129293847 
1463	 0.338453848431327 
1464	 0.338106561505371 
1465	 0.337798501386252 
1466	 0.337507239989968 
1467	 0.337267849303712 
1468	 0.337028251240324 
1469	 0.33690011626543 
1470	 0.336845498783448 
1471	 0.336849167159737 
1472	 0.336961477710777 
1473	 0.337149456670334 
1474	 0.337367342482356 
1475	 0.337642409507995 
1476	 0.337961919672003 
1477	 0.338339408380763 
1478	 0.338787092744747 
1479	 0.339275533034775 
1480	 0.339813483425019 
1481	 0.340377452619062 
1482	 0.340945361404764 
1483	 0.341550437105345 
1484	 0.342127753178523 
1485	 0.342707822258352 
1486	 0.343275157307352 
1487	 0.34382840016178 
1488	 0.344378113678999 
1489	 0.3449389761514 
1490	 0.345460033996755 
1491	 0.345971940365216 
1492	 0.346448132897183 
1493	 0.346880458539715 
1494	 0.347310827065899 
1495	 0.347716057845582 
1496	 0.348114419680693 
1497	 0.348506432556283 
1498	 0.34888174918374 
1499	 0.349249211222995 
1500	 0.349593512879152 
1501	 0.349903413427201 
1502	 0.350224829737361 
1503	 0.350545411828543 
1504	 0.350840766898104 
1505	 0.351133220117008 
1506	 0.351422816336521 
1507	 0.351697306388202 
1508	 0.351964005985172 
1509	 0.352234541892482 
1510	 0.352493734182731 
1511	 0.352730644963061 
1512	 0.352967202818154 
1513	 0.353209454114778 
1514	 0.353464990232352 
1515	 0.353716215422328 
1516	 0.353970379419956 
1517	 0.354221842627085 
1518	 0.354470710078412 
1519	 0.35471805879429 
1520	 0.354966078501093 
1521	 0.355208527685519 
1522	 0.355444841689672 
1523	 0.355681401770867 
1524	 0.355914996148223 
1525	 0.356153898811978 
1526	 0.356403519890522 
1527	 0.356632689400601 
1528	 0.356858840983434 
1529	 0.3570716259624 
1530	 0.357259771190043 
1531	 0.35745957578117 
1532	 0.357663307148409 
1533	 0.357853350236507 
1534	 0.358038091887944 
1535	 0.358222691794825 
1536	 0.358389492142 
1537	 0.358571579963938 
1538	 0.358756868810101 
1539	 0.358950850479141 
1540	 0.359170286824895 
1541	 0.359367659043085 
1542	 0.359551396720392 
1543	 0.359745349695416 
1544	 0.359945117273343 
1545	 0.360121698771841 
1546	 0.360290685831074 
1547	 0.360468514411729 
1548	 0.36061997007173 
1549	 0.360749784904566 
1550	 0.360903139436519 
1551	 0.361073761514828 
1552	 0.361232767401949 
1553	 0.36140470878047 
1554	 0.361588290999498 
1555	 0.361749287946283 
1556	 0.361907385284056 
1557	 0.362071516004009 
1558	 0.362239873188496 
1559	 0.362404308683952 
1560	 0.362567902389777 
1561	 0.362744224277679 
1562	 0.362896469586959 
1563	 0.363030907427858 
1564	 0.363179023758221 
1565	 0.363328902807063 
1566	 0.363461634432995 
1567	 0.363593196851322 
1568	 0.363716381970944 
1569	 0.36381463448552 
1570	 0.363933083056232 
1571	 0.364068999282311 
1572	 0.364177746326066 
1573	 0.364274714370932 
1574	 0.364381878012154 
1575	 0.364483795842087 
1576	 0.36457700800381 
1577	 0.364673207650192 
1578	 0.364767079893785 
1579	 0.364826674503796 
1580	 0.364931395075453 
1581	 0.365078570453276 
1582	 0.365195308825414 
1583	 0.365330882999411 
1584	 0.365434547899599 
1585	 0.365501280811224 
1586	 0.365581168764062 
1587	 0.365660585186424 
1588	 0.365731672275152 
1589	 0.365799290360342 
1590	 0.365860567788373 
1591	 0.365908602841787 
1592	 0.365956896144441 
1593	 0.366000690627727 
1594	 0.366048001901362 
1595	 0.366095625589328 
1596	 0.366139967456419 
1597	 0.366183367493008 
1598	 0.366229138818925 
1599	 0.366286122492192 
1600	 0.366322270209458 
1601	 0.366339064661545 
1602	 0.366371066876079 
1603	 0.366384275549757 
1604	 0.366415033042902 
1605	 0.366465830657799 
1606	 0.36652577301239 
1607	 0.366608210200183 
1608	 0.366676900513603 
1609	 0.366744178555593 
1610	 0.36678851201734 
1611	 0.366783704543483 
1612	 0.366777485754242 
1613	 0.366749271752161 
1614	 0.366725660635024 
1615	 0.366706549001249 
1616	 0.366686144829922 
1617	 0.366703778401846 
1618	 0.366702563567532 
1619	 0.366697984193768 
1620	 0.366717385090921 
1621	 0.366722612229612 
1622	 0.366724914654673 
1623	 0.366709138838782 
1624	 0.366687968816098 
1625	 0.366664892949858 
1626	 0.366620846093017 
1627	 0.36659396931311 
1628	 0.366577381418948 
1629	 0.366555668848397 
1630	 0.366528886813301 
1631	 0.366512731718773 
1632	 0.366505764209769 
1633	 0.366492891008332 
1634	 0.366485245319157 
1635	 0.366463980607618 
1636	 0.366440481191848 
1637	 0.366401166163447 
1638	 0.36634747925055 
1639	 0.366298093669941 
1640	 0.366228091042442 
1641	 0.366192136550279 
1642	 0.366168191952256 
1643	 0.366151051335613 
1644	 0.366160760772648 
1645	 0.36614969902015 
1646	 0.366143063190809 
1647	 0.366112784458004 
1648	 0.366074805259007 
1649	 0.366015781174433 
1650	 0.365920107947981 
1651	 0.365856125457009 
1652	 0.365789791952231 
1653	 0.365729561603671 
1654	 0.365691419291068 
1655	 0.365636099536334 
1656	 0.36558110514956 
1657	 0.365501994366589 
1658	 0.365417512258217 
1659	 0.365309990570824 
1660	 0.365161146451724 
1661	 0.365041193951499 
1662	 0.364910419764008 
1663	 0.364806809478292 
1664	 0.36473320094387 
1665	 0.364639870920052 
1666	 0.364546986184379 
1667	 0.364461383324618 
1668	 0.364374068142973 
1669	 0.364284993676805 
1670	 0.364216723186164 
1671	 0.364116707814248 
1672	 0.363993255970001 
1673	 0.36387423862717 
1674	 0.363731068302594 
1675	 0.363619240341965 
1676	 0.363530103588837 
1677	 0.363420088973724 
1678	 0.363320041196303 
1679	 0.363205423903848 
1680	 0.363057195521177 
1681	 0.3629420839894 
1682	 0.362845108034175 
1683	 0.362739550483202 
1684	 0.362632063357016 
1685	 0.362546825776847 
1686	 0.362492866630474 
1687	 0.362386441241725 
1688	 0.362273471104625 
1689	 0.362152593562541 
1690	 0.361976977344333 
1691	 0.361840640756193 
1692	 0.361730273658322 
1693	 0.361617757620366 
1694	 0.361507805156047 
1695	 0.361396882148188 
1696	 0.361300355514707 
1697	 0.361188183617411 
1698	 0.361068432128896 
1699	 0.360944523211055 
1700	 0.360813634167144 
1701	 0.360680763418072 
1702	 0.360544833611018 
1703	 0.360401845167752 
1704	 0.36026757745725 
1705	 0.360098485780812 
1706	 0.359896012038504 
1707	 0.359712743938327 
1708	 0.359510524744162 
1709	 0.359327269578832 
1710	 0.35916609566321 
1711	 0.358995617653453 
1712	 0.358836434184111 
1713	 0.35864384712979 
1714	 0.358439102012255 
1715	 0.358227370626016 
1716	 0.357975789207941 
1717	 0.357761212986176 
1718	 0.357567817176022 
1719	 0.357359558640285 
1720	 0.35714614818164 
1721	 0.356950738752927 
1722	 0.356757508399849 
1723	 0.35657193638282 
1724	 0.356428781059414 
1725	 0.356227226542106 
1726	 0.355995265193176 
1727	 0.355763566215217 
1728	 0.355497050186336 
1729	 0.355253474039022 
1730	 0.355032813713305 
1731	 0.354771820437816 
1732	 0.354483670282636 
1733	 0.354228452354225 
1734	 0.353953676130624 
1735	 0.353712336226362 
1736	 0.353523634516185 
1737	 0.353285762351652 
1738	 0.353041632240158 
1739	 0.352778173207799 
1740	 0.352480116518777 
1741	 0.352213828885024 
1742	 0.351948463050071 
1743	 0.351690675926562 
1744	 0.351460908403448 
1745	 0.351186587324305 
1746	 0.350895893905881 
1747	 0.350570405547454 
1748	 0.350255651886971 
1749	 0.349957875868945 
1750	 0.349668460605571 
1751	 0.34941917503549 
1752	 0.34916055319928 
1753	 0.348865740486913 
1754	 0.34857207033669 
1755	 0.348278855149454 
1756	 0.34798199268873 
1757	 0.347684673059028 
1758	 0.347392475025498 
1759	 0.347096489817966 
1760	 0.346800929352498 
1761	 0.346545440113561 
1762	 0.346283411851298 
1763	 0.345983183476571 
1764	 0.345674568116292 
1765	 0.345354417723403 
1766	 0.345026918661941 
1767	 0.344707280454537 
1768	 0.344409215039257 
1769	 0.34414003882425 
1770	 0.343879254655742 
1771	 0.343626042888084 
1772	 0.343393863032048 
1773	 0.343151583160332 
1774	 0.342915847589713 
1775	 0.342698395736589 
1776	 0.34247418481421 
1777	 0.342249353248972 
1778	 0.341997098151751 
1779	 0.341738688074685 
1780	 0.341490339245912 
1781	 0.34124184901766 
1782	 0.341023604023482 
1783	 0.340811101358369 
1784	 0.340627016339126 
1785	 0.340475476869663 
1786	 0.340293513883203 
1787	 0.340138787727975 
1788	 0.339955328226912 
1789	 0.339718263655561 
1790	 0.339520296212448 
1791	 0.339341828273874 
1792	 0.33914232069378 
1793	 0.338934326443872 
1794	 0.338756540465859 
1795	 0.338569451209669 
1796	 0.338409365783685 
1797	 0.338302744900114 
1798	 0.338157769402158 
1799	 0.338008059611157 
1800	 0.337857880802609 
1801	 0.336769595811794 
1802	 0.336874018631653 
1803	 0.336968255807459 
1804	 0.337078632744576 
1805	 0.337245043279765 
1806	 0.337422845063071 
1807	 0.33754876433989 
1808	 0.337613807041785 
1809	 0.337669134536278 
1810	 0.337656296417099 
1811	 0.337546269501361 
1812	 0.337454948163529 
1813	 0.337346584443145 
1814	 0.337198053995075 
1815	 0.337040025084872 
1816	 0.336827003288504 
1817	 0.336599697101283 
1818	 0.336339938550409 
1819	 0.336082807951657 
1820	 0.335801777238414 
1821	 0.335513450037419 
1822	 0.335261610607804 
1823	 0.334990134529735 
1824	 0.334710676937827 
1825	 0.334420916344717 
1826	 0.334093641371564 
1827	 0.333701219966588 
1828	 0.33326146583338 
1829	 0.33278074040594 
1830	 0.332247971418377 
1831	 0.331641446671937 
1832	 0.3310443165444 
1833	 0.330397348197901 
1834	 0.329720380260615 
1835	 0.329048549793461 
1836	 0.328330189018722 
1837	 0.327635092803051 
1838	 0.326966577071772 
1839	 0.326316012763282 
1840	 0.32568128791811 
1841	 0.325089435163853 
1842	 0.324488991130633 
1843	 0.323899091602174 
1844	 0.323352195432629 
1845	 0.322839139807482 
1846	 0.322387127323371 
1847	 0.321996105901682 
1848	 0.321700591678813 
1849	 0.321448619018056 
1850	 0.32121781077844 
1851	 0.321038692293547 
1852	 0.320891508779983 
1853	 0.32074027850255 
1854	 0.320601760091006 
1855	 0.320444813126056 
1856	 0.320260572738593 
1857	 0.320025924814963 
1858	 0.319746772039444 
1859	 0.319479118260726 
1860	 0.319183043089469 
1861	 0.31887772364245 
1862	 0.318526444100495 
1863	 0.318162477325885 
1864	 0.317751937165189 
1865	 0.317279084590863 
1866	 0.316790648493623 
1867	 0.316231369415867 
1868	 0.31558676778723 
1869	 0.314873554119364 
1870	 0.314098873264944 
1871	 0.313224971892965 
1872	 0.31227911703676 
1873	 0.311233762303219 
1874	 0.310089315908745 
1875	 0.308813610358314 
1876	 0.307467924425941 
1877	 0.306021375092346 
1878	 0.304405381479531 
1879	 0.302661351297356 
1880	 0.30077134424425 
1881	 0.2986879391248 
1882	 0.29652391784341 
1883	 0.294258323889419 
1884	 0.29182287410034 
1885	 0.289286113499839 
1886	 0.286630947806745 
1887	 0.283823681923908 
1888	 0.280947964362226 
1889	 0.277948210061546 
1890	 0.274882724486482 
1891	 0.27183276021605 
1892	 0.268704382000787 
1893	 0.265605879133566 
1894	 0.262514824099211 
1895	 0.259433799429426 
1896	 0.256288403063536 
1897	 0.253205509638567 
1898	 0.250141709460756 
1899	 0.247123378653802 
1900	 0.24424337207812 
1901	 0.241439362313536 
1902	 0.238765158017893 
1903	 0.236245900110611 
1904	 0.233801197227553 
1905	 0.231437978681445 
1906	 0.229210300134242 
1907	 0.227105560930115 
1908	 0.225084925928443 
1909	 0.223205913619439 
1910	 0.221461320267404 
1911	 0.21983436863118 
1912	 0.218304056180764 
1913	 0.21685681722696 
1914	 0.215519863092029 
1915	 0.214247448048241 
1916	 0.213041006856761 
1917	 0.211935918855542 
1918	 0.21094425536787 
1919	 0.209990436172838 
1920	 0.209113518577194 
1921	 0.208302012767281 
1922	 0.207520724889866 
1923	 0.206809202819461 
1924	 0.20617283076834 
1925	 0.205623887169537 
1926	 0.205110416240984 
1927	 0.204651695446751 
1928	 0.204262197316542 
1929	 0.203908582056473 
1930	 0.203611423517042 
1931	 0.203359432392607 
1932	 0.203138553355645 
1933	 0.20299275391008 
1934	 0.202877478806692 
1935	 0.202803511864067 
1936	 0.202783640992968 
1937	 0.202802517467681 
1938	 0.202853261064467 
1939	 0.202948770302609 
1940	 0.203099331950024 
1941	 0.203283480303542 
1942	 0.203487379645052 
1943	 0.203715901072014 
1944	 0.203949625975484 
1945	 0.204194590840086 
1946	 0.204453347180015 
1947	 0.204708805238151 
1948	 0.205002929884969 
1949	 0.205332339841266 
1950	 0.205658226253454 
1951	 0.205997405073051 
1952	 0.206361307004859 
1953	 0.206720023773847 
1954	 0.207105242052313 
1955	 0.207519996954691 
1956	 0.207956450171913 
1957	 0.208394171005567 
1958	 0.208848988184743 
1959	 0.209303825364889 
1960	 0.209764168581561 
1961	 0.210227305915069 
1962	 0.210703110925197 
1963	 0.21117391559051 
1964	 0.211639499454237 
1965	 0.212116935641772 
1966	 0.212594481799141 
1967	 0.213082653481188 
1968	 0.213588555114037 
1969	 0.214108767298432 
1970	 0.214640160880003 
1971	 0.215199438339804 
1972	 0.215742339253866 
1973	 0.216291744375662 
1974	 0.216839777836415 
1975	 0.217389842049193 
1976	 0.217916670095944 
1977	 0.218476414271667 
1978	 0.219034584759711 
1979	 0.219586428593098 
1980	 0.220162921910224 
1981	 0.220715514301034 
1982	 0.221255488375994 
1983	 0.22180100378557 
1984	 0.222333779799207 
1985	 0.222879456952831 
1986	 0.223434590563031 
1987	 0.223986088204298 
1988	 0.224538356645427 
1989	 0.225100306624883 
1990	 0.225649740054324 
1991	 0.226203639508306 
1992	 0.226745253031548 
1993	 0.22726907137174 
1994	 0.227813149759125 
1995	 0.228353134760174 
1996	 0.228907756888702 
1997	 0.229486758510157 
1998	 0.230057150709164 
1999	 0.230626447208451 
2000	 0.231201812479655 
2001	 0.231789826558002 
2002	 0.232367445772553 
2003	 0.23293784694215 
2004	 0.233476273443622 
2005	 0.234014839527948 
2006	 0.234518463295074 
2007	 0.235055414619991 
2008	 0.235601675255192 
2009	 0.236151072752361 
2010	 0.236724243015925 
2011	 0.237271994902822 
2012	 0.237819586723549 
2013	 0.238348399810451 
2014	 0.238853684337647 
2015	 0.239356104813397 
2016	 0.239855280577239 
2017	 0.24036060475615 
2018	 0.240879339231335 
2019	 0.241421770098093 
2020	 0.241937774636241 
2021	 0.24245735494812 
2022	 0.242963826606419 
2023	 0.243442483413493 
2024	 0.243941145978441 
2025	 0.244457392105296 
2026	 0.244949186222007 
2027	 0.245437631792013 
2028	 0.24592221598679 
2029	 0.246385987329736 
2030	 0.246820892156672 
2031	 0.247272104704094 
2032	 0.247722548491636 
2033	 0.248162993083916 
2034	 0.248617334449418 
2035	 0.249031424080592 
2036	 0.249429126636959 
2037	 0.249807016076871 
2038	 0.250130738585195 
2039	 0.250483416000138 
2040	 0.250846975725508 
2041	 0.251183083886336 
2042	 0.251544180670549 
2043	 0.251909407606747 
2044	 0.252261343642079 
2045	 0.252591333437027 
2046	 0.252956369674352 
2047	 0.253342841102564 
2048	 0.253707325027842 
2049	 0.254097543895225 
2050	 0.254450291698648 
2051	 0.254767735199765 
2052	 0.255085720019993 
2053	 0.255388088839991 
2054	 0.25569005223996 
2055	 0.255980269666779 
2056	 0.256272482286933 
2057	 0.256568399093664 
2058	 0.256866365641499 
2059	 0.257167520712953 
2060	 0.25748445920595 
2061	 0.257771341220573 
2062	 0.258035890896078 
2063	 0.258317158670618 
2064	 0.258589193716017 
2065	 0.258864016221664 
2066	 0.259174548954973 
2067	 0.259446816437115 
2068	 0.259689738723093 
2069	 0.259929076367072 
2070	 0.260167632919441 
2071	 0.260378082392562 
2072	 0.260629150498194 
2073	 0.260904777228427 
2074	 0.261159812936782 
2075	 0.261445472690742 
2076	 0.261678567515924 
2077	 0.261861288753746 
2078	 0.262072852919412 
2079	 0.262261640357212 
2080	 0.26247299621048 
2081	 0.262723207919897 
2082	 0.262948787400473 
2083	 0.263175589299156 
2084	 0.26338521382685 
2085	 0.263588617421514 
2086	 0.263774773521291 
2087	 0.26396872463816 
2088	 0.264154192542857 
2089	 0.264349398721465 
2090	 0.264559251030658 
2091	 0.264742558741898 
2092	 0.26491922344464 
2093	 0.265091698394018 
2094	 0.265231747881165 
2095	 0.265396676739302 
2096	 0.265581692399345 
2097	 0.265755340253382 
2098	 0.265927909787052 
2099	 0.266104230006788 
2100	 0.26628274117541 
2101	 0.266458044751631 
2102	 0.266629082691522 
2103	 0.266803330557603 
2104	 0.266980337832443 
2105	 0.267140833503786 
2106	 0.26732720423561 
2107	 0.267542235365354 
2108	 0.267737073013114 
2109	 0.267929724446383 
2110	 0.268126860756093 
2111	 0.268302428699856 
2112	 0.268506458553797 
2113	 0.268734317813506 
2114	 0.268965422493293 
2115	 0.269190931974542 
2116	 0.269441891471238 
2117	 0.26964217621395 
2118	 0.269806680579706 
2119	 0.269998815417737 
2120	 0.27018424826103 
2121	 0.270363637545426 
2122	 0.270561891035037 
2123	 0.27073459096788 
2124	 0.270885630931351 
2125	 0.27102568440331 
2126	 0.271159856692264 
2127	 0.271281968475523 
2128	 0.271383899408071 
2129	 0.271479926538742 
2130	 0.271586828726744 
2131	 0.271651822907252 
2132	 0.271707398323419 
2133	 0.271742081794929 
2134	 0.271773782023847 
2135	 0.27178598672116 
2136	 0.271797103743924 
2137	 0.271809905251785 
2138	 0.271799477134431 
2139	 0.271791288526664 
2140	 0.271738212692803 
2141	 0.271637876285589 
2142	 0.271551280319729 
2143	 0.271444176018241 
2144	 0.271326523882033 
2145	 0.271223437139386 
2146	 0.27109247080079 
2147	 0.27093834421453 
2148	 0.27075284466841 
2149	 0.270577188486391 
2150	 0.270393000142867 
2151	 0.270201174318433 
2152	 0.270007874176512 
2153	 0.269796211243624 
2154	 0.269571634846236 
2155	 0.269335198921278 
2156	 0.269100872071654 
2157	 0.268825699114567 
2158	 0.26852092180224 
2159	 0.268207032737102 
2160	 0.267851744850662 
2161	 0.267505702622287 
2162	 0.267150528879441 
2163	 0.266802719303242 
2164	 0.266455931877063 
2165	 0.26610619647565 
2166	 0.265756872272447 
2167	 0.265411965670249 
2168	 0.265063747211596 
2169	 0.264701866628088 
2170	 0.264367419906443 
2171	 0.264069244028129 
2172	 0.26372007372444 
2173	 0.26336576757246 
2174	 0.262991636663569 
2175	 0.262564679507425 
2176	 0.262166216661113 
2177	 0.261800257257577 
2178	 0.261390501726674 
2179	 0.260971158572703 
2180	 0.26052767597701 
2181	 0.260028625598947 
2182	 0.259547967912244 
2183	 0.259058614614165 
2184	 0.25856991667549 
2185	 0.258103866455309 
2186	 0.257653039006075 
2187	 0.257202986982856 
2188	 0.25677279938216 
2189	 0.256323328275675 
2190	 0.255859333616989 
2191	 0.255414043958021 
2192	 0.254952672348817 
2193	 0.254536802905512 
2194	 0.254161602378716 
2195	 0.253772923573576 
2196	 0.25341601367492 
2197	 0.253033064195332 
2198	 0.252607700213197 
2199	 0.252228067346199 
2200	 0.251831132443851 
2201	 0.251498345098109 
2202	 0.251233881273331 
2203	 0.250974969714643 
2204	 0.250729445470325 
2205	 0.250512665455245 
2206	 0.250322688552988 
2207	 0.250134064438507 
2208	 0.249998870834066 
2209	 0.249930710771384 
2210	 0.249842222385776 
2211	 0.249764254561598 
2212	 0.24970734816987 
2213	 0.249662151913772 
2214	 0.24963349283686 
2215	 0.249648319672956 
2216	 0.249637275884549 
2217	 0.249654311360009 
2218	 0.249614081726938 
2219	 0.249526109630421 
2220	 0.249448871398027 
2221	 0.249360049471703 
2222	 0.249236248203057 
2223	 0.249116331391141 
2224	 0.249007015922834 
2225	 0.248851232541622 
2226	 0.248655514357429 
2227	 0.248464169371606 
2228	 0.248263370666421 
2229	 0.248030683357018 
2230	 0.247776592282362 
2231	 0.247512440566001 
2232	 0.247233503883232 
2233	 0.246920926355302 
2234	 0.24659937659469 
2235	 0.24623594888066 
2236	 0.245818191824638 
2237	 0.245397920640427 
2238	 0.244944824138377 
2239	 0.24449482294971 
2240	 0.244056767001537 
2241	 0.243574476290523 
2242	 0.243095815824659 
2243	 0.242551697082341 
2244	 0.241951909689247 
2245	 0.24130386767108 
2246	 0.240637861892902 
2247	 0.239968246685676 
2248	 0.239281553262965 
2249	 0.238594385894431 
2250	 0.237862930602521 
2251	 0.237077733943897 
2252	 0.236339539242904 
2253	 0.235575938137418 
2254	 0.234861612187407 
2255	 0.234154422836346 
2256	 0.233529950714941 
2257	 0.232943534022373 
2258	 0.232417685076195 
2259	 0.231968199759041 
2260	 0.231549927228472 
2261	 0.23114955774306 
2262	 0.230839223237297 
2263	 0.230611980132258 
2264	 0.230429451659917 
2265	 0.230290508569588 
2266	 0.230243082338505 
2267	 0.230273981207668 
2268	 0.230353304742608 
2269	 0.230539302414314 
2270	 0.230762861972981 
2271	 0.230944665899199 
2272	 0.23117464598156 
2273	 0.231454566910524 
2274	 0.231733743889574 
2275	 0.232079567243877 
2276	 0.232508466709896 
2277	 0.232921119062393 
2278	 0.233357701682086 
2279	 0.233808439664358 
2280	 0.234286928327651 
2281	 0.234764784468023 
2282	 0.235252342045465 
2283	 0.235753817843939 
2284	 0.236292113259442 
2285	 0.236774990813433 
2286	 0.237268656161586 
2287	 0.237705052739715 
2288	 0.238083628792545 
2289	 0.238459321282425 
2290	 0.238818098034862 
2291	 0.239145420478279 
2292	 0.239442900906903 
2293	 0.239718296588542 
2294	 0.239969387644551 
2295	 0.24018034102896 
2296	 0.240339659888985 
2297	 0.240507190180497 
2298	 0.240657687639258 
2299	 0.24081944370973 
2300	 0.24106248640819 
2301	 0.241302193341114 
2302	 0.241480636935046 
2303	 0.241660412591424 
2304	 0.241797030549491 
2305	 0.241916868116948 
2306	 0.242030752301683 
2307	 0.242136672478118 
2308	 0.242259926210203 
2309	 0.242365990151832 
2310	 0.242488467233771 
2311	 0.242668542757719 
2312	 0.242768045956139 
2313	 0.242822087646926 
2314	 0.242878427422173 
2315	 0.242902999926502 
2316	 0.242921641674007 
2317	 0.242908181347509 
2318	 0.242955188196022 
2319	 0.243059407938605 
2320	 0.24307182194574 
2321	 0.243097904906155 
2322	 0.24305550808008 
2323	 0.24287433853066 
2324	 0.242766093542299 
2325	 0.242696858008564 
2326	 0.242587868356448 
2327	 0.242469035450819 
2328	 0.242328496337129 
2329	 0.242203849799202 
2330	 0.242114850743543 
2331	 0.242064903857452 
2332	 0.242026452795609 
2333	 0.241889746023117 
2334	 0.241722122820892 
2335	 0.241588535859892 
2336	 0.241415932070491 
2337	 0.241238039248886 
2338	 0.241080743579966 
2339	 0.240888324178433 
2340	 0.240639586142199 
2341	 0.24039783091353 
2342	 0.240119987347253 
2343	 0.239806157218543 
2344	 0.239497076315529 
2345	 0.239191060303636 
2346	 0.238919393508354 
2347	 0.238580832979213 
2348	 0.238200231440735 
2349	 0.237829317888018 
2350	 0.237436334226094 
2351	 0.237009937632798 
2352	 0.236544754277339 
2353	 0.236144992212993 
2354	 0.235745307950295 
2355	 0.235329028190786 
2356	 0.234974832061992 
2357	 0.234569453795845 
2358	 0.234094100963368 
2359	 0.233645980991334 
2360	 0.233211010619187 
2361	 0.232776374906952 
2362	 0.232339512011684 
2363	 0.231894939441794 
2364	 0.231455733650068 
2365	 0.231007403711888 
2366	 0.23055626197359 
2367	 0.230086238168469 
2368	 0.229611308871035 
2369	 0.229101584579102 
2370	 0.228574006541176 
2371	 0.22799889141406 
2372	 0.227380273542346 
2373	 0.226847109526531 
2374	 0.226320948417362 
2375	 0.225731429961766 
2376	 0.225176957256487 
2377	 0.224612310416056 
2378	 0.223972519842451 
2379	 0.22335235334196 
2380	 0.222729971763309 
2381	 0.222102030405204 
2382	 0.22140231113959 
2383	 0.22070919532847 
2384	 0.220109368824833 
2385	 0.219422822794586 
2386	 0.218820378973943 
2387	 0.218255537011108 
2388	 0.217482463685624 
2389	 0.216801070444292 
2390	 0.216196113444781 
2391	 0.215494643307965 
2392	 0.214938493938129 
2393	 0.214342185562418 
2394	 0.213651900679952 
2395	 0.213093359266909 
2396	 0.212460950101263 
2397	 0.211781601169937 
2398	 0.211145778139995 
2399	 0.210474749331909 
2400	 0.209862689102257 
2401	 0.209288257540257 
2402	 0.208712693315309 
2403	 0.208166988603161 
2404	 0.207534659508385 
2405	 0.206893636467601 
2406	 0.206302110060618 
2407	 0.205617298119224 
2408	 0.204978270909305 
2409	 0.204344091344961 
2410	 0.203677441515511 
2411	 0.203138797548172 
2412	 0.202599803859897 
2413	 0.202099253727323 
2414	 0.201543462806182 
2415	 0.200948166716938 
2416	 0.200444673836037 
2417	 0.199956115703735 
2418	 0.199465253331989 
2419	 0.199098059697235 
2420	 0.198595566960134 
2421	 0.198039172062416 
2422	 0.197498778762717 
2423	 0.196885196902447 
2424	 0.196326588394203 
2425	 0.195709191593923 
2426	 0.195192515525079 
2427	 0.194853330403391 
2428	 0.194366731174979 
2429	 0.193905106495001 
2430	 0.193345183984274 
2431	 0.192562044638925 
2432	 0.191947852093869 
2433	 0.191388692109383 
2434	 0.190825296673516 
2435	 0.190321629750191 
2436	 0.18981158797951 
2437	 0.18931129423316 
2438	 0.188803699791551 
2439	 0.188287734434775 
2440	 0.187871100736336 
2441	 0.187549234087587 
2442	 0.187042587194755 
2443	 0.186507896094427 
2444	 0.18596213466927 
2445	 0.185248141442116 
2446	 0.184669583835487 
2447	 0.184225938623315 
2448	 0.183775341503762 
2449	 0.183275398154249 
2450	 0.18280085500964 
2451	 0.182398994335704 
2452	 0.181916221046641 
2453	 0.181430921669282 
2454	 0.180929448285674 
2455	 0.180430618540229 
2456	 0.179875329021865 
2457	 0.179152942325579 
2458	 0.178654106114938 
2459	 0.178228864671229 
2460	 0.177880030892551 
2461	 0.177831408172737 
2462	 0.177512110747639 
2463	 0.177041956365851 
2464	 0.176638125961455 
2465	 0.176073646622059 
2466	 0.175622424761186 
2467	 0.175269648240649 
2468	 0.174886014909908 
2469	 0.174539420874045 
2470	 0.174298186027329 
2471	 0.174151653476145 
2472	 0.173903219399776 
2473	 0.173471423440915 
2474	 0.173062218052014 
2475	 0.172561453927553 
2476	 0.172146241759512 
2477	 0.171845674497885 
2478	 0.171492265830697 
2479	 0.171187081267196 
2480	 0.170872266703887 
2481	 0.170462569429593 
2482	 0.170151040767191 
2483	 0.169873073605394 
2484	 0.169361790459496 
2485	 0.168926173263376 
2486	 0.168640399923838 
2487	 0.168172736749927 
2488	 0.167756971017492 
2489	 0.167334345441386 
2490	 0.166658586569859 
2491	 0.166192394113123 
2492	 0.165848888430557 
2493	 0.165554103259164 
2494	 0.165426957118759 
2495	 0.165038071544904 
2496	 0.164388609808813 
2497	 0.16379149761592 
2498	 0.163323956521605 
2499	 0.162920605290361 
2500	 0.162608747873576 
