Wavelength	mm2000004.asd
350	 4.76913782766085E-02 
351	 5.45877576121431E-02 
352	 5.11749384630133E-02 
353	 3.65841769845213E-02 
354	 5.18470800789234E-02 
355	 0.051482362670994 
356	 4.55114066239811E-02 
357	 5.11508929869607E-02 
358	 5.59794394161432E-02 
359	 0.054407599184285 
360	 4.87189993161683E-02 
361	 0.046037967958 
362	 4.84960493827206E-02 
363	 0.052205430290915 
364	 5.34564942045064E-02 
365	 4.98354438131227E-02 
366	 4.73499800790067E-02 
367	 4.68189437484084E-02 
368	 4.76678718811579E-02 
369	 0.05121953765922 
370	 5.30599393957275E-02 
371	 5.13593701188666E-02 
372	 4.70390174082488E-02 
373	 4.83545586535361E-02 
374	 5.18596481398181E-02 
375	 5.47028898881639E-02 
376	 5.82947806510091E-02 
377	 5.53114126144498E-02 
378	 5.19116190982457E-02 
379	 5.51340989964284E-02 
380	 5.76182151096999E-02 
381	 0.05651654706071 
382	 5.50468507747355E-02 
383	 5.97150339215424E-02 
384	 0.0601796153658 
385	 5.84263356597012E-02 
386	 5.75490892125825E-02 
387	 5.91370919473915E-02 
388	 6.18518889332652E-02 
389	 6.34797770544756E-02 
390	 0.062573828986386 
391	 6.22814083877422E-02 
392	 6.31748829148783E-02 
393	 6.55297199020886E-02 
394	 6.92590228016236E-02 
395	 7.15572219082269E-02 
396	 7.16548151234326E-02 
397	 0.070740900003886 
398	 7.32825254201717E-02 
399	 7.62754674348004E-02 
400	 7.88857463305974E-02 
401	 8.10293592154832E-02 
402	 0.082158165869252 
403	 8.35766407848046E-02 
404	 8.50606442916224E-02 
405	 8.49208715690163E-02 
406	 8.69833804151137E-02 
407	 9.02847964351003E-02 
408	 9.28883651794858E-02 
409	 9.28093335310985E-02 
410	 0.092789145708886 
411	 9.37777327558896E-02 
412	 9.55796748257794E-02 
413	 9.69349023444046E-02 
414	 9.73355271941436E-02 
415	 0.097211902531515 
416	 9.80228221753192E-02 
417	 9.85643718787215E-02 
418	 9.88072765337018E-02 
419	 9.89502601617614E-02 
420	 9.89788009550658E-02 
421	 9.85814982280968E-02 
422	 9.79772552066389E-02 
423	 9.76553022510559E-02 
424	 9.70761423798335E-02 
425	 9.61626001161597E-02 
426	 9.51309906552199E-02 
427	 9.46448245777085E-02 
428	 9.38205568900641E-02 
429	 9.28819725649104E-02 
430	 0.092167960244756 
431	 9.06294382683302E-02 
432	 8.94172937294523E-02 
433	 8.88938493066782E-02 
434	 8.85727795227916E-02 
435	 8.83027027400456E-02 
436	 8.82846931906094E-02 
437	 8.85695897279369E-02 
438	 8.84482419503365E-02 
439	 8.97330830364472E-02 
440	 9.15810976841042E-02 
441	 9.21711670172795E-02 
442	 9.36204153300169E-02 
443	 9.51384542482141E-02 
444	 9.64063606511219E-02 
445	 9.82581932355114E-02 
446	 9.97005312603145E-02 
447	 0.101180459799295 
448	 0.103176278646755 
449	 0.104463256507344 
450	 0.105848517104511 
451	 0.107582390263617 
452	 0.109376057139872 
453	 0.110877222064074 
454	 0.112179300433923 
455	 0.113475631539978 
456	 0.115003845477354 
457	 0.116285266676126 
458	 0.117344765347587 
459	 0.118426319681237 
460	 0.119509249019823 
461	 0.120475869317054 
462	 0.121305341555736 
463	 0.122112413621713 
464	 0.123217663664881 
465	 0.124236490726362 
466	 0.124832318879882 
467	 0.125713291753733 
468	 0.126451079808649 
469	 0.126962645887632 
470	 0.127474879063932 
471	 0.128209996030704 
472	 0.128892341369833 
473	 0.129340023197786 
474	 0.129767571412168 
475	 0.130342662859226 
476	 0.130983999069474 
477	 0.131523913815727 
478	 0.132133608921319 
479	 0.13272923769452 
480	 0.133251285899926 
481	 0.133701149978264 
482	 0.134227668578798 
483	 0.13493269363539 
484	 0.135741429464869 
485	 0.135971344101832 
486	 0.136232298128143 
487	 0.136711913824624 
488	 0.137217954748515 
489	 0.137799510297439 
490	 0.138320796896048 
491	 0.138733651596242 
492	 0.1392671162582 
493	 0.139807864287267 
494	 0.140237853554163 
495	 0.140509414446185 
496	 0.141140746621811 
497	 0.141735457028806 
498	 0.142116124468426 
499	 0.142554950886639 
500	 0.14307851866523 
501	 0.143566951489653 
502	 0.143917347963697 
503	 0.144336882228858 
504	 0.144694381926206 
505	 0.145047348550296 
506	 0.145617879542909 
507	 0.146180775158273 
508	 0.146759850062327 
509	 0.147316150883083 
510	 0.147477227724337 
511	 0.14770576069224 
512	 0.148168660652272 
513	 0.148803988007774 
514	 0.14907600668955 
515	 0.149380866761574 
516	 0.149928145749905 
517	 0.150448552637112 
518	 0.150803071582435 
519	 0.151047899347161 
520	 0.151331983795679 
521	 0.151837116637256 
522	 0.152345068594871 
523	 0.152745158824552 
524	 0.153067210582833 
525	 0.153494211329381 
526	 0.153940859296906 
527	 0.154305289517861 
528	 0.154641419278341 
529	 0.154966006363887 
530	 0.155314643310246 
531	 0.155725601396111 
532	 0.156125335113343 
533	 0.156536069108314 
534	 0.156962955544852 
535	 0.157338616391307 
536	 0.157760436440572 
537	 0.158197067432091 
538	 0.158576472678608 
539	 0.158920164161732 
540	 0.159288128179843 
541	 0.159705902403191 
542	 0.160149798240849 
543	 0.160612820852652 
544	 0.161041049549125 
545	 0.161409160947201 
546	 0.161858200321296 
547	 0.162240125066587 
548	 0.162594960116689 
549	 0.163113076463967 
550	 0.163582699822654 
551	 0.164046115052639 
552	 0.164552784575078 
553	 0.16505689099379 
554	 0.165464377156957 
555	 0.16589308063703 
556	 0.166532636113855 
557	 0.167098634652267 
558	 0.167692657624034 
559	 0.168369390181438 
560	 0.169034452266886 
561	 0.169578926255504 
562	 0.170131897932467 
563	 0.170851743721329 
564	 0.171550159682925 
565	 0.172170592295879 
566	 0.172727650268658 
567	 0.17330511130859 
568	 0.173894880342816 
569	 0.17462577149864 
570	 0.175560819270434 
571	 0.176475457078742 
572	 0.177336994282586 
573	 0.178131087226378 
574	 0.178867014632065 
575	 0.179608776786118 
576	 0.180531691263915 
577	 0.181652758215985 
578	 0.182623998855735 
579	 0.183560256997656 
580	 0.184430210338808 
581	 0.185172985769432 
582	 0.185873954125077 
583	 0.186640175597441 
584	 0.187507633134109 
585	 0.188412891428817 
586	 0.189550492097477 
587	 0.190775241727673 
588	 0.191906099749609 
589	 0.193096321718024 
590	 0.194260565636346 
591	 0.195357479923962 
592	 0.196398367840945 
593	 0.197420197451767 
594	 0.198315980577367 
595	 0.199043055373213 
596	 0.199787060724655 
597	 0.200566914099982 
598	 0.201418999443671 
599	 0.202363522555044 
600	 0.203213281683651 
601	 0.204088063394415 
602	 0.205034192443488 
603	 0.205906329925537 
604	 0.206754154499817 
605	 0.207610120996818 
606	 0.208495333724133 
607	 0.209390548146576 
608	 0.21021244441063 
609	 0.210956992726055 
610	 0.211713237666131 
611	 0.212369151328011 
612	 0.212921692199492 
613	 0.213402722125366 
614	 0.213858904256685 
615	 0.214336872130828 
616	 0.214815200148409 
617	 0.215231666249267 
618	 0.215705306015359 
619	 0.216119649438018 
620	 0.216424892151709 
621	 0.21678555314356 
622	 0.217128743797262 
623	 0.217458911218328 
624	 0.217792209297935 
625	 0.218020564852 
626	 0.218296355450411 
627	 0.218651097474855 
628	 0.218932056566909 
629	 0.219193617419532 
630	 0.219436140429883 
631	 0.219655053411603 
632	 0.219859968005107 
633	 0.220121565752426 
634	 0.220408842982137 
635	 0.220615410122033 
636	 0.220835406711362 
637	 0.221085563984244 
638	 0.221342428793348 
639	 0.221514241668946 
640	 0.22169024322001 
641	 0.221941154410816 
642	 0.222290261272315 
643	 0.222484603835887 
644	 0.222691620660484 
645	 0.222975627108594 
646	 0.223192491660692 
647	 0.223379684974535 
648	 0.223597026321771 
649	 0.223889587276457 
650	 0.224210082392145 
651	 0.224489519402128 
652	 0.224737812719027 
653	 0.22503233884839 
654	 0.225360308349621 
655	 0.225682149395705 
656	 0.225985094009046 
657	 0.226336174485431 
658	 0.226700557454236 
659	 0.227047282977687 
660	 0.227357234474861 
661	 0.227689724849609 
662	 0.228059986743727 
663	 0.228461024485352 
664	 0.228861699460522 
665	 0.229265031346215 
666	 0.229654620123214 
667	 0.230034761774227 
668	 0.230514151145624 
669	 0.230973855491006 
670	 0.231412915718801 
671	 0.231921634572911 
672	 0.232331136750445 
673	 0.232784103677532 
674	 0.233346353090111 
675	 0.233764903292354 
676	 0.234246664093032 
677	 0.234805131547691 
678	 0.235372276200978 
679	 0.235948264566767 
680	 0.236472501935643 
681	 0.236954906331781 
682	 0.237499075754363 
683	 0.238122135027061 
684	 0.238747298053358 
685	 0.239316862446764 
686	 0.239943929390264 
687	 0.240597527914713 
688	 0.241236118738392 
689	 0.241822211319184 
690	 0.242457663416837 
691	 0.24310363213605 
692	 0.243736677592039 
693	 0.244409866667397 
694	 0.24508079465135 
695	 0.245764997795931 
696	 0.24647769145913 
697	 0.247110442260058 
698	 0.247760460741659 
699	 0.248448587351343 
700	 0.24910560151863 
701	 0.249852540455043 
702	 0.250585270474925 
703	 0.251224413690685 
704	 0.251895155690043 
705	 0.252550639805217 
706	 0.253220354804724 
707	 0.253953085320794 
708	 0.254631450311851 
709	 0.255321225905927 
710	 0.256044755722083 
711	 0.256737332538774 
712	 0.257383593624836 
713	 0.257978814361261 
714	 0.258550177635815 
715	 0.259218250377681 
716	 0.259863105534142 
717	 0.260442779869794 
718	 0.260985937590135 
719	 0.261591928033476 
720	 0.262132239592126 
721	 0.262567500474859 
722	 0.263096825473455 
723	 0.263627699674402 
724	 0.264072877639612 
725	 0.264398774399469 
726	 0.264830348920395 
727	 0.265256917517131 
728	 0.265625859723893 
729	 0.265952574466337 
730	 0.266175442802172 
731	 0.266382342854637 
732	 0.266635609173769 
733	 0.266880077780356 
734	 0.26708117311745 
735	 0.267182819589525 
736	 0.267163594059373 
737	 0.267232174161994 
738	 0.267282384451662 
739	 0.267253846456722 
740	 0.267164758160148 
741	 0.267060062944241 
742	 0.266953400325315 
743	 0.266832314633307 
744	 0.266644227249596 
745	 0.266370867966779 
746	 0.266058813226171 
747	 0.265771009224406 
748	 0.265433306633504 
749	 0.265077197778284 
750	 0.26472331674717 
751	 0.264366348391799 
752	 0.263888396848344 
753	 0.263345261127648 
754	 0.262813367367082 
755	 0.262301470263803 
756	 0.261760996509169 
757	 0.261179540538806 
758	 0.260569762917091 
759	 0.259964735906101 
760	 0.259324278329374 
761	 0.258640207061902 
762	 0.257952370996182 
763	 0.257236754670572 
764	 0.256479563462797 
765	 0.255695934615752 
766	 0.254973378858171 
767	 0.254255432433253 
768	 0.25350427461902 
769	 0.252702147027944 
770	 0.25189300094841 
771	 0.251127744154812 
772	 0.250362540465189 
773	 0.249449720714627 
774	 0.248605221685922 
775	 0.247800009538518 
776	 0.246977048560492 
777	 0.246166569145113 
778	 0.245331815742621 
779	 0.244505881624399 
780	 0.243725677041294 
781	 0.242837362816696 
782	 0.241961037130562 
783	 0.24113596176991 
784	 0.240297687239773 
785	 0.239476470474931 
786	 0.238665627860256 
787	 0.23785281376912 
788	 0.237024729015102 
789	 0.236222252787917 
790	 0.235420204961517 
791	 0.234590389143213 
792	 0.233830011134561 
793	 0.233027123337738 
794	 0.232193532028598 
795	 0.231443537877686 
796	 0.230632925264619 
797	 0.229847884565969 
798	 0.229138701888659 
799	 0.228428754105594 
800	 0.227707858879714 
801	 0.226953806865779 
802	 0.226167548103695 
803	 0.225430238971057 
804	 0.224749085356735 
805	 0.224078328471989 
806	 0.223354477368728 
807	 0.222653065497381 
808	 0.221985629904206 
809	 0.221324682956916 
810	 0.220604165638984 
811	 0.219951809087299 
812	 0.219310254924199 
813	 0.218636884001013 
814	 0.218048977595298 
815	 0.217482880708979 
816	 0.216887897596523 
817	 0.216244370076717 
818	 0.215654864248101 
819	 0.215128581333499 
820	 0.21460113072664 
821	 0.213972264453397 
822	 0.21342517401061 
823	 0.212853671184597 
824	 0.212235443130132 
825	 0.211752009787693 
826	 0.211306214676254 
827	 0.210813303926606 
828	 0.21024849967864 
829	 0.209765049598953 
830	 0.209241683900561 
831	 0.208727310040589 
832	 0.208325602703221 
833	 0.207943079377454 
834	 0.207526539517234 
835	 0.207067428213848 
836	 0.206602145726593 
837	 0.20619942043592 
838	 0.205835948433242 
839	 0.205456358498438 
840	 0.204980402935694 
841	 0.204573682632467 
842	 0.204222728660683 
843	 0.203879149592477 
844	 0.203565731367896 
845	 0.203249935942578 
846	 0.202911193127724 
847	 0.202560822389225 
848	 0.202342536092436 
849	 0.20206789860312 
850	 0.20168303694444 
851	 0.201274076168843 
852	 0.2008935694818 
853	 0.20065417623867 
854	 0.200533607821649 
855	 0.20031789456566 
856	 0.200067128193413 
857	 0.199787460314807 
858	 0.199519010578479 
859	 0.199419252048736 
860	 0.199238445340715 
861	 0.199006654948211 
862	 0.198820139291555 
863	 0.198568181944324 
864	 0.198394564485897 
865	 0.198269596915296 
866	 0.19807845967056 
867	 0.197964306585676 
868	 0.197810318425902 
869	 0.197609248456458 
870	 0.197478928887841 
871	 0.197349086280243 
872	 0.197250479430119 
873	 0.197189573135398 
874	 0.197111340879612 
875	 0.197092963022285 
876	 0.197027225015646 
877	 0.196868397886686 
878	 0.196848034193332 
879	 0.196831524973431 
880	 0.19679682379739 
881	 0.196764242106536 
882	 0.196760789103926 
883	 0.196787398799949 
884	 0.196749802108972 
885	 0.196578550595304 
886	 0.196657634446265 
887	 0.196792697686366 
888	 0.196840027167435 
889	 0.196775541323728 
890	 0.196873033074891 
891	 0.196987547056635 
892	 0.197037006713676 
893	 0.197092455363822 
894	 0.197223072358049 
895	 0.197324609374453 
896	 0.197365109434732 
897	 0.19750195144211 
898	 0.19766978569868 
899	 0.197814828756867 
900	 0.197918588809717 
901	 0.19804694135388 
902	 0.198200357259142 
903	 0.198358268999006 
904	 0.198506622480594 
905	 0.198684349013055 
906	 0.19894287125835 
907	 0.199221357247658 
908	 0.1994451188461 
909	 0.199785738824878 
910	 0.199975140071964 
911	 0.200056507353115 
912	 0.200272726363419 
913	 0.200602658368361 
914	 0.200929484706094 
915	 0.201211290053155 
916	 0.20148676233997 
917	 0.201757000109365 
918	 0.202085006986298 
919	 0.202454982589547 
920	 0.202764439476183 
921	 0.203111914555033 
922	 0.203467409114496 
923	 0.203823956681719 
924	 0.204235093705132 
925	 0.204582174044448 
926	 0.204946300395733 
927	 0.205380147087117 
928	 0.205803473841793 
929	 0.206280108707656 
930	 0.206806880950264 
931	 0.207321996780143 
932	 0.207672353020217 
933	 0.208160375592196 
934	 0.208726689225063 
935	 0.209258194617053 
936	 0.209831217261939 
937	 0.210347729130453 
938	 0.210846768934379 
939	 0.21139215639697 
940	 0.211952156751013 
941	 0.212577778314423 
942	 0.213227665948789 
943	 0.213838159159628 
944	 0.214411370709801 
945	 0.215007394354866 
946	 0.215626281135124 
947	 0.21625173215283 
948	 0.216947845017907 
949	 0.217592916734218 
950	 0.218218693824626 
951	 0.21893310772281 
952	 0.219783075227229 
953	 0.220479923130423 
954	 0.221105363896254 
955	 0.221894102660867 
956	 0.222609130300267 
957	 0.223414420620585 
958	 0.224276960959189 
959	 0.225047532387159 
960	 0.225710408506417 
961	 0.226543080205809 
962	 0.227523727348134 
963	 0.228417086489238 
964	 0.229089453560271 
965	 0.22990952504796 
966	 0.230855732573761 
967	 0.231675924015668 
968	 0.232604507873206 
969	 0.233517049395833 
970	 0.234431366945681 
971	 0.235432498326987 
972	 0.2363165001646 
973	 0.237284774773564 
974	 0.238322331786634 
975	 0.239279183808555 
976	 0.240262979865729 
977	 0.241225871940926 
978	 0.242182989347036 
979	 0.243194620392633 
980	 0.244302314182323 
981	 0.245370566279394 
982	 0.246386653185257 
983	 0.247422158381558 
984	 0.248493033374357 
985	 0.249546421406633 
986	 0.250581479021832 
987	 0.251621690593103 
988	 0.252639311566386 
989	 0.253662951266909 
990	 0.254667331614372 
991	 0.255649793430518 
992	 0.256820791105033 
993	 0.257974743327726 
994	 0.259116038084141 
995	 0.260281125055998 
996	 0.261179860369118 
997	 0.26237004224767 
998	 0.263575440256928 
999	 0.264472829493815 
1000	 0.265849303398119 
1001	 0.260318927928741 
1002	 0.261320378508019 
1003	 0.262341790218531 
1004	 0.263344125909237 
1005	 0.264338806972401 
1006	 0.265327141883685 
1007	 0.266302026926794 
1008	 0.267295063136109 
1009	 0.268309223660515 
1010	 0.269283328287648 
1011	 0.270243809484745 
1012	 0.271198241911518 
1013	 0.272131485642296 
1014	 0.273091532466016 
1015	 0.274074756639523 
1016	 0.275073327919815 
1017	 0.27606932714311 
1018	 0.277066892026206 
1019	 0.278022951716312 
1020	 0.278956165142157 
1021	 0.27984281268748 
1022	 0.280691518144191 
1023	 0.281575146204178 
1024	 0.282484455111598 
1025	 0.283419676444903 
1026	 0.284307029473877 
1027	 0.285132559680353 
1028	 0.285980378974349 
1029	 0.286820386289641 
1030	 0.287703283125904 
1031	 0.288579910790294 
1032	 0.289480982746671 
1033	 0.290352305934949 
1034	 0.291223466694662 
1035	 0.292057625086129 
1036	 0.292918883385032 
1037	 0.293762024597945 
1038	 0.294569777941088 
1039	 0.295391699124882 
1040	 0.296173729341894 
1041	 0.296961502559037 
1042	 0.297785880564801 
1043	 0.298626845978043 
1044	 0.299467001113261 
1045	 0.300333117878121 
1046	 0.301166677229159 
1047	 0.301971455838335 
1048	 0.302792689367226 
1049	 0.303594771801784 
1050	 0.304411762361519 
1051	 0.30526125394614 
1052	 0.306056114354865 
1053	 0.306783025777681 
1054	 0.307534932718784 
1055	 0.308318848245585 
1056	 0.309095657648045 
1057	 0.309888637549406 
1058	 0.310760666082613 
1059	 0.311545037922602 
1060	 0.312282562214275 
1061	 0.313013873037056 
1062	 0.31374043366547 
1063	 0.314487510341453 
1064	 0.315281937511959 
1065	 0.316054340299867 
1066	 0.316785670566659 
1067	 0.31747434460722 
1068	 0.318148425523833 
1069	 0.318859416329836 
1070	 0.319560382485695 
1071	 0.320279355142417 
1072	 0.320997046837097 
1073	 0.321700038229324 
1074	 0.322393678822637 
1075	 0.323091779580909 
1076	 0.323789074571361 
1077	 0.324454164304025 
1078	 0.325100059648316 
1079	 0.325766807659968 
1080	 0.326420666880892 
1081	 0.327048641140673 
1082	 0.327690742593518 
1083	 0.328328501449316 
1084	 0.328947398711444 
1085	 0.329573951779513 
1086	 0.330205167077711 
1087	 0.330841599034463 
1088	 0.331474751754178 
1089	 0.332115784080936 
1090	 0.332749470049703 
1091	 0.333356380800274 
1092	 0.333921696882081 
1093	 0.334467201161185 
1094	 0.335073648387729 
1095	 0.335694577432456 
1096	 0.336336230051784 
1097	 0.337005571652092 
1098	 0.337606584823269 
1099	 0.3381457692985 
1100	 0.338715479139523 
1101	 0.339247279489955 
1102	 0.339818110159628 
1103	 0.340422164705621 
1104	 0.341023013806235 
1105	 0.341601350731007 
1106	 0.342178327399312 
1107	 0.342744251491305 
1108	 0.343339189508488 
1109	 0.34394150343331 
1110	 0.344529436970329 
1111	 0.345114777733551 
1112	 0.345702808841171 
1113	 0.34626246960445 
1114	 0.346795381072235 
1115	 0.347357410861372 
1116	 0.347890616650945 
1117	 0.348466657839269 
1118	 0.349090414971942 
1119	 0.349692173675379 
1120	 0.350303450220319 
1121	 0.35092895734471 
1122	 0.351472709003445 
1123	 0.352047405358255 
1124	 0.35261845674286 
1125	 0.353172902469853 
1126	 0.353720733834711 
1127	 0.354262667158375 
1128	 0.354826674447673 
1129	 0.355405787254201 
1130	 0.355950124007098 
1131	 0.356506071756565 
1132	 0.357048895535934 
1133	 0.35752978138077 
1134	 0.358052758783704 
1135	 0.358604433898399 
1136	 0.359161087645398 
1137	 0.359696296032364 
1138	 0.360224470178864 
1139	 0.360751857930704 
1140	 0.361271081852686 
1141	 0.361778714440504 
1142	 0.362286450139297 
1143	 0.362786408483937 
1144	 0.363271567035647 
1145	 0.363750255679918 
1146	 0.364224305885925 
1147	 0.364695674999248 
1148	 0.365151202292088 
1149	 0.365611919848054 
1150	 0.366061844128196 
1151	 0.366545861996968 
1152	 0.367008656741904 
1153	 0.367487748160112 
1154	 0.367953345005709 
1155	 0.368414227193454 
1156	 0.368880069869485 
1157	 0.369348701186474 
1158	 0.369805431592732 
1159	 0.37026363155442 
1160	 0.370719753590288 
1161	 0.371155429827131 
1162	 0.371608131772068 
1163	 0.372082662066944 
1164	 0.372541662866761 
1165	 0.37298695650061 
1166	 0.373451385830125 
1167	 0.373915894946974 
1168	 0.374368509795691 
1169	 0.374838019950946 
1170	 0.375334954765501 
1171	 0.375792271902667 
1172	 0.376251195819083 
1173	 0.376677710477428 
1174	 0.377059077951371 
1175	 0.377466604723335 
1176	 0.377857274563926 
1177	 0.378272867466689 
1178	 0.378719420364767 
1179	 0.379148843756815 
1180	 0.379578771509558 
1181	 0.380006139865792 
1182	 0.3804338899683 
1183	 0.380852412992897 
1184	 0.381257263669969 
1185	 0.38165770698898 
1186	 0.382056708197598 
1187	 0.382432480697014 
1188	 0.382830417079444 
1189	 0.383235971977324 
1190	 0.383650179028695 
1191	 0.384096924496405 
1192	 0.384496908077719 
1193	 0.384878061541564 
1194	 0.385265593345594 
1195	 0.385618811820561 
1196	 0.385989808280754 
1197	 0.386386297640475 
1198	 0.386772067572266 
1199	 0.387153995066865 
1200	 0.387531980402624 
1201	 0.38790000349164 
1202	 0.388260354679787 
1203	 0.388626344347315 
1204	 0.3889829449389 
1205	 0.389348403298549 
1206	 0.389727337865593 
1207	 0.390092941211564 
1208	 0.390458470105227 
1209	 0.390813381884168 
1210	 0.39115744330009 
1211	 0.391503370983902 
1212	 0.39183289340959 
1213	 0.392178382405862 
1214	 0.392540552651577 
1215	 0.392891864899998 
1216	 0.393242301435044 
1217	 0.393607925001441 
1218	 0.393936686624511 
1219	 0.394232543329665 
1220	 0.394562197650574 
1221	 0.394891224593326 
1222	 0.395219047799137 
1223	 0.395572310102233 
1224	 0.395901607399473 
1225	 0.396218496844567 
1226	 0.396523177431595 
1227	 0.396820033818012 
1228	 0.397111023181838 
1229	 0.39736664449788 
1230	 0.397650890286381 
1231	 0.397960575468787 
1232	 0.398252622881115 
1233	 0.398543378905032 
1234	 0.39883967149771 
1235	 0.39914037101142 
1236	 0.399429268662236 
1237	 0.399732112786585 
1238	 0.400059596581338 
1239	 0.40036571435734 
1240	 0.400661440168458 
1241	 0.400960999087864 
1242	 0.401260531493066 
1243	 0.401555055306493 
1244	 0.401857481899292 
1245	 0.402140835575226 
1246	 0.402404999667827 
1247	 0.402677005927008 
1248	 0.402949763163864 
1249	 0.403204402492714 
1250	 0.403473714677175 
1251	 0.403736420364139 
1252	 0.404003964971456 
1253	 0.40427338010337 
1254	 0.404529295093935 
1255	 0.404782776172219 
1256	 0.405037591647522 
1257	 0.405291852869185 
1258	 0.405526325137818 
1259	 0.40574575704878 
1260	 0.405980041101898 
1261	 0.406193211856926 
1262	 0.406427051772493 
1263	 0.406700764043718 
1264	 0.406950515018265 
1265	 0.407194096606989 
1266	 0.407430411547556 
1267	 0.4076601985381 
1268	 0.407869091201641 
1269	 0.408106162436076 
1270	 0.40834732578382 
1271	 0.408589374851292 
1272	 0.408848893396037 
1273	 0.409099435523344 
1274	 0.409339996371847 
1275	 0.409591212860882 
1276	 0.409840139041659 
1277	 0.410108399666685 
1278	 0.410388998710129 
1279	 0.41066870874055 
1280	 0.41097312423222 
1281	 0.411257333453962 
1282	 0.411540092941496 
1283	 0.411807960992992 
1284	 0.412068067500728 
1285	 0.41230670725858 
1286	 0.412555419809365 
1287	 0.412786333429671 
1288	 0.413016818100587 
1289	 0.413248762240826 
1290	 0.413472087097299 
1291	 0.413685558808514 
1292	 0.413893223892412 
1293	 0.414102112391023 
1294	 0.414290705215338 
1295	 0.414471031456956 
1296	 0.414629910927729 
1297	 0.414778473448366 
1298	 0.414900564724429 
1299	 0.414976945157771 
1300	 0.415077490065138 
1301	 0.415168453791505 
1302	 0.415262556399275 
1303	 0.41538562820542 
1304	 0.415480344851289 
1305	 0.41552861843759 
1306	 0.415572312010203 
1307	 0.415603944347168 
1308	 0.415640958572736 
1309	 0.415694188664562 
1310	 0.415779944663188 
1311	 0.415821898823205 
1312	 0.415850424507529 
1313	 0.415880647357827 
1314	 0.415899241582761 
1315	 0.415908374869674 
1316	 0.415915944802394 
1317	 0.415918415572394 
1318	 0.415904617530812 
1319	 0.415891383225645 
1320	 0.415881754514573 
1321	 0.41586429542859 
1322	 0.415849113392377 
1323	 0.415803800395518 
1324	 0.415758294524572 
1325	 0.415710088124761 
1326	 0.415659167306668 
1327	 0.41562675905441 
1328	 0.415605208723671 
1329	 0.415573202690371 
1330	 0.415519782910454 
1331	 0.415449386468923 
1332	 0.415380141891739 
1333	 0.415292492008354 
1334	 0.41521627901263 
1335	 0.415140740475688 
1336	 0.415066523501587 
1337	 0.41499880496984 
1338	 0.414919544846366 
1339	 0.414842959187477 
1340	 0.414753174871586 
1341	 0.414653546767169 
1342	 0.414549858637202 
1343	 0.414426932310467 
1344	 0.414316267013878 
1345	 0.414241096377946 
1346	 0.414142364708419 
1347	 0.414069001406953 
1348	 0.414004020276395 
1349	 0.41387297985496 
1350	 0.41372336807341 
1351	 0.413584042679968 
1352	 0.413418814110794 
1353	 0.41327543557243 
1354	 0.413150930491444 
1355	 0.4130169484839 
1356	 0.412875063197 
1357	 0.412743680896767 
1358	 0.412617187112239 
1359	 0.41248845091183 
1360	 0.412362249711856 
1361	 0.412239509259394 
1362	 0.412130041042832 
1363	 0.412001128027361 
1364	 0.41186421798577 
1365	 0.41172810653531 
1366	 0.411578358068975 
1367	 0.411431019462812 
1368	 0.411304109134822 
1369	 0.411156799630434 
1370	 0.410953756276566 
1371	 0.410733793003957 
1372	 0.410483008687498 
1373	 0.410192550997369 
1374	 0.409882996651543 
1375	 0.409575868283248 
1376	 0.409183712969316 
1377	 0.408755812613355 
1378	 0.408247063643302 
1379	 0.407655309656708 
1380	 0.407053046783472 
1381	 0.40639750096193 
1382	 0.40570416761663 
1383	 0.405012103624179 
1384	 0.404221144889383 
1385	 0.403383990687869 
1386	 0.402462466569429 
1387	 0.401451231013072 
1388	 0.400397784104063 
1389	 0.399295452278388 
1390	 0.398102042811225 
1391	 0.396855057841793 
1392	 0.395535581345209 
1393	 0.394111823475923 
1394	 0.392619724248167 
1395	 0.391039959512599 
1396	 0.389438313263616 
1397	 0.387840031967659 
1398	 0.386200805314655 
1399	 0.384565122193629 
1400	 0.382932331614765 
1401	 0.381286244232026 
1402	 0.379594142339363 
1403	 0.377970773032704 
1404	 0.376358835926191 
1405	 0.374795371243584 
1406	 0.373280243267675 
1407	 0.371763362795857 
1408	 0.370240814429563 
1409	 0.368794428428614 
1410	 0.367325381828234 
1411	 0.366012698921609 
1412	 0.364784130959769 
1413	 0.363662463841013 
1414	 0.362706421144794 
1415	 0.361836175615447 
1416	 0.361073015907817 
1417	 0.360416816164636 
1418	 0.35978894848019 
1419	 0.359200840987362 
1420	 0.358674809369788 
1421	 0.358147042227546 
1422	 0.357620157982888 
1423	 0.357108608563072 
1424	 0.35654347369594 
1425	 0.355925841421424 
1426	 0.35534855681394 
1427	 0.354731833480557 
1428	 0.354189057328164 
1429	 0.353686173803704 
1430	 0.35320858339825 
1431	 0.352787869005674 
1432	 0.352343229713596 
1433	 0.351903138192791 
1434	 0.351484523032736 
1435	 0.351048900210173 
1436	 0.350666417817151 
1437	 0.350317798624353 
1438	 0.349995996360345 
1439	 0.349717099208336 
1440	 0.349452037062959 
1441	 0.349174694239927 
1442	 0.348897620110862 
1443	 0.34859322800286 
1444	 0.348288238818243 
1445	 0.348010162661321 
1446	 0.347734997860399 
1447	 0.3474707441157 
1448	 0.347184685873102 
1449	 0.346861213117679 
1450	 0.346531769728428 
1451	 0.346187366690321 
1452	 0.345815397440163 
1453	 0.345447300228446 
1454	 0.345076425018717 
1455	 0.344691399621426 
1456	 0.344301571449834 
1457	 0.343892697191442 
1458	 0.343455599911894 
1459	 0.343035077817293 
1460	 0.342582369916681 
1461	 0.342184649814264 
1462	 0.341815245996542 
1463	 0.341463461776587 
1464	 0.341133518843389 
1465	 0.340829390082596 
1466	 0.340510367119506 
1467	 0.340278929311099 
1468	 0.340076296127351 
1469	 0.339970035137619 
1470	 0.339946867872062 
1471	 0.33998643488104 
1472	 0.340102374911802 
1473	 0.340291289271345 
1474	 0.340533484193384 
1475	 0.340840220667912 
1476	 0.341191284694019 
1477	 0.341595185942963 
1478	 0.342054684880963 
1479	 0.342550381790672 
1480	 0.343109294573072 
1481	 0.343692655833254 
1482	 0.344275250989416 
1483	 0.344898949642909 
1484	 0.345479039286285 
1485	 0.34604422752171 
1486	 0.346618170386706 
1487	 0.347176896215869 
1488	 0.347742034013685 
1489	 0.348340218964368 
1490	 0.348882066678856 
1491	 0.349405958585037 
1492	 0.349899024895567 
1493	 0.35034882689519 
1494	 0.350791803413134 
1495	 0.351206282134526 
1496	 0.351623233814557 
1497	 0.352033549661661 
1498	 0.352431186784603 
1499	 0.352837904369547 
1500	 0.353200122786224 
1501	 0.353514834964099 
1502	 0.3538430587297 
1503	 0.354146835598469 
1504	 0.354458798459936 
1505	 0.354777045493079 
1506	 0.355097193928739 
1507	 0.355408224301282 
1508	 0.355698298934157 
1509	 0.355968969512816 
1510	 0.356237505826354 
1511	 0.356485596419362 
1512	 0.356702569621108 
1513	 0.356941736064476 
1514	 0.357196650785875 
1515	 0.357443063377877 
1516	 0.357721736193056 
1517	 0.357993227190553 
1518	 0.358279534492058 
1519	 0.358538220678255 
1520	 0.358792125605978 
1521	 0.359032999665947 
1522	 0.359244123087797 
1523	 0.359476237475311 
1524	 0.359711315528687 
1525	 0.359954534789313 
1526	 0.360216455061708 
1527	 0.360456334989916 
1528	 0.360698021670351 
1529	 0.360915226523061 
1530	 0.361110585002515 
1531	 0.361304537986891 
1532	 0.361477314012739 
1533	 0.361664281017223 
1534	 0.361848430140231 
1535	 0.362040675820192 
1536	 0.36224369855273 
1537	 0.362442332313608 
1538	 0.362637683510092 
1539	 0.362840208356681 
1540	 0.363051888722211 
1541	 0.363254819561312 
1542	 0.363457975260296 
1543	 0.363659980217023 
1544	 0.363866572251873 
1545	 0.364056257984533 
1546	 0.364240890031034 
1547	 0.36441774702108 
1548	 0.36458001107426 
1549	 0.364710766823822 
1550	 0.364842943995122 
1551	 0.364997585444724 
1552	 0.365163452516157 
1553	 0.365356826693892 
1554	 0.36556276618273 
1555	 0.365743996528764 
1556	 0.365915207100263 
1557	 0.366080598179591 
1558	 0.366252392353478 
1559	 0.366431805240276 
1560	 0.366608973864314 
1561	 0.366799955985327 
1562	 0.366960308600304 
1563	 0.367107749796565 
1564	 0.367254086693888 
1565	 0.367385566984196 
1566	 0.367514351211831 
1567	 0.367641816187437 
1568	 0.367762690175939 
1569	 0.367861001299246 
1570	 0.367985652104748 
1571	 0.36813009444953 
1572	 0.368252063749346 
1573	 0.368383319533858 
1574	 0.368493522619454 
1575	 0.368571903010515 
1576	 0.368666437349611 
1577	 0.368763782652769 
1578	 0.368856685898377 
1579	 0.368931863631151 
1580	 0.369047498783517 
1581	 0.369186219230451 
1582	 0.36931095552437 
1583	 0.369477454143468 
1584	 0.369595761625265 
1585	 0.369681597397765 
1586	 0.369761552971767 
1587	 0.369815710411628 
1588	 0.369875087163018 
1589	 0.369921903073222 
1590	 0.369976101178344 
1591	 0.370035162584212 
1592	 0.370089070873003 
1593	 0.370131947596601 
1594	 0.370189196117212 
1595	 0.37026583598372 
1596	 0.370318690164532 
1597	 0.370369617619218 
1598	 0.370415840335986 
1599	 0.370439282826455 
1600	 0.370468117525851 
1601	 0.370504785286051 
1602	 0.370537978635443 
1603	 0.37054165895467 
1604	 0.370582756332322 
1605	 0.370658251783125 
1606	 0.370715718360947 
1607	 0.370785534074396 
1608	 0.370858364674103 
1609	 0.3709216884288 
1610	 0.370961996789791 
1611	 0.370974127493597 
1612	 0.370986406373827 
1613	 0.370971147729725 
1614	 0.37094028888853 
1615	 0.370911082988221 
1616	 0.370885662677246 
1617	 0.370871341517823 
1618	 0.370859134797368 
1619	 0.370874256539493 
1620	 0.37090581073011 
1621	 0.370916692911753 
1622	 0.370928813648105 
1623	 0.370915860336664 
1624	 0.370882246705971 
1625	 0.370862655123916 
1626	 0.370829784216323 
1627	 0.370808204911857 
1628	 0.370797847120765 
1629	 0.370789182866987 
1630	 0.370778717766746 
1631	 0.370773623121256 
1632	 0.370784982189416 
1633	 0.370771562541848 
1634	 0.370750325660979 
1635	 0.370720131141461 
1636	 0.370683896865806 
1637	 0.370626845905216 
1638	 0.370542783274015 
1639	 0.370488880767354 
1640	 0.370422878319192 
1641	 0.370383976348774 
1642	 0.370382079540414 
1643	 0.370354956770064 
1644	 0.370318597548075 
1645	 0.370297879632681 
1646	 0.370289473633998 
1647	 0.370257987239073 
1648	 0.370237560170045 
1649	 0.370182243171688 
1650	 0.370083985344463 
1651	 0.37001459818362 
1652	 0.369944760385866 
1653	 0.369871039107397 
1654	 0.369809459630424 
1655	 0.369730230147694 
1656	 0.369632235473967 
1657	 0.369544243336629 
1658	 0.369456386773978 
1659	 0.369366340411782 
1660	 0.36928587194384 
1661	 0.369180714812658 
1662	 0.369059911976711 
1663	 0.368941836064887 
1664	 0.368792729070995 
1665	 0.368687721994888 
1666	 0.368606543780285 
1667	 0.368522162569813 
1668	 0.368466700062753 
1669	 0.368386837514435 
1670	 0.368299261176032 
1671	 0.368203927542419 
1672	 0.368101868352596 
1673	 0.367991507973062 
1674	 0.367862121044427 
1675	 0.367749986474363 
1676	 0.367641678548648 
1677	 0.367529529390397 
1678	 0.367420798676785 
1679	 0.367316166942921 
1680	 0.367205697911373 
1681	 0.367104629362002 
1682	 0.367009662472505 
1683	 0.366926845769276 
1684	 0.366860007609731 
1685	 0.36677580212278 
1686	 0.366715242471023 
1687	 0.366605811297961 
1688	 0.366449606807857 
1689	 0.366318050820567 
1690	 0.366170728244876 
1691	 0.366034290825021 
1692	 0.365908719645406 
1693	 0.36578568511849 
1694	 0.365659314025041 
1695	 0.365540536167067 
1696	 0.365446278482359 
1697	 0.365323849437713 
1698	 0.365186303785681 
1699	 0.365055292619037 
1700	 0.364925003391537 
1701	 0.364770948296487 
1702	 0.364603932447268 
1703	 0.36444228950937 
1704	 0.364260679815884 
1705	 0.364088058601491 
1706	 0.363931521682249 
1707	 0.363761611746538 
1708	 0.363569926909994 
1709	 0.36340649479537 
1710	 0.363270247129796 
1711	 0.363099235445597 
1712	 0.362937697582141 
1713	 0.362734950455992 
1714	 0.362479524183462 
1715	 0.362255548205593 
1716	 0.362020617543178 
1717	 0.361806309598849 
1718	 0.361612288631207 
1719	 0.361406223771646 
1720	 0.361196412477251 
1721	 0.361002107469388 
1722	 0.360813346062151 
1723	 0.360630606339966 
1724	 0.360484117553216 
1725	 0.360272958131493 
1726	 0.36003972058899 
1727	 0.35978252306621 
1728	 0.359463012337906 
1729	 0.359201028246926 
1730	 0.358949159450779 
1731	 0.358701482563416 
1732	 0.358475971848709 
1733	 0.358249296026905 
1734	 0.358036870550138 
1735	 0.35777821309801 
1736	 0.357507796283195 
1737	 0.357233706497659 
1738	 0.356911109001532 
1739	 0.356642229565093 
1740	 0.356410359861306 
1741	 0.356151142163235 
1742	 0.355893030823619 
1743	 0.355637159503578 
1744	 0.355382308128636 
1745	 0.355101093643492 
1746	 0.354807446755005 
1747	 0.354505125620225 
1748	 0.354225684659161 
1749	 0.353978925265249 
1750	 0.353739554553809 
1751	 0.353484395952527 
1752	 0.353204906279833 
1753	 0.352905525946299 
1754	 0.352589422558561 
1755	 0.352265730908957 
1756	 0.351953816032993 
1757	 0.351623565931171 
1758	 0.351286421021666 
1759	 0.351001394233675 
1760	 0.350733428661564 
1761	 0.35047477324327 
1762	 0.350221334095107 
1763	 0.34992303691098 
1764	 0.349602956396299 
1765	 0.349285954870568 
1766	 0.348961004454633 
1767	 0.34864435278716 
1768	 0.348327193757992 
1769	 0.348015959240589 
1770	 0.347741001644713 
1771	 0.347484794871378 
1772	 0.347243331412923 
1773	 0.347014176344303 
1774	 0.346817869357859 
1775	 0.346616405941795 
1776	 0.346362283728042 
1777	 0.346139991296371 
1778	 0.345898683928265 
1779	 0.345622266327821 
1780	 0.345395378940134 
1781	 0.345137547365877 
1782	 0.344878328011921 
1783	 0.344679482502307 
1784	 0.34448524326106 
1785	 0.344343439143895 
1786	 0.344156790682808 
1787	 0.343942260559068 
1788	 0.343749522850985 
1789	 0.343554440545128 
1790	 0.34335447987835 
1791	 0.343160135083305 
1792	 0.342960459264143 
1793	 0.342727392672433 
1794	 0.342552433169726 
1795	 0.342434202071672 
1796	 0.342281000600404 
1797	 0.342131308521123 
1798	 0.341952914708455 
1799	 0.341746038543592 
1800	 0.341563351217429 
1801	 0.340244147848317 
1802	 0.340344210401701 
1803	 0.340462654253637 
1804	 0.340583238410435 
1805	 0.340730935840647 
1806	 0.34087012629211 
1807	 0.340992933225417 
1808	 0.341066797256677 
1809	 0.341131483562149 
1810	 0.341130890173777 
1811	 0.34107641652596 
1812	 0.340998160392307 
1813	 0.340874857536991 
1814	 0.340720597278533 
1815	 0.340529670616083 
1816	 0.340303067140547 
1817	 0.340062723087315 
1818	 0.339763845567573 
1819	 0.339512541316088 
1820	 0.33926971255626 
1821	 0.339018491801566 
1822	 0.338777989634975 
1823	 0.338530598197267 
1824	 0.338240286571194 
1825	 0.337922747406026 
1826	 0.337567435983755 
1827	 0.33716808713685 
1828	 0.336724190879038 
1829	 0.336243030261184 
1830	 0.335706031544247 
1831	 0.335111776114853 
1832	 0.334493832366695 
1833	 0.33383943860601 
1834	 0.333150874720891 
1835	 0.332475786122365 
1836	 0.331768934075505 
1837	 0.331061824829771 
1838	 0.330395298880423 
1839	 0.329728330186794 
1840	 0.329059762542483 
1841	 0.328429911795106 
1842	 0.327813191619908 
1843	 0.327194453471633 
1844	 0.326638188348521 
1845	 0.326136153830861 
1846	 0.325692212726265 
1847	 0.325323961842031 
1848	 0.325004322627793 
1849	 0.324710553149325 
1850	 0.324456661598104 
1851	 0.324252267685204 
1852	 0.324063851873783 
1853	 0.323915727651289 
1854	 0.323761853463043 
1855	 0.323566567548217 
1856	 0.323359453405484 
1857	 0.323111496510362 
1858	 0.322854814547747 
1859	 0.322595616850313 
1860	 0.322290278110361 
1861	 0.321957125694528 
1862	 0.321581497713038 
1863	 0.321175252257521 
1864	 0.320742470660658 
1865	 0.320278855435216 
1866	 0.319766012027407 
1867	 0.319200977218214 
1868	 0.31855520507929 
1869	 0.31780872349352 
1870	 0.31700188716521 
1871	 0.316097778988692 
1872	 0.315109974937159 
1873	 0.314024742156677 
1874	 0.312853794515997 
1875	 0.311545981127726 
1876	 0.310114373497396 
1877	 0.308546863743708 
1878	 0.306822911553505 
1879	 0.304964810990837 
1880	 0.302973186548971 
1881	 0.300814723358171 
1882	 0.298569502126523 
1883	 0.296223719946854 
1884	 0.293693463468414 
1885	 0.291078775224123 
1886	 0.288341021595327 
1887	 0.285422720819585 
1888	 0.282440220604211 
1889	 0.279353104774312 
1890	 0.276175069723897 
1891	 0.273000990721009 
1892	 0.269737601516629 
1893	 0.266520803100449 
1894	 0.263296276676438 
1895	 0.260080984479979 
1896	 0.256844626531824 
1897	 0.253709496506152 
1898	 0.250561097278448 
1899	 0.24746788793958 
1900	 0.244524719883333 
1901	 0.241621865145622 
1902	 0.238870315010084 
1903	 0.23627677364642 
1904	 0.233770712054503 
1905	 0.231349925164581 
1906	 0.229094008748733 
1907	 0.226949856679809 
1908	 0.22490596850193 
1909	 0.223031359609846 
1910	 0.221249118245563 
1911	 0.219569245348878 
1912	 0.218019048274903 
1913	 0.216544667747115 
1914	 0.215158118028817 
1915	 0.213863896358956 
1916	 0.212666888103202 
1917	 0.21155300528573 
1918	 0.210534987857679 
1919	 0.209564789686626 
1920	 0.208678849499068 
1921	 0.207865549529969 
1922	 0.207111430018286 
1923	 0.206430767299864 
1924	 0.205804966684442 
1925	 0.205246407582474 
1926	 0.204746392594293 
1927	 0.20429266568521 
1928	 0.203920233441936 
1929	 0.203628648049612 
1930	 0.203366862232574 
1931	 0.203144082705707 
1932	 0.202979846016053 
1933	 0.202837288577377 
1934	 0.202723225618479 
1935	 0.20266622219834 
1936	 0.202654041789701 
1937	 0.202684096687479 
1938	 0.202770490871358 
1939	 0.202892110044535 
1940	 0.203066728827186 
1941	 0.203253634238695 
1942	 0.203470662716255 
1943	 0.203714288840361 
1944	 0.203984934447736 
1945	 0.204282691846942 
1946	 0.204583167878979 
1947	 0.204907100380074 
1948	 0.205235983702758 
1949	 0.205558106075695 
1950	 0.205910276610895 
1951	 0.206291590671285 
1952	 0.20667586452468 
1953	 0.207061828846533 
1954	 0.207487129606084 
1955	 0.207914030530844 
1956	 0.208361529639349 
1957	 0.208810148896944 
1958	 0.20926920498556 
1959	 0.20973427624198 
1960	 0.210204627681975 
1961	 0.21068377614656 
1962	 0.211173978285827 
1963	 0.211683461917576 
1964	 0.21220490639476 
1965	 0.212723747173663 
1966	 0.213288697904484 
1967	 0.213849690803717 
1968	 0.214412710828386 
1969	 0.215000419533809 
1970	 0.215557802925195 
1971	 0.216101843121391 
1972	 0.2166438032765 
1973	 0.217165146223749 
1974	 0.217702583518316 
1975	 0.218233985279268 
1976	 0.218785287771179 
1977	 0.219363107641513 
1978	 0.219924123356445 
1979	 0.22048107309069 
1980	 0.221055462032824 
1981	 0.221623575702221 
1982	 0.222171261800205 
1983	 0.222751069124012 
1984	 0.223355223643171 
1985	 0.223947192109076 
1986	 0.224562475443579 
1987	 0.225151750699161 
1988	 0.225713436191217 
1989	 0.226301438213714 
1990	 0.226872100974377 
1991	 0.227435826259933 
1992	 0.228006452727786 
1993	 0.228582061261386 
1994	 0.229153873936304 
1995	 0.229717811841768 
1996	 0.230294353839432 
1997	 0.230875592039905 
1998	 0.231461653035525 
1999	 0.232056611746529 
2000	 0.232655108534214 
2001	 0.233270538836074 
2002	 0.233874220991163 
2003	 0.234449552565017 
2004	 0.235020874739066 
2005	 0.235582638781823 
2006	 0.236111106652424 
2007	 0.236658904456263 
2008	 0.237204538653078 
2009	 0.237766618086676 
2010	 0.238344277123186 
2011	 0.238911652972193 
2012	 0.239503263012369 
2013	 0.240066555561152 
2014	 0.240611470280527 
2015	 0.241137890868479 
2016	 0.241673448645791 
2017	 0.242199156899211 
2018	 0.242728406183201 
2019	 0.243256760031485 
2020	 0.243788676118049 
2021	 0.244324630251972 
2022	 0.244854186430161 
2023	 0.24539454540438 
2024	 0.245916430364246 
2025	 0.246426026666174 
2026	 0.24692575375442 
2027	 0.247413499744118 
2028	 0.247895753759043 
2029	 0.248369525832521 
2030	 0.248834807177499 
2031	 0.249292503939347 
2032	 0.24973976349898 
2033	 0.250183172490459 
2034	 0.250635505981683 
2035	 0.251050036351131 
2036	 0.251429259541301 
2037	 0.251828359651083 
2038	 0.252219841118652 
2039	 0.252595691264749 
2040	 0.252975775236468 
2041	 0.253352183894168 
2042	 0.253700483369947 
2043	 0.254022650627671 
2044	 0.25437278669824 
2045	 0.254724391957994 
2046	 0.255095804676322 
2047	 0.255501368191057 
2048	 0.255867721809208 
2049	 0.256241701079273 
2050	 0.256589254090782 
2051	 0.256882794520676 
2052	 0.257209938971383 
2053	 0.257555426808651 
2054	 0.257881258218394 
2055	 0.258208355384279 
2056	 0.258533149171807 
2057	 0.258846368979973 
2058	 0.259136858228972 
2059	 0.259442944171469 
2060	 0.259755204233342 
2061	 0.260059257029944 
2062	 0.26035940036215 
2063	 0.260659799773953 
2064	 0.260957205243712 
2065	 0.261254311104362 
2066	 0.261570495835502 
2067	 0.261853084160346 
2068	 0.262108713137445 
2069	 0.262371782608523 
2070	 0.262629444052281 
2071	 0.262863145870347 
2072	 0.263113921632137 
2073	 0.263378932912928 
2074	 0.263632313543173 
2075	 0.263879952087043 
2076	 0.264128099609862 
2077	 0.264387232965611 
2078	 0.264620812911193 
2079	 0.264830375245706 
2080	 0.265053098021873 
2081	 0.265256569110637 
2082	 0.265479577399457 
2083	 0.265724372459117 
2084	 0.265972424680764 
2085	 0.266197034958727 
2086	 0.2664269681408 
2087	 0.266624920054918 
2088	 0.266796317949019 
2089	 0.266963428372748 
2090	 0.267102299235014 
2091	 0.267258475166798 
2092	 0.267405088170132 
2093	 0.267567284041282 
2094	 0.267741740562369 
2095	 0.267918160896537 
2096	 0.268095192563917 
2097	 0.268283346639097 
2098	 0.268479872262013 
2099	 0.268688284607513 
2100	 0.26888211709377 
2101	 0.269081621231599 
2102	 0.26927220892877 
2103	 0.269447300434573 
2104	 0.269633347678576 
2105	 0.269835267719909 
2106	 0.270011086125255 
2107	 0.270166516169186 
2108	 0.270337629626542 
2109	 0.270484921282974 
2110	 0.270666074684674 
2111	 0.270873131763146 
2112	 0.27108567199902 
2113	 0.271329452225138 
2114	 0.271559079788341 
2115	 0.271771846625144 
2116	 0.271983062221251 
2117	 0.272182094349744 
2118	 0.272354101207661 
2119	 0.272544337942508 
2120	 0.272742536379571 
2121	 0.27293192335562 
2122	 0.273130284073202 
2123	 0.273303156890943 
2124	 0.273467714037935 
2125	 0.273614939199468 
2126	 0.273725423368217 
2127	 0.273854007134643 
2128	 0.273988199232343 
2129	 0.274108410688999 
2130	 0.274232337237696 
2131	 0.274354134819493 
2132	 0.27443742192273 
2133	 0.27449777786987 
2134	 0.274539055311826 
2135	 0.274553894768373 
2136	 0.27455449039057 
2137	 0.274535078971247 
2138	 0.274501425579896 
2139	 0.274437585014643 
2140	 0.274383584235587 
2141	 0.274322480047194 
2142	 0.274253115227348 
2143	 0.274211454040834 
2144	 0.274111529489394 
2145	 0.273972272434568 
2146	 0.273824422044203 
2147	 0.27363292222426 
2148	 0.273427082250336 
2149	 0.273247599041236 
2150	 0.273078675969753 
2151	 0.272895308420868 
2152	 0.272728183758494 
2153	 0.272526316727445 
2154	 0.272300342298908 
2155	 0.272071988833957 
2156	 0.271847823756466 
2157	 0.27157906117504 
2158	 0.271287629960857 
2159	 0.270977357869224 
2160	 0.270617861074285 
2161	 0.270264620332672 
2162	 0.269883287462792 
2163	 0.269530798131011 
2164	 0.269182131596565 
2165	 0.26884586872093 
2166	 0.268508109525689 
2167	 0.268190355464271 
2168	 0.267862931476717 
2169	 0.267533845629112 
2170	 0.267190582200627 
2171	 0.266855581632481 
2172	 0.266497022250205 
2173	 0.266115769985557 
2174	 0.265729212707654 
2175	 0.265342194057883 
2176	 0.264930059521955 
2177	 0.264486199281503 
2178	 0.264050467038963 
2179	 0.263601886554204 
2180	 0.263150726312227 
2181	 0.262713077152091 
2182	 0.262251484989005 
2183	 0.261762204751134 
2184	 0.26127498372742 
2185	 0.260798460407744 
2186	 0.260311995249294 
2187	 0.259836376523369 
2188	 0.259381939273137 
2189	 0.258910795283895 
2190	 0.258412285189133 
2191	 0.257957106730449 
2192	 0.257514457478295 
2193	 0.257084644424679 
2194	 0.25668026258074 
2195	 0.256282157790093 
2196	 0.255892939840575 
2197	 0.255514659734955 
2198	 0.255142790531359 
2199	 0.254798571693385 
2200	 0.25447667272167 
2201	 0.254157597733817 
2202	 0.253858578037687 
2203	 0.25356835279086 
2204	 0.253297550762872 
2205	 0.253015264958967 
2206	 0.252808749444856 
2207	 0.252647814194744 
2208	 0.252510215876013 
2209	 0.252426276334815 
2210	 0.252343413489494 
2211	 0.252277113466863 
2212	 0.25223484450512 
2213	 0.252246721881715 
2214	 0.252215479700904 
2215	 0.252183493486667 
2216	 0.252149734220605 
2217	 0.252095133510219 
2218	 0.252041222365395 
2219	 0.252009997430927 
2220	 0.251950483258883 
2221	 0.251897554754226 
2222	 0.251786046775052 
2223	 0.251625901437162 
2224	 0.251453372024411 
2225	 0.251285363997921 
2226	 0.251086445448577 
2227	 0.250882598179346 
2228	 0.250697571394725 
2229	 0.250469903541284 
2230	 0.250203364009642 
2231	 0.249920088053474 
2232	 0.24962314385799 
2233	 0.249307373280063 
2234	 0.248956732885829 
2235	 0.24859836736185 
2236	 0.248247434739342 
2237	 0.247850453981727 
2238	 0.247425790904163 
2239	 0.24696599794786 
2240	 0.246470172639581 
2241	 0.245944217863463 
2242	 0.24537503378369 
2243	 0.244792537616385 
2244	 0.244175754998246 
2245	 0.243549484030082 
2246	 0.242932005891122 
2247	 0.242274404032 
2248	 0.241587073069129 
2249	 0.240876470668441 
2250	 0.240145656729519 
2251	 0.239356194314606 
2252	 0.238617361316923 
2253	 0.237863576125999 
2254	 0.23716881425188 
2255	 0.236490080901172 
2256	 0.235867211353722 
2257	 0.235278685421707 
2258	 0.234757253059662 
2259	 0.234299670595721 
2260	 0.233870744607665 
2261	 0.233485098544071 
2262	 0.233163164464611 
2263	 0.232863647881815 
2264	 0.232651706147966 
2265	 0.232523769636085 
2266	 0.232456711200469 
2267	 0.232465807954587 
2268	 0.232529799662301 
2269	 0.232672336409515 
2270	 0.232850689560691 
2271	 0.23309802894738 
2272	 0.233397841085356 
2273	 0.233708241514785 
2274	 0.23404467806076 
2275	 0.234399718147942 
2276	 0.234768009767229 
2277	 0.235162162186261 
2278	 0.235590704684441 
2279	 0.236022618086407 
2280	 0.236468159954108 
2281	 0.236929070492453 
2282	 0.237417922336919 
2283	 0.237899459109706 
2284	 0.238404593887484 
2285	 0.23887359587926 
2286	 0.239358292692448 
2287	 0.239780778078162 
2288	 0.240133728885858 
2289	 0.240526284476123 
2290	 0.240905367483615 
2291	 0.241264262502611 
2292	 0.241672750601729 
2293	 0.241995455845359 
2294	 0.242243622643671 
2295	 0.242487194484162 
2296	 0.24269921074741 
2297	 0.242869522453218 
2298	 0.243026157679522 
2299	 0.243189162986991 
2300	 0.243354680183851 
2301	 0.243516920761732 
2302	 0.243661222159202 
2303	 0.243802149214437 
2304	 0.243952350981113 
2305	 0.244075305750304 
2306	 0.244182357752945 
2307	 0.244286361674918 
2308	 0.244388802300041 
2309	 0.244441533421434 
2310	 0.244560563911629 
2311	 0.244734452091032 
2312	 0.244860964669562 
2313	 0.245018217666989 
2314	 0.245104922646209 
2315	 0.245139728549532 
2316	 0.245176340236896 
2317	 0.245165906480148 
2318	 0.245173591333679 
2319	 0.245189068384895 
2320	 0.245176219066105 
2321	 0.245165157725752 
2322	 0.245108344629771 
2323	 0.245004219846788 
2324	 0.244917194020196 
2325	 0.24479675778986 
2326	 0.244707921913887 
2327	 0.24467373125336 
2328	 0.244548981740712 
2329	 0.244432343218239 
2330	 0.244335400216848 
2331	 0.244215841813009 
2332	 0.244121105295426 
2333	 0.243992751704421 
2334	 0.243814397396955 
2335	 0.243617194873547 
2336	 0.243378774313388 
2337	 0.243109823516513 
2338	 0.242851636807121 
2339	 0.242630871413855 
2340	 0.242430361860393 
2341	 0.242247935700285 
2342	 0.242037355598073 
2343	 0.24174073148973 
2344	 0.241408781591099 
2345	 0.241079222579078 
2346	 0.24072340450506 
2347	 0.240384454881883 
2348	 0.240055501052402 
2349	 0.239711780126788 
2350	 0.239396180589527 
2351	 0.239001796827175 
2352	 0.238517900246511 
2353	 0.238080818981062 
2354	 0.237601141868653 
2355	 0.237190471925147 
2356	 0.236895079652688 
2357	 0.236503211323544 
2358	 0.236074134864021 
2359	 0.235643005020297 
2360	 0.235141951648272 
2361	 0.234675858509424 
2362	 0.234276462197459 
2363	 0.233812501203765 
2364	 0.233287487155811 
2365	 0.232801258369912 
2366	 0.232322872179181 
2367	 0.231792837387711 
2368	 0.231252898487155 
2369	 0.230733526424577 
2370	 0.230190886453312 
2371	 0.229626844402092 
2372	 0.229102440015225 
2373	 0.228554003376683 
2374	 0.227936724452974 
2375	 0.227308993093439 
2376	 0.226658260255296 
2377	 0.226078629947594 
2378	 0.225607205295877 
2379	 0.225050300938977 
2380	 0.224437681927137 
2381	 0.223819769292902 
2382	 0.223114394642506 
2383	 0.222398010719298 
2384	 0.221775832517809 
2385	 0.221108722332869 
2386	 0.220398662808951 
2387	 0.219722685360292 
2388	 0.219038034180838 
2389	 0.2183775932946 
2390	 0.217670039746693 
2391	 0.217050183032888 
2392	 0.216468111766826 
2393	 0.215800269988088 
2394	 0.215278372939038 
2395	 0.214720597164183 
2396	 0.214017779675079 
2397	 0.213349164685259 
2398	 0.21266859866748 
2399	 0.211987373580272 
2400	 0.211347016146609 
2401	 0.210738021189039 
2402	 0.210107825537166 
2403	 0.209376038921075 
2404	 0.20866933444477 
2405	 0.208034268905825 
2406	 0.207387304664601 
2407	 0.206772927674957 
2408	 0.206173339578155 
2409	 0.205570296596984 
2410	 0.205012231590333 
2411	 0.20447542589711 
2412	 0.203944589841841 
2413	 0.203341165295077 
2414	 0.202654878756575 
2415	 0.202094518412903 
2416	 0.201556286299372 
2417	 0.201057837087366 
2418	 0.200546188389273 
2419	 0.200075861386559 
2420	 0.199579250455956 
2421	 0.199055477841281 
2422	 0.198554002322473 
2423	 0.198102989416417 
2424	 0.1975921330606 
2425	 0.197058518567275 
2426	 0.196496534419348 
2427	 0.19591900021433 
2428	 0.195307249926022 
2429	 0.194613795636585 
2430	 0.194002037199175 
2431	 0.193381010212827 
2432	 0.192831409368757 
2433	 0.192364786874556 
2434	 0.191868565522917 
2435	 0.191419317311701 
2436	 0.190917195842352 
2437	 0.190388375220588 
2438	 0.189875121008682 
2439	 0.189346222971515 
2440	 0.188801092472942 
2441	 0.188270565242511 
2442	 0.187708279924833 
2443	 0.187105349049992 
2444	 0.186535114290282 
2445	 0.185944429846926 
2446	 0.185391558121005 
2447	 0.184882609937315 
2448	 0.184393712816072 
2449	 0.183946378643346 
2450	 0.183395757980342 
2451	 0.182767590394474 
2452	 0.182194064597374 
2453	 0.181613553503017 
2454	 0.181160335749408 
2455	 0.180840916707041 
2456	 0.180409203236234 
2457	 0.179906539848838 
2458	 0.179449064428972 
2459	 0.178984016068617 
2460	 0.178540013292571 
2461	 0.178164420061655 
2462	 0.177817294490335 
2463	 0.177507154312255 
2464	 0.177083181186085 
2465	 0.176659327582448 
2466	 0.176196541996948 
2467	 0.175536418370324 
2468	 0.175080275868212 
2469	 0.174758323378984 
2470	 0.174512976035938 
2471	 0.174272913301735 
2472	 0.173991438630694 
2473	 0.173579395961015 
2474	 0.173013058207268 
2475	 0.172525886216463 
2476	 0.172178224497103 
2477	 0.171834930510237 
2478	 0.171529688740794 
2479	 0.171176104279321 
2480	 0.170776333448425 
2481	 0.170394610400951 
2482	 0.16987010500986 
2483	 0.16944844298315 
2484	 0.16910540086267 
2485	 0.168591839694695 
2486	 0.168284898983684 
2487	 0.168102331975881 
2488	 0.16778926525812 
2489	 0.167393500282306 
2490	 0.166859741893907 
2491	 0.166222862828053 
2492	 0.165749647268504 
2493	 0.165492623118464 
2494	 0.165374749810246 
2495	 0.165292072460267 
2496	 0.164872901409406 
2497	 0.164408571088903 
2498	 0.163885298492328 
2499	 0.163201817276892 
2500	 0.162732229310733 
