Wavelength	mm2000007.asd
350	 5.53693456628813E-02 
351	 6.02588503564225E-02 
352	 5.72332076362107E-02 
353	 4.56976689874343E-02 
354	 5.12304113055547E-02 
355	 5.40438602234836E-02 
356	 4.96654304835626E-02 
357	 4.17689826879992E-02 
358	 4.74711124026809E-02 
359	 4.96027219682843E-02 
360	 4.73972597951945E-02 
361	 5.04207423299267E-02 
362	 5.30924358001818E-02 
363	 0.05416676012521 
364	 0.052899331023002 
365	 4.77548290610899E-02 
366	 5.03172090032074E-02 
367	 5.41588254400735E-02 
368	 5.18530040104127E-02 
369	 5.33260130222869E-02 
370	 5.24928399440094E-02 
371	 0.050223387596222 
372	 0.051715847114571 
373	 5.10051392230056E-02 
374	 5.10974226006863E-02 
375	 5.38570546034903E-02 
376	 5.76728283554607E-02 
377	 0.055886197540088 
378	 5.33752516299564E-02 
379	 5.61000574432443E-02 
380	 5.87345972326316E-02 
381	 5.78758390225401E-02 
382	 5.57211996348803E-02 
383	 5.79068758225877E-02 
384	 5.87103955763189E-02 
385	 5.71959648296824E-02 
386	 5.53939756060423E-02 
387	 5.98850787849591E-02 
388	 6.15402148245244E-02 
389	 6.13461490960121E-02 
390	 6.26590132907529E-02 
391	 6.34621734418491E-02 
392	 6.35248794309221E-02 
393	 6.42029015219749E-02 
394	 6.77116602102423E-02 
395	 6.93225564715083E-02 
396	 7.06264875324997E-02 
397	 7.29413631394783E-02 
398	 7.49282802931211E-02 
399	 7.49440023658235E-02 
400	 7.55329591475027E-02 
401	 7.94534707532465E-02 
402	 8.15342788233198E-02 
403	 8.28051603045429E-02 
404	 8.39296019040801E-02 
405	 8.48378148866541E-02 
406	 0.08744823556513 
407	 9.01994538899853E-02 
408	 9.16366176046435E-02 
409	 9.23153053447214E-02 
410	 9.24261540856112E-02 
411	 9.25799574960497E-02 
412	 9.34611796215334E-02 
413	 9.51204312433564E-02 
414	 9.60290748792632E-02 
415	 9.61397520895467E-02 
416	 9.74295213088487E-02 
417	 0.097582842774194 
418	 9.73141445591936E-02 
419	 9.76551773077521E-02 
420	 9.82684364953482E-02 
421	 9.75735892344465E-02 
422	 9.64692191247695E-02 
423	 9.70949343155632E-02 
424	 9.65063619587838E-02 
425	 9.52995509529664E-02 
426	 9.42999498066836E-02 
427	 9.39579229983442E-02 
428	 9.30938600229881E-02 
429	 9.19717443311507E-02 
430	 0.09113680525712 
431	 0.089941214147232 
432	 8.88476804621521E-02 
433	 8.81031586986981E-02 
434	 8.76950311192227E-02 
435	 8.78345611626359E-02 
436	 8.78230729161261E-02 
437	 8.74037462498242E-02 
438	 8.78202039143332E-02 
439	 8.91209897754124E-02 
440	 9.06316718642831E-02 
441	 9.14892015672931E-02 
442	 9.26571083557015E-02 
443	 0.09417735799758 
444	 0.095853087704981 
445	 9.72800141055923E-02 
446	 9.88219418765732E-02 
447	 0.100375685213223 
448	 0.101797562127482 
449	 0.10335239264746 
450	 0.104928200396932 
451	 0.106487450039678 
452	 0.108071053932754 
453	 0.10969289927258 
454	 0.111124270445268 
455	 0.112315816089202 
456	 0.113757713611355 
457	 0.115052921655801 
458	 0.11608775361092 
459	 0.116956323026951 
460	 0.118275081155594 
461	 0.119407364563272 
462	 0.120170538965889 
463	 0.121164523476298 
464	 0.122175788330287 
465	 0.123023183889987 
466	 0.123660943736672 
467	 0.124598570772291 
468	 0.12524203709457 
469	 0.125601150527282 
470	 0.126187940519549 
471	 0.127149092045292 
472	 0.127798493658431 
473	 0.127878640742857 
474	 0.128440326939508 
475	 0.129132837638714 
476	 0.129720451407477 
477	 0.130083315252556 
478	 0.130715853412806 
479	 0.131394168015222 
480	 0.131932039761554 
481	 0.132278555650965 
482	 0.132921221685815 
483	 0.133668353841954 
484	 0.13419333402975 
485	 0.134470028659097 
486	 0.134773489433457 
487	 0.135270779644388 
488	 0.135998491841287 
489	 0.136539532922993 
490	 0.136993956229359 
491	 0.137481520668505 
492	 0.137930395236644 
493	 0.138251998157167 
494	 0.13860375488737 
495	 0.139209011908734 
496	 0.139829813826089 
497	 0.140306972902386 
498	 0.140664102206992 
499	 0.141177763783609 
500	 0.14164655239584 
501	 0.142041428722897 
502	 0.142403596874708 
503	 0.142838172110955 
504	 0.143365479473502 
505	 0.143906776653096 
506	 0.144309722837396 
507	 0.144723930140048 
508	 0.14514993366083 
509	 0.145574794061748 
510	 0.146041334524296 
511	 0.146410563512875 
512	 0.146795608557673 
513	 0.147381848856687 
514	 0.14768857855918 
515	 0.147965366658461 
516	 0.148394721504411 
517	 0.148925567354826 
518	 0.149269150350119 
519	 0.14954304229854 
520	 0.14995719484106 
521	 0.150399875850873 
522	 0.150852428433176 
523	 0.151296471302038 
524	 0.151710611368158 
525	 0.152086836231142 
526	 0.152484643686488 
527	 0.152915647803408 
528	 0.153191187745959 
529	 0.153449191438605 
530	 0.153783136580353 
531	 0.154233007960994 
532	 0.154593006324652 
533	 0.154953397566207 
534	 0.155401331565068 
535	 0.155959991355515 
536	 0.156298453772009 
537	 0.156557052453079 
538	 0.157016095647761 
539	 0.157476694841434 
540	 0.15784835306791 
541	 0.158168176059097 
542	 0.1586275559794 
543	 0.159022670644634 
544	 0.159417023101707 
545	 0.159885988193715 
546	 0.160254282346547 
547	 0.160597844370055 
548	 0.160983775670465 
549	 0.161459179689078 
550	 0.161957274981816 
551	 0.162437880013622 
552	 0.162906052212091 
553	 0.163486270299388 
554	 0.163930029096489 
555	 0.164323281307948 
556	 0.164899872730582 
557	 0.165485556967258 
558	 0.166027841742061 
559	 0.166577645459073 
560	 0.167363227697196 
561	 0.167946954144111 
562	 0.168441929279772 
563	 0.169106435161729 
564	 0.169849721923026 
565	 0.170487973673374 
566	 0.170996700360672 
567	 0.171534140609968 
568	 0.172118586851297 
569	 0.17281210897578 
570	 0.173653274439588 
571	 0.174623491223818 
572	 0.17549518318767 
573	 0.176265167149206 
574	 0.177086545538799 
575	 0.177858275890977 
576	 0.178699705276685 
577	 0.179671425091489 
578	 0.180647995463072 
579	 0.181603882561743 
580	 0.182495420783085 
581	 0.183286812617933 
582	 0.183978378413327 
583	 0.18473029852007 
584	 0.185610348579179 
585	 0.186541629335109 
586	 0.187642452388392 
587	 0.188814566977758 
588	 0.189935346808022 
589	 0.191084171729058 
590	 0.192239348027559 
591	 0.193343716162661 
592	 0.194324167555907 
593	 0.195339588060862 
594	 0.196271360025192 
595	 0.197041266353983 
596	 0.197823388903363 
597	 0.198549601585707 
598	 0.199298711600269 
599	 0.200205642225236 
600	 0.201142877155431 
601	 0.202070912782823 
602	 0.202969890312448 
603	 0.203838243459578 
604	 0.204681006949841 
605	 0.205531308908816 
606	 0.206422762974253 
607	 0.207346277982084 
608	 0.208181625161121 
609	 0.208908820295441 
610	 0.209628681692589 
611	 0.210286311187728 
612	 0.21088679540717 
613	 0.211433783876111 
614	 0.211879088970239 
615	 0.212320202134236 
616	 0.212782112948757 
617	 0.213234454782317 
618	 0.213691191948489 
619	 0.214100274823317 
620	 0.214450414749205 
621	 0.214836488311786 
622	 0.215188322680624 
623	 0.215510855461789 
624	 0.215833926903098 
625	 0.216140859459955 
626	 0.216427736669393 
627	 0.216710196598139 
628	 0.217028054894861 
629	 0.217297301634386 
630	 0.217545530893548 
631	 0.217804813311293 
632	 0.217984467890451 
633	 0.21819852036718 
634	 0.218477946457307 
635	 0.218774245621593 
636	 0.218963926749849 
637	 0.219156931968974 
638	 0.219423800385369 
639	 0.219630482977743 
640	 0.219868707781027 
641	 0.220132286982725 
642	 0.220377239417134 
643	 0.220636548842102 
644	 0.220905679475391 
645	 0.221167829236487 
646	 0.221394148275294 
647	 0.221556708887436 
648	 0.221759603457486 
649	 0.222090993198608 
650	 0.222412236176374 
651	 0.222686843786101 
652	 0.222930557485946 
653	 0.223204190226962 
654	 0.223557356021603 
655	 0.223907125548612 
656	 0.224204156499893 
657	 0.224541145314706 
658	 0.224916338489017 
659	 0.225292171033067 
660	 0.225619684598204 
661	 0.225923620805907 
662	 0.226294780270808 
663	 0.226729832555895 
664	 0.227080827175913 
665	 0.227494276049025 
666	 0.227904999939987 
667	 0.2282472231248 
668	 0.228708938330528 
669	 0.229180102148646 
670	 0.229633612902587 
671	 0.230114479369016 
672	 0.230579082412611 
673	 0.231064257044994 
674	 0.231583915417089 
675	 0.232066314924308 
676	 0.23253147936023 
677	 0.233035243836085 
678	 0.233623989901393 
679	 0.234149682747984 
680	 0.234694534950954 
681	 0.235275235286393 
682	 0.2357975133117 
683	 0.236370049307844 
684	 0.236993367220017 
685	 0.237630759340258 
686	 0.238226051660699 
687	 0.238835578215517 
688	 0.2394638064706 
689	 0.240077812850003 
690	 0.240683645998655 
691	 0.241338775419283 
692	 0.242049415922123 
693	 0.242709705996846 
694	 0.243344624820563 
695	 0.244018037535859 
696	 0.244765271217895 
697	 0.24536054271346 
698	 0.246018951412414 
699	 0.246769258246455 
700	 0.24742442687951 
701	 0.248161640976673 
702	 0.24887110930927 
703	 0.249481216168593 
704	 0.25020416950828 
705	 0.250858929358716 
706	 0.251481572865139 
707	 0.25220229765855 
708	 0.252927259580169 
709	 0.253633005253483 
710	 0.254316328674206 
711	 0.254995675430062 
712	 0.255616521747512 
713	 0.256199090874679 
714	 0.25679948065338 
715	 0.257534719886974 
716	 0.258135890576836 
717	 0.258641408104885 
718	 0.259296654456531 
719	 0.259893895839044 
720	 0.260425333738899 
721	 0.260912909778261 
722	 0.261372888354159 
723	 0.261913669082134 
724	 0.262400879497974 
725	 0.262699647395586 
726	 0.263121618047739 
727	 0.263536990390039 
728	 0.26389333508662 
729	 0.264225961959964 
730	 0.264437197467281 
731	 0.264648492137241 
732	 0.264926787670856 
733	 0.265110866725019 
734	 0.265336249780407 
735	 0.265493901291827 
736	 0.265441523980248 
737	 0.26546976969826 
738	 0.265527062508003 
739	 0.265546832974875 
740	 0.265478647991541 
741	 0.265407046913856 
742	 0.265278365522302 
743	 0.265067204108538 
744	 0.264913045373321 
745	 0.264667943147436 
746	 0.264352511951461 
747	 0.264057709044249 
748	 0.263744335988903 
749	 0.263411036317704 
750	 0.263056142346892 
751	 0.262673580219821 
752	 0.262174894906403 
753	 0.261617596001968 
754	 0.261073949529901 
755	 0.260549672483963 
756	 0.260039192950436 
757	 0.259497665604925 
758	 0.258877920817894 
759	 0.258267035014535 
760	 0.257637119597751 
761	 0.256963957409346 
762	 0.256243013961468 
763	 0.255567253644455 
764	 0.254858142851646 
765	 0.254063221102197 
766	 0.25332116673416 
767	 0.252626783622624 
768	 0.251909221113903 
769	 0.251089740263242 
770	 0.250302955343975 
771	 0.249539868400845 
772	 0.248749632482505 
773	 0.247854246125687 
774	 0.24702869841203 
775	 0.246237973182003 
776	 0.245422348209666 
777	 0.244596696306945 
778	 0.243742296412295 
779	 0.242914170003403 
780	 0.24216276348097 
781	 0.241290090881601 
782	 0.240418246539892 
783	 0.239607790047156 
784	 0.238826113033293 
785	 0.237994947422479 
786	 0.237141908812671 
787	 0.236307507828666 
788	 0.235507115856597 
789	 0.234720215138415 
790	 0.233917758490674 
791	 0.233089710907032 
792	 0.232339800442387 
793	 0.231520991261736 
794	 0.230663111543789 
795	 0.229938741932511 
796	 0.229136677383265 
797	 0.228363574840598 
798	 0.227674405386094 
799	 0.226943270095375 
800	 0.226190822889213 
801	 0.225427416043619 
802	 0.224674111953978 
803	 0.223989964418496 
804	 0.223329366628173 
805	 0.222642334664616 
806	 0.221896606505023 
807	 0.221188913947673 
808	 0.220545288552193 
809	 0.219921765045892 
810	 0.219200401995045 
811	 0.218521345683735 
812	 0.217863575000549 
813	 0.217205637403944 
814	 0.216630756447454 
815	 0.216080462266119 
816	 0.215491087068864 
817	 0.214831119070946 
818	 0.214230127755771 
819	 0.213706547468219 
820	 0.213187210006031 
821	 0.212553308424575 
822	 0.212040649224133 
823	 0.2114850565397 
824	 0.210841392170055 
825	 0.210352030513778 
826	 0.209908422232393 
827	 0.209412333518615 
828	 0.208836569544944 
829	 0.208376212521469 
830	 0.207847756264242 
831	 0.207317440191517 
832	 0.206933563580189 
833	 0.20654941827476 
834	 0.206135209754453 
835	 0.205690699456885 
836	 0.205241517207693 
837	 0.204858244769553 
838	 0.204504577886988 
839	 0.204130859199062 
840	 0.203698759635869 
841	 0.203264450225672 
842	 0.202893431491305 
843	 0.202603209094333 
844	 0.202273210273295 
845	 0.201901824363454 
846	 0.201534396232577 
847	 0.201235864195374 
848	 0.201036491741109 
849	 0.200756027809796 
850	 0.200373288592355 
851	 0.20001244047657 
852	 0.199663483755102 
853	 0.199427101217246 
854	 0.199296320847825 
855	 0.199098235044297 
856	 0.198814958666225 
857	 0.198510861943419 
858	 0.198260753318156 
859	 0.198104042411752 
860	 0.197958900334657 
861	 0.197774995162096 
862	 0.197534262881781 
863	 0.197279863029791 
864	 0.197099475044717 
865	 0.196973231128243 
866	 0.196825055744671 
867	 0.196722388076057 
868	 0.196570853350443 
869	 0.196375013332476 
870	 0.196246087440582 
871	 0.196142059209476 
872	 0.196054112707046 
873	 0.1959755148588 
874	 0.195897545628734 
875	 0.195825357892574 
876	 0.195724141460791 
877	 0.19560044045732 
878	 0.195592603152192 
879	 0.195592378756119 
880	 0.195569884479656 
881	 0.195532870970933 
882	 0.195517368607546 
883	 0.195529572042164 
884	 0.195510026977786 
885	 0.195411237791376 
886	 0.195471497984125 
887	 0.195586024562761 
888	 0.195654733559495 
889	 0.195629150049209 
890	 0.195661564748249 
891	 0.195720039282336 
892	 0.195788298599725 
893	 0.195897240064261 
894	 0.195993383060919 
895	 0.196060900251057 
896	 0.196130157411794 
897	 0.196294835619821 
898	 0.196449111757173 
899	 0.196606334178133 
900	 0.196770282265251 
901	 0.196824568983086 
902	 0.196954937022389 
903	 0.197157764510099 
904	 0.197359445956057 
905	 0.197502754159059 
906	 0.197690419950823 
907	 0.197950243837857 
908	 0.198258695665116 
909	 0.198580276486106 
910	 0.19877371572322 
911	 0.198901275921179 
912	 0.199132867842367 
913	 0.199335527228984 
914	 0.199688662131342 
915	 0.200122903226332 
916	 0.200366240421232 
917	 0.200588799383087 
918	 0.200878861098569 
919	 0.201243475532472 
920	 0.20160598589114 
921	 0.201944914903963 
922	 0.202280875530365 
923	 0.202643854306565 
924	 0.203059516965007 
925	 0.203443316125698 
926	 0.203796471647448 
927	 0.204161467642165 
928	 0.204611709585345 
929	 0.205117851518514 
930	 0.205630533409826 
931	 0.20608676685482 
932	 0.2064024326408 
933	 0.206895644658633 
934	 0.207490665235317 
935	 0.208046480806322 
936	 0.208614982307706 
937	 0.209146856065206 
938	 0.209655625030641 
939	 0.210189141114998 
940	 0.210833327324168 
941	 0.211411008975131 
942	 0.211986724973558 
943	 0.212652121328483 
944	 0.213190362648046 
945	 0.213744168032661 
946	 0.21433404233775 
947	 0.214946031849808 
948	 0.215705687521621 
949	 0.216424227749895 
950	 0.217037462706974 
951	 0.217618392233495 
952	 0.218490780058804 
953	 0.219231028266604 
954	 0.21986492152393 
955	 0.220665064586956 
956	 0.221627929969382 
957	 0.222382842846909 
958	 0.222973797381892 
959	 0.223688570073757 
960	 0.224505100651302 
961	 0.225316570420256 
962	 0.226134644310581 
963	 0.227023498169737 
964	 0.227847244234467 
965	 0.22872275223926 
966	 0.22962510839232 
967	 0.230455759032173 
968	 0.231351468296537 
969	 0.232187870872388 
970	 0.233041552051068 
971	 0.234079970223129 
972	 0.235131945961338 
973	 0.236045415433026 
974	 0.236912067346622 
975	 0.237934376804277 
976	 0.238948841288418 
977	 0.239861083453504 
978	 0.240791218531058 
979	 0.241927802202471 
980	 0.243058648517188 
981	 0.244033588687218 
982	 0.244945696942972 
983	 0.245991034322343 
984	 0.247043164534202 
985	 0.248114086031479 
986	 0.24915809046627 
987	 0.250141510636292 
988	 0.251269075499022 
989	 0.252269179163366 
990	 0.253239806827867 
991	 0.254408668239576 
992	 0.255605337999981 
993	 0.256718722211185 
994	 0.25776656078927 
995	 0.258816114624442 
996	 0.259843093318282 
997	 0.260966974015572 
998	 0.2621667637793 
999	 0.263352807091366 
1000	 0.264433395810268 
1001	 0.259002134048744 
1002	 0.260025715027582 
1003	 0.261074149224007 
1004	 0.262089371347352 
1005	 0.263078622135348 
1006	 0.264100784446193 
1007	 0.265147623326986 
1008	 0.266150065042447 
1009	 0.267143838730629 
1010	 0.268094356398327 
1011	 0.269023779198315 
1012	 0.269941346763761 
1013	 0.270873298487866 
1014	 0.271900611214033 
1015	 0.272892866934233 
1016	 0.273858487838578 
1017	 0.274829197616269 
1018	 0.275799297255716 
1019	 0.276677035439485 
1020	 0.277600838413474 
1021	 0.278541695697613 
1022	 0.279417834514089 
1023	 0.280311836951332 
1024	 0.281222107539915 
1025	 0.282137784462183 
1026	 0.283066056710413 
1027	 0.283978166113435 
1028	 0.284873370613146 
1029	 0.285729151958971 
1030	 0.286557801254543 
1031	 0.287415386805046 
1032	 0.288293761830705 
1033	 0.289142218593767 
1034	 0.28995640168224 
1035	 0.290776813756565 
1036	 0.291581278003824 
1037	 0.29240521621762 
1038	 0.293292092593818 
1039	 0.294215350206986 
1040	 0.29509361204027 
1041	 0.295967144759932 
1042	 0.296822668181835 
1043	 0.297577859703616 
1044	 0.298369070758716 
1045	 0.299155767367148 
1046	 0.299947055452854 
1047	 0.300742329192022 
1048	 0.301603023732385 
1049	 0.302405867920983 
1050	 0.303212684745672 
1051	 0.304028184351325 
1052	 0.304779844892419 
1053	 0.305570641249709 
1054	 0.306366631512661 
1055	 0.307148285276726 
1056	 0.307969359388652 
1057	 0.308775911106143 
1058	 0.309606617495483 
1059	 0.310402206414304 
1060	 0.311177887475507 
1061	 0.31193285970957 
1062	 0.312694864172758 
1063	 0.313442439517361 
1064	 0.314146304747777 
1065	 0.314839237022144 
1066	 0.315556880206381 
1067	 0.316284899336015 
1068	 0.317011805655757 
1069	 0.317744939059884 
1070	 0.318466967777223 
1071	 0.319141278924894 
1072	 0.319858947679263 
1073	 0.320640388350739 
1074	 0.32135604650616 
1075	 0.322054014224754 
1076	 0.322724033812914 
1077	 0.323382973426306 
1078	 0.323988531979876 
1079	 0.324635160874218 
1080	 0.325291104437803 
1081	 0.325919547757282 
1082	 0.326562015087417 
1083	 0.327196122267199 
1084	 0.327808885103447 
1085	 0.328447076421071 
1086	 0.329087109026626 
1087	 0.329745048505875 
1088	 0.330411621851194 
1089	 0.33111234018955 
1090	 0.33178090739888 
1091	 0.332380978287193 
1092	 0.332972699038916 
1093	 0.333541917500668 
1094	 0.334151688027741 
1095	 0.334795159167428 
1096	 0.335378226569626 
1097	 0.335975079311943 
1098	 0.336590049893412 
1099	 0.337197238948783 
1100	 0.337804863958858 
1101	 0.33845732911203 
1102	 0.339064947712826 
1103	 0.339653886084047 
1104	 0.34020892109159 
1105	 0.340755513621507 
1106	 0.341331734247255 
1107	 0.341917514190785 
1108	 0.34252003100263 
1109	 0.343138443344618 
1110	 0.343740900924417 
1111	 0.344327938026725 
1112	 0.344903197166749 
1113	 0.345464077459037 
1114	 0.345977088712291 
1115	 0.346555566721964 
1116	 0.347146385545763 
1117	 0.3477476879668 
1118	 0.348400273430082 
1119	 0.349040915484741 
1120	 0.34962257250446 
1121	 0.35020202456889 
1122	 0.350744646549937 
1123	 0.351284802035396 
1124	 0.351853376161525 
1125	 0.352440253250127 
1126	 0.353007693036533 
1127	 0.353586866282109 
1128	 0.354146645128933 
1129	 0.354682960042096 
1130	 0.355232732203516 
1131	 0.355782709936862 
1132	 0.356333820385248 
1133	 0.356896777110925 
1134	 0.357443568820918 
1135	 0.357982702436353 
1136	 0.358517420276905 
1137	 0.359053684152619 
1138	 0.359556798728511 
1139	 0.360070693457552 
1140	 0.36058537807053 
1141	 0.361094576099194 
1142	 0.361598674743402 
1143	 0.362098264917449 
1144	 0.362598129650817 
1145	 0.363077431411705 
1146	 0.363540684289053 
1147	 0.364014840297981 
1148	 0.364472067206661 
1149	 0.364943402586077 
1150	 0.36543384657019 
1151	 0.365915628879758 
1152	 0.366374273544646 
1153	 0.366849479698732 
1154	 0.367329231318936 
1155	 0.3678061658351 
1156	 0.36828631279171 
1157	 0.368782220030655 
1158	 0.369265645382494 
1159	 0.369757928345731 
1160	 0.370222353482683 
1161	 0.370658542228769 
1162	 0.371117254292278 
1163	 0.371570801555997 
1164	 0.372021545922428 
1165	 0.372471254245836 
1166	 0.372954961386233 
1167	 0.373416063828664 
1168	 0.373855048293168 
1169	 0.374309633433049 
1170	 0.374776789567534 
1171	 0.375230138680758 
1172	 0.37568698268209 
1173	 0.376122222730905 
1174	 0.376534802181642 
1175	 0.376965578110625 
1176	 0.377391549187046 
1177	 0.377818077338465 
1178	 0.378255908985313 
1179	 0.378693182690728 
1180	 0.379134543746097 
1181	 0.37956053031147 
1182	 0.379988195929702 
1183	 0.380403956273147 
1184	 0.380819545584553 
1185	 0.381217005836991 
1186	 0.381627594031439 
1187	 0.382047598313642 
1188	 0.382460435877762 
1189	 0.382870221348515 
1190	 0.383277925934609 
1191	 0.383690721756348 
1192	 0.384090723781325 
1193	 0.384475065018296 
1194	 0.3848717036284 
1195	 0.385275087915791 
1196	 0.385666597252753 
1197	 0.386058839952103 
1198	 0.386447703164584 
1199	 0.386830919414129 
1200	 0.387201499026384 
1201	 0.387574782762722 
1202	 0.387949151906766 
1203	 0.388322213844724 
1204	 0.388681319015415 
1205	 0.389061793345762 
1206	 0.38946003366704 
1207	 0.389844998070024 
1208	 0.39025023257978 
1209	 0.390621146673449 
1210	 0.390977603156704 
1211	 0.391317238189553 
1212	 0.39160244425949 
1213	 0.391932205763803 
1214	 0.392280101601856 
1215	 0.392619305856131 
1216	 0.392965433787105 
1217	 0.393349503739486 
1218	 0.393680464879005 
1219	 0.393975208099234 
1220	 0.394295358573816 
1221	 0.394598138576598 
1222	 0.394931099954371 
1223	 0.395298594879455 
1224	 0.395636991540258 
1225	 0.395995931765415 
1226	 0.396311894084633 
1227	 0.39657695426664 
1228	 0.396870915202175 
1229	 0.397148135732115 
1230	 0.39744205384933 
1231	 0.397769140819316 
1232	 0.398079800039533 
1233	 0.398386571349961 
1234	 0.398687019013396 
1235	 0.398997741671614 
1236	 0.39930622876562 
1237	 0.399619836178289 
1238	 0.399949899293783 
1239	 0.400260207215369 
1240	 0.400563879895106 
1241	 0.400864515575959 
1242	 0.401147907756196 
1243	 0.401447846387863 
1244	 0.401765274696871 
1245	 0.402061235496166 
1246	 0.402357742224709 
1247	 0.402645406600728 
1248	 0.402912119764268 
1249	 0.403178945051616 
1250	 0.403459086322724 
1251	 0.403742585684455 
1252	 0.404001942842086 
1253	 0.404253931891824 
1254	 0.404497534972586 
1255	 0.404715032796405 
1256	 0.404950911156185 
1257	 0.405198258501905 
1258	 0.405430782552552 
1259	 0.405650501645201 
1260	 0.405886485033779 
1261	 0.406125947373124 
1262	 0.406358535190621 
1263	 0.406601807775437 
1264	 0.406840624375838 
1265	 0.407066534108211 
1266	 0.407298957583145 
1267	 0.407541440972803 
1268	 0.407769954954498 
1269	 0.408019127770845 
1270	 0.408270052036814 
1271	 0.408525947954931 
1272	 0.408803114999615 
1273	 0.409064444603873 
1274	 0.409313511826396 
1275	 0.409576110674988 
1276	 0.40984408020602 
1277	 0.410108303438961 
1278	 0.410376209501045 
1279	 0.410644359926916 
1280	 0.410911854519335 
1281	 0.411175486561434 
1282	 0.411451220716184 
1283	 0.411705885787006 
1284	 0.41194558591557 
1285	 0.41217930339368 
1286	 0.412408298026924 
1287	 0.41263693274347 
1288	 0.412876724775685 
1289	 0.413136161636748 
1290	 0.413367505722512 
1291	 0.413595440664547 
1292	 0.413807375703817 
1293	 0.414000965108305 
1294	 0.414188492265841 
1295	 0.414370408179903 
1296	 0.414540264223322 
1297	 0.414710572204692 
1298	 0.414845465214694 
1299	 0.414947138796206 
1300	 0.415053793094218 
1301	 0.415130103698403 
1302	 0.415217807613294 
1303	 0.415312661824735 
1304	 0.415411743010047 
1305	 0.415489347808695 
1306	 0.415556294077509 
1307	 0.415591636169303 
1308	 0.415628208351066 
1309	 0.415683053919737 
1310	 0.415741626772867 
1311	 0.415789355901617 
1312	 0.415856468906911 
1313	 0.415897056894878 
1314	 0.415922132749529 
1315	 0.415933013726377 
1316	 0.415927751615507 
1317	 0.41592322758267 
1318	 0.415894874307814 
1319	 0.415881624807474 
1320	 0.415889710203015 
1321	 0.415875899083851 
1322	 0.415864257787712 
1323	 0.415825171956902 
1324	 0.415760429293301 
1325	 0.415706825890988 
1326	 0.41568834631341 
1327	 0.415672664333482 
1328	 0.415664710453771 
1329	 0.415658860387858 
1330	 0.415609026317555 
1331	 0.415519341583006 
1332	 0.41543698259899 
1333	 0.41533016654071 
1334	 0.415235504776822 
1335	 0.415128483075864 
1336	 0.415048757633572 
1337	 0.414993174050544 
1338	 0.41491848390659 
1339	 0.414860654350803 
1340	 0.414775496843485 
1341	 0.414666317123028 
1342	 0.414558055699054 
1343	 0.414433968320037 
1344	 0.414318982366979 
1345	 0.414213773087451 
1346	 0.414104493354003 
1347	 0.414001975770053 
1348	 0.41388897810128 
1349	 0.413762761285899 
1350	 0.413638326241656 
1351	 0.413515437293995 
1352	 0.413401679047769 
1353	 0.413269573990202 
1354	 0.413131298561213 
1355	 0.412983045162928 
1356	 0.412814622060869 
1357	 0.412657008423718 
1358	 0.412482758140901 
1359	 0.412340532020168 
1360	 0.412213313122827 
1361	 0.4120915122231 
1362	 0.412026771549955 
1363	 0.411902976390903 
1364	 0.411741622030736 
1365	 0.41159150790352 
1366	 0.411422853177836 
1367	 0.411234540285122 
1368	 0.411094692613241 
1369	 0.410963393374105 
1370	 0.410767331123363 
1371	 0.410546031210765 
1372	 0.410292339835202 
1373	 0.409988545764925 
1374	 0.409669728019614 
1375	 0.409352229463017 
1376	 0.408959728593603 
1377	 0.40853197689187 
1378	 0.408029788691138 
1379	 0.407466073611606 
1380	 0.406853266626017 
1381	 0.406170637625382 
1382	 0.405456085858595 
1383	 0.404716713723627 
1384	 0.403901340295156 
1385	 0.403062816627918 
1386	 0.402123347968735 
1387	 0.40109623472162 
1388	 0.400014833131775 
1389	 0.398872187648424 
1390	 0.397638405439905 
1391	 0.396350239029404 
1392	 0.394987923752703 
1393	 0.393505920189581 
1394	 0.391963298892549 
1395	 0.390366411179668 
1396	 0.388730861800565 
1397	 0.387098402503463 
1398	 0.385449128610625 
1399	 0.383776976388871 
1400	 0.382073136930881 
1401	 0.380388365774338 
1402	 0.378675988790776 
1403	 0.377013464816737 
1404	 0.375363549487364 
1405	 0.373758236239243 
1406	 0.37218622694527 
1407	 0.370624076142017 
1408	 0.369056830463685 
1409	 0.367575891333158 
1410	 0.366083428633175 
1411	 0.364737919614094 
1412	 0.363478008605209 
1413	 0.362325129582353 
1414	 0.361344521899164 
1415	 0.360469781710744 
1416	 0.359701304705764 
1417	 0.359038681123316 
1418	 0.358390566050789 
1419	 0.357785652775253 
1420	 0.357254657711852 
1421	 0.356731262837764 
1422	 0.356205885885016 
1423	 0.355674298457357 
1424	 0.355089239089622 
1425	 0.35442885027377 
1426	 0.353841844310874 
1427	 0.353232819489178 
1428	 0.352686500188566 
1429	 0.352194738689075 
1430	 0.35171807029253 
1431	 0.351274058171202 
1432	 0.35083047079583 
1433	 0.350411037985297 
1434	 0.349998685249339 
1435	 0.349567630154951 
1436	 0.34920070953673 
1437	 0.348876489888865 
1438	 0.348561038086415 
1439	 0.348296199040707 
1440	 0.34802307446626 
1441	 0.347716497780762 
1442	 0.347431503735129 
1443	 0.347142527440515 
1444	 0.346845617240272 
1445	 0.346590437602333 
1446	 0.346345777707884 
1447	 0.346072960457658 
1448	 0.345793394902606 
1449	 0.345470198857691 
1450	 0.345115683508482 
1451	 0.344780256436473 
1452	 0.344446101238135 
1453	 0.344089893550353 
1454	 0.343733868635627 
1455	 0.343359424351372 
1456	 0.342961525882621 
1457	 0.342557531840592 
1458	 0.342137167432171 
1459	 0.341725884706907 
1460	 0.34128553146636 
1461	 0.340888428339232 
1462	 0.340497428143594 
1463	 0.340153680209463 
1464	 0.339840803539371 
1465	 0.339554028702773 
1466	 0.33928668477856 
1467	 0.339077481296635 
1468	 0.338869613939247 
1469	 0.338767403659164 
1470	 0.338742087576304 
1471	 0.338783119581656 
1472	 0.338906905084522 
1473	 0.339105901415616 
1474	 0.339349248110186 
1475	 0.339658640639347 
1476	 0.340035726759197 
1477	 0.340466392900953 
1478	 0.340953238325228 
1479	 0.341482043274114 
1480	 0.342053782958519 
1481	 0.342648364160152 
1482	 0.34324403567578 
1483	 0.343880765576667 
1484	 0.344484197056058 
1485	 0.345074037299636 
1486	 0.345669756951484 
1487	 0.346271367096892 
1488	 0.346848791431889 
1489	 0.347424954204985 
1490	 0.347981200985751 
1491	 0.348531845558193 
1492	 0.349037420048951 
1493	 0.349511560257394 
1494	 0.349972225011468 
1495	 0.350380747265279 
1496	 0.350808412972083 
1497	 0.351257337050315 
1498	 0.351664889504095 
1499	 0.352061556885305 
1500	 0.352430595752531 
1501	 0.352747307962364 
1502	 0.353077339598234 
1503	 0.353404590565402 
1504	 0.353706362640075 
1505	 0.354030190410682 
1506	 0.354364696146085 
1507	 0.354680690552487 
1508	 0.354986461175148 
1509	 0.355257800859412 
1510	 0.35552064953438 
1511	 0.355779113745064 
1512	 0.356043588955204 
1513	 0.35632409876054 
1514	 0.356593542479539 
1515	 0.356865155385165 
1516	 0.35714845745637 
1517	 0.357417450652352 
1518	 0.357679927328545 
1519	 0.357943029991096 
1520	 0.358204707122113 
1521	 0.358454807359535 
1522	 0.3586959941947 
1523	 0.358946609114399 
1524	 0.359190103657268 
1525	 0.359442609960414 
1526	 0.359721925208926 
1527	 0.359961109078393 
1528	 0.360175647672667 
1529	 0.360395893780317 
1530	 0.360596870747872 
1531	 0.360809876533331 
1532	 0.361036087373805 
1533	 0.361249907641344 
1534	 0.36145383524757 
1535	 0.361660450772938 
1536	 0.361870592106967 
1537	 0.362070016399745 
1538	 0.362258917677494 
1539	 0.362452264019285 
1540	 0.362631653363308 
1541	 0.362831328412534 
1542	 0.363052993930947 
1543	 0.363260849359275 
1544	 0.363487247833481 
1545	 0.363683861754462 
1546	 0.363853729786674 
1547	 0.364028706544398 
1548	 0.364187152148559 
1549	 0.364315092676777 
1550	 0.364466281440531 
1551	 0.364625469480161 
1552	 0.364779954930509 
1553	 0.364958006966234 
1554	 0.365141544757346 
1555	 0.365315718713566 
1556	 0.365496364910864 
1557	 0.365680853156427 
1558	 0.365872253375688 
1559	 0.366059032880512 
1560	 0.366248931057179 
1561	 0.366460966443284 
1562	 0.366629957089037 
1563	 0.366775673754587 
1564	 0.366928540110603 
1565	 0.36706606157183 
1566	 0.367197562140166 
1567	 0.367331351212027 
1568	 0.367455020140195 
1569	 0.367553480070163 
1570	 0.367669952582456 
1571	 0.367803512528243 
1572	 0.367914521755158 
1573	 0.36801091736835 
1574	 0.368120961989295 
1575	 0.368223667840521 
1576	 0.368334629912405 
1577	 0.368464580185835 
1578	 0.368576859492234 
1579	 0.368663642315652 
1580	 0.368784899978752 
1581	 0.368923168199517 
1582	 0.369057686210696 
1583	 0.369235982345514 
1584	 0.369358717581603 
1585	 0.369445560665655 
1586	 0.369531910583947 
1587	 0.369599451139786 
1588	 0.36965494891141 
1589	 0.369690837255572 
1590	 0.369739039692144 
1591	 0.369769706861523 
1592	 0.369815413630006 
1593	 0.3698844792436 
1594	 0.369941433226019 
1595	 0.369993986935225 
1596	 0.370045901795058 
1597	 0.370101361912623 
1598	 0.370147128824015 
1599	 0.37019511256377 
1600	 0.370226274520106 
1601	 0.370223389606735 
1602	 0.370248890123143 
1603	 0.370267261575038 
1604	 0.370307307614036 
1605	 0.370381860098141 
1606	 0.370451211518383 
1607	 0.370527990997176 
1608	 0.37061194547644 
1609	 0.370698805066662 
1610	 0.370758126160596 
1611	 0.37077364337507 
1612	 0.370782195625555 
1613	 0.370739766060804 
1614	 0.370697699129278 
1615	 0.37067689129302 
1616	 0.370650135947722 
1617	 0.370646589698455 
1618	 0.370651177472169 
1619	 0.370681538719661 
1620	 0.370707967428441 
1621	 0.370724544285725 
1622	 0.370760485322058 
1623	 0.370748605605452 
1624	 0.370697134482239 
1625	 0.370676626049226 
1626	 0.370647589101919 
1627	 0.37062030613242 
1628	 0.370599108603344 
1629	 0.370595326625336 
1630	 0.370592248631745 
1631	 0.370588027961267 
1632	 0.370610208396857 
1633	 0.370603120233399 
1634	 0.370577118539233 
1635	 0.37054999945523 
1636	 0.370525689714361 
1637	 0.370476472472096 
1638	 0.370397555920465 
1639	 0.370342320109338 
1640	 0.370275891357657 
1641	 0.370236253485927 
1642	 0.370217852695654 
1643	 0.370197761491644 
1644	 0.370194001992708 
1645	 0.370172775636222 
1646	 0.370149762302934 
1647	 0.370123846610412 
1648	 0.370106883895856 
1649	 0.370044496966118 
1650	 0.369963532050029 
1651	 0.369871850816354 
1652	 0.369718864223495 
1653	 0.369629923203136 
1654	 0.369565576221582 
1655	 0.369504989040358 
1656	 0.369486637879056 
1657	 0.369421827412149 
1658	 0.369359915916864 
1659	 0.369249188676518 
1660	 0.369081305039951 
1661	 0.368948438469627 
1662	 0.368779223480209 
1663	 0.368667637531241 
1664	 0.368606841728633 
1665	 0.368521305273292 
1666	 0.368448854773883 
1667	 0.368372805885141 
1668	 0.368297642585156 
1669	 0.368205979281205 
1670	 0.368122830748296 
1671	 0.368011242040705 
1672	 0.367854368647237 
1673	 0.367735439935215 
1674	 0.367628662821878 
1675	 0.367509383830825 
1676	 0.367394339592896 
1677	 0.367287027462343 
1678	 0.367164459286944 
1679	 0.367063932320234 
1680	 0.367000140610578 
1681	 0.366904129078835 
1682	 0.366785588642199 
1683	 0.366695232217791 
1684	 0.366604839672445 
1685	 0.366524252018233 
1686	 0.366485055576984 
1687	 0.366399171608557 
1688	 0.366302490942543 
1689	 0.366176801436986 
1690	 0.366009310547235 
1691	 0.365858970173815 
1692	 0.365679232738626 
1693	 0.365540693082206 
1694	 0.365447034841211 
1695	 0.365305153335798 
1696	 0.36514293653504 
1697	 0.365012696079227 
1698	 0.364871645035033 
1699	 0.364736111239732 
1700	 0.364650179988399 
1701	 0.364513267244266 
1702	 0.364329990665535 
1703	 0.364170825938167 
1704	 0.364009170183021 
1705	 0.363850973788587 
1706	 0.363701752867337 
1707	 0.363540631244637 
1708	 0.363375573199565 
1709	 0.363207591086643 
1710	 0.363037716003221 
1711	 0.362855255046829 
1712	 0.362681227328617 
1713	 0.362465884739427 
1714	 0.36219917824026 
1715	 0.361981206706531 
1716	 0.361761653818576 
1717	 0.361544922675954 
1718	 0.361367011171169 
1719	 0.361154874432153 
1720	 0.360902218843974 
1721	 0.360690581907878 
1722	 0.360490581809221 
1723	 0.360301134080811 
1724	 0.360154341443169 
1725	 0.359946138464572 
1726	 0.359718184724058 
1727	 0.359479262317405 
1728	 0.359195452279196 
1729	 0.358941018028366 
1730	 0.358697867469157 
1731	 0.358447900950551 
1732	 0.358205804514561 
1733	 0.357941853923656 
1734	 0.357658443374839 
1735	 0.357396919302137 
1736	 0.357135194712917 
1737	 0.356866578450625 
1738	 0.356613756634817 
1739	 0.35633237933782 
1740	 0.356022090288906 
1741	 0.355740788176532 
1742	 0.355462987605661 
1743	 0.355196551354276 
1744	 0.354951543315269 
1745	 0.354669761266552 
1746	 0.354377351139486 
1747	 0.354062241000538 
1748	 0.353749220140089 
1749	 0.353467099516451 
1750	 0.353223948323768 
1751	 0.352994646386052 
1752	 0.352747680311909 
1753	 0.352465064902891 
1754	 0.352149165445827 
1755	 0.351817263801893 
1756	 0.351499372097048 
1757	 0.351183606434843 
1758	 0.350859084224988 
1759	 0.350562686164039 
1760	 0.350275128509018 
1761	 0.349981380748742 
1762	 0.349718792420684 
1763	 0.349450991604211 
1764	 0.34914441533253 
1765	 0.348853838295205 
1766	 0.348550532620699 
1767	 0.348194561800164 
1768	 0.347859340129831 
1769	 0.347553328822981 
1770	 0.347270163053329 
1771	 0.347035079854078 
1772	 0.346789946870925 
1773	 0.346519065843035 
1774	 0.346261802293926 
1775	 0.346006764622179 
1776	 0.345762480464923 
1777	 0.345535817393317 
1778	 0.345274953363571 
1779	 0.345015059051995 
1780	 0.344795041295566 
1781	 0.344573678539917 
1782	 0.344379236298284 
1783	 0.344179429870586 
1784	 0.34399018222815 
1785	 0.343839854584234 
1786	 0.343646524939967 
1787	 0.343440506745428 
1788	 0.343232861524002 
1789	 0.342984047855798 
1790	 0.342768123872983 
1791	 0.342576598751884 
1792	 0.342376289132785 
1793	 0.342171205390323 
1794	 0.34198748424963 
1795	 0.341807981786438 
1796	 0.341642217694828 
1797	 0.341502528741774 
1798	 0.341355614679564 
1799	 0.341232097655012 
1800	 0.341071712776402 
1801	 0.339610494524918 
1802	 0.339677430439485 
1803	 0.339798986340732 
1804	 0.339947309891921 
1805	 0.340094767355896 
1806	 0.34024605076696 
1807	 0.340379793610217 
1808	 0.340462776870808 
1809	 0.340551280776155 
1810	 0.340551180204678 
1811	 0.340479411932534 
1812	 0.340394003432001 
1813	 0.340262086802118 
1814	 0.340079084650685 
1815	 0.339884031121564 
1816	 0.339677330118818 
1817	 0.339460558110746 
1818	 0.33920918021927 
1819	 0.338976146136006 
1820	 0.338768924198374 
1821	 0.338500649415932 
1822	 0.33822042121935 
1823	 0.337950316161371 
1824	 0.337655825093793 
1825	 0.337305738409241 
1826	 0.336933723572801 
1827	 0.336559561100939 
1828	 0.336104359159491 
1829	 0.335590281299346 
1830	 0.335048747895812 
1831	 0.334462114954838 
1832	 0.333817014505355 
1833	 0.333142552659887 
1834	 0.332451918683831 
1835	 0.331756777309968 
1836	 0.331055007060529 
1837	 0.330398140875368 
1838	 0.329759679803491 
1839	 0.329103949137959 
1840	 0.328450843539983 
1841	 0.327800644226421 
1842	 0.327135424268367 
1843	 0.326525635127308 
1844	 0.325970048753324 
1845	 0.325433800745259 
1846	 0.32501126763861 
1847	 0.324640947616864 
1848	 0.324318882220224 
1849	 0.324060287561779 
1850	 0.323814984898478 
1851	 0.323601746260597 
1852	 0.323390034981225 
1853	 0.323179613067509 
1854	 0.322993059349447 
1855	 0.322790766723762 
1856	 0.32254740465421 
1857	 0.322287135473343 
1858	 0.322003158171546 
1859	 0.32169232862066 
1860	 0.321360762015338 
1861	 0.321011846531921 
1862	 0.320646201469116 
1863	 0.320244466103519 
1864	 0.31981058626469 
1865	 0.319330373316362 
1866	 0.318780617550676 
1867	 0.318177797386386 
1868	 0.317507530087769 
1869	 0.316742166336221 
1870	 0.315896784079779 
1871	 0.314938881894675 
1872	 0.313886523663211 
1873	 0.312729744487893 
1874	 0.311474168459864 
1875	 0.31008611549725 
1876	 0.308611041803519 
1877	 0.306993086735949 
1878	 0.305215823092258 
1879	 0.303330505651311 
1880	 0.30128713301697 
1881	 0.299072144676075 
1882	 0.296757919642982 
1883	 0.294334047003808 
1884	 0.291704637431396 
1885	 0.288966520125019 
1886	 0.286119954265662 
1887	 0.283092925778155 
1888	 0.279977582876712 
1889	 0.27679323969741 
1890	 0.273536333951149 
1891	 0.270280694754761 
1892	 0.266951283843805 
1893	 0.263650113690948 
1894	 0.260332871288146 
1895	 0.257037489413957 
1896	 0.253708544571606 
1897	 0.25045625094626 
1898	 0.247223765804598 
1899	 0.244031328972897 
1900	 0.240975917848393 
1901	 0.238011811095358 
1902	 0.23519350714858 
1903	 0.232542788671346 
1904	 0.229983732725393 
1905	 0.227526293676867 
1906	 0.225218552710259 
1907	 0.2230130078331 
1908	 0.220918738077522 
1909	 0.218983365382309 
1910	 0.217135434540753 
1911	 0.215432749452762 
1912	 0.213877444611623 
1913	 0.212397286472316 
1914	 0.211033921603141 
1915	 0.209746017483117 
1916	 0.208562004190623 
1917	 0.207424222985216 
1918	 0.206388762793961 
1919	 0.205405659868232 
1920	 0.204493342491468 
1921	 0.203674795200075 
1922	 0.202910034174691 
1923	 0.202242516629985 
1924	 0.201630641868714 
1925	 0.201105370709764 
1926	 0.200609963950234 
1927	 0.20016672518436 
1928	 0.199775920802293 
1929	 0.199432785365739 
1930	 0.19917401974372 
1931	 0.19896509228941 
1932	 0.198799644348679 
1933	 0.198695338520833 
1934	 0.198616483706 
1935	 0.198590514189789 
1936	 0.198620106285961 
1937	 0.198682953034834 
1938	 0.198799190935299 
1939	 0.198937153791723 
1940	 0.199110092843766 
1941	 0.199309574032132 
1942	 0.199535131561646 
1943	 0.199791249552719 
1944	 0.200090367530723 
1945	 0.200399623569559 
1946	 0.200729231499412 
1947	 0.201087443000112 
1948	 0.201450918748437 
1949	 0.201834743463076 
1950	 0.202223778534679 
1951	 0.202624765752771 
1952	 0.203031027673328 
1953	 0.203440304106146 
1954	 0.203868452723139 
1955	 0.20432312664594 
1956	 0.204801342444235 
1957	 0.205287900180016 
1958	 0.205804133514642 
1959	 0.206308072409168 
1960	 0.20681578587586 
1961	 0.207329857617315 
1962	 0.207841482653654 
1963	 0.20837062955059 
1964	 0.208916034436528 
1965	 0.209456013900541 
1966	 0.210013703680689 
1967	 0.21059050430761 
1968	 0.211167734810076 
1969	 0.211756083426131 
1970	 0.212347384530366 
1971	 0.212957772614437 
1972	 0.213546515650999 
1973	 0.214128553155716 
1974	 0.214709585907785 
1975	 0.215275260632903 
1976	 0.215839113707556 
1977	 0.21644047922435 
1978	 0.217072680066939 
1979	 0.217696243549943 
1980	 0.218318368093944 
1981	 0.218914087246692 
1982	 0.219465158979272 
1983	 0.220051477557899 
1984	 0.220638354035742 
1985	 0.221236012999533 
1986	 0.221858512572459 
1987	 0.222466674236719 
1988	 0.223074102724452 
1989	 0.223681268073122 
1990	 0.224265634293817 
1991	 0.22485361956673 
1992	 0.225432386769257 
1993	 0.225990931028006 
1994	 0.226564051450597 
1995	 0.227128235759896 
1996	 0.227718317030718 
1997	 0.228323665549404 
1998	 0.228934654152247 
1999	 0.229580737280839 
2000	 0.230201988585292 
2001	 0.23081978174924 
2002	 0.231428028959812 
2003	 0.232032573832671 
2004	 0.232601082941627 
2005	 0.233185660956375 
2006	 0.233768923938918 
2007	 0.234346510770617 
2008	 0.234915569411431 
2009	 0.235495856989856 
2010	 0.23607526183836 
2011	 0.236658829411053 
2012	 0.237266858115352 
2013	 0.237849181591854 
2014	 0.238424706950043 
2015	 0.238984445064945 
2016	 0.239532318609603 
2017	 0.240062558134148 
2018	 0.240612380915068 
2019	 0.241177464653771 
2020	 0.241716173275155 
2021	 0.242254059152172 
2022	 0.242779920292005 
2023	 0.243274372046486 
2024	 0.243785293460369 
2025	 0.244302418583707 
2026	 0.244817745285067 
2027	 0.245337925613319 
2028	 0.245854873653171 
2029	 0.246356112006086 
2030	 0.246852861375098 
2031	 0.247334929118083 
2032	 0.247798971437877 
2033	 0.248264232866032 
2034	 0.248734060960501 
2035	 0.249174771483707 
2036	 0.2496028999332 
2037	 0.250016083340469 
2038	 0.250400609378717 
2039	 0.250783622881454 
2040	 0.251158086814433 
2041	 0.25151612798614 
2042	 0.251889643702252 
2043	 0.252265231676885 
2044	 0.252651145131443 
2045	 0.253061725398447 
2046	 0.253449837534845 
2047	 0.253834395637413 
2048	 0.254213387952919 
2049	 0.254585753472368 
2050	 0.25495339854325 
2051	 0.25532971918224 
2052	 0.255677418376077 
2053	 0.255996612121601 
2054	 0.256323267163232 
2055	 0.256641448203176 
2056	 0.256946492229877 
2057	 0.257254862439894 
2058	 0.257562774296765 
2059	 0.257882302929009 
2060	 0.258201783337673 
2061	 0.258519881607497 
2062	 0.25886044664181 
2063	 0.259175739808212 
2064	 0.259470463034981 
2065	 0.25976853059841 
2066	 0.260066586755932 
2067	 0.260352094355691 
2068	 0.260633130382643 
2069	 0.260906373464053 
2070	 0.261160313284793 
2071	 0.261386939485876 
2072	 0.261645707400717 
2073	 0.261903863943616 
2074	 0.262162206775798 
2075	 0.26245058530203 
2076	 0.262702336656381 
2077	 0.262922267371519 
2078	 0.263159679354266 
2079	 0.263385148751895 
2080	 0.263624091082899 
2081	 0.263884982234403 
2082	 0.264129930658011 
2083	 0.264367434104748 
2084	 0.264617679423328 
2085	 0.264843749352497 
2086	 0.265060300296112 
2087	 0.265258268944743 
2088	 0.265432933374568 
2089	 0.265621370720095 
2090	 0.265806933115859 
2091	 0.265976978757124 
2092	 0.266141386864258 
2093	 0.266308009083425 
2094	 0.266439796320086 
2095	 0.266609487559044 
2096	 0.266821415361102 
2097	 0.267009565283402 
2098	 0.26719872038968 
2099	 0.26737865632821 
2100	 0.267584697876591 
2101	 0.267791951616931 
2102	 0.267996638487342 
2103	 0.268229066863026 
2104	 0.268437562383147 
2105	 0.268626653241209 
2106	 0.268814792817893 
2107	 0.26900294541373 
2108	 0.269187433334862 
2109	 0.269341271157574 
2110	 0.26952885894087 
2111	 0.269741824610431 
2112	 0.269945994251448 
2113	 0.270156252179559 
2114	 0.270380975776727 
2115	 0.270587319431269 
2116	 0.270787001039341 
2117	 0.270975730834921 
2118	 0.271145488088594 
2119	 0.271341807829168 
2120	 0.271548315722864 
2121	 0.27173649573775 
2122	 0.271944120320453 
2123	 0.272122677914469 
2124	 0.272266217147056 
2125	 0.272417480371208 
2126	 0.272575233470658 
2127	 0.272712000910589 
2128	 0.272828024553095 
2129	 0.272945783756242 
2130	 0.273047392837939 
2131	 0.273163366795505 
2132	 0.273245966860061 
2133	 0.27333044792806 
2134	 0.273375945562519 
2135	 0.273379510755059 
2136	 0.273391020425132 
2137	 0.273399757875354 
2138	 0.273373730740191 
2139	 0.273321319372428 
2140	 0.273271689075474 
2141	 0.273204128998965 
2142	 0.273119696627178 
2143	 0.273032978352882 
2144	 0.272931627603446 
2145	 0.272796692660157 
2146	 0.272662958724145 
2147	 0.272537132849507 
2148	 0.272394920857439 
2149	 0.272225145612473 
2150	 0.272018008033098 
2151	 0.271848942098121 
2152	 0.271693192630059 
2153	 0.271491349938311 
2154	 0.271310331274245 
2155	 0.271068990355546 
2156	 0.270744998435455 
2157	 0.270456202252462 
2158	 0.270177744761526 
2159	 0.269864026644069 
2160	 0.269530203292963 
2161	 0.269192859829156 
2162	 0.268806991138209 
2163	 0.268453920273672 
2164	 0.268115552607769 
2165	 0.267789424297802 
2166	 0.267457526415593 
2167	 0.267138585912328 
2168	 0.26680611523049 
2169	 0.266467204045321 
2170	 0.266125235983593 
2171	 0.265776262372956 
2172	 0.265435512989362 
2173	 0.265114492240092 
2174	 0.2647501345327 
2175	 0.264378090031625 
2176	 0.263982402665778 
2177	 0.263545018726119 
2178	 0.26310738366528 
2179	 0.262653651006705 
2180	 0.26220328288958 
2181	 0.261754100831861 
2182	 0.261283361550659 
2183	 0.260798742473574 
2184	 0.260310738336685 
2185	 0.259825143311744 
2186	 0.259308736288539 
2187	 0.258832505456854 
2188	 0.258378798114302 
2189	 0.257927570956917 
2190	 0.257488480307349 
2191	 0.257053207787263 
2192	 0.256623840447709 
2193	 0.25620520874751 
2194	 0.255788336675866 
2195	 0.255390827398461 
2196	 0.255005844330175 
2197	 0.254636455449347 
2198	 0.254292661665899 
2199	 0.253945608884647 
2200	 0.253605302156887 
2201	 0.253276665704379 
2202	 0.252941587387012 
2203	 0.252623199307016 
2204	 0.252357165934931 
2205	 0.252119539266398 
2206	 0.251920340392657 
2207	 0.25176861560685 
2208	 0.2516342467323 
2209	 0.251529006936577 
2210	 0.251445517380537 
2211	 0.251400894455808 
2212	 0.251361048256114 
2213	 0.25135295412875 
2214	 0.251333151063043 
2215	 0.251345069022573 
2216	 0.251312455461045 
2217	 0.251255952113502 
2218	 0.251194850967653 
2219	 0.251100880044164 
2220	 0.251015090166473 
2221	 0.250939515151169 
2222	 0.25085696775416 
2223	 0.250724209596971 
2224	 0.25058766222724 
2225	 0.250430414440928 
2226	 0.250240665148809 
2227	 0.2500461803819 
2228	 0.249848326277864 
2229	 0.249625297821189 
2230	 0.249381314634127 
2231	 0.249112580662543 
2232	 0.248840907863111 
2233	 0.248515280637701 
2234	 0.248127560772497 
2235	 0.247759132507456 
2236	 0.247376794992567 
2237	 0.246965275630359 
2238	 0.246559523343707 
2239	 0.246109843039975 
2240	 0.245616480247489 
2241	 0.245100476036939 
2242	 0.244549984701807 
2243	 0.243988901810139 
2244	 0.243414767572146 
2245	 0.242801980127772 
2246	 0.242157930888591 
2247	 0.241483200299096 
2248	 0.240761499992881 
2249	 0.239959026288557 
2250	 0.239210573256447 
2251	 0.238441796869671 
2252	 0.23770375287129 
2253	 0.236977902086059 
2254	 0.236278330021044 
2255	 0.235568363565584 
2256	 0.234933464057481 
2257	 0.23433222562613 
2258	 0.233799914604919 
2259	 0.23331843841174 
2260	 0.232904367173663 
2261	 0.232564193373964 
2262	 0.232262150087338 
2263	 0.232024231808179 
2264	 0.231830948055496 
2265	 0.231654936248241 
2266	 0.231578389526878 
2267	 0.231587928365599 
2268	 0.231642488812309 
2269	 0.23176675918879 
2270	 0.231982128895929 
2271	 0.232182399218592 
2272	 0.232432464385786 
2273	 0.232749472946825 
2274	 0.233055483580622 
2275	 0.233415834618314 
2276	 0.233837948103399 
2277	 0.234249851820895 
2278	 0.234677191879999 
2279	 0.235130821675041 
2280	 0.235611858393686 
2281	 0.236090280151941 
2282	 0.236604537646198 
2283	 0.237093945137906 
2284	 0.237595318990863 
2285	 0.238051530620006 
2286	 0.238485541777273 
2287	 0.238900049102227 
2288	 0.239272832573102 
2289	 0.239641975246495 
2290	 0.240018567855697 
2291	 0.240357774948664 
2292	 0.240680126680889 
2293	 0.240965699949189 
2294	 0.241212210908186 
2295	 0.241423064063546 
2296	 0.241575981213989 
2297	 0.24172655584413 
2298	 0.24189980540095 
2299	 0.242084261162499 
2300	 0.242269044201272 
2301	 0.242441470590291 
2302	 0.242555591005476 
2303	 0.242678481190109 
2304	 0.242841120980994 
2305	 0.242989585012537 
2306	 0.243111417038764 
2307	 0.24320757787808 
2308	 0.243347221695458 
2309	 0.243501061590908 
2310	 0.243601117008921 
2311	 0.24373383907641 
2312	 0.243799938035571 
2313	 0.243757249675683 
2314	 0.243782032754033 
2315	 0.243835727406303 
2316	 0.243858926310882 
2317	 0.243876594597886 
2318	 0.243886734447523 
2319	 0.243884308186066 
2320	 0.243858971481485 
2321	 0.243830244928936 
2322	 0.243782757352039 
2323	 0.243698713016069 
2324	 0.243623046816451 
2325	 0.243550981052283 
2326	 0.243453206710561 
2327	 0.243349780642101 
2328	 0.243215546307924 
2329	 0.243035724656693 
2330	 0.24288667950101 
2331	 0.242771406718753 
2332	 0.242654784112515 
2333	 0.242543426789336 
2334	 0.242419492134544 
2335	 0.24224123856858 
2336	 0.242039012087656 
2337	 0.241825610176402 
2338	 0.241589641243661 
2339	 0.241339180116002 
2340	 0.241046091254573 
2341	 0.240786768724187 
2342	 0.240525028701282 
2343	 0.240258132573813 
2344	 0.239987104027959 
2345	 0.239677628705926 
2346	 0.239363405708369 
2347	 0.239007892040155 
2348	 0.238578503916863 
2349	 0.238211998938667 
2350	 0.237833947416659 
2351	 0.237443489572201 
2352	 0.237090394296214 
2353	 0.236702991991956 
2354	 0.236332088954685 
2355	 0.235879299284557 
2356	 0.235321483872614 
2357	 0.234851961212768 
2358	 0.234364235079368 
2359	 0.233874585805854 
2360	 0.233497924294204 
2361	 0.233016952294819 
2362	 0.232394522023723 
2363	 0.231888252985575 
2364	 0.231427827937425 
2365	 0.230933317017452 
2366	 0.230491412601824 
2367	 0.229998167569183 
2368	 0.229451265154559 
2369	 0.228895427133652 
2370	 0.228323761993571 
2371	 0.227758923422263 
2372	 0.227157070896522 
2373	 0.226546034182769 
2374	 0.225949189994107 
2375	 0.225372031119898 
2376	 0.224782272754794 
2377	 0.224136295129435 
2378	 0.223558838744949 
2379	 0.222967726607191 
2380	 0.222314001322269 
2381	 0.221721728875345 
2382	 0.221094796632537 
2383	 0.22037282776341 
2384	 0.219690833758231 
2385	 0.219007673063276 
2386	 0.218269770417474 
2387	 0.21759724995683 
2388	 0.216989356778906 
2389	 0.21643341708294 
2390	 0.215862452716451 
2391	 0.215255393991445 
2392	 0.214657546029805 
2393	 0.213942919461098 
2394	 0.213252392018338 
2395	 0.212667191648809 
2396	 0.212012988597165 
2397	 0.211415193058336 
2398	 0.210841949109122 
2399	 0.210142201345165 
2400	 0.209441080074786 
2401	 0.208784856144321 
2402	 0.208128294122667 
2403	 0.20753161782924 
2404	 0.206921464712785 
2405	 0.206309269788962 
2406	 0.205729185031914 
2407	 0.205087665277427 
2408	 0.204485263045425 
2409	 0.203865908395065 
2410	 0.203228530168001 
2411	 0.202641045944052 
2412	 0.202095637222602 
2413	 0.201558241809541 
2414	 0.200970677521088 
2415	 0.200369536969928 
2416	 0.199797193745352 
2417	 0.199222062884607 
2418	 0.198666583033437 
2419	 0.198138754958786 
2420	 0.197622293503402 
2421	 0.197097978164383 
2422	 0.196601028882351 
2423	 0.196186982040544 
2424	 0.195659683098959 
2425	 0.195085415238983 
2426	 0.194499008533869 
2427	 0.19379545003404 
2428	 0.193202781095118 
2429	 0.192698665596488 
2430	 0.192139597012836 
2431	 0.191607127998137 
2432	 0.191079255547345 
2433	 0.190478425558321 
2434	 0.189914581114866 
2435	 0.1894018292738 
2436	 0.188939657995393 
2437	 0.188547526176325 
2438	 0.188089481808148 
2439	 0.18764033287216 
2440	 0.187054668589584 
2441	 0.186349993825845 
2442	 0.185728688566395 
2443	 0.185086422544909 
2444	 0.184529042808944 
2445	 0.184028719521871 
2446	 0.183488773820962 
2447	 0.182998268900855 
2448	 0.182415890420579 
2449	 0.181707654391423 
2450	 0.181165941048691 
2451	 0.180705173438908 
2452	 0.180164561763745 
2453	 0.179671089320922 
2454	 0.179151549624746 
2455	 0.178552963668971 
2456	 0.178015528477858 
2457	 0.177490137712935 
2458	 0.177105520976451 
2459	 0.176857019567863 
2460	 0.176446528979442 
2461	 0.176090995108748 
2462	 0.175655965024945 
2463	 0.174998008684087 
2464	 0.174477930002353 
2465	 0.174028145059467 
2466	 0.17363116769146 
2467	 0.173256134052886 
2468	 0.172877883451652 
2469	 0.172661045297926 
2470	 0.172223425050397 
2471	 0.171752521520098 
2472	 0.171406447903483 
2473	 0.17101041611409 
2474	 0.17069273988261 
2475	 0.17042064935033 
2476	 0.170030214329995 
2477	 0.169647139337515 
2478	 0.169209281042986 
2479	 0.16873226347377 
2480	 0.168428264060417 
2481	 0.168085935028616 
2482	 0.167482767365355 
2483	 0.166937908020135 
2484	 0.16644589318283 
2485	 0.165840497370962 
2486	 0.165521752321094 
2487	 0.165279332400328 
2488	 0.164922936165431 
2489	 0.164611326337792 
2490	 0.164221937544576 
2491	 0.163849143325033 
2492	 0.163513241688687 
2493	 0.163215262016725 
2494	 0.162827178071052 
2495	 0.162375496028636 
2496	 0.162017827225619 
2497	 0.161577055101909 
2498	 0.161257650390736 
2499	 0.161001464359861 
2500	 0.160648520219526 
