Wavelength	mm2000008.asd
350	 0.060257528657794 
351	 0.068009583929564 
352	 6.52996824888448E-02 
353	 5.67906085220485E-02 
354	 6.45512834330031E-02 
355	 6.22440956064602E-02 
356	 5.45346426728151E-02 
357	 5.25625600189106E-02 
358	 6.10976474651253E-02 
359	 5.90385261570515E-02 
360	 5.00032119158399E-02 
361	 5.20261135008597E-02 
362	 5.20832782127684E-02 
363	 5.18019165099879E-02 
364	 0.05234969440116 
365	 5.12066401764033E-02 
366	 5.32120521879608E-02 
367	 5.49667869205481E-02 
368	 5.32912209534552E-02 
369	 5.50581587686014E-02 
370	 5.52005862519652E-02 
371	 5.51158346425011E-02 
372	 5.96005273681059E-02 
373	 0.056829338545535 
374	 5.43240635068553E-02 
375	 5.61170036661694E-02 
376	 5.61705344593413E-02 
377	 5.35368047874151E-02 
378	 5.31460429511598E-02 
379	 0.05824588726007 
380	 5.71376084838366E-02 
381	 5.41930205154537E-02 
382	 5.37902426615569E-02 
383	 5.88655383201545E-02 
384	 0.061327587765356 
385	 6.06049891106455E-02 
386	 5.86505946101235E-02 
387	 5.96672982438172E-02 
388	 6.25703328642114E-02 
389	 6.44883220270395E-02 
390	 6.33255506548393E-02 
391	 6.36195013759387E-02 
392	 6.41682736707712E-02 
393	 6.57735821536208E-02 
394	 7.05985794621231E-02 
395	 7.13667026285744E-02 
396	 7.12513314216769E-02 
397	 7.29584766605157E-02 
398	 7.43574506234562E-02 
399	 7.63565033055984E-02 
400	 7.88351361606359E-02 
401	 8.11456129673638E-02 
402	 8.19015665748729E-02 
403	 8.23673562734036E-02 
404	 8.32462774191048E-02 
405	 8.45114726884358E-02 
406	 8.73556792887235E-02 
407	 9.03790821108496E-02 
408	 0.09203467761734 
409	 9.14089408648021E-02 
410	 9.13584597809112E-02 
411	 9.24614384761174E-02 
412	 9.40688011144785E-02 
413	 9.57773720065579E-02 
414	 9.69900344010229E-02 
415	 9.73332553983433E-02 
416	 9.66507422057568E-02 
417	 9.69966955247674E-02 
418	 9.81882599227631E-02 
419	 9.92059152550022E-02 
420	 9.83888037263187E-02 
421	 9.73256594715232E-02 
422	 9.68022865136387E-02 
423	 9.68989975249705E-02 
424	 9.66130151416973E-02 
425	 9.57909052327191E-02 
426	 9.46276616608447E-02 
427	 9.36686438092049E-02 
428	 9.27512333038761E-02 
429	 9.17324306151596E-02 
430	 9.05496154512117E-02 
431	 8.95106954259934E-02 
432	 8.87418060462842E-02 
433	 8.82139625896625E-02 
434	 8.77746994897757E-02 
435	 8.76655024852836E-02 
436	 8.76825297997544E-02 
437	 8.77323481152601E-02 
438	 8.82046286403962E-02 
439	 0.089112863472631 
440	 9.03884905338746E-02 
441	 9.18657920880933E-02 
442	 9.31124543380029E-02 
443	 9.43451618606545E-02 
444	 9.56418727814779E-02 
445	 9.67334215683446E-02 
446	 9.84889977008823E-02 
447	 0.100241224692861 
448	 0.101317800010455 
449	 0.103017090513743 
450	 0.10478464288634 
451	 0.106376079514211 
452	 0.107875835670799 
453	 0.109419065342032 
454	 0.110769034676371 
455	 0.11191978827993 
456	 0.11366246320692 
457	 0.114830333283762 
458	 0.115544024217066 
459	 0.116509265617476 
460	 0.117964256825003 
461	 0.119128241519003 
462	 0.119766423421947 
463	 0.120514557708273 
464	 0.121502938060876 
465	 0.122428467840613 
466	 0.123055684829676 
467	 0.124006814007669 
468	 0.124894124597941 
469	 0.125500892079215 
470	 0.125819248325331 
471	 0.126554891074309 
472	 0.127251188373425 
473	 0.127645525772718 
474	 0.128449195538949 
475	 0.129013514970985 
476	 0.129287006491474 
477	 0.129537540978317 
478	 0.130232485665004 
479	 0.131051620772583 
480	 0.131707699028989 
481	 0.132063773205909 
482	 0.132458512582977 
483	 0.133002074846664 
484	 0.133660229586104 
485	 0.134147690124926 
486	 0.134587432916309 
487	 0.135053552650418 
488	 0.135566260926262 
489	 0.136082161092037 
490	 0.136597806191242 
491	 0.137112504107119 
492	 0.137617136814675 
493	 0.138081285612171 
494	 0.138479724676978 
495	 0.138819371362841 
496	 0.139299107484734 
497	 0.139792049995008 
498	 0.140236622138631 
499	 0.14071679469749 
500	 0.141217107585249 
501	 0.141724482828685 
502	 0.142200679410554 
503	 0.142488030618775 
504	 0.142878997462317 
505	 0.143410702755573 
506	 0.143879735653105 
507	 0.144308407578561 
508	 0.1448084816801 
509	 0.145371712237522 
510	 0.14559657125427 
511	 0.145897740100285 
512	 0.146335467233807 
513	 0.146770294958252 
514	 0.147116567337976 
515	 0.147485739888271 
516	 0.147929295455849 
517	 0.148362505124256 
518	 0.148770074986793 
519	 0.149159896569206 
520	 0.149541409350062 
521	 0.149854284316357 
522	 0.150253871737661 
523	 0.15076252547676 
524	 0.1512538892688 
525	 0.151678398093503 
526	 0.152028108548999 
527	 0.152332260954539 
528	 0.152686494393597 
529	 0.153015295096644 
530	 0.153326393337246 
531	 0.153684965448254 
532	 0.15414549246501 
533	 0.154625992314402 
534	 0.155045891029136 
535	 0.155349447143337 
536	 0.155728602839765 
537	 0.156147041135687 
538	 0.156494579255592 
539	 0.156836734560258 
540	 0.157248843594195 
541	 0.15769856831654 
542	 0.158009352429359 
543	 0.158387998240572 
544	 0.158869483732964 
545	 0.159392563069398 
546	 0.159724530602571 
547	 0.160065746663773 
548	 0.160511463780993 
549	 0.16104557186229 
550	 0.161479724214417 
551	 0.161909657912836 
552	 0.162418869866702 
553	 0.162919502270781 
554	 0.163384628681735 
555	 0.163824254422862 
556	 0.164281245441876 
557	 0.164871626200176 
558	 0.165458536046082 
559	 0.166003241851198 
560	 0.166701662303187 
561	 0.167270182733405 
562	 0.167806781404081 
563	 0.168495334132456 
564	 0.169212365515058 
565	 0.169874464524539 
566	 0.170450026159338 
567	 0.17096489243902 
568	 0.171567954121909 
569	 0.172257975523879 
570	 0.173025387593939 
571	 0.174005627945839 
572	 0.174924704348979 
573	 0.175710081934837 
574	 0.176447815955649 
575	 0.177214146264224 
576	 0.178093098152181 
577	 0.179086184245474 
578	 0.18002721390299 
579	 0.180995191428642 
580	 0.181870614960746 
581	 0.182519658056298 
582	 0.183283989021412 
583	 0.184082342077581 
584	 0.184890361913091 
585	 0.185821702085956 
586	 0.186907605360381 
587	 0.188077665670194 
588	 0.189236593638828 
589	 0.190350308589001 
590	 0.191498548426274 
591	 0.192658952531032 
592	 0.193719921492739 
593	 0.194705606320003 
594	 0.195580060946376 
595	 0.196337899932916 
596	 0.19706644474978 
597	 0.197795075820242 
598	 0.198594976326485 
599	 0.199534789990804 
600	 0.20045897422491 
601	 0.201349048079708 
602	 0.202223640240858 
603	 0.203144742758992 
604	 0.203998788193575 
605	 0.204836144067813 
606	 0.205736433792103 
607	 0.206597516096523 
608	 0.207398207059887 
609	 0.208169725507075 
610	 0.208994655562192 
611	 0.209641953623213 
612	 0.210175306056631 
613	 0.210700274126919 
614	 0.211203547075668 
615	 0.211651235194471 
616	 0.21208287687199 
617	 0.212574574683448 
618	 0.213013401216438 
619	 0.213407035814813 
620	 0.21377863931439 
621	 0.214137271283721 
622	 0.214512310656411 
623	 0.214879145800839 
624	 0.215191999781287 
625	 0.215426799656659 
626	 0.215683450378444 
627	 0.215995181379938 
628	 0.216294960204785 
629	 0.216608167683606 
630	 0.216887489123298 
631	 0.217096150973837 
632	 0.21729387155837 
633	 0.217552537806681 
634	 0.217851622110164 
635	 0.218095624383566 
636	 0.218259860373511 
637	 0.218478877916712 
638	 0.218792923261825 
639	 0.21893232814362 
640	 0.219141798993018 
641	 0.219438295383656 
642	 0.219728618175459 
643	 0.219950039233656 
644	 0.220201044030849 
645	 0.220503983027456 
646	 0.220748933262214 
647	 0.220937501567702 
648	 0.221130077817658 
649	 0.221395986744392 
650	 0.221763435331404 
651	 0.222063820077455 
652	 0.222299292426269 
653	 0.222618591112534 
654	 0.222932542989049 
655	 0.223240143637847 
656	 0.223555640304183 
657	 0.223889474848631 
658	 0.224257278178704 
659	 0.224621729362696 
660	 0.224935330880915 
661	 0.225284605494284 
662	 0.225673225692089 
663	 0.226073249984932 
664	 0.22642129767362 
665	 0.226856068272815 
666	 0.22729100738078 
667	 0.227635375982945 
668	 0.228061935053037 
669	 0.228512353951766 
670	 0.228980914742351 
671	 0.229500687725561 
672	 0.229931963384797 
673	 0.23040699637946 
674	 0.230976152156108 
675	 0.231369162137307 
676	 0.231841426765571 
677	 0.232396271010283 
678	 0.232937236959541 
679	 0.233504726870484 
680	 0.234044988613398 
681	 0.234561150780052 
682	 0.2351375552289 
683	 0.235733958419125 
684	 0.236330627121218 
685	 0.236920521767208 
686	 0.237523090480397 
687	 0.238176502132994 
688	 0.238834011233848 
689	 0.239404723659735 
690	 0.24004582200256 
691	 0.240726959838032 
692	 0.24140465797637 
693	 0.242068051568222 
694	 0.242728317901827 
695	 0.243416063617595 
696	 0.244141133155427 
697	 0.244754216315518 
698	 0.245413984605818 
699	 0.246133412535071 
700	 0.246760923205924 
701	 0.247507424863854 
702	 0.248240104755833 
703	 0.248850652519255 
704	 0.249505020263827 
705	 0.250152610584432 
706	 0.250822879158171 
707	 0.251564884520251 
708	 0.252258165481634 
709	 0.252955902119195 
710	 0.253671794132648 
711	 0.254338689042941 
712	 0.254965861564831 
713	 0.255552717841274 
714	 0.25613048422569 
715	 0.256860886026808 
716	 0.257499672651463 
717	 0.258023980381447 
718	 0.258580168022185 
719	 0.259192637731537 
720	 0.259767633923476 
721	 0.260253550167185 
722	 0.26071059678291 
723	 0.261229786584912 
724	 0.261714710408084 
725	 0.262057963052394 
726	 0.262455477887512 
727	 0.262847526604969 
728	 0.263210743707126 
729	 0.263561781483123 
730	 0.263791942928354 
731	 0.264008930108722 
732	 0.264280793307197 
733	 0.264488424445922 
734	 0.264669467384752 
735	 0.26478035466422 
736	 0.264783240822979 
737	 0.264863365041923 
738	 0.26492527992881 
739	 0.264909183040003 
740	 0.264820520906806 
741	 0.264726801084159 
742	 0.264614125126466 
743	 0.264457270025712 
744	 0.264253356350081 
745	 0.264016214317612 
746	 0.263745828584152 
747	 0.263437926846312 
748	 0.263106662523281 
749	 0.262772381966179 
750	 0.262427331617951 
751	 0.262029701051088 
752	 0.261509233487317 
753	 0.260948860499615 
754	 0.260430319784086 
755	 0.259921907679546 
756	 0.259401858178001 
757	 0.258852014782242 
758	 0.258262322134001 
759	 0.257652008532327 
760	 0.257009735691711 
761	 0.256331475825069 
762	 0.255626114930858 
763	 0.254950240209488 
764	 0.254221527510573 
765	 0.25340392622504 
766	 0.25268865230565 
767	 0.251998840701106 
768	 0.251270012649046 
769	 0.250463611861884 
770	 0.249683460563932 
771	 0.248917174902306 
772	 0.248124007100878 
773	 0.247247566765705 
774	 0.246402097056285 
775	 0.245590748056634 
776	 0.244787112269353 
777	 0.243962522208898 
778	 0.243119454338267 
779	 0.242293784006162 
780	 0.241515208949754 
781	 0.240673453991998 
782	 0.239827457870182 
783	 0.239002373475635 
784	 0.238176210518679 
785	 0.237347620761934 
786	 0.236534796467819 
787	 0.235737916632057 
788	 0.234897630586215 
789	 0.234125773843635 
790	 0.233346934224749 
791	 0.232471356779194 
792	 0.231733038025387 
793	 0.230930974408746 
794	 0.230072597484308 
795	 0.229344744898691 
796	 0.228551743590625 
797	 0.227779534439842 
798	 0.227080661679586 
799	 0.226371296119708 
800	 0.225635926249973 
801	 0.224877064422681 
802	 0.224119628980182 
803	 0.223438365837741 
804	 0.222743852855027 
805	 0.222029938080011 
806	 0.221341066685483 
807	 0.220627088778327 
808	 0.219978377198358 
809	 0.219378049881953 
810	 0.218657217289922 
811	 0.217975403111851 
812	 0.217321676740672 
813	 0.216677327438458 
814	 0.216116730454172 
815	 0.215552226350314 
816	 0.21493431886408 
817	 0.214266393906652 
818	 0.213709275563996 
819	 0.213222581542148 
820	 0.212704198351673 
821	 0.212041962090937 
822	 0.211508447273004 
823	 0.210949539192212 
824	 0.210314249976424 
825	 0.209822129923324 
826	 0.209379027283294 
827	 0.208884218150833 
828	 0.208306792211944 
829	 0.207847088623417 
830	 0.207335060407135 
831	 0.20680699027263 
832	 0.206379069851656 
833	 0.205992461177983 
834	 0.205590442202691 
835	 0.205157527134545 
836	 0.204722501605253 
837	 0.204347215007444 
838	 0.203982889842808 
839	 0.203589602222195 
840	 0.203175656562125 
841	 0.202758604956044 
842	 0.202389190754972 
843	 0.202084142109419 
844	 0.201738131453263 
845	 0.201393525793945 
846	 0.201047059424728 
847	 0.200702109888877 
848	 0.200522432930918 
849	 0.200252005881362 
850	 0.199850247210404 
851	 0.199481807373423 
852	 0.199160348524498 
853	 0.198920857337166 
854	 0.198751783263948 
855	 0.198579309209681 
856	 0.198326413335268 
857	 0.198031719786106 
858	 0.197767334276125 
859	 0.197610804568565 
860	 0.197428214883768 
861	 0.197217891894159 
862	 0.197018309397561 
863	 0.196804668862929 
864	 0.196630134439157 
865	 0.196483640362404 
866	 0.196327754495787 
867	 0.196268594912152 
868	 0.196103264725955 
869	 0.195857385055543 
870	 0.195788195004996 
871	 0.195664334886655 
872	 0.195534079145031 
873	 0.195447305537886 
874	 0.195382827233973 
875	 0.195344003926272 
876	 0.19525761729776 
877	 0.195115558201273 
878	 0.195126753722825 
879	 0.195115808620934 
880	 0.19506875474367 
881	 0.195034579602121 
882	 0.195063983684821 
883	 0.195126021086975 
884	 0.195113822337124 
885	 0.194951809920379 
886	 0.194977071263615 
887	 0.195051806105439 
888	 0.195091909976771 
889	 0.195104956373209 
890	 0.195205914047842 
891	 0.195279826051205 
892	 0.195305769854806 
893	 0.19541101635286 
894	 0.195545931689483 
895	 0.195664383486141 
896	 0.19575365853783 
897	 0.195860612559947 
898	 0.195975708484417 
899	 0.196105609991103 
900	 0.196242552610385 
901	 0.196323740033485 
902	 0.196509487188566 
903	 0.196733270011089 
904	 0.196887700617581 
905	 0.197032589147663 
906	 0.197231670658012 
907	 0.197484836792704 
908	 0.197761922388253 
909	 0.198092136447675 
910	 0.198289172165131 
911	 0.198408258779775 
912	 0.198643561506779 
913	 0.198897594183886 
914	 0.199211082640733 
915	 0.199561553245814 
916	 0.199867758346389 
917	 0.200108546841011 
918	 0.200404195519184 
919	 0.200767201358234 
920	 0.201076473387245 
921	 0.201457999736574 
922	 0.201852920791881 
923	 0.20223179714108 
924	 0.202651570127543 
925	 0.20303558682366 
926	 0.203439558881082 
927	 0.203865974840445 
928	 0.204171729558724 
929	 0.204618117828369 
930	 0.205129177773659 
931	 0.205579093222744 
932	 0.205939726692285 
933	 0.206436351290307 
934	 0.206999414191255 
935	 0.207531014240214 
936	 0.208140758500755 
937	 0.208653226072271 
938	 0.209140082947358 
939	 0.209715310784149 
940	 0.210321904630234 
941	 0.210966350292034 
942	 0.211579688900831 
943	 0.212112501633381 
944	 0.212687194725004 
945	 0.213320564092438 
946	 0.213959039410062 
947	 0.214547859767119 
948	 0.215177504159167 
949	 0.21588078427576 
950	 0.216578475970384 
951	 0.217193204400962 
952	 0.217937375839691 
953	 0.218697879531352 
954	 0.219442406140452 
955	 0.220199977386119 
956	 0.221009669217277 
957	 0.221791286585135 
958	 0.222549735509212 
959	 0.223336355138481 
960	 0.224113822180683 
961	 0.224907544072695 
962	 0.22573245067861 
963	 0.226573252135083 
964	 0.227311068456014 
965	 0.228152681943529 
966	 0.229101287094378 
967	 0.23001128051334 
968	 0.230842962069482 
969	 0.231714090645657 
970	 0.232648402319838 
971	 0.233592916231298 
972	 0.234542300141917 
973	 0.235523774806098 
974	 0.236488568450332 
975	 0.237384367173332 
976	 0.238452896294713 
977	 0.239506948112672 
978	 0.240438825928223 
979	 0.241296092392441 
980	 0.242513441361619 
981	 0.243654136247948 
982	 0.244599082666065 
983	 0.245504214749176 
984	 0.246567645383698 
985	 0.247638586712214 
986	 0.248697726330007 
987	 0.249800428088633 
988	 0.250926284194565 
989	 0.25188761227652 
990	 0.252806528381798 
991	 0.253905103010922 
992	 0.255037944017498 
993	 0.256217546905344 
994	 0.257383814205438 
995	 0.258463151389315 
996	 0.259455086309768 
997	 0.260599684056631 
998	 0.261766307278767 
999	 0.262783957238868 
1000	 0.263910922073714 
1001	 0.258563235419438 
1002	 0.259568119751616 
1003	 0.260503245797067 
1004	 0.261482082639134 
1005	 0.262555329284088 
1006	 0.263572374778393 
1007	 0.264558102579223 
1008	 0.265528531825715 
1009	 0.266524137202034 
1010	 0.267479164572419 
1011	 0.268424391237042 
1012	 0.269385626448786 
1013	 0.270363548169969 
1014	 0.271382982139602 
1015	 0.272402178203193 
1016	 0.273371421176373 
1017	 0.274315741862632 
1018	 0.275227955246126 
1019	 0.276120623797523 
1020	 0.277019675864575 
1021	 0.277958897536799 
1022	 0.278929469185151 
1023	 0.279771615522239 
1024	 0.280569394039628 
1025	 0.281431857680355 
1026	 0.282331033720133 
1027	 0.283308804313793 
1028	 0.284275126784638 
1029	 0.285207920417508 
1030	 0.286120655060356 
1031	 0.286981761855071 
1032	 0.287779969186584 
1033	 0.288577164991697 
1034	 0.289390275621252 
1035	 0.290230529909594 
1036	 0.291080032910382 
1037	 0.291934598283774 
1038	 0.29280052821344 
1039	 0.293612250385126 
1040	 0.294410900829812 
1041	 0.295249185325509 
1042	 0.296109243035177 
1043	 0.296959601630475 
1044	 0.297791563271915 
1045	 0.298627727005865 
1046	 0.299454923848624 
1047	 0.300230954124075 
1048	 0.300993911446434 
1049	 0.301789238601273 
1050	 0.302609667892339 
1051	 0.303467874132405 
1052	 0.304304745374529 
1053	 0.305082410822111 
1054	 0.305837724737308 
1055	 0.306613000546408 
1056	 0.307447948670904 
1057	 0.308244896203023 
1058	 0.309084672974937 
1059	 0.309870138977752 
1060	 0.310626256122683 
1061	 0.31130231893565 
1062	 0.311984928071625 
1063	 0.31273004542248 
1064	 0.313505973817846 
1065	 0.31426137927201 
1066	 0.315022428125637 
1067	 0.315788422394486 
1068	 0.31649471608742 
1069	 0.317221806197035 
1070	 0.317951998637113 
1071	 0.318706343493738 
1072	 0.319433261763424 
1073	 0.320148192578336 
1074	 0.320844803992271 
1075	 0.321539196008353 
1076	 0.322182768643364 
1077	 0.322828448562716 
1078	 0.323486588064838 
1079	 0.324136098554971 
1080	 0.324786742076792 
1081	 0.325406035497158 
1082	 0.326031473306817 
1083	 0.326661103556075 
1084	 0.327266683371151 
1085	 0.327920383744306 
1086	 0.328597973315032 
1087	 0.329262397079373 
1088	 0.329945557206744 
1089	 0.33062446103885 
1090	 0.331256570724473 
1091	 0.331880318808439 
1092	 0.332486180969553 
1093	 0.333094699803285 
1094	 0.333699618472955 
1095	 0.334293121941986 
1096	 0.334889853487461 
1097	 0.335461445721445 
1098	 0.336060995858586 
1099	 0.336689940465454 
1100	 0.337295158655548 
1101	 0.337896675176236 
1102	 0.338497346404672 
1103	 0.339076487787736 
1104	 0.339680100309554 
1105	 0.34030458604998 
1106	 0.340919418430553 
1107	 0.341509618334098 
1108	 0.342079812672334 
1109	 0.342676882107985 
1110	 0.343291863417602 
1111	 0.343888166729138 
1112	 0.34452872465241 
1113	 0.345094165574259 
1114	 0.345577924208287 
1115	 0.346127939287436 
1116	 0.346668508671147 
1117	 0.347245017351721 
1118	 0.347868910490624 
1119	 0.34847923092938 
1120	 0.349098997827432 
1121	 0.349703817071188 
1122	 0.350235624043716 
1123	 0.350811102522854 
1124	 0.351391199750831 
1125	 0.351954842722544 
1126	 0.352520873237947 
1127	 0.353119951654482 
1128	 0.353686690905648 
1129	 0.354227858572524 
1130	 0.35477416363357 
1131	 0.355314627872426 
1132	 0.355866027266118 
1133	 0.356415739952272 
1134	 0.356961262253148 
1135	 0.357530079359374 
1136	 0.358061086751576 
1137	 0.35858485724363 
1138	 0.359114477748669 
1139	 0.359652129817503 
1140	 0.360201891168912 
1141	 0.360741976763609 
1142	 0.361311660334927 
1143	 0.361811130446603 
1144	 0.362256040933361 
1145	 0.362730692893733 
1146	 0.363178128771556 
1147	 0.363638770180548 
1148	 0.364123972359062 
1149	 0.36459785383234 
1150	 0.365056223892285 
1151	 0.365526526157252 
1152	 0.365972257820288 
1153	 0.366436832413379 
1154	 0.366894704092366 
1155	 0.367322916670251 
1156	 0.367803558098777 
1157	 0.368330827932128 
1158	 0.368812211932776 
1159	 0.369312192955125 
1160	 0.369780361684337 
1161	 0.370188864935335 
1162	 0.370641390306248 
1163	 0.371115167986157 
1164	 0.371574844339728 
1165	 0.372025439100592 
1166	 0.372510637192961 
1167	 0.372978441972078 
1168	 0.373439420770061 
1169	 0.373901245578643 
1170	 0.374370066418628 
1171	 0.374829493179461 
1172	 0.375285211944377 
1173	 0.37573214850572 
1174	 0.376171933453631 
1175	 0.376615502228665 
1176	 0.377058669176974 
1177	 0.377490983736102 
1178	 0.377913922353112 
1179	 0.378348999588007 
1180	 0.378784193663219 
1181	 0.379212792765896 
1182	 0.379640396456508 
1183	 0.380087871319479 
1184	 0.380514648924024 
1185	 0.380929508514737 
1186	 0.381339967253644 
1187	 0.381745517364359 
1188	 0.382151470472256 
1189	 0.382549081158622 
1190	 0.38294884742901 
1191	 0.3833555124011 
1192	 0.383753366029967 
1193	 0.384144144586225 
1194	 0.384532539342763 
1195	 0.384914841359338 
1196	 0.385300273495462 
1197	 0.385679375957744 
1198	 0.386065575880193 
1199	 0.386455646163549 
1200	 0.386854747862575 
1201	 0.387241405407117 
1202	 0.387633662572344 
1203	 0.388007617156098 
1204	 0.388360688799088 
1205	 0.388731756371983 
1206	 0.389101663575195 
1207	 0.389473423771993 
1208	 0.389860517158881 
1209	 0.390233079102665 
1210	 0.390612078905453 
1211	 0.390963001000538 
1212	 0.391278342079984 
1213	 0.391618313063625 
1214	 0.391948653317519 
1215	 0.392285348040786 
1216	 0.392631152561454 
1217	 0.393008269343832 
1218	 0.393349548383609 
1219	 0.393675818927899 
1220	 0.394005348313474 
1221	 0.394321899067579 
1222	 0.39465140260946 
1223	 0.394992477480785 
1224	 0.395318787103651 
1225	 0.395647958076115 
1226	 0.395965417976108 
1227	 0.396262907853168 
1228	 0.396570693852324 
1229	 0.396885746187061 
1230	 0.397189059522244 
1231	 0.397488970624241 
1232	 0.397787524554724 
1233	 0.398081754199854 
1234	 0.398358012774003 
1235	 0.398665154104533 
1236	 0.398991387932255 
1237	 0.399298793200994 
1238	 0.399613566493742 
1239	 0.399921270857041 
1240	 0.400208287920632 
1241	 0.400515323659405 
1242	 0.40085146245673 
1243	 0.401154305048952 
1244	 0.401449172763247 
1245	 0.401736437883348 
1246	 0.401987204261595 
1247	 0.402263575991821 
1248	 0.402557239686311 
1249	 0.402840367321292 
1250	 0.40313936921462 
1251	 0.403435508652099 
1252	 0.403703125902211 
1253	 0.403951610034928 
1254	 0.404201242471684 
1255	 0.404428112249248 
1256	 0.404669279212313 
1257	 0.404925564903645 
1258	 0.405158592226278 
1259	 0.405369410610417 
1260	 0.405601095958582 
1261	 0.405830105109641 
1262	 0.406061421590727 
1263	 0.406319383996101 
1264	 0.406556733513948 
1265	 0.406757036969089 
1266	 0.406993148711093 
1267	 0.407258467307688 
1268	 0.407499871757688 
1269	 0.407744901851557 
1270	 0.408004918726342 
1271	 0.408259084309471 
1272	 0.40849388200263 
1273	 0.408748526249609 
1274	 0.409025516672276 
1275	 0.409286813225257 
1276	 0.409533462449489 
1277	 0.409802371650016 
1278	 0.410090585363433 
1279	 0.410358093211301 
1280	 0.410629809372891 
1281	 0.410891498233122 
1282	 0.411134049677016 
1283	 0.41138087730443 
1284	 0.411637189240022 
1285	 0.411870684313837 
1286	 0.412104449259661 
1287	 0.412354726283975 
1288	 0.412602954523348 
1289	 0.412867996217206 
1290	 0.41309928717154 
1291	 0.41332071167579 
1292	 0.413531609046877 
1293	 0.413720682480169 
1294	 0.413910631612966 
1295	 0.414103865058288 
1296	 0.414274176195886 
1297	 0.41443889173902 
1298	 0.414574584455343 
1299	 0.414676418070004 
1300	 0.414786236664793 
1301	 0.414877746464004 
1302	 0.414964281047785 
1303	 0.415045380289244 
1304	 0.41513183895778 
1305	 0.415204457946105 
1306	 0.415284495585058 
1307	 0.415371606581214 
1308	 0.415443239741738 
1309	 0.415489181545174 
1310	 0.415510708745305 
1311	 0.415530132913268 
1312	 0.415516869143758 
1313	 0.41553646957314 
1314	 0.415576369116805 
1315	 0.415595776356602 
1316	 0.415621120272506 
1317	 0.415633143294023 
1318	 0.415624474822814 
1319	 0.415615278423384 
1320	 0.415606278962462 
1321	 0.415592425206712 
1322	 0.415565874050515 
1323	 0.415549025896584 
1324	 0.415525163858424 
1325	 0.415486336177802 
1326	 0.415444210133244 
1327	 0.415392153691245 
1328	 0.415350314988657 
1329	 0.415324761435088 
1330	 0.415271753107165 
1331	 0.415216068866717 
1332	 0.415148477415482 
1333	 0.415062158490726 
1334	 0.414967340070631 
1335	 0.414851352785546 
1336	 0.414765098228424 
1337	 0.414687126620091 
1338	 0.414596504982152 
1339	 0.414528198171285 
1340	 0.414437738338143 
1341	 0.414313630126099 
1342	 0.414207193773396 
1343	 0.414100635665065 
1344	 0.414004980205726 
1345	 0.413928931908979 
1346	 0.413827273446273 
1347	 0.413723361334972 
1348	 0.413620521837396 
1349	 0.413484586250313 
1350	 0.413361461308567 
1351	 0.413244276291542 
1352	 0.413142618367804 
1353	 0.413006134750501 
1354	 0.412868865560307 
1355	 0.412712385099915 
1356	 0.412506486359049 
1357	 0.412347450660978 
1358	 0.412193378586861 
1359	 0.412054478097578 
1360	 0.411949119240957 
1361	 0.411830426862381 
1362	 0.411733130457585 
1363	 0.411604267736652 
1364	 0.41145530994604 
1365	 0.411306039036427 
1366	 0.411149867400403 
1367	 0.410965348471973 
1368	 0.410805600755811 
1369	 0.410632162827871 
1370	 0.410415065335097 
1371	 0.410192021156014 
1372	 0.409930376371194 
1373	 0.409640455320824 
1374	 0.409320573048331 
1375	 0.40898618734293 
1376	 0.408586328448267 
1377	 0.408159829640912 
1378	 0.40765248589121 
1379	 0.407081005098885 
1380	 0.406471224832867 
1381	 0.405790452287309 
1382	 0.40508166299541 
1383	 0.404366115923203 
1384	 0.403552489138572 
1385	 0.402697901263296 
1386	 0.401755262854594 
1387	 0.400730661528988 
1388	 0.399638428867518 
1389	 0.398482636801356 
1390	 0.397242156102289 
1391	 0.395928947261293 
1392	 0.394538636581704 
1393	 0.393058882303742 
1394	 0.391527575668792 
1395	 0.389898017654273 
1396	 0.388236941263126 
1397	 0.386592014312672 
1398	 0.384912239723897 
1399	 0.383232200709185 
1400	 0.381557406603531 
1401	 0.37987327158527 
1402	 0.378153770817133 
1403	 0.376476606113289 
1404	 0.37479740305638 
1405	 0.373178928964328 
1406	 0.37158942914152 
1407	 0.370015714636925 
1408	 0.368463926384197 
1409	 0.366973290306429 
1410	 0.365448946171989 
1411	 0.364088893402075 
1412	 0.362809573495562 
1413	 0.361646786708258 
1414	 0.36066602518221 
1415	 0.359774263576691 
1416	 0.359007573914805 
1417	 0.358329661277714 
1418	 0.357670414045366 
1419	 0.357073378306385 
1420	 0.356516879464023 
1421	 0.355984301510491 
1422	 0.355469806661753 
1423	 0.354933983594891 
1424	 0.354358252031162 
1425	 0.353737279246123 
1426	 0.353145629071002 
1427	 0.352506950050384 
1428	 0.351950609465429 
1429	 0.351432675543868 
1430	 0.350946262929685 
1431	 0.350517341266759 
1432	 0.350070385142732 
1433	 0.349636338445928 
1434	 0.349216459564563 
1435	 0.348775329337185 
1436	 0.348401673893881 
1437	 0.348076608866893 
1438	 0.347761825353654 
1439	 0.347494559516154 
1440	 0.34722778852008 
1441	 0.346939748290558 
1442	 0.346653693798015 
1443	 0.346365574350638 
1444	 0.34608234850401 
1445	 0.345818259754398 
1446	 0.345566745730348 
1447	 0.345312620140166 
1448	 0.345044906162872 
1449	 0.344742712317149 
1450	 0.344416690368479 
1451	 0.344080567505346 
1452	 0.343717760427942 
1453	 0.343348723459171 
1454	 0.342967271869535 
1455	 0.34258617424968 
1456	 0.342185072080659 
1457	 0.341794195557452 
1458	 0.34141357814302 
1459	 0.341014557215172 
1460	 0.340585864611184 
1461	 0.340203417692222 
1462	 0.339809771076457 
1463	 0.339473178657969 
1464	 0.339181774799565 
1465	 0.338908545749737 
1466	 0.338657675972183 
1467	 0.338445439681407 
1468	 0.338216148735884 
1469	 0.338109939987442 
1470	 0.33807334371856 
1471	 0.338106507307741 
1472	 0.338245609910459 
1473	 0.338461435842511 
1474	 0.338721791792266 
1475	 0.339042281847168 
1476	 0.339410674158025 
1477	 0.339843797545373 
1478	 0.340344800305484 
1479	 0.340879540227601 
1480	 0.341455855535618 
1481	 0.342059521461312 
1482	 0.342662905718907 
1483	 0.343288813486192 
1484	 0.343894380147279 
1485	 0.344508143144131 
1486	 0.3451066029775 
1487	 0.345693746820016 
1488	 0.346267258666192 
1489	 0.346841677650768 
1490	 0.347388089419627 
1491	 0.347920102915943 
1492	 0.348422057518102 
1493	 0.348891299441883 
1494	 0.349361926413535 
1495	 0.349815784905153 
1496	 0.350249871691319 
1497	 0.350675252358184 
1498	 0.351089191135345 
1499	 0.351486997794322 
1500	 0.351858619700097 
1501	 0.352209625583554 
1502	 0.352555656286574 
1503	 0.352871941965474 
1504	 0.353188971528149 
1505	 0.353520513487384 
1506	 0.353847534061375 
1507	 0.354172230093477 
1508	 0.354493272443072 
1509	 0.354784571230338 
1510	 0.355068167909414 
1511	 0.355343583863076 
1512	 0.355593726389342 
1513	 0.355840895051542 
1514	 0.356110997757955 
1515	 0.356376537641175 
1516	 0.356632031601852 
1517	 0.356902674862325 
1518	 0.357193719165163 
1519	 0.357460280816571 
1520	 0.357723915548098 
1521	 0.357981453800967 
1522	 0.358223421769127 
1523	 0.358469173371705 
1524	 0.358713191119651 
1525	 0.358955560745633 
1526	 0.359196774145681 
1527	 0.359435636962358 
1528	 0.359678936833307 
1529	 0.359907753707929 
1530	 0.360137127163537 
1531	 0.360346454828155 
1532	 0.360522839878839 
1533	 0.360719438592225 
1534	 0.360909491588899 
1535	 0.361109415345739 
1536	 0.361323701670664 
1537	 0.361539626893467 
1538	 0.36176800385826 
1539	 0.361976231573521 
1540	 0.36217484963961 
1541	 0.362382525236186 
1542	 0.362584108514334 
1543	 0.362779570427006 
1544	 0.362991986764168 
1545	 0.363181957981157 
1546	 0.363349533203553 
1547	 0.363516772083415 
1548	 0.363674715897513 
1549	 0.363813826913234 
1550	 0.363978397510482 
1551	 0.364144842590763 
1552	 0.364311529301501 
1553	 0.364517520967765 
1554	 0.364727447101063 
1555	 0.3649221632591 
1556	 0.365106585249006 
1557	 0.365290086940958 
1558	 0.365483115779063 
1559	 0.365663720872453 
1560	 0.36583467868617 
1561	 0.366015304878278 
1562	 0.366178292476218 
1563	 0.366311834346068 
1564	 0.366464108144665 
1565	 0.366634097936172 
1566	 0.366778447763219 
1567	 0.366910905777767 
1568	 0.367034537583872 
1569	 0.367138204305201 
1570	 0.367251673117478 
1571	 0.367364851464239 
1572	 0.367477174760206 
1573	 0.367588609369191 
1574	 0.367704526124521 
1575	 0.367821507734179 
1576	 0.367931644022299 
1577	 0.368043893472542 
1578	 0.368154098229933 
1579	 0.368246257278015 
1580	 0.368361932159079 
1581	 0.368489608618214 
1582	 0.368622821480182 
1583	 0.368789860774013 
1584	 0.36891663149873 
1585	 0.369035175203717 
1586	 0.369133118239787 
1587	 0.36920134249273 
1588	 0.36926436050404 
1589	 0.36931222087399 
1590	 0.369360064277521 
1591	 0.36938403603002 
1592	 0.369428373183101 
1593	 0.369480431094876 
1594	 0.369533779109565 
1595	 0.369607692647363 
1596	 0.369664624215527 
1597	 0.369714185040792 
1598	 0.369761996593928 
1599	 0.369811186460165 
1600	 0.369839842091404 
1601	 0.369839097829384 
1602	 0.369863089993334 
1603	 0.369873059501096 
1604	 0.369906064513845 
1605	 0.369971760913554 
1606	 0.370037424299015 
1607	 0.370117345585581 
1608	 0.370191853553846 
1609	 0.370269674897352 
1610	 0.370345658941263 
1611	 0.370372226464007 
1612	 0.370372241193151 
1613	 0.370343922323667 
1614	 0.370303961104095 
1615	 0.370298163204892 
1616	 0.370293712894236 
1617	 0.370291943487037 
1618	 0.370305877376455 
1619	 0.370316761716379 
1620	 0.370328163105083 
1621	 0.370334675698733 
1622	 0.370352524687689 
1623	 0.370344961394757 
1624	 0.370317334823694 
1625	 0.370300745896463 
1626	 0.370281597055678 
1627	 0.370250277968602 
1628	 0.370215806922939 
1629	 0.370182922092068 
1630	 0.370125276110068 
1631	 0.370117518368549 
1632	 0.370143194536523 
1633	 0.370140249454237 
1634	 0.370165309166594 
1635	 0.37013265219371 
1636	 0.370055501080257 
1637	 0.36999837099978 
1638	 0.369914836646676 
1639	 0.369867663141651 
1640	 0.36983503371746 
1641	 0.369811317846535 
1642	 0.369812887407081 
1643	 0.369790619576376 
1644	 0.369768338298066 
1645	 0.369741142355256 
1646	 0.369697511969868 
1647	 0.369669205221495 
1648	 0.36966616080535 
1649	 0.369613546493508 
1650	 0.369539883627632 
1651	 0.369468135200738 
1652	 0.369359924346224 
1653	 0.369277999185403 
1654	 0.369209923414026 
1655	 0.369142876950169 
1656	 0.369086075405929 
1657	 0.369009470319726 
1658	 0.368946839730932 
1659	 0.368841526536895 
1660	 0.36869152987898 
1661	 0.368566242617159 
1662	 0.368410296751798 
1663	 0.368305812250109 
1664	 0.368242755960468 
1665	 0.368157286517405 
1666	 0.368084804200548 
1667	 0.368011430886982 
1668	 0.367935976768467 
1669	 0.36784804455235 
1670	 0.36777625488453 
1671	 0.367670447291033 
1672	 0.367525029818546 
1673	 0.367398895129917 
1674	 0.367256037921814 
1675	 0.367143043458011 
1676	 0.367047191138455 
1677	 0.366952184864295 
1678	 0.366886445851599 
1679	 0.366788010289411 
1680	 0.366669829109045 
1681	 0.366565804991824 
1682	 0.366457080644393 
1683	 0.366345831749059 
1684	 0.366224141711702 
1685	 0.366138930835062 
1686	 0.366081810504839 
1687	 0.365985672011104 
1688	 0.365912129031632 
1689	 0.365804424204751 
1690	 0.365642498714619 
1691	 0.3654997476652 
1692	 0.365366530407782 
1693	 0.365217014431364 
1694	 0.365033691361254 
1695	 0.364892949215896 
1696	 0.364770257142777 
1697	 0.364644255915291 
1698	 0.36454748510014 
1699	 0.364425595426027 
1700	 0.364297815293897 
1701	 0.36415080680111 
1702	 0.363986724140348 
1703	 0.363823960320518 
1704	 0.363638118868496 
1705	 0.363468857038811 
1706	 0.363313393035689 
1707	 0.363145502326547 
1708	 0.362978245318542 
1709	 0.362801861909092 
1710	 0.362607078960602 
1711	 0.362436061975186 
1712	 0.362286739528704 
1713	 0.362096868454446 
1714	 0.361909885413949 
1715	 0.361691913520327 
1716	 0.361417941149228 
1717	 0.361184043258923 
1718	 0.360949574489443 
1719	 0.360734332527792 
1720	 0.36054202646347 
1721	 0.360338416986621 
1722	 0.360143260326034 
1723	 0.359943656234608 
1724	 0.359747075839059 
1725	 0.359529978656857 
1726	 0.359312350284868 
1727	 0.359068036989177 
1728	 0.358777946876018 
1729	 0.358535771149663 
1730	 0.358313812044675 
1731	 0.358070092576662 
1732	 0.357848310980941 
1733	 0.357590398194783 
1734	 0.357282825255237 
1735	 0.357012892398613 
1736	 0.356754200912354 
1737	 0.356492906339398 
1738	 0.356249128194786 
1739	 0.355979168484574 
1740	 0.355693074226197 
1741	 0.355409554731689 
1742	 0.355110638903005 
1743	 0.35483202133369 
1744	 0.354567857285701 
1745	 0.354284050630504 
1746	 0.354003275907077 
1747	 0.353693222847516 
1748	 0.353388593180805 
1749	 0.35309475936152 
1750	 0.352817444679644 
1751	 0.352553084234271 
1752	 0.352266899773618 
1753	 0.351986038889326 
1754	 0.351684136104259 
1755	 0.351373895116278 
1756	 0.351087291918387 
1757	 0.350760081921821 
1758	 0.350442435978328 
1759	 0.350140633889329 
1760	 0.349835080826527 
1761	 0.3495754489986 
1762	 0.349311553687024 
1763	 0.349028171709305 
1764	 0.348715693653903 
1765	 0.348387547209286 
1766	 0.348064387518393 
1767	 0.34772687022676 
1768	 0.34740829541815 
1769	 0.347098703059163 
1770	 0.346797919745851 
1771	 0.346531984713454 
1772	 0.346286157006915 
1773	 0.346039438169032 
1774	 0.345802624813424 
1775	 0.345573411407225 
1776	 0.345308491257608 
1777	 0.345053088024676 
1778	 0.344819025910758 
1779	 0.344559373203808 
1780	 0.34432658557943 
1781	 0.344112829324138 
1782	 0.343876388850889 
1783	 0.343671837244962 
1784	 0.343481100682442 
1785	 0.343314772633068 
1786	 0.343128584918899 
1787	 0.342953162665812 
1788	 0.342748229090695 
1789	 0.342511312275608 
1790	 0.342302164095612 
1791	 0.342086078115646 
1792	 0.341871309946138 
1793	 0.341651064751039 
1794	 0.341474147310283 
1795	 0.341321271877433 
1796	 0.341168913113892 
1797	 0.341072258245759 
1798	 0.34091758094454 
1799	 0.34072120516909 
1800	 0.340543051361346 
1801	 0.339192662006738 
1802	 0.339296521296633 
1803	 0.339418462815572 
1804	 0.339553611561377 
1805	 0.339719586701621 
1806	 0.339840033802058 
1807	 0.339946951991073 
1808	 0.340011709664584 
1809	 0.340067680670875 
1810	 0.340055796361513 
1811	 0.339995287697978 
1812	 0.339898644120916 
1813	 0.339779612179869 
1814	 0.339620115149256 
1815	 0.339417272044079 
1816	 0.33922246138298 
1817	 0.339002980754227 
1818	 0.338725768652096 
1819	 0.338492965569678 
1820	 0.33828956199087 
1821	 0.338036250735643 
1822	 0.337769197062209 
1823	 0.337505871112495 
1824	 0.337197198496858 
1825	 0.336851855809441 
1826	 0.336502301831952 
1827	 0.336111016573687 
1828	 0.335654578913981 
1829	 0.335136203807755 
1830	 0.334591288017987 
1831	 0.333991370107658 
1832	 0.333378680707261 
1833	 0.332724102206963 
1834	 0.332029597082546 
1835	 0.331339572251042 
1836	 0.330607564721928 
1837	 0.329902789508558 
1838	 0.329253760714517 
1839	 0.328593656211 
1840	 0.327943501052218 
1841	 0.327311705656294 
1842	 0.326674986485277 
1843	 0.326067946566863 
1844	 0.325536339495527 
1845	 0.325021115700724 
1846	 0.324553982691025 
1847	 0.324143901003211 
1848	 0.323789218019793 
1849	 0.323483654283831 
1850	 0.32322666746107 
1851	 0.323046682648887 
1852	 0.32288992447481 
1853	 0.322713673212504 
1854	 0.322537475417474 
1855	 0.322341534839117 
1856	 0.322114849791204 
1857	 0.321846279961503 
1858	 0.321564979699008 
1859	 0.32127182596648 
1860	 0.320927319464864 
1861	 0.320535124368551 
1862	 0.320127272124224 
1863	 0.319695983470898 
1864	 0.319214702678477 
1865	 0.318729008573458 
1866	 0.318203525940656 
1867	 0.317571888515407 
1868	 0.316879949425201 
1869	 0.316123512110511 
1870	 0.315265718971806 
1871	 0.314294564405281 
1872	 0.313253475410427 
1873	 0.312098954809497 
1874	 0.310793039674384 
1875	 0.309347111910543 
1876	 0.307852402372183 
1877	 0.306249838576905 
1878	 0.304452957717288 
1879	 0.302541543063644 
1880	 0.300476945999751 
1881	 0.298195901001221 
1882	 0.295847635803198 
1883	 0.293406641466778 
1884	 0.290801907428732 
1885	 0.288070906074153 
1886	 0.285221484947339 
1887	 0.282192132076955 
1888	 0.27905416286152 
1889	 0.275825674660949 
1890	 0.272527431613266 
1891	 0.269226308815969 
1892	 0.265844095882673 
1893	 0.262493926305956 
1894	 0.259119985160646 
1895	 0.25577352765594 
1896	 0.252418441714617 
1897	 0.249130132624587 
1898	 0.245877567741114 
1899	 0.242688634178876 
1900	 0.239620414914626 
1901	 0.236633418711574 
1902	 0.233793688703532 
1903	 0.231105973069178 
1904	 0.228523576368001 
1905	 0.22604249126581 
1906	 0.223726035752629 
1907	 0.22153944242337 
1908	 0.219463814651497 
1909	 0.217513126206956 
1910	 0.215672723313593 
1911	 0.213960918542525 
1912	 0.212356563466669 
1913	 0.210845414818439 
1914	 0.209455865073927 
1915	 0.208144534611446 
1916	 0.206927767387652 
1917	 0.205777227697678 
1918	 0.204742173106592 
1919	 0.203771843714292 
1920	 0.202863746063533 
1921	 0.202058832734129 
1922	 0.201303394764968 
1923	 0.200621362561251 
1924	 0.200007320685155 
1925	 0.199470117395529 
1926	 0.198981413881053 
1927	 0.198556335991678 
1928	 0.198192188420986 
1929	 0.197870558467284 
1930	 0.197617004325114 
1931	 0.19740933968133 
1932	 0.197254532149011 
1933	 0.197149874738573 
1934	 0.197089520830238 
1935	 0.197075432029359 
1936	 0.197116108764699 
1937	 0.197180170068405 
1938	 0.197283395570284 
1939	 0.197426996434863 
1940	 0.197604376473336 
1941	 0.197815192492446 
1942	 0.198090925840236 
1943	 0.198395093134103 
1944	 0.198690896781885 
1945	 0.199009052963561 
1946	 0.199338173695355 
1947	 0.199660536719187 
1948	 0.200010637235987 
1949	 0.200391594052782 
1950	 0.200780079078888 
1951	 0.201174509080507 
1952	 0.201596823847513 
1953	 0.20203091735108 
1954	 0.202468881374891 
1955	 0.202917015330437 
1956	 0.203384989054944 
1957	 0.203872142861593 
1958	 0.204381851240651 
1959	 0.204898919670882 
1960	 0.205447747588076 
1961	 0.205976819588537 
1962	 0.206503012731938 
1963	 0.207040399132357 
1964	 0.20757304358504 
1965	 0.208112477403592 
1966	 0.208674431345513 
1967	 0.209249519971765 
1968	 0.209838948623861 
1969	 0.21045708082241 
1970	 0.211049294004838 
1971	 0.21164759843132 
1972	 0.212244163670427 
1973	 0.212814139817609 
1974	 0.213411404225741 
1975	 0.2140356454321 
1976	 0.214647387689821 
1977	 0.215247438648514 
1978	 0.215857432089821 
1979	 0.21644761880982 
1980	 0.217039102189219 
1981	 0.217635134108602 
1982	 0.218233699974085 
1983	 0.218835432783449 
1984	 0.219434775317389 
1985	 0.220043654580726 
1986	 0.220673485607194 
1987	 0.221280211508821 
1988	 0.221876237317284 
1989	 0.222485341237785 
1990	 0.22306507025704 
1991	 0.223661480929163 
1992	 0.224273868181614 
1993	 0.224915828543157 
1994	 0.225522232376875 
1995	 0.226122053096912 
1996	 0.226725039276821 
1997	 0.227310610541249 
1998	 0.227907823332101 
1999	 0.228509352142933 
2000	 0.229124693608114 
2001	 0.229759528461414 
2002	 0.230371765113698 
2003	 0.230992687909833 
2004	 0.23160759639801 
2005	 0.232195148503935 
2006	 0.232739698410756 
2007	 0.233317335005229 
2008	 0.233895561067569 
2009	 0.234471826376031 
2010	 0.235055611179499 
2011	 0.235640664405253 
2012	 0.236227492054969 
2013	 0.236803727247306 
2014	 0.237374431344068 
2015	 0.237960411958278 
2016	 0.238517402985398 
2017	 0.239081916911379 
2018	 0.239640977024999 
2019	 0.240199270482183 
2020	 0.240750987854539 
2021	 0.241303819372887 
2022	 0.241843731396435 
2023	 0.242382200877601 
2024	 0.242906913143221 
2025	 0.243405040288345 
2026	 0.243916429834312 
2027	 0.244423614404421 
2028	 0.244932771229892 
2029	 0.245448160566932 
2030	 0.245985186578143 
2031	 0.246476890478676 
2032	 0.246956763631508 
2033	 0.247423719098507 
2034	 0.24785983361648 
2035	 0.248303935281671 
2036	 0.248757946855048 
2037	 0.249181649564312 
2038	 0.249589533801471 
2039	 0.249980772767873 
2040	 0.250341182903748 
2041	 0.250698276235108 
2042	 0.251058334086314 
2043	 0.251431301841673 
2044	 0.251806064202841 
2045	 0.252186779480791 
2046	 0.252577465246537 
2047	 0.252983967741741 
2048	 0.253373214571736 
2049	 0.253780700808878 
2050	 0.254157233750955 
2051	 0.254506603702563 
2052	 0.254854904531145 
2053	 0.255186560374569 
2054	 0.255518632335622 
2055	 0.255850057852979 
2056	 0.256168778260253 
2057	 0.256488191811688 
2058	 0.256803241658867 
2059	 0.257121148477698 
2060	 0.257437376095454 
2061	 0.257750491623492 
2062	 0.258061299525768 
2063	 0.258373728597915 
2064	 0.258689438044296 
2065	 0.25899536689378 
2066	 0.25931011512009 
2067	 0.259602458837214 
2068	 0.259881969181055 
2069	 0.26014500223822 
2070	 0.260399701648851 
2071	 0.260627359887115 
2072	 0.260885845835972 
2073	 0.261151613293497 
2074	 0.26140854432351 
2075	 0.261689016141349 
2076	 0.261935178846316 
2077	 0.262139580267147 
2078	 0.262375961459639 
2079	 0.262607340778087 
2080	 0.262853708557919 
2081	 0.263133705274047 
2082	 0.263393362579079 
2083	 0.263656040131306 
2084	 0.263907985808579 
2085	 0.264141097456796 
2086	 0.26436389507939 
2087	 0.264568840678193 
2088	 0.264747876980174 
2089	 0.264934798825168 
2090	 0.265112981611335 
2091	 0.265285008657711 
2092	 0.265447621575501 
2093	 0.265617804447677 
2094	 0.265777480562675 
2095	 0.265947504453724 
2096	 0.266122387464226 
2097	 0.266308921585343 
2098	 0.26650273231012 
2099	 0.266701270252768 
2100	 0.266905920364828 
2101	 0.267128182901273 
2102	 0.267333916946896 
2103	 0.267543614316111 
2104	 0.267736111855443 
2105	 0.267909828278283 
2106	 0.268096366070938 
2107	 0.268280037363082 
2108	 0.268462554199264 
2109	 0.268650605110207 
2110	 0.268837289723715 
2111	 0.269003402868822 
2112	 0.269192860926008 
2113	 0.269375407848134 
2114	 0.269609040098401 
2115	 0.269827189498341 
2116	 0.270061913528702 
2117	 0.27028869284121 
2118	 0.270532010856231 
2119	 0.270732572750023 
2120	 0.27090499272736 
2121	 0.271103265699438 
2122	 0.271294920765093 
2123	 0.271475164793613 
2124	 0.271684947019754 
2125	 0.271852845485873 
2126	 0.271981467613568 
2127	 0.272106502005238 
2128	 0.272208571633556 
2129	 0.272316083423435 
2130	 0.272432829175816 
2131	 0.272511482778266 
2132	 0.272590999664001 
2133	 0.272682817717008 
2134	 0.272727445369468 
2135	 0.272721350530495 
2136	 0.272752469892992 
2137	 0.272799223316177 
2138	 0.272791110329959 
2139	 0.272777647252 
2140	 0.272742054864461 
2141	 0.272645183414423 
2142	 0.27256446548949 
2143	 0.272505829333667 
2144	 0.272410943637867 
2145	 0.272294481764154 
2146	 0.272156859623852 
2147	 0.271980537495195 
2148	 0.271815911876106 
2149	 0.271631478389743 
2150	 0.271417798349196 
2151	 0.271226942729647 
2152	 0.271045440892967 
2153	 0.270844164932853 
2154	 0.270659387677657 
2155	 0.27042883402153 
2156	 0.270181470572045 
2157	 0.269895821070291 
2158	 0.269553627338917 
2159	 0.26922929194899 
2160	 0.268878467158022 
2161	 0.268532679591693 
2162	 0.26818798117124 
2163	 0.267851478155136 
2164	 0.267500064065734 
2165	 0.267169763921091 
2166	 0.266853490278297 
2167	 0.266571084742861 
2168	 0.26624318813997 
2169	 0.265909998734775 
2170	 0.265570675655479 
2171	 0.265214828054206 
2172	 0.264845391194732 
2173	 0.264470885213459 
2174	 0.264090719765064 
2175	 0.263681128764137 
2176	 0.263282829394644 
2177	 0.2629087162323 
2178	 0.262501062635796 
2179	 0.262071715820114 
2180	 0.261639219850398 
2181	 0.261194938751703 
2182	 0.260735700705689 
2183	 0.260258543497203 
2184	 0.259788702640932 
2185	 0.259300531349283 
2186	 0.25877939273577 
2187	 0.258294867054122 
2188	 0.257807703465526 
2189	 0.257349853202227 
2190	 0.256922847385676 
2191	 0.256486893372298 
2192	 0.256056042852924 
2193	 0.255639201340685 
2194	 0.255217791323956 
2195	 0.254824185250656 
2196	 0.254468357804521 
2197	 0.254100955011666 
2198	 0.253742595739297 
2199	 0.253387437084614 
2200	 0.25300520834399 
2201	 0.252669188922595 
2202	 0.252362743815794 
2203	 0.25206354595971 
2204	 0.251804123626948 
2205	 0.251579542761053 
2206	 0.25138042176362 
2207	 0.251203836335218 
2208	 0.251067101775484 
2209	 0.250976753998157 
2210	 0.250893055306094 
2211	 0.250836267791114 
2212	 0.25079895384765 
2213	 0.250793671420455 
2214	 0.250780973656192 
2215	 0.250822666917184 
2216	 0.250799962962248 
2217	 0.250740880902622 
2218	 0.250677885321631 
2219	 0.250569180680523 
2220	 0.25047869034314 
2221	 0.250382389306724 
2222	 0.250325080305956 
2223	 0.250213531739883 
2224	 0.250068774771305 
2225	 0.249896025001206 
2226	 0.249670135210075 
2227	 0.249456545430011 
2228	 0.249227270027277 
2229	 0.248998700829191 
2230	 0.248779578190526 
2231	 0.248504291003725 
2232	 0.248205202933104 
2233	 0.247889263199425 
2234	 0.247522724592809 
2235	 0.247168733626716 
2236	 0.246835713192696 
2237	 0.246441391971421 
2238	 0.246010505603173 
2239	 0.245564715059497 
2240	 0.245085802473985 
2241	 0.244582352374645 
2242	 0.244075934515801 
2243	 0.243516646351982 
2244	 0.242897881770764 
2245	 0.242274181913553 
2246	 0.241626972192897 
2247	 0.240924831778492 
2248	 0.240213807851434 
2249	 0.239484098597106 
2250	 0.238723008670249 
2251	 0.237889301515412 
2252	 0.237151784194752 
2253	 0.236412624396585 
2254	 0.235728479718006 
2255	 0.23511375541988 
2256	 0.234503291759391 
2257	 0.233887806435164 
2258	 0.233351224421443 
2259	 0.232840744809759 
2260	 0.232419739475557 
2261	 0.232089405259435 
2262	 0.231781297715299 
2263	 0.231531137540844 
2264	 0.231332770239776 
2265	 0.231148156374316 
2266	 0.231065943195611 
2267	 0.231083682714852 
2268	 0.231143834643214 
2269	 0.231288803297636 
2270	 0.231466971298806 
2271	 0.23169655347384 
2272	 0.231957620069395 
2273	 0.232274003348708 
2274	 0.232632478765251 
2275	 0.232976720358145 
2276	 0.233340157251001 
2277	 0.233719486533015 
2278	 0.234083874905343 
2279	 0.234514263070374 
2280	 0.235000398517569 
2281	 0.235475538552926 
2282	 0.236002739128209 
2283	 0.236493967604249 
2284	 0.236975516122192 
2285	 0.237448572360979 
2286	 0.237941614440676 
2287	 0.238366478516028 
2288	 0.238755787085879 
2289	 0.239131925057813 
2290	 0.239451799018502 
2291	 0.239767633168185 
2292	 0.240091632987759 
2293	 0.240366022842643 
2294	 0.24058667773636 
2295	 0.240813797989831 
2296	 0.24102360332855 
2297	 0.241210394053773 
2298	 0.241389316876004 
2299	 0.241566330700149 
2300	 0.241701444473222 
2301	 0.241855907542977 
2302	 0.241983809422729 
2303	 0.242123941708771 
2304	 0.242274009020627 
2305	 0.242387704962483 
2306	 0.242484884322383 
2307	 0.242550695345114 
2308	 0.242657046911921 
2309	 0.242758186856889 
2310	 0.242854430389273 
2311	 0.24300447679534 
2312	 0.243083481676884 
2313	 0.243090766872872 
2314	 0.243144518539747 
2315	 0.243217787219886 
2316	 0.243248879834932 
2317	 0.243273535026262 
2318	 0.243281753703244 
2319	 0.243241943610897 
2320	 0.243216900854515 
2321	 0.243215745855582 
2322	 0.243177935551015 
2323	 0.243110985414321 
2324	 0.24304002108599 
2325	 0.242978201834392 
2326	 0.242856997907833 
2327	 0.242670834838894 
2328	 0.242531560514996 
2329	 0.242362908389946 
2330	 0.242187323198986 
2331	 0.242141205290495 
2332	 0.242061754721421 
2333	 0.241923311512351 
2334	 0.241819648633946 
2335	 0.241673031086578 
2336	 0.241432764323561 
2337	 0.241162573189331 
2338	 0.24088469573419 
2339	 0.240581107545899 
2340	 0.240297752140987 
2341	 0.24003966166499 
2342	 0.239744474617622 
2343	 0.239437881999007 
2344	 0.239114062590965 
2345	 0.238795971617584 
2346	 0.238495743935363 
2347	 0.238163694828383 
2348	 0.23781691708171 
2349	 0.237460523524727 
2350	 0.237076653780952 
2351	 0.236694432357726 
2352	 0.236309092637045 
2353	 0.235903218127633 
2354	 0.235492856340434 
2355	 0.235069219466188 
2356	 0.234621737748392 
2357	 0.234167194543359 
2358	 0.233696039510515 
2359	 0.233226665476107 
2360	 0.232741179427895 
2361	 0.232275006155568 
2362	 0.231828913149267 
2363	 0.231357713856647 
2364	 0.230893102951049 
2365	 0.230408560633562 
2366	 0.229881494323375 
2367	 0.229378197924855 
2368	 0.228897295557578 
2369	 0.22836955002304 
2370	 0.227834121653252 
2371	 0.227287615869327 
2372	 0.226656162249764 
2373	 0.226043141889307 
2374	 0.225418612959539 
2375	 0.224814586843085 
2376	 0.224264535707777 
2377	 0.223654890522514 
2378	 0.223063781791817 
2379	 0.222448442520225 
2380	 0.221738247181501 
2381	 0.221054402841536 
2382	 0.220406111281241 
2383	 0.2197418635473 
2384	 0.219115442808983 
2385	 0.218483465901887 
2386	 0.217787658058051 
2387	 0.217076514605513 
2388	 0.216372976595274 
2389	 0.215739823691075 
2390	 0.215107474852697 
2391	 0.214439186789087 
2392	 0.213723482368608 
2393	 0.212946082293419 
2394	 0.212239085117269 
2395	 0.211568040559298 
2396	 0.210955341548384 
2397	 0.210395031849694 
2398	 0.209761925018138 
2399	 0.209132538147621 
2400	 0.208521908246862 
2401	 0.207857041145029 
2402	 0.20717624171466 
2403	 0.206561367406938 
2404	 0.20595862534359 
2405	 0.205331239767203 
2406	 0.20473549596706 
2407	 0.204070691325277 
2408	 0.203355879889715 
2409	 0.202673040578351 
2410	 0.202116001023411 
2411	 0.201647449515534 
2412	 0.201140932196054 
2413	 0.200663397242834 
2414	 0.200119313034029 
2415	 0.199519419476782 
2416	 0.198955593698217 
2417	 0.198387620253721 
2418	 0.197900151097644 
2419	 0.19747786348436 
2420	 0.196983820398569 
2421	 0.196536014075627 
2422	 0.196057865758749 
2423	 0.195529180427658 
2424	 0.194939693209459 
2425	 0.194301391215728 
2426	 0.193733672760822 
2427	 0.19313534032949 
2428	 0.192577398362337 
2429	 0.19213974088991 
2430	 0.191599276715426 
2431	 0.190914452277752 
2432	 0.190341663011558 
2433	 0.189868122922821 
2434	 0.189290579578231 
2435	 0.188688654460494 
2436	 0.188174916204383 
2437	 0.187662044001384 
2438	 0.187105831047084 
2439	 0.186556905930664 
2440	 0.18600128263625 
2441	 0.185405102804423 
2442	 0.184855563946409 
2443	 0.184468223164568 
2444	 0.183928908361221 
2445	 0.183187060813736 
2446	 0.182543154853188 
2447	 0.181866443096413 
2448	 0.181286655727069 
2449	 0.180827642575293 
2450	 0.180333319997524 
2451	 0.179854044827098 
2452	 0.179322992457099 
2453	 0.178822031212635 
2454	 0.178272401339382 
2455	 0.177645783208661 
2456	 0.177124359294657 
2457	 0.176533865910485 
2458	 0.176115162525148 
2459	 0.175982753794611 
2460	 0.175583303942247 
2461	 0.175100466367637 
2462	 0.174640688833525 
2463	 0.173994681645444 
2464	 0.173476534184404 
2465	 0.173067237653644 
2466	 0.172719629254727 
2467	 0.172454101658384 
2468	 0.172091314447654 
2469	 0.171761202309775 
2470	 0.171352133733627 
2471	 0.170938604537218 
2472	 0.17053685353844 
2473	 0.170192576708832 
2474	 0.169853116277639 
2475	 0.169496629072818 
2476	 0.169228993044956 
2477	 0.168932702300099 
2478	 0.168545288124323 
2479	 0.168172411111682 
2480	 0.167689072268116 
2481	 0.167107289650246 
2482	 0.166694546084911 
2483	 0.166258181330442 
2484	 0.165722449888946 
2485	 0.165285500467468 
2486	 0.164830737227081 
2487	 0.164349410246768 
2488	 0.164146499152615 
2489	 0.164146482696246 
2490	 0.163989987312169 
2491	 0.163642109268349 
2492	 0.163065951443298 
2493	 0.162363742524061 
2494	 0.161765347308519 
2495	 0.161352577594828 
2496	 0.161013432958761 
2497	 0.160599028073439 
2498	 0.160115380874879 
2499	 0.159521865170733 
2500	 0.159041658149048 
