Wavelength	mm2000002.asd
350	 6.18184859400794E-02 
351	 7.06490527840992E-02 
352	 6.48263653429553E-02 
353	 5.23943181803066E-02 
354	 6.23325773550343E-02 
355	 5.54708487577886E-02 
356	 4.67639623170593E-02 
357	 5.46497221279271E-02 
358	 5.74093418217149E-02 
359	 5.49497542354539E-02 
360	 5.20713918364819E-02 
361	 5.50788519533263E-02 
362	 5.53841116227823E-02 
363	 5.43691296738951E-02 
364	 5.39722120354865E-02 
365	 5.51938067272885E-02 
366	 5.35033886941453E-02 
367	 5.03063389957837E-02 
368	 4.87917943820248E-02 
369	 5.22312153987216E-02 
370	 5.42371151752089E-02 
371	 5.36332095758033E-02 
372	 0.053173779623437 
373	 5.47605755225104E-02 
374	 5.53709933089567E-02 
375	 5.41189845169338E-02 
376	 5.49594986236275E-02 
377	 5.40917809603082E-02 
378	 5.44107975863991E-02 
379	 5.85458537259393E-02 
380	 6.00880855139118E-02 
381	 5.79148247605513E-02 
382	 5.52795382225462E-02 
383	 5.77078822375702E-02 
384	 5.85303303037569E-02 
385	 5.86781790919629E-02 
386	 5.94481891197578E-02 
387	 0.060911763747652 
388	 5.96064368568695E-02 
389	 5.82181841725566E-02 
390	 6.01305644257768E-02 
391	 6.17635870070725E-02 
392	 6.44282418333353E-02 
393	 6.81193220885623E-02 
394	 0.071422286054153 
395	 7.13438239707923E-02 
396	 7.15620865260842E-02 
397	 7.44292614815468E-02 
398	 7.75234653911232E-02 
399	 7.83964670285292E-02 
400	 7.88628655954703E-02 
401	 8.13955601176657E-02 
402	 8.20600652087012E-02 
403	 8.22191855113088E-02 
404	 8.33231542733459E-02 
405	 8.64431081938081E-02 
406	 0.089566367289432 
407	 9.17944066606885E-02 
408	 9.26916119422876E-02 
409	 9.18191425138365E-02 
410	 9.23239119692219E-02 
411	 9.45734780854166E-02 
412	 9.72850168966505E-02 
413	 0.098557769663101 
414	 9.83795307517785E-02 
415	 9.78806962968482E-02 
416	 9.93366351688525E-02 
417	 0.099623273704742 
418	 9.95015098333269E-02 
419	 9.99998138779824E-02 
420	 9.96554815090918E-02 
421	 9.92322904947438E-02 
422	 9.87620021705966E-02 
423	 9.79023824344457E-02 
424	 9.80278755326321E-02 
425	 9.75361849864544E-02 
426	 9.59155613757196E-02 
427	 9.52642891165242E-02 
428	 9.43726910942912E-02 
429	 9.30164731286916E-02 
430	 9.14770584024791E-02 
431	 9.09811122540884E-02 
432	 9.01968198962573E-02 
433	 0.088986523671356 
434	 8.84342971012607E-02 
435	 8.84730013604037E-02 
436	 0.088642377765914 
437	 8.87033502539407E-02 
438	 8.91755724388648E-02 
439	 9.01762539455919E-02 
440	 9.16426585990107E-02 
441	 0.093330639149869 
442	 9.45372525754383E-02 
443	 9.57109664788283E-02 
444	 9.70642172683806E-02 
445	 9.82602562266304E-02 
446	 9.96670210326282E-02 
447	 0.101372709122467 
448	 0.103239865571568 
449	 0.104542146462966 
450	 0.106314171131048 
451	 0.108470418967854 
452	 0.109993662273317 
453	 0.111427291128784 
454	 0.112680675029055 
455	 0.113791548538389 
456	 0.115406698846903 
457	 0.116672245846011 
458	 0.117748256632211 
459	 0.119133328501645 
460	 0.120110319031692 
461	 0.121064894958995 
462	 0.122157547690426 
463	 0.123103806175146 
464	 0.123734281579351 
465	 0.124411060400213 
466	 0.125431412855269 
467	 0.126206392125484 
468	 0.126909247137267 
469	 0.12754632108608 
470	 0.128003352754318 
471	 0.128655311693901 
472	 0.129431584049072 
473	 0.130124468160386 
474	 0.13034107173916 
475	 0.130804565369286 
476	 0.131500350886238 
477	 0.132091964234283 
478	 0.132551078654756 
479	 0.133016862011708 
480	 0.133554604461971 
481	 0.134104175067279 
482	 0.134754215049977 
483	 0.135401675872035 
484	 0.135927635945898 
485	 0.136378601324201 
486	 0.136768439717073 
487	 0.137165480436687 
488	 0.137673647494461 
489	 0.138227012548807 
490	 0.138694148278796 
491	 0.139086112059518 
492	 0.139806915919863 
493	 0.140421422933025 
494	 0.140857552747397 
495	 0.141238709906161 
496	 0.141755449135285 
497	 0.142156931823628 
498	 0.142421713969195 
499	 0.142927907433766 
500	 0.143513505812415 
501	 0.143997805914624 
502	 0.144285771444342 
503	 0.144683746850448 
504	 0.145113283791987 
505	 0.145543148402205 
506	 0.145996879837134 
507	 0.146467180806272 
508	 0.146891067164511 
509	 0.147262839733722 
510	 0.147759269182195 
511	 0.148242188440695 
512	 0.148623190118474 
513	 0.148885164330672 
514	 0.149386607505004 
515	 0.149876095805554 
516	 0.150196399465175 
517	 0.150449665488614 
518	 0.150875789224298 
519	 0.151321896934109 
520	 0.151606730451717 
521	 0.152177503059987 
522	 0.152667373644406 
523	 0.153004860598105 
524	 0.153466504073065 
525	 0.153826309507493 
526	 0.154178484301882 
527	 0.154596231412215 
528	 0.154846188717855 
529	 0.155196076717072 
530	 0.155618121214117 
531	 0.155911791153877 
532	 0.156296186447675 
533	 0.156822920040402 
534	 0.157412847986127 
535	 0.157762439387912 
536	 0.158110039342892 
537	 0.158451663588902 
538	 0.158731963040612 
539	 0.159194764992625 
540	 0.159654231710033 
541	 0.160022986854671 
542	 0.160386658450225 
543	 0.160722537062425 
544	 0.161136959246864 
545	 0.161688257961857 
546	 0.162130309811772 
547	 0.162525558151785 
548	 0.1629140879568 
549	 0.163312085451872 
550	 0.163788501893754 
551	 0.164309619100653 
552	 0.164835144282374 
553	 0.165374748572404 
554	 0.165825203201323 
555	 0.166258067268869 
556	 0.166820601568687 
557	 0.167425229361738 
558	 0.16797556030432 
559	 0.168513969337457 
560	 0.169350983084828 
561	 0.169950961980308 
562	 0.170436567626163 
563	 0.171102517043422 
564	 0.17181108920654 
565	 0.17247752339756 
566	 0.173070614416438 
567	 0.173618578971871 
568	 0.174240635784798 
569	 0.175004779402728 
570	 0.175913871685739 
571	 0.176846801192859 
572	 0.177699700541155 
573	 0.178481124604396 
574	 0.179280540124134 
575	 0.180068334767104 
576	 0.180983672469579 
577	 0.18205073954458 
578	 0.182997121729774 
579	 0.183919239577162 
580	 0.184822478400735 
581	 0.185674077360701 
582	 0.18638128434135 
583	 0.187137644189951 
584	 0.188031441277495 
585	 0.188971552934866 
586	 0.190068679747914 
587	 0.191238892380253 
588	 0.19237709461846 
589	 0.193569546705883 
590	 0.194719390018156 
591	 0.195793566180638 
592	 0.196826378924504 
593	 0.197811411199743 
594	 0.198713426132496 
595	 0.199515084107882 
596	 0.200239314398376 
597	 0.201067326292922 
598	 0.201961985225911 
599	 0.202785580430795 
600	 0.203675055874298 
601	 0.204574266530334 
602	 0.205454743042374 
603	 0.206388052550356 
604	 0.207250356653609 
605	 0.208083878944381 
606	 0.208972209547863 
607	 0.209876967210285 
608	 0.210711189534396 
609	 0.211456683383273 
610	 0.212176407889674 
611	 0.212712058478894 
612	 0.213188872594425 
613	 0.213726807069563 
614	 0.214187199891734 
615	 0.21463573311687 
616	 0.215089851583635 
617	 0.215530908382521 
618	 0.215977715015663 
619	 0.216379881862823 
620	 0.21672681178831 
621	 0.217117148453291 
622	 0.217451806142175 
623	 0.21773648183501 
624	 0.218016290028125 
625	 0.21828931390737 
626	 0.218539514728113 
627	 0.218802786411389 
628	 0.21918604579822 
629	 0.219449916139604 
630	 0.219658369623119 
631	 0.21991247470326 
632	 0.220088218889061 
633	 0.220320948760955 
634	 0.220616140578829 
635	 0.220867916970023 
636	 0.221024260987532 
637	 0.221226822307659 
638	 0.221534912808553 
639	 0.221724216758208 
640	 0.221881495367031 
641	 0.22209085449311 
642	 0.222405873989462 
643	 0.222627284069729 
644	 0.222824535267769 
645	 0.223059070743817 
646	 0.223344871140453 
647	 0.223520325734419 
648	 0.223693540104782 
649	 0.223993932576745 
650	 0.224277856339828 
651	 0.224561549122343 
652	 0.224855132134125 
653	 0.22516007973296 
654	 0.225463540493601 
655	 0.225767389214686 
656	 0.226079728593726 
657	 0.226415301997199 
658	 0.226764376867667 
659	 0.227105377678459 
660	 0.227420658703192 
661	 0.227766427137934 
662	 0.228147607438083 
663	 0.228539318486493 
664	 0.228880367708505 
665	 0.229266472713592 
666	 0.229678480158709 
667	 0.230083097785995 
668	 0.230541227171046 
669	 0.230983498801483 
670	 0.231410579420583 
671	 0.23187720167451 
672	 0.232281734269094 
673	 0.232765696939473 
674	 0.233369017885941 
675	 0.233787677754873 
676	 0.234240426594837 
677	 0.23476179463358 
678	 0.235305408319564 
679	 0.235846921606521 
680	 0.236363935921268 
681	 0.23687836711774 
682	 0.237466464334315 
683	 0.238083697958982 
684	 0.238703803254561 
685	 0.239305895618506 
686	 0.239868042701271 
687	 0.240480500026452 
688	 0.241131096252462 
689	 0.24173877263083 
690	 0.242354445650135 
691	 0.243014762496653 
692	 0.243710660267967 
693	 0.244346462981576 
694	 0.244991836468286 
695	 0.245668301041867 
696	 0.246365389184195 
697	 0.246987993776291 
698	 0.247660010576669 
699	 0.248385615326971 
700	 0.249035277818762 
701	 0.24975089339765 
702	 0.250459821943141 
703	 0.251106430759426 
704	 0.251817710138618 
705	 0.252473634765758 
706	 0.25312809518826 
707	 0.253893050902786 
708	 0.254563737595178 
709	 0.255238842684908 
710	 0.255952447263882 
711	 0.256602196672337 
712	 0.257215787171159 
713	 0.257805773728525 
714	 0.258401639451305 
715	 0.259112948600807 
716	 0.259739052044887 
717	 0.26025643984301 
718	 0.260784851624463 
719	 0.261442641832301 
720	 0.262038521750544 
721	 0.262481670184184 
722	 0.262958485143363 
723	 0.263498355909861 
724	 0.263980386791673 
725	 0.264295447313257 
726	 0.264691101916878 
727	 0.265079166161815 
728	 0.265431758299903 
729	 0.265786250776453 
730	 0.266033012584222 
731	 0.26626384773955 
732	 0.266531115760506 
733	 0.266700647579977 
734	 0.266881257109565 
735	 0.267009552307518 
736	 0.266999720532789 
737	 0.26708002916286 
738	 0.267140597981301 
739	 0.267117167547929 
740	 0.267025783201082 
741	 0.266937873896445 
742	 0.266836173312784 
743	 0.266686719210177 
744	 0.266468065360019 
745	 0.266211576977084 
746	 0.265930808455831 
747	 0.265629526822502 
748	 0.265311632599076 
749	 0.264965634528081 
750	 0.264587059466813 
751	 0.26418078096155 
752	 0.263706920400362 
753	 0.26316855715624 
754	 0.262595740161634 
755	 0.262061154050695 
756	 0.261534002511441 
757	 0.260979113878809 
758	 0.260370946657316 
759	 0.259776084628918 
760	 0.259132005479276 
761	 0.258424199833923 
762	 0.257712258108561 
763	 0.257021963887495 
764	 0.256297608781846 
765	 0.255507275002641 
766	 0.254739184929032 
767	 0.25401836831483 
768	 0.253294418552918 
769	 0.25249551895869 
770	 0.25171162147446 
771	 0.250938929703894 
772	 0.25013168900543 
773	 0.249211199175365 
774	 0.24836665779604 
775	 0.247556826153844 
776	 0.246725183322491 
777	 0.245931601148267 
778	 0.245112869977015 
779	 0.244292920004913 
780	 0.243508510633394 
781	 0.242604753770873 
782	 0.241723751081956 
783	 0.240911510498397 
784	 0.240091099080872 
785	 0.239259037422644 
786	 0.23843632919107 
787	 0.237632066732863 
788	 0.236807658226933 
789	 0.236028951808662 
790	 0.235237508361652 
791	 0.234373043030393 
792	 0.233625676303318 
793	 0.232826337238293 
794	 0.231963787004507 
795	 0.23117210996001 
796	 0.230391500482203 
797	 0.229649974800615 
798	 0.228944781057303 
799	 0.228197585436314 
800	 0.227470100219008 
801	 0.226728408659586 
802	 0.225950721809625 
803	 0.225277948325207 
804	 0.224579224208598 
805	 0.223849305257372 
806	 0.223156344746639 
807	 0.22241254584761 
808	 0.221735628352982 
809	 0.221126404188277 
810	 0.220411177129511 
811	 0.219744827550231 
812	 0.219101115421482 
813	 0.218443771556514 
814	 0.2178180660139 
815	 0.217262690655613 
816	 0.216693736929807 
817	 0.216021580273048 
818	 0.215411416674778 
819	 0.214883546410197 
820	 0.214368981818996 
821	 0.213752222915521 
822	 0.213229223997878 
823	 0.212647724782815 
824	 0.211981225651978 
825	 0.211486278411473 
826	 0.21106334092029 
827	 0.210597805700072 
828	 0.21003452512134 
829	 0.20952243746569 
830	 0.208997959423638 
831	 0.20850555204521 
832	 0.208111843928274 
833	 0.207702689283791 
834	 0.207281886577116 
835	 0.20684727190179 
836	 0.206389446953112 
837	 0.205976762095774 
838	 0.20560234966047 
839	 0.205228716127141 
840	 0.204790242210726 
841	 0.204389425751559 
842	 0.204024255478533 
843	 0.203670221758478 
844	 0.203337612097233 
845	 0.203013134591119 
846	 0.202669809341151 
847	 0.202308697296568 
848	 0.202118389673025 
849	 0.201853359747491 
850	 0.201456949203694 
851	 0.201062211506915 
852	 0.200725700813928 
853	 0.20048227981129 
854	 0.200317421696059 
855	 0.200159166819579 
856	 0.199907978071653 
857	 0.199599576917281 
858	 0.199319007752098 
859	 0.199185412340299 
860	 0.199000876626987 
861	 0.198772043280259 
862	 0.198561929337846 
863	 0.198311090446826 
864	 0.198134642246655 
865	 0.198011898799862 
866	 0.197851925460082 
867	 0.197746680684232 
868	 0.197600288354753 
869	 0.197400299447622 
870	 0.197233730361789 
871	 0.197111861935265 
872	 0.197035602630917 
873	 0.196982486703297 
874	 0.196902704587982 
875	 0.196803502205544 
876	 0.196712628071542 
877	 0.196650040915943 
878	 0.196601653186362 
879	 0.196541643472227 
880	 0.196495975531889 
881	 0.196490079319761 
882	 0.196458091165568 
883	 0.196511023412291 
884	 0.196526310879494 
885	 0.196347235700391 
886	 0.196444968818504 
887	 0.196563947015547 
888	 0.19657566523346 
889	 0.196530593123941 
890	 0.196615736884518 
891	 0.196674933337923 
892	 0.196680295134202 
893	 0.196809882198653 
894	 0.196943405583535 
895	 0.197062464827708 
896	 0.197159884968323 
897	 0.197212732390732 
898	 0.197404901807783 
899	 0.197606781830299 
900	 0.197687141058512 
901	 0.197731210847504 
902	 0.197886169721141 
903	 0.198100049763459 
904	 0.198275339446948 
905	 0.198447716848758 
906	 0.198685804464696 
907	 0.198966618584113 
908	 0.199232882315504 
909	 0.19953130150185 
910	 0.199691963923648 
911	 0.199791282335597 
912	 0.200039970414557 
913	 0.200316244916844 
914	 0.200666168568604 
915	 0.20101357194495 
916	 0.201207799522605 
917	 0.201516477754852 
918	 0.201865185807869 
919	 0.202200164441678 
920	 0.202541228244927 
921	 0.20285790817699 
922	 0.203175914567202 
923	 0.203537772037025 
924	 0.203987850100195 
925	 0.204363000654629 
926	 0.204720671490751 
927	 0.205130444588524 
928	 0.205587559976301 
929	 0.20605575699937 
930	 0.20650885147873 
931	 0.206942334214403 
932	 0.207390264115141 
933	 0.207875237041379 
934	 0.208436069580623 
935	 0.20905555475075 
936	 0.209556347244872 
937	 0.210083827501399 
938	 0.210598873727999 
939	 0.211069336054042 
940	 0.21169852703632 
941	 0.212327476531791 
942	 0.212931014750933 
943	 0.213524419279722 
944	 0.214037165686135 
945	 0.214616605151712 
946	 0.21529975520376 
947	 0.216035090016039 
948	 0.216683421300805 
949	 0.217276556914814 
950	 0.217902075000079 
951	 0.218640769764475 
952	 0.219426960207686 
953	 0.220090328333959 
954	 0.220740326050708 
955	 0.221574531241867 
956	 0.222330679068829 
957	 0.22314379797867 
958	 0.223955663160447 
959	 0.224643040280808 
960	 0.22547363125259 
961	 0.226311153038576 
962	 0.227153345995621 
963	 0.228058458692674 
964	 0.228814790905947 
965	 0.229646988576586 
966	 0.23057580269043 
967	 0.231482531032606 
968	 0.232458365717901 
969	 0.23328805378918 
970	 0.234024848514086 
971	 0.234903581555601 
972	 0.235997111806683 
973	 0.237034229872853 
974	 0.23799225417267 
975	 0.239007084423095 
976	 0.239939915866295 
977	 0.240950865930968 
978	 0.242026080986198 
979	 0.24303497910772 
980	 0.243953120035917 
981	 0.245016602737727 
982	 0.246132927576854 
983	 0.247065284523252 
984	 0.248018935995919 
985	 0.24905148751746 
986	 0.250168908938561 
987	 0.251324766276274 
988	 0.252418672940142 
989	 0.253365544046764 
990	 0.254308628718239 
991	 0.255435774292588 
992	 0.256568859618393 
993	 0.257709571157222 
994	 0.258846517779804 
995	 0.259953982226337 
996	 0.26097355042974 
997	 0.262080393849378 
998	 0.263215435107565 
999	 0.264292376028805 
1000	 0.265484892487757 
1001	 0.259868785754368 
1002	 0.26081513765042 
1003	 0.26182140620047 
1004	 0.262816526929539 
1005	 0.263822239336792 
1006	 0.264837047598131 
1007	 0.26586769066447 
1008	 0.266857771979285 
1009	 0.267842670666885 
1010	 0.268896537663538 
1011	 0.269868814660232 
1012	 0.270746262016528 
1013	 0.271663367844751 
1014	 0.272542349325306 
1015	 0.273439742041702 
1016	 0.274439436099705 
1017	 0.275413247726266 
1018	 0.276407664791223 
1019	 0.277382810887172 
1020	 0.2783276547893 
1021	 0.279239295264499 
1022	 0.280176167642667 
1023	 0.281032424573031 
1024	 0.281857684470104 
1025	 0.282735217510457 
1026	 0.283547817104885 
1027	 0.284416038387862 
1028	 0.285377335311157 
1029	 0.286262999665739 
1030	 0.287105705774626 
1031	 0.287941731277405 
1032	 0.288746873714361 
1033	 0.289550781716088 
1034	 0.290397006627312 
1035	 0.291274326904602 
1036	 0.292178613261127 
1037	 0.293021802738294 
1038	 0.29387750538344 
1039	 0.294720557985792 
1040	 0.295506583044188 
1041	 0.296381507048782 
1042	 0.297218652264452 
1043	 0.29796432354371 
1044	 0.298769592607413 
1045	 0.299621384381912 
1046	 0.300424826486712 
1047	 0.301198928236629 
1048	 0.302071581285816 
1049	 0.302887171810741 
1050	 0.303634166869146 
1051	 0.304438333469972 
1052	 0.30521188325772 
1053	 0.305974279180405 
1054	 0.30683644129852 
1055	 0.307672220958618 
1056	 0.308447008532931 
1057	 0.309216718167051 
1058	 0.30996510047968 
1059	 0.310697147439357 
1060	 0.31138814552916 
1061	 0.312112681179327 
1062	 0.312839824468928 
1063	 0.313603328963991 
1064	 0.314411595179198 
1065	 0.315166464607397 
1066	 0.315880365836477 
1067	 0.316597771273943 
1068	 0.317273387626661 
1069	 0.317960072777094 
1070	 0.318670836998583 
1071	 0.319429865319274 
1072	 0.320141370599758 
1073	 0.320852985120743 
1074	 0.32153623023555 
1075	 0.322194472439695 
1076	 0.322827836020031 
1077	 0.323468642441171 
1078	 0.324103823525565 
1079	 0.324786175448756 
1080	 0.325426012583145 
1081	 0.325967056518999 
1082	 0.326575627394704 
1083	 0.327203250721589 
1084	 0.327798633248011 
1085	 0.328448635161837 
1086	 0.329197542947461 
1087	 0.329842010222649 
1088	 0.330430820272395 
1089	 0.331073765619226 
1090	 0.331672336776065 
1091	 0.332252427796798 
1092	 0.33285503589014 
1093	 0.333449470144971 
1094	 0.33403149466868 
1095	 0.334651183097615 
1096	 0.335287464412426 
1097	 0.335878104233406 
1098	 0.336475375138642 
1099	 0.337077880596288 
1100	 0.33765925529094 
1101	 0.338211151795138 
1102	 0.338788487714414 
1103	 0.339367991396442 
1104	 0.339946861400059 
1105	 0.340536819478786 
1106	 0.341139390319859 
1107	 0.341729566793759 
1108	 0.342333511091596 
1109	 0.342973901093375 
1110	 0.343565052084118 
1111	 0.344119049160408 
1112	 0.344643238933055 
1113	 0.345176885607412 
1114	 0.345652264780901 
1115	 0.346190976825876 
1116	 0.346757955788958 
1117	 0.347330926281901 
1118	 0.347937914856131 
1119	 0.348502022298681 
1120	 0.349125749229305 
1121	 0.349748699494295 
1122	 0.35024768899746 
1123	 0.350795352012787 
1124	 0.351346961199307 
1125	 0.351848987789681 
1126	 0.352401805625499 
1127	 0.353020473452157 
1128	 0.353588649770283 
1129	 0.354139979805908 
1130	 0.354686748014114 
1131	 0.355234540827902 
1132	 0.355770089395497 
1133	 0.356289675081414 
1134	 0.356808572636243 
1135	 0.357326299338939 
1136	 0.357816519051959 
1137	 0.35833025308281 
1138	 0.358844497075147 
1139	 0.35936711537142 
1140	 0.359910166902311 
1141	 0.36042798707609 
1142	 0.360947191495433 
1143	 0.361447768139814 
1144	 0.361939822991478 
1145	 0.362412441638975 
1146	 0.362864841982474 
1147	 0.36331121638956 
1148	 0.363719313349471 
1149	 0.36415973248014 
1150	 0.364603103206839 
1151	 0.365071960039583 
1152	 0.365536563127003 
1153	 0.366009769575894 
1154	 0.366478250707452 
1155	 0.366935360424469 
1156	 0.3674080245816 
1157	 0.367903079254645 
1158	 0.368370089135839 
1159	 0.368838313101036 
1160	 0.369293304735931 
1161	 0.369720623507627 
1162	 0.37016079747524 
1163	 0.370602469755333 
1164	 0.371040680927621 
1165	 0.371455024228127 
1166	 0.371924083391494 
1167	 0.37236984099491 
1168	 0.372812866478566 
1169	 0.373276421191159 
1170	 0.373767289178843 
1171	 0.37421243970158 
1172	 0.374665028117547 
1173	 0.375085622750134 
1174	 0.375447346582408 
1175	 0.375859630002892 
1176	 0.376287604804311 
1177	 0.376702358865052 
1178	 0.37713092402736 
1179	 0.377553740537488 
1180	 0.377961831982345 
1181	 0.378376291028449 
1182	 0.378811509721966 
1183	 0.37923148699997 
1184	 0.379624792237933 
1185	 0.379991956649976 
1186	 0.38038281527698 
1187	 0.380758180730099 
1188	 0.381150651168026 
1189	 0.381572721086557 
1190	 0.381969176065301 
1191	 0.382356239292198 
1192	 0.382739862443338 
1193	 0.383111437206462 
1194	 0.383491356087561 
1195	 0.383871742618648 
1196	 0.384249860250766 
1197	 0.384632276821419 
1198	 0.385012904352305 
1199	 0.385391452494866 
1200	 0.385767594645061 
1201	 0.386136356581827 
1202	 0.386504174591804 
1203	 0.386865951673399 
1204	 0.387214860965947 
1205	 0.387574003754551 
1206	 0.387934757358329 
1207	 0.388296776552265 
1208	 0.388672786002059 
1209	 0.389027608057958 
1210	 0.389380936596074 
1211	 0.389718776783968 
1212	 0.390009407316954 
1213	 0.39034362610755 
1214	 0.390695674911091 
1215	 0.391045975159805 
1216	 0.391406980234677 
1217	 0.391816910894954 
1218	 0.392148462448262 
1219	 0.392443022017009 
1220	 0.392750934079814 
1221	 0.393010883264233 
1222	 0.393326334615905 
1223	 0.393688682000183 
1224	 0.394011990254739 
1225	 0.394343373853249 
1226	 0.394657644597031 
1227	 0.394948516326584 
1228	 0.395236483950805 
1229	 0.395502227472293 
1230	 0.395793822328052 
1231	 0.396093036611275 
1232	 0.39638764663851 
1233	 0.396688482663405 
1234	 0.39701510998304 
1235	 0.397317159093767 
1236	 0.397603059943443 
1237	 0.397897957303478 
1238	 0.398197648532376 
1239	 0.398488877311479 
1240	 0.398769171331438 
1241	 0.399062354790056 
1242	 0.399363775567432 
1243	 0.399656410288553 
1244	 0.399960851262395 
1245	 0.400247507500258 
1246	 0.400504712935328 
1247	 0.400783090399602 
1248	 0.401067802592424 
1249	 0.4013569524853 
1250	 0.401633257340086 
1251	 0.401905979250314 
1252	 0.402158429744856 
1253	 0.40237595765306 
1254	 0.402619504849449 
1255	 0.402876702739444 
1256	 0.403107099078883 
1257	 0.403324285675177 
1258	 0.403551269328805 
1259	 0.403757603250562 
1260	 0.403983355865473 
1261	 0.404232932576592 
1262	 0.404471751971153 
1263	 0.404720491872178 
1264	 0.404952099701474 
1265	 0.405166826482509 
1266	 0.405390244328766 
1267	 0.405609478776295 
1268	 0.405812524201084 
1269	 0.406051841736456 
1270	 0.406314556015934 
1271	 0.406567652970709 
1272	 0.406839259134675 
1273	 0.407090344675109 
1274	 0.407327266357246 
1275	 0.407573528252809 
1276	 0.407805851055217 
1277	 0.408066862664293 
1278	 0.408351655065194 
1279	 0.408621497288001 
1280	 0.408906135916331 
1281	 0.409180618730594 
1282	 0.409445502742723 
1283	 0.409701886664808 
1284	 0.409964321971123 
1285	 0.410203651871923 
1286	 0.410420512977157 
1287	 0.41064798485429 
1288	 0.410876025530575 
1289	 0.411099269901972 
1290	 0.411330969248968 
1291	 0.411578465704216 
1292	 0.411800403591792 
1293	 0.41202606628533 
1294	 0.412220314443779 
1295	 0.412391515654447 
1296	 0.412551584161868 
1297	 0.412690350342554 
1298	 0.412824736204926 
1299	 0.412946791270192 
1300	 0.413057098389895 
1301	 0.413164341231633 
1302	 0.413248448652266 
1303	 0.413306820668994 
1304	 0.413362770628061 
1305	 0.413413391678108 
1306	 0.413456387008823 
1307	 0.413504981719413 
1308	 0.413569463469804 
1309	 0.413617914183021 
1310	 0.413654646294959 
1311	 0.413698372036079 
1312	 0.413753028974625 
1313	 0.413777774617676 
1314	 0.413792729440999 
1315	 0.413809904289239 
1316	 0.413808021312076 
1317	 0.413805294882953 
1318	 0.413816835848218 
1319	 0.413801445383148 
1320	 0.413744776004061 
1321	 0.413719047418524 
1322	 0.413702950349909 
1323	 0.413682486958851 
1324	 0.413656909233779 
1325	 0.413647136758069 
1326	 0.413608119056109 
1327	 0.413559530214898 
1328	 0.413526323064794 
1329	 0.413477473856305 
1330	 0.413417217762813 
1331	 0.413347553206039 
1332	 0.413272223980761 
1333	 0.413181015619653 
1334	 0.413093681201731 
1335	 0.412990190872392 
1336	 0.412915473774242 
1337	 0.412867173382362 
1338	 0.412789418125672 
1339	 0.412713166502106 
1340	 0.412631917677316 
1341	 0.412526413692153 
1342	 0.412429663856588 
1343	 0.412330939338297 
1344	 0.412257248162761 
1345	 0.412180516338324 
1346	 0.412083535676976 
1347	 0.412000788964491 
1348	 0.411909662882262 
1349	 0.411767376349595 
1350	 0.411629226984965 
1351	 0.411506167266032 
1352	 0.411380651322121 
1353	 0.411245989059148 
1354	 0.41113114593573 
1355	 0.410989600635027 
1356	 0.410808702630368 
1357	 0.410663129070303 
1358	 0.410524740161088 
1359	 0.41039015125674 
1360	 0.410268827115455 
1361	 0.410147448721175 
1362	 0.410042474887579 
1363	 0.40992047463672 
1364	 0.409790777048886 
1365	 0.409657678920872 
1366	 0.40951965431569 
1367	 0.409369339589485 
1368	 0.409206903272126 
1369	 0.409068517243189 
1370	 0.408882808127019 
1371	 0.408637506053706 
1372	 0.408402109696949 
1373	 0.408138666401354 
1374	 0.407843116655608 
1375	 0.407555046816833 
1376	 0.407176900081178 
1377	 0.406747126232716 
1378	 0.406256148889525 
1379	 0.40568943350467 
1380	 0.405104548705692 
1381	 0.404480133430583 
1382	 0.403804181325016 
1383	 0.40310944100631 
1384	 0.40233270087868 
1385	 0.401508625325549 
1386	 0.400609592513238 
1387	 0.399648269635328 
1388	 0.398620309296494 
1389	 0.397540526802676 
1390	 0.396355844442293 
1391	 0.395112559124497 
1392	 0.393788002833262 
1393	 0.392372403344337 
1394	 0.390919831368893 
1395	 0.389367455927098 
1396	 0.387788832027966 
1397	 0.386228558441383 
1398	 0.384639244143098 
1399	 0.383039422960696 
1400	 0.381447615486925 
1401	 0.37983917380077 
1402	 0.378178848947963 
1403	 0.376577142774234 
1404	 0.37498220495188 
1405	 0.373436629654533 
1406	 0.371933627875911 
1407	 0.370422851878389 
1408	 0.368898161532587 
1409	 0.367470504257688 
1410	 0.366019796371568 
1411	 0.364722866368254 
1412	 0.363526688753963 
1413	 0.362435224843312 
1414	 0.361486616818208 
1415	 0.360627689288026 
1416	 0.359879030421692 
1417	 0.359225628464365 
1418	 0.358603360806616 
1419	 0.358046799127603 
1420	 0.357541924707327 
1421	 0.357032789851482 
1422	 0.356532859805021 
1423	 0.356007593412959 
1424	 0.355440466174615 
1425	 0.354822849002639 
1426	 0.354240262649908 
1427	 0.353604589435529 
1428	 0.353062490359914 
1429	 0.352576056953554 
1430	 0.352090140112618 
1431	 0.351655252950358 
1432	 0.351202401515042 
1433	 0.350733177545133 
1434	 0.350305090485673 
1435	 0.349871675460311 
1436	 0.3495008919759 
1437	 0.349196428038534 
1438	 0.34887894512459 
1439	 0.348595340246583 
1440	 0.348317524675234 
1441	 0.348013742209159 
1442	 0.347705139459748 
1443	 0.347391669009705 
1444	 0.347083837539488 
1445	 0.346793077789743 
1446	 0.34652029774742 
1447	 0.346270089025021 
1448	 0.346008615587406 
1449	 0.34569441255119 
1450	 0.345361950364386 
1451	 0.34501672767005 
1452	 0.344627939502907 
1453	 0.344256918487365 
1454	 0.343899800153081 
1455	 0.343507710777712 
1456	 0.343095269701732 
1457	 0.342679406364092 
1458	 0.34223322333232 
1459	 0.341807263405217 
1460	 0.341372907714303 
1461	 0.340966685366043 
1462	 0.340558085545158 
1463	 0.340193294360938 
1464	 0.339857268049359 
1465	 0.33954374240152 
1466	 0.339240201655382 
1467	 0.339001040560106 
1468	 0.338757809225025 
1469	 0.33863098076988 
1470	 0.338595720347925 
1471	 0.338612856514788 
1472	 0.338719214669673 
1473	 0.338896172108491 
1474	 0.339108567342495 
1475	 0.339415799585561 
1476	 0.339765652819791 
1477	 0.340153917969899 
1478	 0.340614213170011 
1479	 0.341097639139854 
1480	 0.341636527495974 
1481	 0.342216551664832 
1482	 0.342793362096745 
1483	 0.343406136745218 
1484	 0.343983274598906 
1485	 0.344560019712273 
1486	 0.345127476978014 
1487	 0.345674580829604 
1488	 0.346231286663205 
1489	 0.34680941510166 
1490	 0.347341994994845 
1491	 0.347868551559582 
1492	 0.348355980526442 
1493	 0.348792099342225 
1494	 0.34922978980747 
1495	 0.349646682660695 
1496	 0.350054675032231 
1497	 0.350460542248581 
1498	 0.350847620785144 
1499	 0.351215059253556 
1500	 0.351571056095122 
1501	 0.351903769452451 
1502	 0.352235024538379 
1503	 0.352558876298306 
1504	 0.352876725122581 
1505	 0.353171915179098 
1506	 0.353474577580318 
1507	 0.353769853470521 
1508	 0.354030367305027 
1509	 0.354280891192232 
1510	 0.35453263915897 
1511	 0.35477385351894 
1512	 0.35500479783181 
1513	 0.355256732482623 
1514	 0.3555219115243 
1515	 0.35577918793721 
1516	 0.356058977964195 
1517	 0.356316346917562 
1518	 0.356567032626727 
1519	 0.356812123560182 
1520	 0.357047992099016 
1521	 0.357279214113617 
1522	 0.357506986156031 
1523	 0.357735544238185 
1524	 0.357951489226752 
1525	 0.358178157275297 
1526	 0.358418196669303 
1527	 0.358641433226358 
1528	 0.358860222808701 
1529	 0.359074252805918 
1530	 0.35927757932344 
1531	 0.359484337709291 
1532	 0.359698991534973 
1533	 0.359890795673114 
1534	 0.36007786447217 
1535	 0.360249602698851 
1536	 0.36036340785511 
1537	 0.360542206597804 
1538	 0.360751665682974 
1539	 0.360952424285828 
1540	 0.361203635903131 
1541	 0.361421427554183 
1542	 0.361606132590961 
1543	 0.361798966640919 
1544	 0.362002222698997 
1545	 0.362185854353844 
1546	 0.362358282440552 
1547	 0.362525684449469 
1548	 0.362681507286979 
1549	 0.362808373231021 
1550	 0.362942965318593 
1551	 0.363098420524016 
1552	 0.363248462992278 
1553	 0.363408370700728 
1554	 0.363588920218823 
1555	 0.363743389259269 
1556	 0.363917157855879 
1557	 0.364106366023969 
1558	 0.364282438830763 
1559	 0.364470722371333 
1560	 0.36464371229029 
1561	 0.364813115320215 
1562	 0.36496244772371 
1563	 0.365089095889571 
1564	 0.365245999973089 
1565	 0.365406186874079 
1566	 0.365550232264527 
1567	 0.365719876370105 
1568	 0.365847082092108 
1569	 0.365928608867575 
1570	 0.366036111373445 
1571	 0.366136573412912 
1572	 0.366246131639608 
1573	 0.366360251748315 
1574	 0.366481044576439 
1575	 0.366618544993436 
1576	 0.366736511007192 
1577	 0.366856667110433 
1578	 0.366961225996193 
1579	 0.367034874074907 
1580	 0.3671338698861 
1581	 0.367233872495229 
1582	 0.367344895406673 
1583	 0.367488798243357 
1584	 0.367599462859112 
1585	 0.367704743436054 
1586	 0.367792375248754 
1587	 0.367855030420254 
1588	 0.367915864040749 
1589	 0.367966056371338 
1590	 0.368015114389131 
1591	 0.368052513531631 
1592	 0.368094893928977 
1593	 0.368132721860467 
1594	 0.368176826320457 
1595	 0.368218102396332 
1596	 0.368273804135516 
1597	 0.368355054742002 
1598	 0.368414937906937 
1599	 0.368494284961676 
1600	 0.368531765303335 
1601	 0.368513979265636 
1602	 0.368524095282268 
1603	 0.368500099880573 
1604	 0.36852033969037 
1605	 0.368585829210843 
1606	 0.368646509575252 
1607	 0.36873069062447 
1608	 0.368817422115847 
1609	 0.368886015396668 
1610	 0.368933788925939 
1611	 0.368954856958475 
1612	 0.368967818480671 
1613	 0.368927725321927 
1614	 0.368878214428181 
1615	 0.368852267449688 
1616	 0.368811947978383 
1617	 0.368831174609938 
1618	 0.368873082106365 
1619	 0.368873949833225 
1620	 0.3689003503282 
1621	 0.368911276254818 
1622	 0.368910246646216 
1623	 0.368907779319594 
1624	 0.368915878056991 
1625	 0.368890740680604 
1626	 0.368842256453661 
1627	 0.368800008076598 
1628	 0.368733375542287 
1629	 0.368705299120487 
1630	 0.368690411729273 
1631	 0.368679256735805 
1632	 0.368691533510828 
1633	 0.368688547525321 
1634	 0.368686571496346 
1635	 0.368670052651685 
1636	 0.368658227801341 
1637	 0.368610991448424 
1638	 0.368534069739332 
1639	 0.368468578843232 
1640	 0.36836715362695 
1641	 0.368325681577753 
1642	 0.368312477269014 
1643	 0.36829764186467 
1644	 0.368322119687225 
1645	 0.368312749004994 
1646	 0.368293271597215 
1647	 0.368267657688683 
1648	 0.368234274019277 
1649	 0.368192033831574 
1650	 0.368144118840857 
1651	 0.368080818898954 
1652	 0.368005215313823 
1653	 0.367922009049872 
1654	 0.367814831916091 
1655	 0.367728251236144 
1656	 0.367652225385208 
1657	 0.36755667858487 
1658	 0.367464922879271 
1659	 0.367357220514956 
1660	 0.367222863833302 
1661	 0.367101679468372 
1662	 0.366965976588362 
1663	 0.366867915083479 
1664	 0.366795431186005 
1665	 0.366706364234741 
1666	 0.366628642827824 
1667	 0.366559274095683 
1668	 0.366487982641545 
1669	 0.366408842280665 
1670	 0.366360579524708 
1671	 0.366266841225286 
1672	 0.366121866816803 
1673	 0.366011517226448 
1674	 0.365906365576113 
1675	 0.36579269690606 
1676	 0.365687629885379 
1677	 0.365574764157649 
1678	 0.365441289082619 
1679	 0.365327024528109 
1680	 0.365223687994713 
1681	 0.365120935367968 
1682	 0.365018889705747 
1683	 0.364927513633672 
1684	 0.364847321317038 
1685	 0.364761828054425 
1686	 0.364693751460028 
1687	 0.364598465991468 
1688	 0.364489651777227 
1689	 0.364373052639665 
1690	 0.364231566141116 
1691	 0.364108145562837 
1692	 0.36399415105773 
1693	 0.363864230424496 
1694	 0.363736187692759 
1695	 0.363596420334921 
1696	 0.363422672475443 
1697	 0.363289129164148 
1698	 0.363182863522512 
1699	 0.363051480436524 
1700	 0.36293834638994 
1701	 0.362793632862759 
1702	 0.362604319523997 
1703	 0.362447682194512 
1704	 0.362300824207586 
1705	 0.362143145201491 
1706	 0.36199610227176 
1707	 0.36183712176628 
1708	 0.361664145019043 
1709	 0.361492342493991 
1710	 0.361317899239445 
1711	 0.361144616856205 
1712	 0.360980022957914 
1713	 0.36078083103869 
1714	 0.360569114988291 
1715	 0.360348506536589 
1716	 0.360084757317262 
1717	 0.359858199585776 
1718	 0.359650496606003 
1719	 0.359431614175387 
1720	 0.359211358414763 
1721	 0.359012890656476 
1722	 0.358823644311177 
1723	 0.358630742341469 
1724	 0.358455736720957 
1725	 0.358262411041637 
1726	 0.358065840115686 
1727	 0.357846269375598 
1728	 0.357617421839567 
1729	 0.357381428906903 
1730	 0.357124526444366 
1731	 0.356856881923565 
1732	 0.356565167992105 
1733	 0.356320794165982 
1734	 0.356092868322398 
1735	 0.355835384993163 
1736	 0.3556068494709 
1737	 0.355344267808949 
1738	 0.355019284707506 
1739	 0.354752035559834 
1740	 0.354515899903893 
1741	 0.354253289110319 
1742	 0.353999187486396 
1743	 0.353736664197673 
1744	 0.353458883635807 
1745	 0.353187098849044 
1746	 0.352918212960305 
1747	 0.352596026183364 
1748	 0.352328350378036 
1749	 0.352061990598235 
1750	 0.351806678891456 
1751	 0.351576044349406 
1752	 0.351304715354061 
1753	 0.35097508573032 
1754	 0.350626808839951 
1755	 0.350308460933627 
1756	 0.35000040565064 
1757	 0.349714403182465 
1758	 0.349452217813492 
1759	 0.349174107621203 
1760	 0.348900246814132 
1761	 0.348639257605017 
1762	 0.348379965336476 
1763	 0.348112133006425 
1764	 0.347803524037922 
1765	 0.347484475874869 
1766	 0.347167037273872 
1767	 0.346807561545202 
1768	 0.346480945155051 
1769	 0.346209314979357 
1770	 0.345924547023224 
1771	 0.345658828980081 
1772	 0.345416963681637 
1773	 0.345148668679013 
1774	 0.344895161968866 
1775	 0.344671274560628 
1776	 0.34443029175794 
1777	 0.34419898210778 
1778	 0.343957007121798 
1779	 0.343697015911918 
1780	 0.343469407221878 
1781	 0.343242546198344 
1782	 0.343029441617279 
1783	 0.342870370677899 
1784	 0.342683464758639 
1785	 0.342500103981355 
1786	 0.342309691041971 
1787	 0.342094784369286 
1788	 0.341907245164569 
1789	 0.341743442509302 
1790	 0.341561462087316 
1791	 0.341388235481225 
1792	 0.341183597359072 
1793	 0.340923805678993 
1794	 0.340734805507997 
1795	 0.340569611171209 
1796	 0.340409062383432 
1797	 0.340308255150944 
1798	 0.340157270018491 
1799	 0.339973746529032 
1800	 0.339799195793406 
1801	 0.338374204783914 
1802	 0.338452856333765 
1803	 0.338590604176445 
1804	 0.33873910050584 
1805	 0.338884760451754 
1806	 0.339033078681153 
1807	 0.339175556573534 
1808	 0.339243804119368 
1809	 0.339282398542336 
1810	 0.339280529820778 
1811	 0.33922497855372 
1812	 0.339131656654143 
1813	 0.339026616298076 
1814	 0.338877719836279 
1815	 0.338680470985498 
1816	 0.338482983760792 
1817	 0.338278922502186 
1818	 0.338064000341148 
1819	 0.337829772709644 
1820	 0.337599508673333 
1821	 0.337322625479443 
1822	 0.337017863699485 
1823	 0.336729051763635 
1824	 0.336463907276813 
1825	 0.336121143073484 
1826	 0.335778020053039 
1827	 0.33545463713953 
1828	 0.335031555052812 
1829	 0.334569399730031 
1830	 0.334049304769395 
1831	 0.333465532393586 
1832	 0.33278684352768 
1833	 0.33212607362667 
1834	 0.33145096863204 
1835	 0.330774133367246 
1836	 0.330102943803698 
1837	 0.329432814478763 
1838	 0.328765326502843 
1839	 0.328110722739804 
1840	 0.327467646610011 
1841	 0.326842563060649 
1842	 0.326214473868341 
1843	 0.325613720238283 
1844	 0.325050977054066 
1845	 0.324522951485994 
1846	 0.324073881076574 
1847	 0.32368348544672 
1848	 0.323357456349389 
1849	 0.323091318379672 
1850	 0.322853464143171 
1851	 0.322666722677924 
1852	 0.322501453235768 
1853	 0.322343130364773 
1854	 0.322175847887823 
1855	 0.321992301296519 
1856	 0.32178226673971 
1857	 0.321542595233392 
1858	 0.321315576790326 
1859	 0.321059734786695 
1860	 0.320765626088763 
1861	 0.320438958822045 
1862	 0.320117379694219 
1863	 0.319747086977074 
1864	 0.319344603494585 
1865	 0.31893526530308 
1866	 0.318454146689043 
1867	 0.317902195097394 
1868	 0.317282756330299 
1869	 0.316562234936936 
1870	 0.31576793185722 
1871	 0.314874283050216 
1872	 0.313895703696804 
1873	 0.312822208491758 
1874	 0.311652899856674 
1875	 0.310339317509009 
1876	 0.308940762620893 
1877	 0.307424313192876 
1878	 0.305765387468544 
1879	 0.303998963241754 
1880	 0.302080624376241 
1881	 0.299995435427756 
1882	 0.297813485856047 
1883	 0.295514421713211 
1884	 0.293042700706787 
1885	 0.290500030342309 
1886	 0.287848562911441 
1887	 0.285026793430936 
1888	 0.28211278940043 
1889	 0.279082944584393 
1890	 0.275961965748117 
1891	 0.272860089873246 
1892	 0.269690688691075 
1893	 0.266555319184131 
1894	 0.263419804032674 
1895	 0.260277788670714 
1896	 0.257120473127014 
1897	 0.25402308787875 
1898	 0.250924007055689 
1899	 0.247887637411827 
1900	 0.244972832995976 
1901	 0.242110770704225 
1902	 0.239392012457989 
1903	 0.236817900662879 
1904	 0.23434502026527 
1905	 0.231971031455649 
1906	 0.229736106891085 
1907	 0.227611781318448 
1908	 0.225612839220079 
1909	 0.223748862131013 
1910	 0.221998026285446 
1911	 0.22038504843712 
1912	 0.218871079463335 
1913	 0.217421899157873 
1914	 0.216051214412954 
1915	 0.214774086549237 
1916	 0.213579927548684 
1917	 0.212465534782387 
1918	 0.211450145423489 
1919	 0.210490274134129 
1920	 0.2095890049951 
1921	 0.208750128251973 
1922	 0.20798321950477 
1923	 0.207313439412071 
1924	 0.206690786078242 
1925	 0.206145920578858 
1926	 0.205649869349214 
1927	 0.205215464098639 
1928	 0.20481326644346 
1929	 0.204480494776749 
1930	 0.204202837727838 
1931	 0.20394221058558 
1932	 0.203732724019929 
1933	 0.203581799272899 
1934	 0.203468218388422 
1935	 0.203400322084234 
1936	 0.203388992993184 
1937	 0.203411236335553 
1938	 0.203473750672483 
1939	 0.20357279836452 
1940	 0.203718144753996 
1941	 0.203892771270759 
1942	 0.204099064330848 
1943	 0.204323747731235 
1944	 0.204576520920903 
1945	 0.20486571677895 
1946	 0.205145210268181 
1947	 0.205426680877997 
1948	 0.205736908411161 
1949	 0.206054163873307 
1950	 0.206386619771881 
1951	 0.206735818115652 
1952	 0.207126624271965 
1953	 0.207503970991372 
1954	 0.207915537055092 
1955	 0.208339637199615 
1956	 0.208756303277293 
1957	 0.209198206633898 
1958	 0.20965778633825 
1959	 0.210114093406281 
1960	 0.210589603758171 
1961	 0.211061784150229 
1962	 0.21151978276679 
1963	 0.212003446017056 
1964	 0.212497021240541 
1965	 0.213013699923179 
1966	 0.213539423698474 
1967	 0.214062115454989 
1968	 0.214590160015299 
1969	 0.215117537313942 
1970	 0.215656641307842 
1971	 0.216206851996982 
1972	 0.216757981495246 
1973	 0.217326558368356 
1974	 0.217878222116141 
1975	 0.218426173886005 
1976	 0.218969275391067 
1977	 0.219508300672738 
1978	 0.220036251154732 
1979	 0.220567633999739 
1980	 0.221125630409692 
1981	 0.221665259948479 
1982	 0.222188622120271 
1983	 0.222740754039223 
1984	 0.223304752092451 
1985	 0.223862249261964 
1986	 0.224437530528316 
1987	 0.225009027453217 
1988	 0.22558113725311 
1989	 0.226143271733251 
1990	 0.22668637604767 
1991	 0.22723427415019 
1992	 0.22779849688249 
1993	 0.228356042023477 
1994	 0.22891855100999 
1995	 0.229516284115325 
1996	 0.230083696937322 
1997	 0.230619459544109 
1998	 0.231178659207986 
1999	 0.231734695945124 
2000	 0.232305020524027 
2001	 0.232893562640975 
2002	 0.233483665572168 
2003	 0.234071291434026 
2004	 0.234650878799159 
2005	 0.235203911586192 
2006	 0.235729168376635 
2007	 0.236260864608565 
2008	 0.236756951851571 
2009	 0.237294994086426 
2010	 0.237851330159543 
2011	 0.238411920409305 
2012	 0.239020896553895 
2013	 0.239583603076575 
2014	 0.240140802026952 
2015	 0.240665858036277 
2016	 0.241156446648448 
2017	 0.241640715078764 
2018	 0.242144963350857 
2019	 0.242647295531869 
2020	 0.243159346924116 
2021	 0.243686669314471 
2022	 0.244211107084747 
2023	 0.244750629629128 
2024	 0.245268518917884 
2025	 0.245794992685368 
2026	 0.246292684388804 
2027	 0.246765134893779 
2028	 0.247216658803761 
2029	 0.247684189443067 
2030	 0.248145019030856 
2031	 0.248603405552563 
2032	 0.249073103643995 
2033	 0.249517001886828 
2034	 0.249954485592238 
2035	 0.250362886417139 
2036	 0.250743794942357 
2037	 0.251130385167609 
2038	 0.251494659166927 
2039	 0.251858058745789 
2040	 0.252230802031324 
2041	 0.252578387120596 
2042	 0.252925287717287 
2043	 0.253284634519971 
2044	 0.253646265860796 
2045	 0.254022662073409 
2046	 0.254386390194985 
2047	 0.25474208988017 
2048	 0.255107213575152 
2049	 0.255496019120988 
2050	 0.255844189829431 
2051	 0.256180811395202 
2052	 0.256506797572037 
2053	 0.256782244566832 
2054	 0.257082619191957 
2055	 0.257398740622154 
2056	 0.257708789618663 
2057	 0.258015270226035 
2058	 0.258335414043186 
2059	 0.25862597932077 
2060	 0.258880733061169 
2061	 0.25917824162725 
2062	 0.259496205430806 
2063	 0.259781639487363 
2064	 0.260077174962754 
2065	 0.260360185032574 
2066	 0.26059809032359 
2067	 0.260860609593604 
2068	 0.261138765710262 
2069	 0.261431749834211 
2070	 0.261687084501405 
2071	 0.261921630585905 
2072	 0.26217385419109 
2073	 0.262408299220831 
2074	 0.262665839053614 
2075	 0.262960732750326 
2076	 0.263214363722391 
2077	 0.263451804399977 
2078	 0.263690160530783 
2079	 0.263915652838967 
2080	 0.264134830651177 
2081	 0.26434867685433 
2082	 0.264562876000594 
2083	 0.264757815141849 
2084	 0.264968286128032 
2085	 0.265176448904147 
2086	 0.265401428239793 
2087	 0.265597109155392 
2088	 0.265781145401096 
2089	 0.26596047928643 
2090	 0.266122207928734 
2091	 0.266286558310262 
2092	 0.26644268160109 
2093	 0.26660929045393 
2094	 0.266771604010962 
2095	 0.266941881883126 
2096	 0.267132097056553 
2097	 0.267308518606638 
2098	 0.267460564920991 
2099	 0.267642856075794 
2100	 0.267835389344831 
2101	 0.268042734733011 
2102	 0.268225749798694 
2103	 0.268419330950384 
2104	 0.26860475759208 
2105	 0.268764841740978 
2106	 0.268937851188315 
2107	 0.269130009412715 
2108	 0.269306066283509 
2109	 0.26945426108939 
2110	 0.269627494179338 
2111	 0.269801080669251 
2112	 0.269994953963802 
2113	 0.270202608667886 
2114	 0.270437569784002 
2115	 0.270652706009871 
2116	 0.270880085121253 
2117	 0.271088903186762 
2118	 0.271283111364025 
2119	 0.271482374493544 
2120	 0.271682492460205 
2121	 0.271874779602246 
2122	 0.272063381044179 
2123	 0.272246705165622 
2124	 0.272440594310348 
2125	 0.27259894768987 
2126	 0.272748009280592 
2127	 0.272870426513784 
2128	 0.272946090185907 
2129	 0.273028307676099 
2130	 0.273105437724309 
2131	 0.27315972556347 
2132	 0.273221366335442 
2133	 0.273289825361452 
2134	 0.273330793641011 
2135	 0.273354878426645 
2136	 0.273380113948873 
2137	 0.273407196484487 
2138	 0.273392367456259 
2139	 0.273360493945505 
2140	 0.273316219507127 
2141	 0.273224190863025 
2142	 0.273147630713481 
2143	 0.273101597868062 
2144	 0.273003552049489 
2145	 0.272876982117106 
2146	 0.272734693480511 
2147	 0.272553718650556 
2148	 0.272363841091199 
2149	 0.272164692180781 
2150	 0.271949076155182 
2151	 0.271742912706815 
2152	 0.27152145777949 
2153	 0.271317285836574 
2154	 0.271150619097242 
2155	 0.270924248758878 
2156	 0.270688842033303 
2157	 0.270419315902705 
2158	 0.270098682644386 
2159	 0.269778129460364 
2160	 0.269424649008564 
2161	 0.269089717542397 
2162	 0.268748293474716 
2163	 0.268410488712532 
2164	 0.268085506228148 
2165	 0.26775929139242 
2166	 0.267425859162886 
2167	 0.267086610541923 
2168	 0.266744666252043 
2169	 0.266405467117027 
2170	 0.266049360168514 
2171	 0.265679107277081 
2172	 0.265313023563083 
2173	 0.264945037428465 
2174	 0.264563357423821 
2175	 0.264185947700976 
2176	 0.263783440551263 
2177	 0.263353572254551 
2178	 0.262923967233514 
2179	 0.262487639020792 
2180	 0.262036994222117 
2181	 0.261575639594211 
2182	 0.261106671085463 
2183	 0.260600508740623 
2184	 0.260123164595083 
2185	 0.259648660985257 
2186	 0.259168393353736 
2187	 0.258712188212197 
2188	 0.258283782874492 
2189	 0.257835772436171 
2190	 0.257398483819766 
2191	 0.256946189979818 
2192	 0.256459133306754 
2193	 0.256019217264754 
2194	 0.255588209117863 
2195	 0.255175399002198 
2196	 0.25480533813776 
2197	 0.254420959532521 
2198	 0.254011967221236 
2199	 0.253652957892595 
2200	 0.253314177294178 
2201	 0.252999018326221 
2202	 0.252729131513649 
2203	 0.252475354852239 
2204	 0.252216089824983 
2205	 0.251946069544753 
2206	 0.251744179923699 
2207	 0.251559529815115 
2208	 0.251421491087165 
2209	 0.251350622316702 
2210	 0.251277279058662 
2211	 0.251228403193924 
2212	 0.251192374353373 
2213	 0.251185529402203 
2214	 0.251179235739207 
2215	 0.251214494626857 
2216	 0.251196416493759 
2217	 0.251171977643417 
2218	 0.251120192795794 
2219	 0.251005232080115 
2220	 0.25092133240146 
2221	 0.250863787272059 
2222	 0.250768724441867 
2223	 0.250657388532054 
2224	 0.25052652719726 
2225	 0.250349421486432 
2226	 0.250112576518068 
2227	 0.249889192776842 
2228	 0.249640844208925 
2229	 0.24939697184815 
2230	 0.249155761200551 
2231	 0.248878897231714 
2232	 0.248586288645005 
2233	 0.248279900731348 
2234	 0.247946637836787 
2235	 0.247602774031762 
2236	 0.247276713603518 
2237	 0.246877625896091 
2238	 0.24641578983963 
2239	 0.245960727297097 
2240	 0.245477944048191 
2241	 0.244967148939276 
2242	 0.244447221509345 
2243	 0.243899075968253 
2244	 0.243315796114861 
2245	 0.242703694277635 
2246	 0.242068224082447 
2247	 0.241409045317964 
2248	 0.240689761594569 
2249	 0.239895343309337 
2250	 0.239137219408271 
2251	 0.238325533063632 
2252	 0.23758802507869 
2253	 0.236868079992239 
2254	 0.236189981248714 
2255	 0.235556043690786 
2256	 0.234942090233154 
2257	 0.234325233759824 
2258	 0.233808194364079 
2259	 0.233343948159318 
2260	 0.232930183967345 
2261	 0.232602467305179 
2262	 0.232311877466911 
2263	 0.232049061845247 
2264	 0.231854678299679 
2265	 0.231726257251857 
2266	 0.231651650216591 
2267	 0.231622350193539 
2268	 0.231674154821441 
2269	 0.231802582118173 
2270	 0.231991555727668 
2271	 0.232260481338525 
2272	 0.232563296738675 
2273	 0.232874550200124 
2274	 0.233181642257874 
2275	 0.233512459608612 
2276	 0.233835996202195 
2277	 0.234221593318102 
2278	 0.234638560269792 
2279	 0.235104895032711 
2280	 0.235651128212708 
2281	 0.236138432974184 
2282	 0.236650345766839 
2283	 0.237139713938587 
2284	 0.237594791166968 
2285	 0.238056637136341 
2286	 0.238536003196394 
2287	 0.238986019196644 
2288	 0.239434913301485 
2289	 0.239838327801317 
2290	 0.240213014780164 
2291	 0.240555715737338 
2292	 0.240848407440105 
2293	 0.241127861639122 
2294	 0.241392131932305 
2295	 0.241634959460773 
2296	 0.241858140293256 
2297	 0.242032576469322 
2298	 0.242228192750519 
2299	 0.242393004245267 
2300	 0.24255958416719 
2301	 0.242730914004893 
2302	 0.242846731755862 
2303	 0.242940160314833 
2304	 0.243056028472374 
2305	 0.243222529938523 
2306	 0.24338420438077 
2307	 0.243598118535228 
2308	 0.243766439823791 
2309	 0.243926944936617 
2310	 0.24403506937838 
2311	 0.244105582853348 
2312	 0.244184103768926 
2313	 0.244225374170712 
2314	 0.244288148821328 
2315	 0.244365247316246 
2316	 0.24443222027866 
2317	 0.244513231779286 
2318	 0.244547907923551 
2319	 0.244579411083461 
2320	 0.244560359974379 
2321	 0.244465294759324 
2322	 0.244390537590475 
2323	 0.244298990135334 
2324	 0.244204519807655 
2325	 0.244108165741339 
2326	 0.244004924068683 
2327	 0.243888480692174 
2328	 0.243763917178393 
2329	 0.243646055902756 
2330	 0.243551574102433 
2331	 0.243483331628412 
2332	 0.243361117166198 
2333	 0.243186029048324 
2334	 0.243051420907965 
2335	 0.24289524266902 
2336	 0.242734204480168 
2337	 0.24262904197213 
2338	 0.242482014406253 
2339	 0.242262535550501 
2340	 0.24199104586788 
2341	 0.241698531821717 
2342	 0.241377281622851 
2343	 0.241039554638969 
2344	 0.240766131325077 
2345	 0.240476700822831 
2346	 0.24020457774525 
2347	 0.239880513602 
2348	 0.239555117697437 
2349	 0.239188655765582 
2350	 0.238767991421408 
2351	 0.238359665725931 
2352	 0.237921523661675 
2353	 0.237512933838668 
2354	 0.237113403454386 
2355	 0.236708583492269 
2356	 0.236338909350884 
2357	 0.235909147777614 
2358	 0.235417036528208 
2359	 0.234971682613365 
2360	 0.234541170093792 
2361	 0.234088877023675 
2362	 0.23365744661726 
2363	 0.233199177736926 
2364	 0.232665834618546 
2365	 0.232179815529839 
2366	 0.2317382240366 
2367	 0.231265873532137 
2368	 0.230823743747232 
2369	 0.230327636242624 
2370	 0.229799581546074 
2371	 0.229242230137311 
2372	 0.228592376800177 
2373	 0.227958971549135 
2374	 0.227394393207899 
2375	 0.226791824255486 
2376	 0.226196391440889 
2377	 0.225671521384533 
2378	 0.225102185592517 
2379	 0.224451568587996 
2380	 0.223846272690448 
2381	 0.22322844061611 
2382	 0.222533562260879 
2383	 0.221936405179007 
2384	 0.221352772966303 
2385	 0.220692103905581 
2386	 0.220067161866871 
2387	 0.219337274676256 
2388	 0.218590177345615 
2389	 0.217953891458292 
2390	 0.217307751585626 
2391	 0.216699357295036 
2392	 0.216108996557303 
2393	 0.21546975718931 
2394	 0.214817094032794 
2395	 0.214197672336532 
2396	 0.213641196036269 
2397	 0.213088190553274 
2398	 0.212435829216428 
2399	 0.211732987493762 
2400	 0.211040337811873 
2401	 0.21030012930173 
2402	 0.209614383081977 
2403	 0.209114298611244 
2404	 0.208572863301833 
2405	 0.207921116903635 
2406	 0.207333660764049 
2407	 0.206649769547135 
2408	 0.205971796197826 
2409	 0.205442932250143 
2410	 0.204921126674512 
2411	 0.204386225823295 
2412	 0.203805882749112 
2413	 0.203277092608741 
2414	 0.202742822146439 
2415	 0.202197050604223 
2416	 0.201682498630843 
2417	 0.20117914026029 
2418	 0.200675472380746 
2419	 0.200229980600476 
2420	 0.19968809759448 
2421	 0.199114294572228 
2422	 0.198563044466354 
2423	 0.197937792712094 
2424	 0.197387953187709 
2425	 0.19689376837872 
2426	 0.196373147133216 
2427	 0.195862217566686 
2428	 0.195353415292175 
2429	 0.194845078259591 
2430	 0.194323492105925 
2431	 0.193853387702996 
2432	 0.193293673390787 
2433	 0.192601659337208 
2434	 0.192099009825908 
2435	 0.191663789040819 
2436	 0.191140912732118 
2437	 0.190742690289765 
2438	 0.190225826899055 
2439	 0.189464059606156 
2440	 0.188941727034999 
2441	 0.188591139655166 
2442	 0.188086936981531 
2443	 0.187636953920477 
2444	 0.18712590339249 
2445	 0.186449764905992 
2446	 0.185914509435267 
2447	 0.185448570304457 
2448	 0.184966977501864 
2449	 0.18455016973888 
2450	 0.184016507759662 
2451	 0.183466429888269 
2452	 0.182881468560933 
2453	 0.182155435050195 
2454	 0.181529809151419 
2455	 0.180885806278817 
2456	 0.1803405086786 
2457	 0.179925789118122 
2458	 0.179485590200485 
2459	 0.17912157169809 
2460	 0.178687477969851 
2461	 0.178138122787497 
2462	 0.177717022894561 
2463	 0.177379066826248 
2464	 0.176993778451259 
2465	 0.176713134339068 
2466	 0.176281314934428 
2467	 0.175671002018669 
2468	 0.175316012551549 
2469	 0.174990970323831 
2470	 0.174780935186277 
2471	 0.174610424419174 
2472	 0.174120385555851 
2473	 0.173673543793999 
2474	 0.17325957331539 
2475	 0.172690087879148 
2476	 0.172346840135705 
2477	 0.172074100794244 
2478	 0.17172640647129 
2479	 0.17137535986761 
2480	 0.171061449967184 
2481	 0.170809380831079 
2482	 0.170451514208191 
2483	 0.170128563159875 
2484	 0.169761385845631 
2485	 0.169302405425566 
2486	 0.168788069573774 
2487	 0.168295417742104 
2488	 0.168022423932691 
2489	 0.167735723258409 
2490	 0.16747835926776 
2491	 0.167367146746817 
2492	 0.166997140162149 
2493	 0.166359581930251 
2494	 0.165845910786986 
2495	 0.165321210303271 
2496	 0.164793437119044 
2497	 0.164469155746044 
2498	 0.164133319254071 
2499	 0.163840553644558 
2500	 0.163633674070887 
