Wavelength	mm2100004.asd
350	 4.58007724883086E-02 
351	 4.69955679901891E-02 
352	 4.34454666338047E-02 
353	 4.24550145779034E-02 
354	 4.84153557031941E-02 
355	 4.74196135196059E-02 
356	 4.48319905481277E-02 
357	 4.79606077248861E-02 
358	 0.051976253886886 
359	 5.12013104136954E-02 
360	 4.68325470479487E-02 
361	 4.43139398449121E-02 
362	 4.28136238638938E-02 
363	 4.67630678136495E-02 
364	 5.42416550989992E-02 
365	 0.053207410614965 
366	 4.86261365035074E-02 
367	 4.75145461865583E-02 
368	 5.27324920396916E-02 
369	 4.93883803110258E-02 
370	 4.73467541572737E-02 
371	 0.049119119133511 
372	 5.15011915157097E-02 
373	 5.30450290494591E-02 
374	 5.31599635138849E-02 
375	 5.27352687250315E-02 
376	 5.50347937663886E-02 
377	 5.41454211983816E-02 
378	 5.26583804801608E-02 
379	 5.43707242363698E-02 
380	 5.70236267796086E-02 
381	 5.61728934865424E-02 
382	 5.43962519362751E-02 
383	 5.84667473605904E-02 
384	 5.80783052427443E-02 
385	 5.56427786843943E-02 
386	 5.46728059790836E-02 
387	 5.73031272694627E-02 
388	 5.88034457723909E-02 
389	 5.91948329800607E-02 
390	 5.98651667906726E-02 
391	 6.06076984654099E-02 
392	 6.10827941336544E-02 
393	 6.18639553173941E-02 
394	 6.41117605344684E-02 
395	 6.59065689715585E-02 
396	 6.77751779238847E-02 
397	 6.97155279360492E-02 
398	 6.96045531414589E-02 
399	 6.95225266409157E-02 
400	 7.07288757238208E-02 
401	 7.33637617295862E-02 
402	 0.073802815217604 
403	 7.26948921239583E-02 
404	 7.20347436036605E-02 
405	 7.45810555542057E-02 
406	 7.57303561317753E-02 
407	 7.69019673270115E-02 
408	 7.89049845662899E-02 
409	 7.75795027611016E-02 
410	 0.077172489470677 
411	 7.80186275189928E-02 
412	 7.87154226779367E-02 
413	 8.01445331688252E-02 
414	 8.06127452650257E-02 
415	 0.080133811317611 
416	 8.11167687955993E-02 
417	 8.08498272818324E-02 
418	 8.04417070256475E-02 
419	 8.11286005399094E-02 
420	 8.14936319099173E-02 
421	 8.09761143276459E-02 
422	 8.00393761356517E-02 
423	 7.97371270838289E-02 
424	 8.00169769209869E-02 
425	 0.079951857017805 
426	 7.92876984969575E-02 
427	 7.92008453011828E-02 
428	 7.84290758475107E-02 
429	 7.76951858200932E-02 
430	 0.077905000943537 
431	 7.76490819659433E-02 
432	 7.68911357620516E-02 
433	 7.62425907248761E-02 
434	 7.67546253762895E-02 
435	 7.64556466612156E-02 
436	 7.62211403495296E-02 
437	 7.67346888656658E-02 
438	 7.66380118657186E-02 
439	 7.69803300265142E-02 
440	 7.76368411277732E-02 
441	 7.79816616303491E-02 
442	 7.84697813987319E-02 
443	 7.89684865428183E-02 
444	 7.94031124912719E-02 
445	 7.98669074404758E-02 
446	 0.080328404264374 
447	 8.08519087959717E-02 
448	 8.14455076103123E-02 
449	 8.17035046108614E-02 
450	 8.25730683808655E-02 
451	 8.37308653121842E-02 
452	 8.38701023683688E-02 
453	 8.45700039884606E-02 
454	 8.50230859327743E-02 
455	 8.48072736150112E-02 
456	 0.08547789022354 
457	 8.60348149062062E-02 
458	 8.62546697302086E-02 
459	 0.08634561734674 
460	 8.70437594587061E-02 
461	 8.72954190897366E-02 
462	 8.70101226508299E-02 
463	 8.76582643343498E-02 
464	 8.79465148909924E-02 
465	 8.78359548121091E-02 
466	 8.77012429014327E-02 
467	 0.088094310078388 
468	 8.84060779197972E-02 
469	 8.84713251914186E-02 
470	 8.85139629965556E-02 
471	 8.85690513854065E-02 
472	 8.86624427959291E-02 
473	 8.87833441906164E-02 
474	 8.88382697175771E-02 
475	 8.90566335256865E-02 
476	 8.92305995968148E-02 
477	 8.90609360041739E-02 
478	 8.90570983625139E-02 
479	 8.93118707309898E-02 
480	 8.96331172175866E-02 
481	 8.94927920077812E-02 
482	 8.96601779215398E-02 
483	 9.00049928404856E-02 
484	 9.01876650172906E-02 
485	 9.01132495715184E-02 
486	 9.00809904575779E-02 
487	 0.090116259314635 
488	 9.00253051867474E-02 
489	 9.00620626818376E-02 
490	 9.02716635443184E-02 
491	 0.090574917824683 
492	 9.07301558210005E-02 
493	 9.05300446464617E-02 
494	 9.03123567322419E-02 
495	 9.05703020666394E-02 
496	 9.07648036717485E-02 
497	 9.08081252329889E-02 
498	 9.07906371687973E-02 
499	 9.10017280448704E-02 
500	 9.10388062796948E-02 
501	 9.09785034554237E-02 
502	 9.10033198595007E-02 
503	 0.091094158384489 
504	 9.11316977890302E-02 
505	 9.11260466046957E-02 
506	 9.12039237525612E-02 
507	 9.13444844227943E-02 
508	 9.14952294816845E-02 
509	 9.15912421436443E-02 
510	 9.15365628072402E-02 
511	 9.15384070965112E-02 
512	 9.16355221786695E-02 
513	 9.17604718265779E-02 
514	 9.17988193898874E-02 
515	 9.18561354210616E-02 
516	 9.19885428284474E-02 
517	 0.092138519422363 
518	 9.21394922715483E-02 
519	 0.092104667632914 
520	 9.21950858073235E-02 
521	 9.22773053156727E-02 
522	 9.23324830914855E-02 
523	 9.23719740928839E-02 
524	 9.24310370317199E-02 
525	 9.24595169507248E-02 
526	 9.25010570036214E-02 
527	 0.092576820134314 
528	 9.25604876171509E-02 
529	 9.26105269640143E-02 
530	 9.27365986226873E-02 
531	 9.28449829109082E-02 
532	 9.28630375067064E-02 
533	 0.092950462467919 
534	 9.31543692907224E-02 
535	 0.093217954612233 
536	 9.32870062565751E-02 
537	 9.33811161596883E-02 
538	 9.34777398252867E-02 
539	 9.36046465553911E-02 
540	 9.36583760910555E-02 
541	 9.36763436901639E-02 
542	 9.38954178986963E-02 
543	 9.40087870683995E-02 
544	 9.40602383269866E-02 
545	 9.41754171544692E-02 
546	 9.44030518859605E-02 
547	 9.45742480963193E-02 
548	 9.46932996038727E-02 
549	 9.49094622446906E-02 
550	 0.095141781802015 
551	 9.53308012342077E-02 
552	 9.54725401229463E-02 
553	 9.56971476970926E-02 
554	 9.59100618640883E-02 
555	 9.61100319573297E-02 
556	 9.63540013548452E-02 
557	 9.67616209225624E-02 
558	 9.71417019297128E-02 
559	 9.74319534598967E-02 
560	 9.78592253547301E-02 
561	 9.82441704896777E-02 
562	 9.86190997963979E-02 
563	 9.90694094261506E-02 
564	 9.95587717631954E-02 
565	 0.100044432251767 
566	 0.100494344311467 
567	 0.100891639159827 
568	 0.101380445513564 
569	 0.101987691374885 
570	 0.102680526390222 
571	 0.103349640861548 
572	 0.104041557662723 
573	 0.10475143142975 
574	 0.105443139855491 
575	 0.106169285102222 
576	 0.106979522961968 
577	 0.107867471825753 
578	 0.108708784386334 
579	 0.109567449427091 
580	 0.110409491207188 
581	 0.111182390344384 
582	 0.111981950796784 
583	 0.112771103559475 
584	 0.113610736906638 
585	 0.11472702827091 
586	 0.115789391782444 
587	 0.116883466188073 
588	 0.118135125911719 
589	 0.119287931663097 
590	 0.120469774624755 
591	 0.121669486306464 
592	 0.12274942020019 
593	 0.123785827778106 
594	 0.124818185003211 
595	 0.125848645877141 
596	 0.126800977501113 
597	 0.127731411503608 
598	 0.128648776787266 
599	 0.12955502350506 
600	 0.13060135942536 
601	 0.131644207263974 
602	 0.132594661114274 
603	 0.133524685463792 
604	 0.134459778060049 
605	 0.135391068206472 
606	 0.136300514559562 
607	 0.137214141959728 
608	 0.138080291238064 
609	 0.1389051088526 
610	 0.139763712166881 
611	 0.140473724136398 
612	 0.141054598633612 
613	 0.141574270064866 
614	 0.142076223827454 
615	 0.142568256352573 
616	 0.143059004365281 
617	 0.143554989341848 
618	 0.1440843087267 
619	 0.144562703963173 
620	 0.144949301239915 
621	 0.145324279936534 
622	 0.145674897730908 
623	 0.146008783304819 
624	 0.146336753563012 
625	 0.146646313795649 
626	 0.14694962176396 
627	 0.147254684017679 
628	 0.147561618931806 
629	 0.14781781324409 
630	 0.148071342792896 
631	 0.148369115002047 
632	 0.148634010210447 
633	 0.148902260455416 
634	 0.149182293229529 
635	 0.14945777588777 
636	 0.149717623911021 
637	 0.149974056212998 
638	 0.150233074786595 
639	 0.150471126374608 
640	 0.150740339487505 
641	 0.151016377436207 
642	 0.1512500968592 
643	 0.151498701919308 
644	 0.151799382622008 
645	 0.152127632591037 
646	 0.152372350413273 
647	 0.152650144026854 
648	 0.152946833372448 
649	 0.15323048035467 
650	 0.153570571288455 
651	 0.153855917671353 
652	 0.154133763400382 
653	 0.154574138440119 
654	 0.154924838661301 
655	 0.155210997509932 
656	 0.155508303143444 
657	 0.155880698470892 
658	 0.156285520769169 
659	 0.156699943472637 
660	 0.157106169704934 
661	 0.157458050528599 
662	 0.157868077122027 
663	 0.158350930034353 
664	 0.158757645525949 
665	 0.15923197327761 
666	 0.159704705054366 
667	 0.160094678724251 
668	 0.160517723979944 
669	 0.161028389696674 
670	 0.161597567148702 
671	 0.162129937690231 
672	 0.162640114896454 
673	 0.163161204873832 
674	 0.163720318766939 
675	 0.164331414748065 
676	 0.164867115504378 
677	 0.165397367253187 
678	 0.166046637365635 
679	 0.166638755497254 
680	 0.167242013781346 
681	 0.167894288013595 
682	 0.168567083144638 
683	 0.169236560951194 
684	 0.169885189163841 
685	 0.170523174904233 
686	 0.171249451633943 
687	 0.171974089961925 
688	 0.172663096785371 
689	 0.173333499730816 
690	 0.174085783620026 
691	 0.174852293029923 
692	 0.175586724962344 
693	 0.176337516523841 
694	 0.177094649663522 
695	 0.177883660733508 
696	 0.178713455054875 
697	 0.179428264005767 
698	 0.180217667224617 
699	 0.181097021920214 
700	 0.181883677972938 
701	 0.182706668213392 
702	 0.183555258980608 
703	 0.184386198801333 
704	 0.1851397814291 
705	 0.185935173647331 
706	 0.186775251782297 
707	 0.187603644291018 
708	 0.188450235355069 
709	 0.189300385102892 
710	 0.190134639400623 
711	 0.190934685756994 
712	 0.191733284549584 
713	 0.192504925063626 
714	 0.193248525045161 
715	 0.194125977656162 
716	 0.194921207543579 
717	 0.195605973534826 
718	 0.196301258566075 
719	 0.197085042889442 
720	 0.197827706607727 
721	 0.198469332154948 
722	 0.1991477071431 
723	 0.199824150817029 
724	 0.200446850412364 
725	 0.200988329734562 
726	 0.20157139553007 
727	 0.202156455870815 
728	 0.202706916974543 
729	 0.203198516712001 
730	 0.203630040783439 
731	 0.204051227208806 
732	 0.204485180129312 
733	 0.204875481846064 
734	 0.205216376693238 
735	 0.205480094908403 
736	 0.205660524669562 
737	 0.205912492711867 
738	 0.206163925723612 
739	 0.206358448800856 
740	 0.20647908231041 
741	 0.206573000798639 
742	 0.206629321565081 
743	 0.206637318981093 
744	 0.20662343319746 
745	 0.206564487759771 
746	 0.206474756808702 
747	 0.206377798099352 
748	 0.206229443059331 
749	 0.206041366108692 
750	 0.205840232017571 
751	 0.205661663944266 
752	 0.205377774924735 
753	 0.205013599627751 
754	 0.204637405069632 
755	 0.204331965194658 
756	 0.203986306632906 
757	 0.203587047689978 
758	 0.203167656083526 
759	 0.20268760689329 
760	 0.202203429628297 
761	 0.201718583523261 
762	 0.20116179731869 
763	 0.200655383353562 
764	 0.20014466939598 
765	 0.199565603935723 
766	 0.198941867040567 
767	 0.198378725067111 
768	 0.197851903871765 
769	 0.197272133393417 
770	 0.196629030366385 
771	 0.196005581342124 
772	 0.195401643087486 
773	 0.19471160611214 
774	 0.194046272582198 
775	 0.193396904500976 
776	 0.192732684683895 
777	 0.19203282589262 
778	 0.191377152849705 
779	 0.190745856004844 
780	 0.190079320978854 
781	 0.18939537585757 
782	 0.188723401529314 
783	 0.188078472992676 
784	 0.187456626318773 
785	 0.186750314456286 
786	 0.186050834923363 
787	 0.185419590306614 
788	 0.184741197869092 
789	 0.184165071013143 
790	 0.183577136664656 
791	 0.18283060685995 
792	 0.182150463993158 
793	 0.181523294128925 
794	 0.180921333560823 
795	 0.18031255653557 
796	 0.179640861845985 
797	 0.179040348200575 
798	 0.178541664572353 
799	 0.177935159003283 
800	 0.177347760138 
801	 0.176775780055422 
802	 0.176188241027104 
803	 0.175598922683629 
804	 0.175040386467503 
805	 0.174505908813889 
806	 0.173964663162367 
807	 0.173411970152357 
808	 0.172885363338566 
809	 0.172373070590242 
810	 0.171795923549501 
811	 0.171268093698192 
812	 0.170768875166244 
813	 0.170271457740254 
814	 0.169819653226958 
815	 0.169416656532983 
816	 0.169001037040184 
817	 0.168510874017415 
818	 0.168027059387757 
819	 0.167610185731331 
820	 0.167220662301982 
821	 0.16675244192318 
822	 0.166361751772824 
823	 0.165975601313369 
824	 0.165572259813361 
825	 0.165268966065671 
826	 0.16493778721335 
827	 0.164565459566011 
828	 0.164176955657407 
829	 0.163799884469754 
830	 0.163465727766328 
831	 0.163159973802743 
832	 0.162852171285648 
833	 0.162589561594573 
834	 0.162281904353682 
835	 0.161941332935183 
836	 0.161678297311482 
837	 0.161470664751149 
838	 0.16124464605509 
839	 0.16096449743128 
840	 0.160673357800644 
841	 0.160413228683545 
842	 0.160201755567275 
843	 0.160022312038401 
844	 0.159784219924234 
845	 0.159603418512359 
846	 0.15943047983845 
847	 0.15918732166111 
848	 0.159107508054928 
849	 0.158989249710255 
850	 0.158795492930557 
851	 0.158641060796026 
852	 0.15841223968945 
853	 0.15824994653828 
854	 0.15820580736509 
855	 0.158154577096246 
856	 0.158066845845774 
857	 0.157970083666943 
858	 0.157894633811664 
859	 0.157834278925094 
860	 0.157752914970082 
861	 0.157665064599047 
862	 0.157598345609668 
863	 0.157537087409798 
864	 0.15755213708865 
865	 0.157588009592351 
866	 0.157539363751236 
867	 0.15755234054356 
868	 0.157546681898252 
869	 0.15750990524527 
870	 0.157517205329829 
871	 0.157598583908579 
872	 0.157637432466143 
873	 0.157620159801372 
874	 0.157732035129157 
875	 0.157862252549705 
876	 0.157916432005668 
877	 0.157891132135024 
878	 0.158006684038301 
879	 0.158097780580117 
880	 0.158191083730827 
881	 0.158344436191107 
882	 0.158457390087689 
883	 0.158598372847746 
884	 0.158745452130881 
885	 0.158851882779385 
886	 0.159058733603783 
887	 0.159261373977427 
888	 0.159419456671533 
889	 0.159571061643516 
890	 0.159788671894486 
891	 0.159990947365037 
892	 0.160178869100179 
893	 0.160468340084204 
894	 0.160665835037938 
895	 0.160842116453088 
896	 0.161078350861666 
897	 0.161374510590618 
898	 0.16174914241543 
899	 0.162036140495743 
900	 0.16217019151832 
901	 0.162462113854183 
902	 0.162850097661584 
903	 0.163210559529104 
904	 0.163455439532705 
905	 0.163723963072013 
906	 0.164097899264301 
907	 0.16452416382193 
908	 0.164909297103364 
909	 0.165344367057281 
910	 0.165739783285939 
911	 0.166083145974311 
912	 0.166431244847381 
913	 0.166881078302513 
914	 0.167358717598097 
915	 0.167805297541123 
916	 0.168205838110247 
917	 0.16864149035156 
918	 0.169150894755298 
919	 0.169694159979965 
920	 0.170158846004505 
921	 0.17058016027363 
922	 0.171090684275037 
923	 0.171700683901837 
924	 0.172231068936161 
925	 0.172817023319692 
926	 0.173412169708426 
927	 0.173969548237114 
928	 0.174509263071637 
929	 0.175098288162023 
930	 0.175761334706051 
931	 0.17643897969824 
932	 0.176919742743096 
933	 0.177511944689644 
934	 0.178217802373018 
935	 0.178935539300893 
936	 0.179554268290112 
937	 0.180220669745756 
938	 0.18090148902769 
939	 0.181567567958163 
940	 0.182430042104932 
941	 0.183200717116302 
942	 0.183930920070644 
943	 0.184754760427191 
944	 0.18553636276563 
945	 0.186324617033571 
946	 0.187108612562215 
947	 0.187853421813092 
948	 0.188539330667706 
949	 0.189340412037291 
950	 0.190212696574144 
951	 0.191039212518834 
952	 0.191975721401591 
953	 0.192870369864485 
954	 0.193740401459457 
955	 0.194692459792443 
956	 0.195721212894909 
957	 0.196620477680107 
958	 0.197436995605527 
959	 0.198351806933786 
960	 0.19929103314724 
961	 0.200263854595086 
962	 0.201275677769881 
963	 0.202297496587987 
964	 0.203145223465356 
965	 0.204100156608958 
966	 0.20518041929973 
967	 0.206224091634003 
968	 0.207309061986306 
969	 0.208296092896939 
970	 0.209228423991777 
971	 0.210267616195825 
972	 0.211452698350465 
973	 0.212582428735282 
974	 0.213635745387699 
975	 0.214731288445344 
976	 0.215945499748323 
977	 0.21705011984604 
978	 0.218065246226124 
979	 0.219158288778572 
980	 0.220246675881157 
981	 0.221286015491458 
982	 0.222351026643854 
983	 0.223535863046607 
984	 0.224638704137252 
985	 0.225754218188722 
986	 0.226950738279111 
987	 0.228219077364865 
988	 0.229362782399638 
989	 0.230279590925234 
990	 0.2312410943277 
991	 0.232542948549179 
992	 0.233717087149428 
993	 0.234776654621958 
994	 0.235940959162027 
995	 0.237326715107541 
996	 0.238317216955218 
997	 0.239339539577532 
998	 0.240413205247911 
999	 0.241441406260115 
1000	 0.242560859815622 
1001	 0.237393626080117 
1002	 0.238422214616177 
1003	 0.239382247544532 
1004	 0.240361037586594 
1005	 0.241415201316417 
1006	 0.242399146604009 
1007	 0.243309807632103 
1008	 0.244261346921539 
1009	 0.245263444409097 
1010	 0.24623032219026 
1011	 0.247144799140447 
1012	 0.248059763206621 
1013	 0.248949177903201 
1014	 0.249789308767708 
1015	 0.250735304372734 
1016	 0.251668268955331 
1017	 0.252529650774158 
1018	 0.253337585243476 
1019	 0.254178311305142 
1020	 0.254952416266784 
1021	 0.255744425298262 
1022	 0.256579850567715 
1023	 0.257371769060427 
1024	 0.258173494860549 
1025	 0.258987277833976 
1026	 0.259806535771348 
1027	 0.260599660563352 
1028	 0.261397363423247 
1029	 0.262155742034138 
1030	 0.262858602781022 
1031	 0.263595939145669 
1032	 0.264349743103989 
1033	 0.265122857722316 
1034	 0.265894898135864 
1035	 0.266615075675573 
1036	 0.267300412357885 
1037	 0.267997770948865 
1038	 0.268689350832199 
1039	 0.269396028714499 
1040	 0.270116951107794 
1041	 0.270822424809344 
1042	 0.271531987345088 
1043	 0.272252413996548 
1044	 0.272939648751331 
1045	 0.273632816804602 
1046	 0.274294850012926 
1047	 0.274927289114423 
1048	 0.275577250493008 
1049	 0.276240769006 
1050	 0.276917030714759 
1051	 0.277616447174932 
1052	 0.278266368015986 
1053	 0.278900370181996 
1054	 0.279594306691147 
1055	 0.280279297305996 
1056	 0.280927978642301 
1057	 0.281593980489432 
1058	 0.282308686568204 
1059	 0.282959776548635 
1060	 0.283564119009322 
1061	 0.2841864684396 
1062	 0.284825211351463 
1063	 0.285407750089764 
1064	 0.285999711501424 
1065	 0.286592553542352 
1066	 0.287155043476883 
1067	 0.287701623254044 
1068	 0.28825432387953 
1069	 0.288813524198734 
1070	 0.289379063804092 
1071	 0.289953466184765 
1072	 0.290528829744723 
1073	 0.291121886646466 
1074	 0.291674061935411 
1075	 0.292211993688405 
1076	 0.292745064776397 
1077	 0.293200820573981 
1078	 0.293638386641213 
1079	 0.294133901113814 
1080	 0.294551197673066 
1081	 0.294962455390233 
1082	 0.295452498567358 
1083	 0.295928038748496 
1084	 0.296401509710167 
1085	 0.296873651039986 
1086	 0.29737840992438 
1087	 0.297827792830305 
1088	 0.298258457532109 
1089	 0.298632594982997 
1090	 0.299009134392011 
1091	 0.299432144221578 
1092	 0.299849314981475 
1093	 0.300290683600416 
1094	 0.300770128969177 
1095	 0.301207518738967 
1096	 0.30160824179182 
1097	 0.302053314820188 
1098	 0.302486213062882 
1099	 0.30291403907427 
1100	 0.303326516761774 
1101	 0.303734426806182 
1102	 0.304140763901399 
1103	 0.304525354922336 
1104	 0.304926885903641 
1105	 0.305336962839492 
1106	 0.305764160740894 
1107	 0.306177059620253 
1108	 0.306594184893214 
1109	 0.307035108209314 
1110	 0.30745631565606 
1111	 0.307872775988144 
1112	 0.30828437105153 
1113	 0.308697543580157 
1114	 0.309109519628606 
1115	 0.309516322140463 
1116	 0.309903326291059 
1117	 0.31032148605027 
1118	 0.310760976998189 
1119	 0.311173797169869 
1120	 0.311588518922222 
1121	 0.312032183567139 
1122	 0.312418234096843 
1123	 0.312804013344115 
1124	 0.313219234406981 
1125	 0.313662707987612 
1126	 0.314067723338335 
1127	 0.314478383870264 
1128	 0.314865602198979 
1129	 0.315219203495621 
1130	 0.31557952218647 
1131	 0.315941755010748 
1132	 0.316300828109163 
1133	 0.31662743532798 
1134	 0.316993850702118 
1135	 0.317396030395931 
1136	 0.317767936579949 
1137	 0.318143899753043 
1138	 0.318526349749282 
1139	 0.318888059223274 
1140	 0.319228797235173 
1141	 0.319563150525168 
1142	 0.319888960175795 
1143	 0.32021631918501 
1144	 0.320535638974133 
1145	 0.320841726572644 
1146	 0.321149862777177 
1147	 0.321444989729122 
1148	 0.321717012698473 
1149	 0.321991427918204 
1150	 0.322247330581046 
1151	 0.322539488899337 
1152	 0.322816113289752 
1153	 0.323075489483058 
1154	 0.323347736596336 
1155	 0.323620848385419 
1156	 0.323896988340731 
1157	 0.324181154848344 
1158	 0.324459002893393 
1159	 0.324745761236161 
1160	 0.325016284258626 
1161	 0.325269683646675 
1162	 0.325530858409627 
1163	 0.325793947862671 
1164	 0.326047069174506 
1165	 0.326282782886334 
1166	 0.326552581838512 
1167	 0.326798770685591 
1168	 0.327047945608918 
1169	 0.327302540085439 
1170	 0.327578197436295 
1171	 0.327815549987054 
1172	 0.328034446046529 
1173	 0.328262158630266 
1174	 0.328476852130595 
1175	 0.328689708389858 
1176	 0.32890249933299 
1177	 0.329122290063994 
1178	 0.329335821105587 
1179	 0.329552719233722 
1180	 0.329785720869391 
1181	 0.330009259600023 
1182	 0.330225004501718 
1183	 0.330437891306975 
1184	 0.330652599439502 
1185	 0.330868917730711 
1186	 0.33108170331457 
1187	 0.331293021782252 
1188	 0.331502087205581 
1189	 0.331718712971356 
1190	 0.331913105888767 
1191	 0.332092979458179 
1192	 0.332277011585085 
1193	 0.332443545626866 
1194	 0.332621182540672 
1195	 0.332801960013247 
1196	 0.332989590651064 
1197	 0.333193484892681 
1198	 0.333381428704031 
1199	 0.333565218128415 
1200	 0.333758788754586 
1201	 0.333921617723507 
1202	 0.334050392340662 
1203	 0.334213951253739 
1204	 0.334367276656359 
1205	 0.334549668223173 
1206	 0.334771881821797 
1207	 0.334964861216756 
1208	 0.335165571659858 
1209	 0.335348960776719 
1210	 0.335512738224585 
1211	 0.335679398645844 
1212	 0.335840870939187 
1213	 0.335999751655738 
1214	 0.336153498932609 
1215	 0.336308055540686 
1216	 0.336461343030741 
1217	 0.336608788809269 
1218	 0.336766880179937 
1219	 0.33693323836916 
1220	 0.337089128642603 
1221	 0.337250668955864 
1222	 0.33739886247078 
1223	 0.33753166177482 
1224	 0.337672992817573 
1225	 0.337813418851666 
1226	 0.337953062786664 
1227	 0.338099100972838 
1228	 0.338235395953416 
1229	 0.338359347276838 
1230	 0.338492038638304 
1231	 0.338628890875631 
1232	 0.338759339949178 
1233	 0.338888908179619 
1234	 0.339023785667005 
1235	 0.33915169739229 
1236	 0.339274475452111 
1237	 0.339393198523267 
1238	 0.339504163675952 
1239	 0.339625553926195 
1240	 0.3397467994694 
1241	 0.339865911334209 
1242	 0.339997318616825 
1243	 0.340117295296396 
1244	 0.340225407695039 
1245	 0.340337261938849 
1246	 0.340437433523842 
1247	 0.34055615286611 
1248	 0.340694182177782 
1249	 0.340814620911786 
1250	 0.340951249103719 
1251	 0.341090963167055 
1252	 0.341213098779635 
1253	 0.341331167740008 
1254	 0.341426800063533 
1255	 0.341497105096897 
1256	 0.341583999834773 
1257	 0.341655953759895 
1258	 0.341740505242657 
1259	 0.341842030805967 
1260	 0.341935744744727 
1261	 0.342029124388203 
1262	 0.342117464352334 
1263	 0.34219498849485 
1264	 0.342288738619918 
1265	 0.34239205353735 
1266	 0.34248589602559 
1267	 0.34258632639347 
1268	 0.342683980763647 
1269	 0.34278500680689 
1270	 0.342873911194208 
1271	 0.342981796840864 
1272	 0.343111194648689 
1273	 0.343220950934959 
1274	 0.343322100522211 
1275	 0.34343329892417 
1276	 0.343528284522917 
1277	 0.343655836679499 
1278	 0.343807315841027 
1279	 0.343957379071535 
1280	 0.34413215756231 
1281	 0.344292065240657 
1282	 0.3444550660317 
1283	 0.344604915602229 
1284	 0.344743942516866 
1285	 0.344876976215189 
1286	 0.34501364196572 
1287	 0.345148722417262 
1288	 0.345282678563057 
1289	 0.345425240380997 
1290	 0.345552352963199 
1291	 0.345669594271368 
1292	 0.345780079067855 
1293	 0.345887254210346 
1294	 0.345983081112156 
1295	 0.3460757950268 
1296	 0.34614688474687 
1297	 0.346211467264298 
1298	 0.346248747054671 
1299	 0.346255748903688 
1300	 0.346262164523675 
1301	 0.34624683156955 
1302	 0.346228942624109 
1303	 0.346208123715424 
1304	 0.346175334323249 
1305	 0.346138255464362 
1306	 0.346095569015351 
1307	 0.346030431737091 
1308	 0.345954250317379 
1309	 0.345864490705675 
1310	 0.345744150127472 
1311	 0.34564655993153 
1312	 0.345553215228371 
1313	 0.345450442664441 
1314	 0.345348673055169 
1315	 0.345247186768118 
1316	 0.345132108055972 
1317	 0.345031313740803 
1318	 0.34494725552009 
1319	 0.344851955788441 
1320	 0.344749541192947 
1321	 0.344656860048475 
1322	 0.344569046420267 
1323	 0.344477982657337 
1324	 0.344380235112559 
1325	 0.344286964098768 
1326	 0.344192430048946 
1327	 0.344086002108097 
1328	 0.343988809158866 
1329	 0.343903018986167 
1330	 0.343809728041453 
1331	 0.343717776372668 
1332	 0.343610603987055 
1333	 0.343493694612061 
1334	 0.34338818420568 
1335	 0.343269477138557 
1336	 0.343166374231628 
1337	 0.343077583268907 
1338	 0.342989474836388 
1339	 0.342907185462742 
1340	 0.342822154182935 
1341	 0.342733276978106 
1342	 0.342660474132939 
1343	 0.342588650739391 
1344	 0.342529720156999 
1345	 0.342492134359338 
1346	 0.342432465478641 
1347	 0.342357631776679 
1348	 0.342281899039959 
1349	 0.342185267438736 
1350	 0.342101923523302 
1351	 0.342022113460586 
1352	 0.341947516584574 
1353	 0.341866637014527 
1354	 0.341786386369116 
1355	 0.341706903569095 
1356	 0.341624588327539 
1357	 0.341542810628268 
1358	 0.341457422850305 
1359	 0.341388692339478 
1360	 0.341333973485038 
1361	 0.341261522572891 
1362	 0.341195810483182 
1363	 0.341121403941075 
1364	 0.341024135654721 
1365	 0.3409379390842 
1366	 0.340861720031058 
1367	 0.340783114321027 
1368	 0.340687521858604 
1369	 0.340597468176454 
1370	 0.34048854639955 
1371	 0.340354450156584 
1372	 0.340192964924435 
1373	 0.340003418415007 
1374	 0.339802944593384 
1375	 0.339573684068804 
1376	 0.339337446406136 
1377	 0.339108070156627 
1378	 0.33882134694919 
1379	 0.338508259375303 
1380	 0.338161530538268 
1381	 0.337767841192461 
1382	 0.337357716846483 
1383	 0.336937526343099 
1384	 0.336463181743153 
1385	 0.33597394180276 
1386	 0.335418627487136 
1387	 0.334787142534513 
1388	 0.334151094018191 
1389	 0.333493578157681 
1390	 0.33278110482962 
1391	 0.332039876763131 
1392	 0.331249194219274 
1393	 0.330359846888374 
1394	 0.329416851295289 
1395	 0.328427810362312 
1396	 0.327439528429683 
1397	 0.326449149376712 
1398	 0.325447823744035 
1399	 0.324428389565922 
1400	 0.323397998839281 
1401	 0.322361123228658 
1402	 0.321294205849361 
1403	 0.320263013424201 
1404	 0.319238719446318 
1405	 0.318232239619631 
1406	 0.317240923115677 
1407	 0.316250884610939 
1408	 0.315247349162526 
1409	 0.314301188300676 
1410	 0.313342998632873 
1411	 0.312484883848515 
1412	 0.311681240843582 
1413	 0.310950134428768 
1414	 0.310328632697562 
1415	 0.309762255342116 
1416	 0.309275246976192 
1417	 0.308854239665987 
1418	 0.308449753534354 
1419	 0.308082600146978 
1420	 0.307755240014998 
1421	 0.307445149340197 
1422	 0.307145289250396 
1423	 0.306845807322148 
1424	 0.306510225670405 
1425	 0.306141015361855 
1426	 0.305791443507626 
1427	 0.30540694404857 
1428	 0.305081539899501 
1429	 0.304786882253332 
1430	 0.30450610112579 
1431	 0.304269191189001 
1432	 0.304005706978441 
1433	 0.303733423706799 
1434	 0.303483340764418 
1435	 0.303207447505519 
1436	 0.302991125634133 
1437	 0.302831116303869 
1438	 0.302660987264267 
1439	 0.302513083726198 
1440	 0.302384635129248 
1441	 0.302227450306495 
1442	 0.302059596783027 
1443	 0.301894305907163 
1444	 0.301736101779632 
1445	 0.301607167858351 
1446	 0.301502876612457 
1447	 0.301398353345683 
1448	 0.301290281404773 
1449	 0.301167649751015 
1450	 0.301021024229559 
1451	 0.300885290329516 
1452	 0.300746186866703 
1453	 0.300613970304373 
1454	 0.300480230388234 
1455	 0.300359605527391 
1456	 0.300259920047745 
1457	 0.300132425679547 
1458	 0.299991620530246 
1459	 0.29986430030531 
1460	 0.29970154880466 
1461	 0.299597659616165 
1462	 0.299534885777883 
1463	 0.29947583815475 
1464	 0.299451808440999 
1465	 0.299420587944333 
1466	 0.299374299249438 
1467	 0.299367732004351 
1468	 0.299355472381858 
1469	 0.299401313598285 
1470	 0.2994933976847 
1471	 0.299619690049602 
1472	 0.29977805173127 
1473	 0.299978694001501 
1474	 0.300169574483196 
1475	 0.300369959502604 
1476	 0.300572154732842 
1477	 0.300779198843567 
1478	 0.301023487576653 
1479	 0.301284350671668 
1480	 0.301559076006109 
1481	 0.301831869951489 
1482	 0.302101781641131 
1483	 0.302368632364828 
1484	 0.302639965495795 
1485	 0.302908130101748 
1486	 0.303192822514394 
1487	 0.303482536529235 
1488	 0.30377514986299 
1489	 0.304100326976341 
1490	 0.304380529253275 
1491	 0.304650622708706 
1492	 0.304901213435847 
1493	 0.305108266705153 
1494	 0.305335372090073 
1495	 0.305559190802149 
1496	 0.305782812435233 
1497	 0.306013355040081 
1498	 0.306234942985549 
1499	 0.306456700725411 
1500	 0.30666811736621 
1501	 0.306869515913134 
1502	 0.307069485184494 
1503	 0.307263718167465 
1504	 0.307443366688975 
1505	 0.307643342947868 
1506	 0.307861214488138 
1507	 0.308078375448207 
1508	 0.308279526027442 
1509	 0.308451954057403 
1510	 0.308609919761171 
1511	 0.308746310223006 
1512	 0.308887616717 
1513	 0.309061842641801 
1514	 0.30922359739887 
1515	 0.309392243007619 
1516	 0.309581291014471 
1517	 0.30974840421959 
1518	 0.309896538156452 
1519	 0.310065834227045 
1520	 0.310246468768702 
1521	 0.310403332293504 
1522	 0.310555718525543 
1523	 0.310710549681858 
1524	 0.310843212864426 
1525	 0.310998991741144 
1526	 0.311182808157165 
1527	 0.311340355282289 
1528	 0.311494711998603 
1529	 0.311636731632595 
1530	 0.31176646183291 
1531	 0.311885824323116 
1532	 0.311989556014222 
1533	 0.312098542576851 
1534	 0.312193255281721 
1535	 0.312302793543229 
1536	 0.312418029552468 
1537	 0.312538013176531 
1538	 0.312667832324794 
1539	 0.312796658150732 
1540	 0.312940917311187 
1541	 0.313064051850257 
1542	 0.31316558118986 
1543	 0.313280691218476 
1544	 0.313404158846823 
1545	 0.313510702495734 
1546	 0.313621639762209 
1547	 0.313722650212392 
1548	 0.313795336285958 
1549	 0.313844232137613 
1550	 0.313902648442243 
1551	 0.313992918902767 
1552	 0.314091461166056 
1553	 0.314199851551209 
1554	 0.314318036576594 
1555	 0.31441636345276 
1556	 0.314495464816357 
1557	 0.314574256905232 
1558	 0.314660429828319 
1559	 0.314745552770364 
1560	 0.314847695288163 
1561	 0.314979239396648 
1562	 0.315078084210211 
1563	 0.315169252110593 
1564	 0.31526142705153 
1565	 0.315342038223028 
1566	 0.315421769987343 
1567	 0.315507365504737 
1568	 0.315579266395556 
1569	 0.315636280371363 
1570	 0.315696998390763 
1571	 0.315759730271206 
1572	 0.315810344080176 
1573	 0.315846443479397 
1574	 0.315897646063272 
1575	 0.315948566985708 
1576	 0.315999405030862 
1577	 0.316065401020176 
1578	 0.316114000078038 
1579	 0.316139280419866 
1580	 0.316188419277666 
1581	 0.316242192270429 
1582	 0.316300024527645 
1583	 0.316380931335684 
1584	 0.316442024595284 
1585	 0.316498937992378 
1586	 0.316547722706914 
1587	 0.316585672610378 
1588	 0.316621702879968 
1589	 0.316651591943942 
1590	 0.31667666629253 
1591	 0.31669940700025 
1592	 0.316713684458581 
1593	 0.316696879108113 
1594	 0.316719494599431 
1595	 0.316758139213858 
1596	 0.316798648944751 
1597	 0.316891193586442 
1598	 0.31693589335627 
1599	 0.316952376654044 
1600	 0.316967487165646 
1601	 0.316953116062771 
1602	 0.316948232321231 
1603	 0.316925405855821 
1604	 0.316933996369258 
1605	 0.316969131541061 
1606	 0.316993717196739 
1607	 0.317035292148145 
1608	 0.317078468174359 
1609	 0.317102173129774 
1610	 0.317123721824182 
1611	 0.317139872205842 
1612	 0.317155732270321 
1613	 0.317131455439714 
1614	 0.317111609397557 
1615	 0.317128521274401 
1616	 0.317123043510033 
1617	 0.317133950167643 
1618	 0.317153965663937 
1619	 0.317136449337756 
1620	 0.317123819723205 
1621	 0.317118826583265 
1622	 0.317123920591117 
1623	 0.317106273612119 
1624	 0.317080931517043 
1625	 0.317064630932587 
1626	 0.317033496457267 
1627	 0.317021428324782 
1628	 0.317027956111963 
1629	 0.31702528656542 
1630	 0.317017276081033 
1631	 0.317023047518509 
1632	 0.317035784394167 
1633	 0.317053000009246 
1634	 0.317089385164502 
1635	 0.317093242476231 
1636	 0.317096427598442 
1637	 0.317070050732134 
1638	 0.317005166207594 
1639	 0.316968441360336 
1640	 0.316918412794592 
1641	 0.316896374474411 
1642	 0.31689540769944 
1643	 0.316890703747161 
1644	 0.316903777026362 
1645	 0.316896320247774 
1646	 0.316883726780707 
1647	 0.316869549663015 
1648	 0.316838533140843 
1649	 0.316827603431271 
1650	 0.316828951934559 
1651	 0.31682084358846 
1652	 0.316828684433683 
1653	 0.316803516572124 
1654	 0.316755813311349 
1655	 0.316714244223202 
1656	 0.31666394264083 
1657	 0.316600677427501 
1658	 0.316533414553854 
1659	 0.316459880374375 
1660	 0.316359126842537 
1661	 0.316282178404098 
1662	 0.31621016142307 
1663	 0.316151365533974 
1664	 0.31610238220209 
1665	 0.316061180771866 
1666	 0.31603985698385 
1667	 0.316006025401242 
1668	 0.3159858099991 
1669	 0.315934250957859 
1670	 0.315865582917704 
1671	 0.31579218025744 
1672	 0.315687567878027 
1673	 0.315610087985726 
1674	 0.31553609353321 
1675	 0.315474493352698 
1676	 0.315427755250796 
1677	 0.315382713382732 
1678	 0.315354349792319 
1679	 0.315307256661232 
1680	 0.315258381206921 
1681	 0.31520358377551 
1682	 0.315121096239974 
1683	 0.315075015646365 
1684	 0.315055954402536 
1685	 0.315012020737112 
1686	 0.314986550258376 
1687	 0.314928520169805 
1688	 0.314834972682448 
1689	 0.314753326561092 
1690	 0.314661900606857 
1691	 0.314576791343079 
1692	 0.314481053932439 
1693	 0.314413118716626 
1694	 0.314372227562048 
1695	 0.314305061571288 
1696	 0.314238789319766 
1697	 0.314178004472546 
1698	 0.314100904516812 
1699	 0.314037296891423 
1700	 0.314010366892575 
1701	 0.313936174364523 
1702	 0.313830613158269 
1703	 0.313734890119979 
1704	 0.313630815975435 
1705	 0.313513796647617 
1706	 0.313385827134981 
1707	 0.313270771469319 
1708	 0.31314483525753 
1709	 0.31302296108773 
1710	 0.312917435838157 
1711	 0.312807500865525 
1712	 0.312695687603381 
1713	 0.312569557581168 
1714	 0.312435310986473 
1715	 0.312313152504318 
1716	 0.312161886176379 
1717	 0.31206124492292 
1718	 0.312019670279392 
1719	 0.311927729967843 
1720	 0.311832931744309 
1721	 0.311732986286132 
1722	 0.311605339475861 
1723	 0.311489804841886 
1724	 0.311395146735696 
1725	 0.311274902051178 
1726	 0.311139718854846 
1727	 0.310994801247347 
1728	 0.310824222081849 
1729	 0.310684640760433 
1730	 0.310548739168744 
1731	 0.310414679032767 
1732	 0.310311038657019 
1733	 0.310169223993844 
1734	 0.310012704002666 
1735	 0.309832832175918 
1736	 0.309619597818971 
1737	 0.3094409393835 
1738	 0.309252140195893 
1739	 0.309085903465896 
1740	 0.308944482839371 
1741	 0.308806200475471 
1742	 0.308680353543764 
1743	 0.308531459774866 
1744	 0.308392071950697 
1745	 0.308232412700203 
1746	 0.308048871590558 
1747	 0.30785177580165 
1748	 0.307669200342493 
1749	 0.307488938368896 
1750	 0.307301533352672 
1751	 0.307143802228636 
1752	 0.306985330802505 
1753	 0.306823648171124 
1754	 0.306671007033292 
1755	 0.306527235221615 
1756	 0.306378990108123 
1757	 0.306206169522915 
1758	 0.306033544281013 
1759	 0.305842471550721 
1760	 0.305664163660685 
1761	 0.305522455851306 
1762	 0.30534838187883 
1763	 0.30516231084403 
1764	 0.304986228501367 
1765	 0.304796957076703 
1766	 0.304606505215044 
1767	 0.304429320223422 
1768	 0.304269873077209 
1769	 0.304111554579925 
1770	 0.303980569956658 
1771	 0.30387494525456 
1772	 0.303753761171573 
1773	 0.303637386294282 
1774	 0.303527959376214 
1775	 0.303418066695325 
1776	 0.303279646893795 
1777	 0.303127292057452 
1778	 0.302980893062381 
1779	 0.302814847604345 
1780	 0.302669257386782 
1781	 0.302534603877256 
1782	 0.302405240620178 
1783	 0.302294817480588 
1784	 0.302204737374669 
1785	 0.302153457609298 
1786	 0.302078716354191 
1787	 0.302022655120168 
1788	 0.30194420513405 
1789	 0.301842871437377 
1790	 0.301731973667968 
1791	 0.301606802060113 
1792	 0.30148085860946 
1793	 0.301325614473074 
1794	 0.301211184726127 
1795	 0.301106892336049 
1796	 0.301009765526987 
1797	 0.300949487526109 
1798	 0.300883089574588 
1799	 0.300816154787 
1800	 0.300749272421749 
1801	 0.301170630633789 
1802	 0.301320140759609 
1803	 0.301469725587437 
1804	 0.301673215185434 
1805	 0.301897372226133 
1806	 0.302114456620579 
1807	 0.302340291041564 
1808	 0.302507506020609 
1809	 0.302658006100969 
1810	 0.302750572790441 
1811	 0.302794513025871 
1812	 0.302814604088666 
1813	 0.302794581674534 
1814	 0.302757991359082 
1815	 0.302701259417553 
1816	 0.30262544718966 
1817	 0.302557589054471 
1818	 0.30246005905659 
1819	 0.302400672145818 
1820	 0.302359269795293 
1821	 0.302330651445646 
1822	 0.302284680288864 
1823	 0.302223960713785 
1824	 0.302145829058985 
1825	 0.302019060494361 
1826	 0.301907753964492 
1827	 0.30179723675699 
1828	 0.301649144324704 
1829	 0.301483365868649 
1830	 0.301298561457933 
1831	 0.301075858293472 
1832	 0.30085590328916 
1833	 0.300645204463759 
1834	 0.300417368194641 
1835	 0.30017000484363 
1836	 0.299922816165037 
1837	 0.299683596367993 
1838	 0.299439016311242 
1839	 0.29919872237471 
1840	 0.298975115276865 
1841	 0.298746805551106 
1842	 0.298505070741111 
1843	 0.298286569052506 
1844	 0.298085930735921 
1845	 0.297856028856896 
1846	 0.297633429886126 
1847	 0.297433223977503 
1848	 0.297240977656349 
1849	 0.297092074544025 
1850	 0.296952449930954 
1851	 0.296843358678557 
1852	 0.296724250437637 
1853	 0.296608801472936 
1854	 0.29645958747443 
1855	 0.296298578938248 
1856	 0.296091751008315 
1857	 0.295836405650026 
1858	 0.295593439737426 
1859	 0.295301879950412 
1860	 0.294984718483331 
1861	 0.294648042122874 
1862	 0.294288950073314 
1863	 0.293867454917246 
1864	 0.293431274410062 
1865	 0.292950761487045 
1866	 0.292426493687235 
1867	 0.291889819305418 
1868	 0.291312848462531 
1869	 0.290682946677835 
1870	 0.290026656724175 
1871	 0.28930075386672 
1872	 0.288525780089641 
1873	 0.287672406892142 
1874	 0.286773497490303 
1875	 0.285787171966817 
1876	 0.284725061986999 
1877	 0.283616607566331 
1878	 0.282410536959349 
1879	 0.281118863112548 
1880	 0.279728489770807 
1881	 0.27824970591444 
1882	 0.276663613079611 
1883	 0.274982147428945 
1884	 0.273171867622414 
1885	 0.271295627594731 
1886	 0.269296051349715 
1887	 0.267176705256557 
1888	 0.264984516566811 
1889	 0.262647502343654 
1890	 0.260252219537101 
1891	 0.257833775610307 
1892	 0.255317714981176 
1893	 0.252809699744286 
1894	 0.250285709023511 
1895	 0.247733394743401 
1896	 0.24512938022087 
1897	 0.242574786792277 
1898	 0.240001401449443 
1899	 0.237427916220785 
1900	 0.2349452397067 
1901	 0.23249249432596 
1902	 0.230142343921939 
1903	 0.227898906450502 
1904	 0.225722158689831 
1905	 0.223599078429237 
1906	 0.221591869937104 
1907	 0.219694320065899 
1908	 0.217886169614438 
1909	 0.216203502501304 
1910	 0.214634322813083 
1911	 0.213162669514944 
1912	 0.211755591841739 
1913	 0.210425224875214 
1914	 0.209171873792888 
1915	 0.208001388992675 
1916	 0.206902131964366 
1917	 0.205892477810159 
1918	 0.204965691106101 
1919	 0.204101522427821 
1920	 0.203296915899137 
1921	 0.202523302927069 
1922	 0.201813983238331 
1923	 0.201182862051369 
1924	 0.200604184486075 
1925	 0.200085269380501 
1926	 0.199637618049238 
1927	 0.199261956485459 
1928	 0.198925109199403 
1929	 0.198657175120714 
1930	 0.198422261044047 
1931	 0.198213967335572 
1932	 0.198038074935266 
1933	 0.197872965421162 
1934	 0.197759096768614 
1935	 0.197693712975452 
1936	 0.197669094778015 
1937	 0.19767900947221 
1938	 0.197754474502588 
1939	 0.197840067032541 
1940	 0.197948430621008 
1941	 0.198081104459784 
1942	 0.198262617920361 
1943	 0.198474484362517 
1944	 0.19868918976663 
1945	 0.198969108445206 
1946	 0.199253056164424 
1947	 0.199553865634136 
1948	 0.199864969460896 
1949	 0.200212030303019 
1950	 0.200545310620435 
1951	 0.200871630723355 
1952	 0.201222716398387 
1953	 0.201572538908947 
1954	 0.201960595369255 
1955	 0.202379746375125 
1956	 0.202806052148132 
1957	 0.203229874339841 
1958	 0.203656814753653 
1959	 0.204102155208858 
1960	 0.20455626902553 
1961	 0.205013578645401 
1962	 0.205493486549672 
1963	 0.205975853306683 
1964	 0.206452950241603 
1965	 0.20693123789288 
1966	 0.207457292812978 
1967	 0.207986644412636 
1968	 0.20850292973264 
1969	 0.209029136075157 
1970	 0.209544214513836 
1971	 0.210036434928422 
1972	 0.210549723213454 
1973	 0.211082527196625 
1974	 0.211601379574787 
1975	 0.212118536316474 
1976	 0.212628088776794 
1977	 0.213156603163656 
1978	 0.213689448637001 
1979	 0.214240004508346 
1980	 0.214799204120584 
1981	 0.215332769805287 
1982	 0.215845514355218 
1983	 0.216369797794052 
1984	 0.216874307673859 
1985	 0.217404236034347 
1986	 0.217952788657204 
1987	 0.218493881998771 
1988	 0.219038298254415 
1989	 0.219597615210592 
1990	 0.220145473607828 
1991	 0.220697301675868 
1992	 0.221227890573352 
1993	 0.22174232781664 
1994	 0.222268012944707 
1995	 0.222778732384883 
1996	 0.223302498394184 
1997	 0.223846089671595 
1998	 0.224380567522899 
1999	 0.224907436873758 
2000	 0.225441708659379 
2001	 0.225993577789152 
2002	 0.226516859683222 
2003	 0.22704348305854 
2004	 0.227564800050681 
2005	 0.228084212889982 
2006	 0.228596661057755 
2007	 0.229105168983526 
2008	 0.229606177727995 
2009	 0.230113261107236 
2010	 0.230618225389772 
2011	 0.231123359852737 
2012	 0.231640464101157 
2013	 0.232145690741835 
2014	 0.232647897878621 
2015	 0.233130703950221 
2016	 0.233609152623259 
2017	 0.234110077865885 
2018	 0.234599343705048 
2019	 0.235091938806903 
2020	 0.235569795438092 
2021	 0.236038968926559 
2022	 0.236508144159935 
2023	 0.236971306461626 
2024	 0.237433059179937 
2025	 0.237898271387408 
2026	 0.238351379911018 
2027	 0.238805156231626 
2028	 0.239238389860221 
2029	 0.239656669452195 
2030	 0.240056119819658 
2031	 0.240467587305171 
2032	 0.240859637440589 
2033	 0.241270975059274 
2034	 0.241703928295217 
2035	 0.242117379354567 
2036	 0.242537003956733 
2037	 0.242933752970453 
2038	 0.24332664711236 
2039	 0.243691673939619 
2040	 0.244031172660398 
2041	 0.244360540612344 
2042	 0.244656097586216 
2043	 0.244944589228839 
2044	 0.245266947183566 
2045	 0.245598993282486 
2046	 0.245927364992306 
2047	 0.2462851500537 
2048	 0.246620312081439 
2049	 0.246943604927188 
2050	 0.247262424186847 
2051	 0.247581980108128 
2052	 0.247888156122542 
2053	 0.248174129564091 
2054	 0.248463184220617 
2055	 0.248737398163886 
2056	 0.24903512326243 
2057	 0.249312377422043 
2058	 0.249593138709484 
2059	 0.249850704980797 
2060	 0.250082568055616 
2061	 0.250330621919103 
2062	 0.250562461860166 
2063	 0.250816125700059 
2064	 0.2510944038237 
2065	 0.251357240154185 
2066	 0.251618816682094 
2067	 0.251884162276786 
2068	 0.252149408845778 
2069	 0.252416764076471 
2070	 0.252657707931484 
2071	 0.252894663401471 
2072	 0.25311802805032 
2073	 0.253304342208227 
2074	 0.253521717559485 
2075	 0.253756463667479 
2076	 0.253975207081974 
2077	 0.254193125673712 
2078	 0.254407559844815 
2079	 0.254601822007098 
2080	 0.254815310674465 
2081	 0.255045224436066 
2082	 0.255266717358722 
2083	 0.255484990445385 
2084	 0.255723183372572 
2085	 0.255937926092548 
2086	 0.256146479103389 
2087	 0.256338109299893 
2088	 0.256511539483242 
2089	 0.256694404062081 
2090	 0.256868795824296 
2091	 0.257040032434441 
2092	 0.257217047335594 
2093	 0.257386192996875 
2094	 0.257533129969602 
2095	 0.257698327323325 
2096	 0.257872537910635 
2097	 0.258045978682363 
2098	 0.258228778668674 
2099	 0.258403038360565 
2100	 0.258589475490265 
2101	 0.25877801519295 
2102	 0.258974785452463 
2103	 0.259194160639622 
2104	 0.25938342550821 
2105	 0.259565335421193 
2106	 0.259740184874698 
2107	 0.259878730038418 
2108	 0.260055616171188 
2109	 0.260240215991778 
2110	 0.260440650498512 
2111	 0.260672002635297 
2112	 0.260895605149691 
2113	 0.261116875752957 
2114	 0.261361358036181 
2115	 0.261589035816314 
2116	 0.261815809400613 
2117	 0.26203758255554 
2118	 0.262253038565308 
2119	 0.26247349316417 
2120	 0.262696964749692 
2121	 0.262912454744365 
2122	 0.263127857650303 
2123	 0.263337178757184 
2124	 0.263557441178595 
2125	 0.263740474698095 
2126	 0.263897654465419 
2127	 0.264056784847302 
2128	 0.264193757388749 
2129	 0.264322232269638 
2130	 0.264432724535604 
2131	 0.264572140999226 
2132	 0.26468901346634 
2133	 0.264800226068984 
2134	 0.264880421797811 
2135	 0.264954986537047 
2136	 0.265004742583523 
2137	 0.265007732598484 
2138	 0.265027103443347 
2139	 0.265049682394155 
2140	 0.265056216482373 
2141	 0.265058780647151 
2142	 0.265041412264274 
2143	 0.265008758575586 
2144	 0.264964717044645 
2145	 0.264902767550625 
2146	 0.264832062914236 
2147	 0.26475733436209 
2148	 0.264664516827996 
2149	 0.26454790425982 
2150	 0.264405463562437 
2151	 0.26426996007689 
2152	 0.264106067559211 
2153	 0.263966070635567 
2154	 0.26385695507489 
2155	 0.263700262071703 
2156	 0.263542214398126 
2157	 0.263348626176896 
2158	 0.263103987594972 
2159	 0.262872032240985 
2160	 0.262630788739597 
2161	 0.262376768352441 
2162	 0.262105190269731 
2163	 0.26184288068789 
2164	 0.261571318827093 
2165	 0.261296905677406 
2166	 0.26104126373139 
2167	 0.260811016452435 
2168	 0.260549141287196 
2169	 0.260277694036498 
2170	 0.260016620261494 
2171	 0.259752528058539 
2172	 0.259476425888778 
2173	 0.259213491031459 
2174	 0.258923956138538 
2175	 0.258592981340861 
2176	 0.258287962408069 
2177	 0.257995509300536 
2178	 0.257685349736692 
2179	 0.257384043671908 
2180	 0.257063810179787 
2181	 0.256734942764559 
2182	 0.25637839125523 
2183	 0.255974265216746 
2184	 0.25559147483961 
2185	 0.255233271020184 
2186	 0.254848209340769 
2187	 0.254534723415608 
2188	 0.254294313968062 
2189	 0.254015924239098 
2190	 0.253745263878289 
2191	 0.253490972327177 
2192	 0.253238474854173 
2193	 0.252996288030627 
2194	 0.252788927124435 
2195	 0.252551940522635 
2196	 0.252286060229038 
2197	 0.252052837417222 
2198	 0.251807938991984 
2199	 0.251602590153506 
2200	 0.251456616906061 
2201	 0.251284854813948 
2202	 0.251114480995046 
2203	 0.250948101755073 
2204	 0.250802647589225 
2205	 0.250643029872647 
2206	 0.25053356692002 
2207	 0.250448429710687 
2208	 0.250413371235456 
2209	 0.25041611745673 
2210	 0.250443340793414 
2211	 0.250525870196686 
2212	 0.250609586278408 
2213	 0.25072618911276 
2214	 0.250821619388233 
2215	 0.250929273653227 
2216	 0.251035138983496 
2217	 0.25113319407349 
2218	 0.251225491727115 
2219	 0.251348607689373 
2220	 0.251424727732534 
2221	 0.251473460976507 
2222	 0.251507700307352 
2223	 0.251474453936415 
2224	 0.251441930521248 
2225	 0.251395896734212 
2226	 0.251316857009561 
2227	 0.251241914112952 
2228	 0.251173071613747 
2229	 0.25107148284773 
2230	 0.250948816807439 
2231	 0.250817564449734 
2232	 0.250667666982709 
2233	 0.250509044605861 
2234	 0.250342570344125 
2235	 0.25015428268457 
2236	 0.249956225889101 
2237	 0.2497294705985 
2238	 0.24944371313171 
2239	 0.249202237044921 
2240	 0.248981719563011 
2241	 0.248731713949639 
2242	 0.248514017918668 
2243	 0.248249963045652 
2244	 0.247935494329024 
2245	 0.247597360306862 
2246	 0.247288162649019 
2247	 0.246960483899221 
2248	 0.246640500779663 
2249	 0.24634743921412 
2250	 0.245990909316385 
2251	 0.245581990420135 
2252	 0.245226998028064 
2253	 0.244851614202674 
2254	 0.24451435512189 
2255	 0.244221571138461 
2256	 0.243927431660234 
2257	 0.243613671252476 
2258	 0.243360138311074 
2259	 0.243138126367932 
2260	 0.242960935090913 
2261	 0.242832036542094 
2262	 0.242724154630304 
2263	 0.242661687426663 
2264	 0.242609319585961 
2265	 0.242578031981164 
2266	 0.2425723539582 
2267	 0.242599894597528 
2268	 0.242635795061128 
2269	 0.24268221243093 
2270	 0.242768094985801 
2271	 0.242861579952924 
2272	 0.242937899285465 
2273	 0.24302586980697 
2274	 0.243113119909978 
2275	 0.243247262897679 
2276	 0.243420593236305 
2277	 0.243553592885471 
2278	 0.243702172029814 
2279	 0.243846434728597 
2280	 0.243953429120714 
2281	 0.24410252668726 
2282	 0.244301902637248 
2283	 0.244468279395501 
2284	 0.244622975780667 
2285	 0.244772117283426 
2286	 0.244900296725371 
2287	 0.245050949590137 
2288	 0.24523715742816 
2289	 0.24537731372392 
2290	 0.245523456803781 
2291	 0.245630856667671 
2292	 0.245669228337783 
2293	 0.24572559177785 
2294	 0.245770711796954 
2295	 0.245818438631418 
2296	 0.245865550397594 
2297	 0.245927692345421 
2298	 0.245942465779719 
2299	 0.245931533377531 
2300	 0.245949077631896 
2301	 0.245947143112345 
2302	 0.245953515790098 
2303	 0.246017836529188 
2304	 0.246043618228628 
2305	 0.246031085977312 
2306	 0.246020187625571 
2307	 0.246009967941067 
2308	 0.245958845233882 
2309	 0.245875004336512 
2310	 0.245797021674451 
2311	 0.245679617028545 
2312	 0.245601027468949 
2313	 0.245543696130543 
2314	 0.245483838839831 
2315	 0.245436598230151 
2316	 0.245378825843844 
2317	 0.245330934732333 
2318	 0.245247403034565 
2319	 0.245151602946038 
2320	 0.245044939561731 
2321	 0.244917641960771 
2322	 0.24477915964576 
2323	 0.244586394918507 
2324	 0.244459307611745 
2325	 0.244342806766325 
2326	 0.244231771640345 
2327	 0.244157167356055 
2328	 0.244139858168746 
2329	 0.243991103368246 
2330	 0.243865856679212 
2331	 0.243728404877969 
2332	 0.243499508272346 
2333	 0.243307524210309 
2334	 0.243123766266416 
2335	 0.242949073706549 
2336	 0.242798300909885 
2337	 0.242618303503477 
2338	 0.24245540300053 
2339	 0.242321529269569 
2340	 0.24212497544636 
2341	 0.241906426502901 
2342	 0.241725028834266 
2343	 0.241475667700898 
2344	 0.241196545544592 
2345	 0.240941979169444 
2346	 0.240697948780992 
2347	 0.240449502021575 
2348	 0.240220554458499 
2349	 0.239949246446898 
2350	 0.23967209854175 
2351	 0.239351256092598 
2352	 0.238975782916125 
2353	 0.23861166987383 
2354	 0.238208212960784 
2355	 0.237864074607408 
2356	 0.23757146392319 
2357	 0.237218887515761 
2358	 0.236830282236827 
2359	 0.236504929225318 
2360	 0.236163884525906 
2361	 0.235833452584824 
2362	 0.235589242819274 
2363	 0.23530588277783 
2364	 0.235007180953271 
2365	 0.234685457710237 
2366	 0.234356239389893 
2367	 0.234011994027817 
2368	 0.233601814385954 
2369	 0.233229305352296 
2370	 0.232890504933904 
2371	 0.232537410236735 
2372	 0.232099584675559 
2373	 0.231651381542026 
2374	 0.231223887722468 
2375	 0.230783016832338 
2376	 0.230424035322158 
2377	 0.230022385733667 
2378	 0.22951226348607 
2379	 0.229045816187745 
2380	 0.228581398933745 
2381	 0.228166589858027 
2382	 0.227818548157429 
2383	 0.227445059740836 
2384	 0.227020503109478 
2385	 0.226556671115335 
2386	 0.226034191978697 
2387	 0.225457433817278 
2388	 0.224927629449768 
2389	 0.224449271167884 
2390	 0.223961516713545 
2391	 0.22347333257919 
2392	 0.223025636610577 
2393	 0.222550929450625 
2394	 0.222146149450173 
2395	 0.221793376857292 
2396	 0.221352248749423 
2397	 0.220940899676829 
2398	 0.220453255885413 
2399	 0.219927157356386 
2400	 0.219469540110884 
2401	 0.218955254694253 
2402	 0.218456559245526 
2403	 0.218023268901091 
2404	 0.217551532588195 
2405	 0.217064543579568 
2406	 0.216640466240711 
2407	 0.216182169698831 
2408	 0.215619714135127 
2409	 0.215064859382215 
2410	 0.214524902440849 
2411	 0.213916387559367 
2412	 0.213443315391934 
2413	 0.213068610637476 
2414	 0.212541501018447 
2415	 0.212096902373303 
2416	 0.21162997734191 
2417	 0.211026840994485 
2418	 0.210587340734563 
2419	 0.210318529068398 
2420	 0.20991176753587 
2421	 0.209558044052262 
2422	 0.209150575367194 
2423	 0.208596599238952 
2424	 0.208088925830742 
2425	 0.207623475738456 
2426	 0.20711044119868 
2427	 0.206602278370829 
2428	 0.206110359843207 
2429	 0.205576621188328 
2430	 0.205071309046162 
2431	 0.20455301356137 
2432	 0.204044540818787 
2433	 0.203561198766033 
2434	 0.203058446051206 
2435	 0.202571842085712 
2436	 0.202042779407986 
2437	 0.201498806284259 
2438	 0.200976775108417 
2439	 0.200398333472828 
2440	 0.199944175461088 
2441	 0.199590938287148 
2442	 0.199131803068195 
2443	 0.198721762878306 
2444	 0.198185704626849 
2445	 0.197458813317177 
2446	 0.196940858750805 
2447	 0.196466704207449 
2448	 0.196096646440373 
2449	 0.19593727505219 
2450	 0.19554998969019 
2451	 0.195096199360851 
2452	 0.194675265373165 
2453	 0.194158225116908 
2454	 0.193717719287991 
2455	 0.193346128976496 
2456	 0.192840718293372 
2457	 0.192254010266185 
2458	 0.191737269877049 
2459	 0.191236097486884 
2460	 0.190829292637176 
2461	 0.190512634862276 
2462	 0.190116219190708 
2463	 0.189641884106736 
2464	 0.189196638919363 
2465	 0.188690338515866 
2466	 0.188355586908623 
2467	 0.188316976762859 
2468	 0.18802366402566 
2469	 0.187602855394855 
2470	 0.187299824865013 
2471	 0.186785564020821 
2472	 0.186386228156948 
2473	 0.186217659623169 
2474	 0.1858757669288 
2475	 0.185490504786472 
2476	 0.185099490380971 
2477	 0.184627913655312 
2478	 0.18414428501758 
2479	 0.183804016441279 
2480	 0.183500467125831 
2481	 0.183041110095331 
2482	 0.182629384680486 
2483	 0.182177418052326 
2484	 0.181828952023899 
2485	 0.181688125796673 
2486	 0.181378912797901 
2487	 0.181021912752923 
2488	 0.180640068644084 
2489	 0.180237641380612 
2490	 0.180117164025717 
2491	 0.17988655479097 
2492	 0.17940824681328 
2493	 0.178934088816818 
2494	 0.178297949127306 
2495	 0.17799659124797 
2496	 0.177966920748128 
2497	 0.17767915774604 
2498	 0.177485287232419 
2499	 0.177026171818574 
2500	 0.176395644591569 
