Wavelength	mm2100002.asd
350	 5.36373278604273E-02 
351	 5.54815803418196E-02 
352	 4.82925517208347E-02 
353	 3.66979014215844E-02 
354	 4.04594978033496E-02 
355	 4.69152710598376E-02 
356	 5.09222417798331E-02 
357	 5.15814411285432E-02 
358	 5.49169408326398E-02 
359	 0.052898394476341 
360	 4.89953949601844E-02 
361	 5.27502218698285E-02 
362	 5.34304958352395E-02 
363	 0.051934291286291 
364	 0.050675996814907 
365	 5.22899709872052E-02 
366	 4.98503228544787E-02 
367	 4.78271055917182E-02 
368	 5.09033302531552E-02 
369	 0.052154653809318 
370	 5.27454616561657E-02 
371	 5.24381983109759E-02 
372	 5.04647765920676E-02 
373	 5.27672184108327E-02 
374	 5.45385296143027E-02 
375	 5.38594206028804E-02 
376	 5.64646976619066E-02 
377	 5.36864765000137E-02 
378	 5.14726412741671E-02 
379	 5.63181170035561E-02 
380	 5.81215807183104E-02 
381	 5.60511612374798E-02 
382	 5.42554354020664E-02 
383	 5.90549580844594E-02 
384	 0.058378033819252 
385	 0.056602732269053 
386	 5.70775616326703E-02 
387	 5.63155782544329E-02 
388	 5.77330129388963E-02 
389	 0.060405212482696 
390	 6.22130258539411E-02 
391	 6.24771707594898E-02 
392	 6.31027724042731E-02 
393	 6.42478851998927E-02 
394	 6.45904176427628E-02 
395	 6.53543728074932E-02 
396	 6.73161810633259E-02 
397	 6.99616175957709E-02 
398	 0.070263408835938 
399	 7.01682667325439E-02 
400	 7.03579725220903E-02 
401	 7.11731032510691E-02 
402	 7.39617609821801E-02 
403	 7.51490473066742E-02 
404	 7.43759401638893E-02 
405	 7.46980682165033E-02 
406	 7.61176173276044E-02 
407	 7.72444573634753E-02 
408	 7.73580654301946E-02 
409	 7.82392716729255E-02 
410	 7.86563036230105E-02 
411	 7.87617241499878E-02 
412	 7.93206696929782E-02 
413	 8.07036601514159E-02 
414	 0.080983731452284 
415	 8.00812992196033E-02 
416	 8.04449199249102E-02 
417	 8.03990299201061E-02 
418	 8.03225551242336E-02 
419	 8.07323324377533E-02 
420	 0.081028473613171 
421	 8.07505231284451E-02 
422	 8.04551518949235E-02 
423	 8.11069230751255E-02 
424	 8.05117675049512E-02 
425	 7.98290215101438E-02 
426	 7.96789619441587E-02 
427	 7.88900287134197E-02 
428	 7.85130674409006E-02 
429	 0.078146000927232 
430	 7.72294984108865E-02 
431	 7.67764107584108E-02 
432	 7.66928617223427E-02 
433	 7.66483962171637E-02 
434	 7.61964007053391E-02 
435	 7.63891087489127E-02 
436	 7.67783230441579E-02 
437	 0.076839801260598 
438	 7.65431533679298E-02 
439	 7.69065358279062E-02 
440	 7.74505390187295E-02 
441	 0.07720135303826 
442	 7.78845219243052E-02 
443	 0.078708699689256 
444	 7.91891402243013E-02 
445	 7.96705179382219E-02 
446	 8.01633065461698E-02 
447	 8.06704609531423E-02 
448	 0.081188004085602 
449	 8.17113843346475E-02 
450	 8.24671766294739E-02 
451	 8.32863001754928E-02 
452	 8.37133713089118E-02 
453	 8.44728175370368E-02 
454	 8.48165936250175E-02 
455	 8.45141134527155E-02 
456	 8.52339568702699E-02 
457	 8.58078656739343E-02 
458	 8.60325033555388E-02 
459	 8.61608834252823E-02 
460	 8.64218864046985E-02 
461	 8.66507890027146E-02 
462	 8.67979490814592E-02 
463	 8.70283320016439E-02 
464	 8.72447442744262E-02 
465	 8.74395416233089E-02 
466	 8.76319933249612E-02 
467	 8.78597708882862E-02 
468	 8.80138406599359E-02 
469	 8.81151167457392E-02 
470	 8.82839815450388E-02 
471	 8.84607757324223E-02 
472	 8.84798133656288E-02 
473	 0.088342929161569 
474	 8.84745672450509E-02 
475	 8.86978011478677E-02 
476	 8.87917112418803E-02 
477	 8.86243090308168E-02 
478	 8.89044306906357E-02 
479	 0.089119879613438 
480	 8.90501498269243E-02 
481	 8.90145972976304E-02 
482	 8.92254537310136E-02 
483	 0.08949715191572 
484	 8.96058062965906E-02 
485	 8.97138568480876E-02 
486	 8.97587184519839E-02 
487	 8.97294622112808E-02 
488	 8.96684929976713E-02 
489	 8.96937418174252E-02 
490	 8.98001675280085E-02 
491	 8.99520678024072E-02 
492	 9.01322040421118E-02 
493	 9.01238045638812E-02 
494	 8.99966757928893E-02 
495	 8.99733755929342E-02 
496	 9.02607868054089E-02 
497	 9.04273074470723E-02 
498	 9.03477572867426E-02 
499	 9.04393824132293E-02 
500	 9.03884068573214E-02 
501	 9.03238070415425E-02 
502	 9.04156462793035E-02 
503	 0.090421111001863 
504	 9.05572057149209E-02 
505	 9.07940243264628E-02 
506	 9.08760890792163E-02 
507	 9.08926057270156E-02 
508	 0.090979286244479 
509	 9.11516713603559E-02 
510	 0.091067755405675 
511	 9.10242411212227E-02 
512	 9.10706643275294E-02 
513	 9.11322009522486E-02 
514	 0.09130455011563 
515	 9.14452583828291E-02 
516	 9.14693856281187E-02 
517	 9.14187087919834E-02 
518	 9.14111812702252E-02 
519	 9.14939321203001E-02 
520	 9.16530137610066E-02 
521	 9.17397629719429E-02 
522	 9.18104701576778E-02 
523	 9.18901174539802E-02 
524	 9.19572969418984E-02 
525	 9.19106703404149E-02 
526	 9.18264107072167E-02 
527	 9.18075462271152E-02 
528	 9.19138347753511E-02 
529	 9.19902058430176E-02 
530	 9.20739863304012E-02 
531	 9.23016756745598E-02 
532	 9.23666817036725E-02 
533	 9.24057174001116E-02 
534	 9.25179899025392E-02 
535	 9.25915571086095E-02 
536	 9.26416674240375E-02 
537	 9.27392303605998E-02 
538	 9.29380612373467E-02 
539	 9.30066519245347E-02 
540	 9.30704792644963E-02 
541	 9.31998754593713E-02 
542	 9.33562962256848E-02 
543	 9.34329659084867E-02 
544	 9.34965073822968E-02 
545	 9.36299261797325E-02 
546	 9.37700077151401E-02 
547	 9.39022490658342E-02 
548	 9.40309604482656E-02 
549	 9.41795722107625E-02 
550	 9.44544276376474E-02 
551	 9.47384688287163E-02 
552	 0.094942744060899 
553	 9.51606537105717E-02 
554	 9.53515682044911E-02 
555	 9.55645812011118E-02 
556	 9.58788615032252E-02 
557	 9.61983162420381E-02 
558	 9.65332840802557E-02 
559	 9.69008674368043E-02 
560	 9.73183378010999E-02 
561	 9.76157434708713E-02 
562	 9.79413633282691E-02 
563	 9.84820590966632E-02 
564	 9.89818137254626E-02 
565	 9.94357021838537E-02 
566	 9.98665031065315E-02 
567	 0.100311117618953 
568	 0.1008349935934 
569	 0.10146495208513 
570	 0.102175960947926 
571	 0.102822673765427 
572	 0.103492875324752 
573	 0.104205135421016 
574	 0.104925166536653 
575	 0.105609297540354 
576	 0.10638879394164 
577	 0.107306714960291 
578	 0.10815393547989 
579	 0.109052333512229 
580	 0.109900977230968 
581	 0.110570159908644 
582	 0.111388230448854 
583	 0.112258788144622 
584	 0.113139297289286 
585	 0.11412077872416 
586	 0.115266916318262 
587	 0.116464971204928 
588	 0.117590600168941 
589	 0.118731409720263 
590	 0.119901855894705 
591	 0.121075627658692 
592	 0.122198000572416 
593	 0.12331208497093 
594	 0.124329251046642 
595	 0.125226635704541 
596	 0.126223959624666 
597	 0.127173749393799 
598	 0.128081686687757 
599	 0.129036019504148 
600	 0.130045519755898 
601	 0.131066528314643 
602	 0.132064058112431 
603	 0.133040292564214 
604	 0.133935647695443 
605	 0.134813308595604 
606	 0.135748734325518 
607	 0.136617312727754 
608	 0.137452370198875 
609	 0.138285152202851 
610	 0.13913335343038 
611	 0.139870534172876 
612	 0.140476709541283 
613	 0.14098406654473 
614	 0.14149423581236 
615	 0.14196450966952 
616	 0.142418203922058 
617	 0.142920449540981 
618	 0.143506353329171 
619	 0.143989843938956 
620	 0.144294428479473 
621	 0.144634984954993 
622	 0.144980177777535 
623	 0.145317206568578 
624	 0.145640345787403 
625	 0.145995837727425 
626	 0.14631649304947 
627	 0.146593511112257 
628	 0.146905444700813 
629	 0.147172153482264 
630	 0.147398906506494 
631	 0.147628592757222 
632	 0.14795520712319 
633	 0.148242660862605 
634	 0.14847602039115 
635	 0.148738978888937 
636	 0.148950295726776 
637	 0.149173545542222 
638	 0.149445221141991 
639	 0.149671386009112 
640	 0.149950155787745 
641	 0.150270547740738 
642	 0.15056781463395 
643	 0.150796826965833 
644	 0.151026864664769 
645	 0.151307002858718 
646	 0.151642884862492 
647	 0.151902533301661 
648	 0.152155461719072 
649	 0.152489648355695 
650	 0.152794994145197 
651	 0.153099713319193 
652	 0.153423453811005 
653	 0.15377243389212 
654	 0.154093089127174 
655	 0.154394630675153 
656	 0.154710014231016 
657	 0.155096606597559 
658	 0.155534810167678 
659	 0.155951224480769 
660	 0.156274970335997 
661	 0.156670998401146 
662	 0.157112422283545 
663	 0.15755302115221 
664	 0.157945471073977 
665	 0.158390663660069 
666	 0.158852551889838 
667	 0.159289019454105 
668	 0.159812229377548 
669	 0.160324085508015 
670	 0.160813348195371 
671	 0.161338243729465 
672	 0.161787945781341 
673	 0.162296826169715 
674	 0.162931495308055 
675	 0.163510155009375 
676	 0.164030519454205 
677	 0.164542831051569 
678	 0.16511853351135 
679	 0.165741354460537 
680	 0.166376393338488 
681	 0.167010181731013 
682	 0.167659913138221 
683	 0.168308888862284 
684	 0.168972122582714 
685	 0.169668808149503 
686	 0.170414908945834 
687	 0.171115108304709 
688	 0.171770709055802 
689	 0.172455380517459 
690	 0.173215265008455 
691	 0.173974359727839 
692	 0.174697753002484 
693	 0.175472671462718 
694	 0.176249644369106 
695	 0.177023410624444 
696	 0.177804042108779 
697	 0.178594920620687 
698	 0.179393082911416 
699	 0.180193022280878 
700	 0.180987742158009 
701	 0.181847572332775 
702	 0.182682107577719 
703	 0.183431102275163 
704	 0.184211782310266 
705	 0.185008478703167 
706	 0.185832007405018 
707	 0.186692960748341 
708	 0.187513923836956 
709	 0.188365647984553 
710	 0.189244259807557 
711	 0.19001875040137 
712	 0.190777936980641 
713	 0.191547328438262 
714	 0.192339632900544 
715	 0.193197645022099 
716	 0.193951205856459 
717	 0.19462586541675 
718	 0.195384044757458 
719	 0.19615856645619 
720	 0.196889910575611 
721	 0.197551593546853 
722	 0.198175337710202 
723	 0.198851964153986 
724	 0.199500322969158 
725	 0.200029670465013 
726	 0.200627660729743 
727	 0.20122631985238 
728	 0.201761723513239 
729	 0.202195044585514 
730	 0.202662022953377 
731	 0.203110562641556 
732	 0.203496205294241 
733	 0.20387850783854 
734	 0.204260100761566 
735	 0.204563203392788 
736	 0.204723513592377 
737	 0.204977231740563 
738	 0.205210167675038 
739	 0.205370450676809 
740	 0.205502917647164 
741	 0.205603127736176 
742	 0.205655144182038 
743	 0.205654976438338 
744	 0.205640427799548 
745	 0.205572553979286 
746	 0.205476028460497 
747	 0.20539317307609 
748	 0.205265026673725 
749	 0.205081130142482 
750	 0.204865768338047 
751	 0.204676490434458 
752	 0.204408499593672 
753	 0.204051753527147 
754	 0.203650430290149 
755	 0.203334832092704 
756	 0.203000508919432 
757	 0.202604220204828 
758	 0.202147621319873 
759	 0.20170145002001 
760	 0.20121725028424 
761	 0.200697370537544 
762	 0.20021962516255 
763	 0.199715196401684 
764	 0.199158337732622 
765	 0.198555534851042 
766	 0.197961216136654 
767	 0.197427749844749 
768	 0.196913670423073 
769	 0.196333393245118 
770	 0.195682648350734 
771	 0.195034700173984 
772	 0.194398864289374 
773	 0.193702432552804 
774	 0.193064904217972 
775	 0.192445066963812 
776	 0.191785011647135 
777	 0.19107829098358 
778	 0.190410202596011 
779	 0.189775983963557 
780	 0.189124027947267 
781	 0.188410020109428 
782	 0.18773634189078 
783	 0.187118906360399 
784	 0.186472254800628 
785	 0.185755562137095 
786	 0.185073595692756 
787	 0.184475065294767 
788	 0.183798079876265 
789	 0.183196180439378 
790	 0.182588616209863 
791	 0.18186134807403 
792	 0.181201382600184 
793	 0.180577877354229 
794	 0.179972061494332 
795	 0.179378822875984 
796	 0.17869898117056 
797	 0.17807479087224 
798	 0.177554241208049 
799	 0.176945130771546 
800	 0.176373675470434 
801	 0.175827231525693 
802	 0.175255484574783 
803	 0.174623292385932 
804	 0.174045425101989 
805	 0.173544759270747 
806	 0.173069307941377 
807	 0.172509984367439 
808	 0.171969386641509 
809	 0.171460719919584 
810	 0.170853499283105 
811	 0.17035029873221 
812	 0.169865706918115 
813	 0.169326371615328 
814	 0.168875111451555 
815	 0.168457737615176 
816	 0.168013605302149 
817	 0.167508288957439 
818	 0.167059915640118 
819	 0.166649984869426 
820	 0.166253550479789 
821	 0.165850410962291 
822	 0.165464336587181 
823	 0.165056994164296 
824	 0.164635971809291 
825	 0.164294864502655 
826	 0.163968114571199 
827	 0.163629292250711 
828	 0.163268309300462 
829	 0.16288531017318 
830	 0.162528530771973 
831	 0.162204411120643 
832	 0.161896470360612 
833	 0.161607613540125 
834	 0.161314142168166 
835	 0.161018130428471 
836	 0.160748534788087 
837	 0.160548118040753 
838	 0.160314633245695 
839	 0.160009329571667 
840	 0.159739061475795 
841	 0.159501309891396 
842	 0.159280707590158 
843	 0.159061584681101 
844	 0.158850545458062 
845	 0.158662946417346 
846	 0.158478874575584 
847	 0.158281164303091 
848	 0.158166776278268 
849	 0.158040485184609 
850	 0.157875943152962 
851	 0.157712927675333 
852	 0.157510256348941 
853	 0.157346845881345 
854	 0.157261114074667 
855	 0.157209162727892 
856	 0.157145711149574 
857	 0.157052705289358 
858	 0.156942834851721 
859	 0.156880058211241 
860	 0.156823200360189 
861	 0.156755292315032 
862	 0.156675763266305 
863	 0.156608640770535 
864	 0.15659539688647 
865	 0.15662413504128 
866	 0.156645501905515 
867	 0.156613625149478 
868	 0.156587850494384 
869	 0.156595611257324 
870	 0.156620667998689 
871	 0.156676688522014 
872	 0.156722878885515 
873	 0.156747395181258 
874	 0.156796859505106 
875	 0.156897084265612 
876	 0.156971798445352 
877	 0.156985163659333 
878	 0.157071410156857 
879	 0.157194001299952 
880	 0.157346684160368 
881	 0.157508142899923 
882	 0.157566550423668 
883	 0.157677758846298 
884	 0.157839359527475 
885	 0.157972965257887 
886	 0.158159453824758 
887	 0.158357696060794 
888	 0.158540510957968 
889	 0.158705930772701 
890	 0.158896114033862 
891	 0.159068461303607 
892	 0.159241854685308 
893	 0.159514745976123 
894	 0.159778607154785 
895	 0.160006980659377 
896	 0.160219855474742 
897	 0.160485727987015 
898	 0.160824731276233 
899	 0.161115337110095 
900	 0.161298610691441 
901	 0.16157388662921 
902	 0.161909036920043 
903	 0.162249005644796 
904	 0.162550350324965 
905	 0.162856776915125 
906	 0.163246306303922 
907	 0.163672892656884 
908	 0.164049493690905 
909	 0.164425228706562 
910	 0.1648227469698 
911	 0.165200733057047 
912	 0.165510984236762 
913	 0.165948538564926 
914	 0.166421290018371 
915	 0.166841138874185 
916	 0.167175797372015 
917	 0.167597085030031 
918	 0.168168261716778 
919	 0.168771725912014 
920	 0.169145087477741 
921	 0.169653535164421 
922	 0.170213278520118 
923	 0.170742516412971 
924	 0.171281203269958 
925	 0.171884491892789 
926	 0.172476191585491 
927	 0.173015832646743 
928	 0.17357866107376 
929	 0.174223011151961 
930	 0.174872288951287 
931	 0.175450551204728 
932	 0.17597095114135 
933	 0.176574024876345 
934	 0.177275262411134 
935	 0.178032768589187 
936	 0.178789740985501 
937	 0.179407832431778 
938	 0.179992576238178 
939	 0.180687480279166 
940	 0.181441061687825 
941	 0.182210920617621 
942	 0.183010889293636 
943	 0.183839561535247 
944	 0.18452606175931 
945	 0.185328248240281 
946	 0.186193436913331 
947	 0.186960094947769 
948	 0.187697339950903 
949	 0.188520056486672 
950	 0.189364848643725 
951	 0.190129619416938 
952	 0.191016164639163 
953	 0.19186234025382 
954	 0.192757202608818 
955	 0.193848104818918 
956	 0.194776828226581 
957	 0.195601385600619 
958	 0.196508999236337 
959	 0.197637918997727 
960	 0.198507905431286 
961	 0.199440246971128 
962	 0.200444777859042 
963	 0.201328919396086 
964	 0.202193112904186 
965	 0.203178774481252 
966	 0.204272989568665 
967	 0.205351994504514 
968	 0.206344816068024 
969	 0.207347835066375 
970	 0.208387711539183 
971	 0.209431400749487 
972	 0.210481670822649 
973	 0.211604033114558 
974	 0.21274197730342 
975	 0.213800528938266 
976	 0.21498360615958 
977	 0.216181038621294 
978	 0.217277020714946 
979	 0.21823177844894 
980	 0.219310685598766 
981	 0.220460818498597 
982	 0.221579372535442 
983	 0.222591277411619 
984	 0.223628177074227 
985	 0.22481594913799 
986	 0.22606732288176 
987	 0.22721817589792 
988	 0.228407542799937 
989	 0.229446645152711 
990	 0.230403142285426 
991	 0.231489229311145 
992	 0.232863070032752 
993	 0.234128402415972 
994	 0.235229604768744 
995	 0.236291330362013 
996	 0.237384083468027 
997	 0.238398416816376 
998	 0.239424513216371 
999	 0.240572355723231 
1000	 0.241734379612155 
1001	 0.236465258613216 
1002	 0.237540050277859 
1003	 0.238573897321893 
1004	 0.239559622233631 
1005	 0.240470310238834 
1006	 0.241427836602593 
1007	 0.242375541535993 
1008	 0.243329873828973 
1009	 0.24424458467011 
1010	 0.245188666987578 
1011	 0.246092586127634 
1012	 0.246973690106799 
1013	 0.247960467822674 
1014	 0.248944244384464 
1015	 0.249841460743961 
1016	 0.250746879062995 
1017	 0.251598449748403 
1018	 0.252377731218341 
1019	 0.253131584874288 
1020	 0.25397182453036 
1021	 0.254780574769936 
1022	 0.255593223794113 
1023	 0.256457337368075 
1024	 0.257288844052727 
1025	 0.258076924423755 
1026	 0.258872576471489 
1027	 0.259691832174486 
1028	 0.260497316804301 
1029	 0.261276159395414 
1030	 0.262009498337216 
1031	 0.26273244718928 
1032	 0.263413820111439 
1033	 0.264086543534446 
1034	 0.264766225369497 
1035	 0.265516791821949 
1036	 0.266291491500172 
1037	 0.267026899635091 
1038	 0.267791923281124 
1039	 0.268508493565395 
1040	 0.26915318721811 
1041	 0.26982496210731 
1042	 0.270482371446458 
1043	 0.271141924572197 
1044	 0.271834525244043 
1045	 0.272562879811408 
1046	 0.273298509957786 
1047	 0.273981335860745 
1048	 0.274618176569818 
1049	 0.275279632996413 
1050	 0.275930493801506 
1051	 0.276612496122967 
1052	 0.277301481490817 
1053	 0.277930555091479 
1054	 0.278591923365585 
1055	 0.279216795091949 
1056	 0.279804834363017 
1057	 0.280475701310043 
1058	 0.281241458647162 
1059	 0.281899293060951 
1060	 0.282541477655863 
1061	 0.283216625916954 
1062	 0.283768774185731 
1063	 0.2842774302728 
1064	 0.284863965677501 
1065	 0.28550682788681 
1066	 0.286207999245954 
1067	 0.286837367058925 
1068	 0.287390233152831 
1069	 0.28793648783758 
1070	 0.288473827279597 
1071	 0.288948048443363 
1072	 0.289474192731282 
1073	 0.290028314710561 
1074	 0.290573951251512 
1075	 0.291119073159342 
1076	 0.291681875353767 
1077	 0.292224704402734 
1078	 0.292650516812673 
1079	 0.293061193192251 
1080	 0.293488440505822 
1081	 0.293911074256552 
1082	 0.294425862447088 
1083	 0.294900941546656 
1084	 0.295380504463056 
1085	 0.295834485706109 
1086	 0.296267565947312 
1087	 0.296700498933149 
1088	 0.297110668264839 
1089	 0.297576130191903 
1090	 0.298001374200225 
1091	 0.298415552448482 
1092	 0.2988615805451 
1093	 0.299286511291588 
1094	 0.299737560104446 
1095	 0.300173642501897 
1096	 0.300571785701957 
1097	 0.300952841019363 
1098	 0.301366350449943 
1099	 0.30181075383968 
1100	 0.302224699889326 
1101	 0.302640414711629 
1102	 0.303047513362528 
1103	 0.303452575494399 
1104	 0.303780465510473 
1105	 0.30416986357348 
1106	 0.304624374144709 
1107	 0.305076536905843 
1108	 0.30550434218173 
1109	 0.305877817892346 
1110	 0.306269205929865 
1111	 0.306676478717658 
1112	 0.307071510245298 
1113	 0.307480846116457 
1114	 0.307929911089293 
1115	 0.308345645414884 
1116	 0.308744332819061 
1117	 0.309142873140252 
1118	 0.309534052269274 
1119	 0.309928396613703 
1120	 0.310339200809968 
1121	 0.310724196877183 
1122	 0.311143554730063 
1123	 0.31157000114751 
1124	 0.311972105777118 
1125	 0.312359273063283 
1126	 0.312769033833837 
1127	 0.313177355994522 
1128	 0.313576048846682 
1129	 0.313991076633709 
1130	 0.314384782595578 
1131	 0.314753729844845 
1132	 0.31512852234429 
1133	 0.315506411575427 
1134	 0.31587701295903 
1135	 0.316233058796202 
1136	 0.316607168068911 
1137	 0.316960858416836 
1138	 0.31729954564059 
1139	 0.317651739139007 
1140	 0.318006362248358 
1141	 0.318341211680443 
1142	 0.318685415381419 
1143	 0.31900098897191 
1144	 0.319283898742399 
1145	 0.319576101642248 
1146	 0.319865581749333 
1147	 0.320150141127042 
1148	 0.320423844131308 
1149	 0.320702248125156 
1150	 0.320985124658232 
1151	 0.321252003044696 
1152	 0.321535974963686 
1153	 0.321819935930779 
1154	 0.322083171412324 
1155	 0.322327247373018 
1156	 0.322598821124054 
1157	 0.32286342462199 
1158	 0.323140295493931 
1159	 0.323459464716807 
1160	 0.323734849082864 
1161	 0.323984659691853 
1162	 0.324243752362462 
1163	 0.32448987869903 
1164	 0.324738751327009 
1165	 0.324988707399088 
1166	 0.325248030523795 
1167	 0.325489399107393 
1168	 0.325741204323422 
1169	 0.325972388843599 
1170	 0.326190333800008 
1171	 0.326417221323249 
1172	 0.326632953712663 
1173	 0.326859084060915 
1174	 0.327100563288899 
1175	 0.327328731326885 
1176	 0.327552670369765 
1177	 0.327775929225489 
1178	 0.327991122797167 
1179	 0.328213679124912 
1180	 0.328442601996978 
1181	 0.328664505274696 
1182	 0.32888514684278 
1183	 0.329117497251024 
1184	 0.329315395471127 
1185	 0.329484680819667 
1186	 0.329687131521871 
1187	 0.329881461529549 
1188	 0.330090094541018 
1189	 0.3303398851535 
1190	 0.330547009270539 
1191	 0.330733420934261 
1192	 0.330920922351754 
1193	 0.331095400983803 
1194	 0.331269543905046 
1195	 0.33143750898726 
1196	 0.331610099074107 
1197	 0.331774931681568 
1198	 0.331948189663785 
1199	 0.332126352320918 
1200	 0.332316054425637 
1201	 0.332490041919325 
1202	 0.332660705376179 
1203	 0.332833501065256 
1204	 0.333000350776279 
1205	 0.333169979280264 
1206	 0.333341872725766 
1207	 0.333516380790773 
1208	 0.333697351974027 
1209	 0.333864655082026 
1210	 0.334033376389716 
1211	 0.334193480923346 
1212	 0.334328612936511 
1213	 0.334480362670696 
1214	 0.3346435400277 
1215	 0.334799685911678 
1216	 0.334955687184521 
1217	 0.335119376092079 
1218	 0.335269594788641 
1219	 0.335411562109189 
1220	 0.335551938611979 
1221	 0.33567730855857 
1222	 0.335826318565212 
1223	 0.335984360375876 
1224	 0.336138842093673 
1225	 0.336311357343648 
1226	 0.3364700377203 
1227	 0.336627439330115 
1228	 0.336769069334297 
1229	 0.336892836069226 
1230	 0.337026852387071 
1231	 0.337151001755622 
1232	 0.33727835710496 
1233	 0.33740984564012 
1234	 0.337557303616623 
1235	 0.337686887730765 
1236	 0.33780761614909 
1237	 0.337929443936355 
1238	 0.338050712331577 
1239	 0.338165444917696 
1240	 0.338269985099858 
1241	 0.338384866961507 
1242	 0.338494181595997 
1243	 0.338615249012768 
1244	 0.338756124315441 
1245	 0.338883383424174 
1246	 0.339012646645625 
1247	 0.339134549451485 
1248	 0.339244185101139 
1249	 0.339355962157354 
1250	 0.33946631370128 
1251	 0.339588258635959 
1252	 0.339706522952745 
1253	 0.339829755339826 
1254	 0.339946206296097 
1255	 0.340068898887875 
1256	 0.34016891806788 
1257	 0.340260785766837 
1258	 0.340343881189047 
1259	 0.340388513496911 
1260	 0.340474689185796 
1261	 0.340587458938482 
1262	 0.340675909408463 
1263	 0.340775631060321 
1264	 0.340867135729014 
1265	 0.340927397914999 
1266	 0.34100709331007 
1267	 0.34109931604401 
1268	 0.341190563179954 
1269	 0.341297332791968 
1270	 0.341415542236401 
1271	 0.341525936186157 
1272	 0.34164487546995 
1273	 0.34176266688726 
1274	 0.341872055735256 
1275	 0.341991596307072 
1276	 0.342118614880856 
1277	 0.342250845288763 
1278	 0.342393107810043 
1279	 0.34252488550331 
1280	 0.342651529055446 
1281	 0.342790987142133 
1282	 0.342935191495093 
1283	 0.34307127485397 
1284	 0.343214740639398 
1285	 0.34335584782183 
1286	 0.343485574932149 
1287	 0.343623143993586 
1288	 0.343757713064329 
1289	 0.343901598920911 
1290	 0.344033072069754 
1291	 0.344157822511476 
1292	 0.344277792583603 
1293	 0.344406429450221 
1294	 0.344502967048531 
1295	 0.344586736537819 
1296	 0.344647459117714 
1297	 0.344669354267285 
1298	 0.344705259739071 
1299	 0.344738673228661 
1300	 0.34475937710043 
1301	 0.344790674744812 
1302	 0.344791767673295 
1303	 0.344773589917245 
1304	 0.344729064670564 
1305	 0.344679008758607 
1306	 0.34460550556003 
1307	 0.344528388849007 
1308	 0.344449245994651 
1309	 0.344377461677057 
1310	 0.34431357817503 
1311	 0.344224260917263 
1312	 0.344128674354922 
1313	 0.344035847134741 
1314	 0.343924664074142 
1315	 0.343822923090379 
1316	 0.343728054041139 
1317	 0.343633473402783 
1318	 0.343534014437842 
1319	 0.343437254065991 
1320	 0.343359342743809 
1321	 0.343264553735902 
1322	 0.34315779294869 
1323	 0.343052768000658 
1324	 0.342938861791032 
1325	 0.342819653948944 
1326	 0.342703327873675 
1327	 0.34258615631773 
1328	 0.34248743534522 
1329	 0.342396155073645 
1330	 0.342310613699235 
1331	 0.342249144763428 
1332	 0.342156180946187 
1333	 0.34205605749994 
1334	 0.341949612615197 
1335	 0.341822841643171 
1336	 0.341710263609971 
1337	 0.341593143091445 
1338	 0.341492099730488 
1339	 0.341395978386385 
1340	 0.341308818261207 
1341	 0.341233460302468 
1342	 0.341165013867613 
1343	 0.341107972181142 
1344	 0.341043588726957 
1345	 0.341015794932664 
1346	 0.340979666699541 
1347	 0.340909373917075 
1348	 0.340858176587372 
1349	 0.340763146850828 
1350	 0.340646838998503 
1351	 0.340553865676242 
1352	 0.340462914570479 
1353	 0.340380281627957 
1354	 0.340315332884048 
1355	 0.340229732700014 
1356	 0.340139542747671 
1357	 0.34004543718769 
1358	 0.339920554057882 
1359	 0.339841131297234 
1360	 0.339785716227334 
1361	 0.339727287580634 
1362	 0.339704967880403 
1363	 0.339653724236564 
1364	 0.3395921121303 
1365	 0.339520780812117 
1366	 0.339429422930075 
1367	 0.339343966010576 
1368	 0.339283138035959 
1369	 0.339197303808723 
1370	 0.339087301565516 
1371	 0.338957374620467 
1372	 0.338776716735844 
1373	 0.338579531587718 
1374	 0.338384621368981 
1375	 0.338196662564917 
1376	 0.337962328054159 
1377	 0.337727573541371 
1378	 0.337423140376437 
1379	 0.337053287338961 
1380	 0.336694274626311 
1381	 0.336294030699462 
1382	 0.335893714584272 
1383	 0.33552925869433 
1384	 0.335077810852282 
1385	 0.334599243806443 
1386	 0.334060509995375 
1387	 0.333445397513012 
1388	 0.332812005264129 
1389	 0.332151051593643 
1390	 0.331440110058616 
1391	 0.330681431028125 
1392	 0.32987980841046 
1393	 0.329009712069388 
1394	 0.328086944649513 
1395	 0.327107595814044 
1396	 0.326116850070009 
1397	 0.32512853703466 
1398	 0.324114495920465 
1399	 0.323099148338576 
1400	 0.322089889159256 
1401	 0.321062507203822 
1402	 0.319998847638832 
1403	 0.318981540917536 
1404	 0.317967959738124 
1405	 0.316980926545214 
1406	 0.316033645963974 
1407	 0.31506104956499 
1408	 0.314064995151691 
1409	 0.313124675624227 
1410	 0.312153895502396 
1411	 0.31129267710485 
1412	 0.310485042999147 
1413	 0.309761325310611 
1414	 0.309155678243568 
1415	 0.30858632327744 
1416	 0.308102457139348 
1417	 0.30769376802921 
1418	 0.307285396051031 
1419	 0.306937464624209 
1420	 0.306646484021459 
1421	 0.306342973881482 
1422	 0.306031547274773 
1423	 0.305727657357968 
1424	 0.305391537350054 
1425	 0.305011616327755 
1426	 0.30466184187367 
1427	 0.304293171104513 
1428	 0.303969783574924 
1429	 0.303662990930887 
1430	 0.303381388061373 
1431	 0.303148745747201 
1432	 0.302895627105511 
1433	 0.302655665649019 
1434	 0.302403825400252 
1435	 0.302113832998094 
1436	 0.30188123854073 
1437	 0.301661453016426 
1438	 0.301472448268897 
1439	 0.301335924356544 
1440	 0.301203935198144 
1441	 0.301047846004451 
1442	 0.300897974348205 
1443	 0.300726881680102 
1444	 0.300563358077153 
1445	 0.300440235012571 
1446	 0.300325538123907 
1447	 0.300214574469717 
1448	 0.300102431315223 
1449	 0.299970786406134 
1450	 0.299816619928018 
1451	 0.299676541043896 
1452	 0.299534226791306 
1453	 0.299407253563322 
1454	 0.299291205706313 
1455	 0.299166000087053 
1456	 0.299045824345179 
1457	 0.298916858675588 
1458	 0.298773291760674 
1459	 0.298647365759595 
1460	 0.298516556107973 
1461	 0.298413408848936 
1462	 0.298318463935744 
1463	 0.298249318541983 
1464	 0.298209283266386 
1465	 0.298173954454807 
1466	 0.298151664470277 
1467	 0.298149511929315 
1468	 0.298137929021923 
1469	 0.298182024028212 
1470	 0.298270749608053 
1471	 0.298371239726814 
1472	 0.298500449856538 
1473	 0.298682258494111 
1474	 0.298858579857682 
1475	 0.299059305296363 
1476	 0.299275200271163 
1477	 0.299486959519469 
1478	 0.299725728799587 
1479	 0.29997128559112 
1480	 0.300242258733951 
1481	 0.300520030094149 
1482	 0.300793746698283 
1483	 0.301073830958202 
1484	 0.301348604461833 
1485	 0.301615247201479 
1486	 0.301899577755559 
1487	 0.302190437939612 
1488	 0.302476046475659 
1489	 0.302785022126133 
1490	 0.30306357985292 
1491	 0.303330507993648 
1492	 0.303581122893589 
1493	 0.303808912932328 
1494	 0.304033516334972 
1495	 0.304235002009262 
1496	 0.304452342281772 
1497	 0.304682499972441 
1498	 0.304892820114706 
1499	 0.305097370312112 
1500	 0.305304361472425 
1501	 0.305487858309041 
1502	 0.305687708889787 
1503	 0.305905134278841 
1504	 0.306114182423984 
1505	 0.306326833313109 
1506	 0.306532310702479 
1507	 0.306721482594788 
1508	 0.306909095275279 
1509	 0.307071901199659 
1510	 0.307240265508912 
1511	 0.307401257904322 
1512	 0.307540801399895 
1513	 0.307702683335093 
1514	 0.307873268478696 
1515	 0.308042587770399 
1516	 0.308230005254529 
1517	 0.30840470675371 
1518	 0.308577694316147 
1519	 0.308735792230674 
1520	 0.308884438142627 
1521	 0.309036068961418 
1522	 0.309169602869738 
1523	 0.309322608158161 
1524	 0.309498068684707 
1525	 0.30965162679261 
1526	 0.309797599352224 
1527	 0.309949501597381 
1528	 0.310093155610948 
1529	 0.310235542831947 
1530	 0.310391525033033 
1531	 0.310530219824903 
1532	 0.310656504040774 
1533	 0.310776323051492 
1534	 0.310887792880914 
1535	 0.310991237187774 
1536	 0.311073458603624 
1537	 0.311177418161502 
1538	 0.311290343767928 
1539	 0.311399321932429 
1540	 0.311514198128826 
1541	 0.311626821831123 
1542	 0.311732949945736 
1543	 0.311842576310014 
1544	 0.311967850918216 
1545	 0.312079991218769 
1546	 0.312193284810424 
1547	 0.312282262225453 
1548	 0.31236700907055 
1549	 0.31244307936322 
1550	 0.312525555858428 
1551	 0.312623710106954 
1552	 0.312721586799584 
1553	 0.312834623664502 
1554	 0.312936318685364 
1555	 0.313020766462613 
1556	 0.313111498905984 
1557	 0.313186799508212 
1558	 0.313272704826368 
1559	 0.313362241950232 
1560	 0.313448302649524 
1561	 0.313537532661151 
1562	 0.313622607138208 
1563	 0.313702506401154 
1564	 0.313792692590305 
1565	 0.313886532543745 
1566	 0.313973991252411 
1567	 0.314071642062649 
1568	 0.314143031386895 
1569	 0.314195964510846 
1570	 0.314258229966892 
1571	 0.314313610436176 
1572	 0.314365278089007 
1573	 0.314414855265436 
1574	 0.31447138700362 
1575	 0.31452570316254 
1576	 0.314575521242692 
1577	 0.314639535247801 
1578	 0.314680081872454 
1579	 0.314687758588379 
1580	 0.314725985961985 
1581	 0.31476747784667 
1582	 0.314818129284527 
1583	 0.314896701246347 
1584	 0.314952516852266 
1585	 0.315003819776034 
1586	 0.315050082872686 
1587	 0.315090409992363 
1588	 0.315120958212515 
1589	 0.315134876258579 
1590	 0.315158801848695 
1591	 0.315176614188963 
1592	 0.315204031778944 
1593	 0.315243252159641 
1594	 0.315279436292508 
1595	 0.315322405787321 
1596	 0.315351637049265 
1597	 0.3153745573359 
1598	 0.315399964106752 
1599	 0.315431255683848 
1600	 0.315439229647368 
1601	 0.315431266198924 
1602	 0.315427753383432 
1603	 0.315380688624372 
1604	 0.315378146660646 
1605	 0.315409297930997 
1606	 0.315442533022062 
1607	 0.315503931339266 
1608	 0.315566517295751 
1609	 0.315604161734644 
1610	 0.315643099012595 
1611	 0.315663554219618 
1612	 0.315660206964891 
1613	 0.315643801795609 
1614	 0.315624595253807 
1615	 0.315625675110006 
1616	 0.315627850560027 
1617	 0.315624252718073 
1618	 0.315631861299002 
1619	 0.315619584412754 
1620	 0.31559383565138 
1621	 0.315581921149297 
1622	 0.315582917154561 
1623	 0.315561243728269 
1624	 0.31552909631934 
1625	 0.315506800181975 
1626	 0.315469128686948 
1627	 0.315462127845714 
1628	 0.315471748667475 
1629	 0.315487941096593 
1630	 0.315525292296533 
1631	 0.315544826524306 
1632	 0.31557070476838 
1633	 0.315579243218048 
1634	 0.315574252227276 
1635	 0.315570942503849 
1636	 0.31556530758121 
1637	 0.315544843189948 
1638	 0.315510898170007 
1639	 0.315486759378089 
1640	 0.315453883924816 
1641	 0.315430178378142 
1642	 0.315416143492442 
1643	 0.315398875118141 
1644	 0.315381363731397 
1645	 0.315360293180415 
1646	 0.315340866557343 
1647	 0.315322057954617 
1648	 0.31530421004552 
1649	 0.315273282528957 
1650	 0.315225883082652 
1651	 0.31521122286839 
1652	 0.315208108776645 
1653	 0.315189539860998 
1654	 0.315199005382326 
1655	 0.315172055493801 
1656	 0.315110090059782 
1657	 0.315053513328241 
1658	 0.314998030904541 
1659	 0.314923966340072 
1660	 0.314822577844495 
1661	 0.314741920292838 
1662	 0.314648245363137 
1663	 0.314585525053253 
1664	 0.314552492376542 
1665	 0.314503079692254 
1666	 0.314455155513619 
1667	 0.314421757512275 
1668	 0.314400944948299 
1669	 0.31435660609966 
1670	 0.314330492752331 
1671	 0.314265740904823 
1672	 0.31414714048421 
1673	 0.314066750549035 
1674	 0.313980953963364 
1675	 0.313918394103669 
1676	 0.313887868759719 
1677	 0.313834660278836 
1678	 0.313782717143052 
1679	 0.313728584411989 
1680	 0.313659414615207 
1681	 0.313606020565033 
1682	 0.31356216285773 
1683	 0.313518966536864 
1684	 0.313483565322695 
1685	 0.313441606433725 
1686	 0.313406545558505 
1687	 0.313355264546793 
1688	 0.313302108803981 
1689	 0.313226346649242 
1690	 0.313120984391498 
1691	 0.313036458675661 
1692	 0.312944502661239 
1693	 0.312859600624709 
1694	 0.31278674520487 
1695	 0.312715071044202 
1696	 0.3126281974908 
1697	 0.312575633158797 
1698	 0.31256157960647 
1699	 0.312514980805834 
1700	 0.312486922161703 
1701	 0.312415709329734 
1702	 0.312308515121132 
1703	 0.31220266311534 
1704	 0.312078808105396 
1705	 0.311949637375801 
1706	 0.311799385808829 
1707	 0.31166874760789 
1708	 0.311535397855775 
1709	 0.311413689397418 
1710	 0.311309438067757 
1711	 0.311201993888127 
1712	 0.311096445140383 
1713	 0.310987899670334 
1714	 0.310888216160528 
1715	 0.310777947456309 
1716	 0.310655391319882 
1717	 0.310541846236828 
1718	 0.310424642565926 
1719	 0.310313138887878 
1720	 0.31021049942603 
1721	 0.310107111261401 
1722	 0.310010315889612 
1723	 0.309901807332274 
1724	 0.309790920090236 
1725	 0.309671546357965 
1726	 0.309535880289923 
1727	 0.309410957075447 
1728	 0.309293648898233 
1729	 0.309160513089001 
1730	 0.30903542650903 
1731	 0.30888778795109 
1732	 0.308708013154261 
1733	 0.308552836206536 
1734	 0.308399765135477 
1735	 0.30822815038459 
1736	 0.308061940966596 
1737	 0.30788829069706 
1738	 0.307680232928668 
1739	 0.307525482283638 
1740	 0.307403217072797 
1741	 0.307259120437146 
1742	 0.307129510135438 
1743	 0.306990620890287 
1744	 0.306854706976267 
1745	 0.306667753791347 
1746	 0.306461025704587 
1747	 0.306249039404922 
1748	 0.30601924827559 
1749	 0.305850003782966 
1750	 0.305670695683892 
1751	 0.305485906361595 
1752	 0.305320456332219 
1753	 0.305180223193315 
1754	 0.305064757836266 
1755	 0.304929689528146 
1756	 0.30478504494895 
1757	 0.304609031909535 
1758	 0.304412763718907 
1759	 0.304236392264753 
1760	 0.304075380836234 
1761	 0.303918531522712 
1762	 0.303753414348875 
1763	 0.303561901647892 
1764	 0.303367323728324 
1765	 0.303169166168326 
1766	 0.302961730855893 
1767	 0.302802440055244 
1768	 0.302647499940216 
1769	 0.302504708149215 
1770	 0.302420511827627 
1771	 0.302327719631721 
1772	 0.302214634943117 
1773	 0.302085707432018 
1774	 0.30194316966444 
1775	 0.301808797605721 
1776	 0.301663860175399 
1777	 0.301533902051246 
1778	 0.301390645643447 
1779	 0.301192395766387 
1780	 0.301013752461434 
1781	 0.300867288972318 
1782	 0.300749660262725 
1783	 0.300711085413079 
1784	 0.300657468412961 
1785	 0.300624504328313 
1786	 0.300571300289358 
1787	 0.300531150866679 
1788	 0.300440056536855 
1789	 0.30031502893596 
1790	 0.300184810114104 
1791	 0.300002447951454 
1792	 0.299868183821122 
1793	 0.299732078230983 
1794	 0.299647512450553 
1795	 0.299625480445972 
1796	 0.299545874053197 
1797	 0.299483898385165 
1798	 0.29940059380548 
1799	 0.299254066801516 
1800	 0.299164746300459 
1801	 0.299667881979473 
1802	 0.299839667703123 
1803	 0.300053767421676 
1804	 0.300290933401316 
1805	 0.300529041073433 
1806	 0.300751945742736 
1807	 0.300952514548808 
1808	 0.301094384988276 
1809	 0.301194759663695 
1810	 0.301276648508447 
1811	 0.301310296353276 
1812	 0.301329676088029 
1813	 0.301370147154043 
1814	 0.301343060830498 
1815	 0.301257545440475 
1816	 0.301214332015408 
1817	 0.30115417434878 
1818	 0.301052477087737 
1819	 0.301000310901424 
1820	 0.300993771794966 
1821	 0.300926092351252 
1822	 0.300867330839997 
1823	 0.300816911663074 
1824	 0.300736687857428 
1825	 0.300639071364579 
1826	 0.300529176976418 
1827	 0.300418489420133 
1828	 0.300266990438522 
1829	 0.300078478929667 
1830	 0.299884494133438 
1831	 0.29967589701269 
1832	 0.299421955515352 
1833	 0.299180800375638 
1834	 0.298948993695702 
1835	 0.298712161867943 
1836	 0.298495192966003 
1837	 0.298261203405896 
1838	 0.29803522770859 
1839	 0.297803142618829 
1840	 0.297568323569573 
1841	 0.297319737887414 
1842	 0.297096182143172 
1843	 0.29686842701838 
1844	 0.296656140945296 
1845	 0.29645090703193 
1846	 0.296237684011628 
1847	 0.296039787928231 
1848	 0.295846207956863 
1849	 0.295667886944867 
1850	 0.295512775192771 
1851	 0.295385992097037 
1852	 0.295257660174507 
1853	 0.295140503664456 
1854	 0.295015451587921 
1855	 0.294864727829408 
1856	 0.294676865447158 
1857	 0.29443832438887 
1858	 0.294194980816455 
1859	 0.293924693186605 
1860	 0.293613081414229 
1861	 0.29327142003856 
1862	 0.292910884234966 
1863	 0.292503005288022 
1864	 0.292058508514991 
1865	 0.291615552596801 
1866	 0.291135390023334 
1867	 0.290601242821199 
1868	 0.290022893799021 
1869	 0.289374005555907 
1870	 0.288680342427851 
1871	 0.287944067470322 
1872	 0.287164155548343 
1873	 0.286358587396507 
1874	 0.285511353761299 
1875	 0.284569014653368 
1876	 0.283560454777508 
1877	 0.282454138746418 
1878	 0.281224846670734 
1879	 0.279939087487463 
1880	 0.278548391567666 
1881	 0.277053530850796 
1882	 0.275475649187698 
1883	 0.273822620173826 
1884	 0.272023664858108 
1885	 0.270151802484226 
1886	 0.268208521580163 
1887	 0.266127540911731 
1888	 0.263956674436225 
1889	 0.261681648591633 
1890	 0.259339599159359 
1891	 0.256968992783624 
1892	 0.25450766233251 
1893	 0.252047393352702 
1894	 0.249569313656672 
1895	 0.247045869379162 
1896	 0.244459259050131 
1897	 0.241914732458352 
1898	 0.239342675466651 
1899	 0.236800660730328 
1900	 0.234353944981743 
1901	 0.231922562972202 
1902	 0.229593443703028 
1903	 0.227353769608067 
1904	 0.225192657000631 
1905	 0.223082768820242 
1906	 0.22111494924937 
1907	 0.21923957643309 
1908	 0.217460316257597 
1909	 0.215798023900564 
1910	 0.214217647665962 
1911	 0.212740490943823 
1912	 0.211331763452808 
1913	 0.210002362101644 
1914	 0.208758150052846 
1915	 0.207585100357665 
1916	 0.206482932975958 
1917	 0.205462968698815 
1918	 0.204521495509573 
1919	 0.20362418210232 
1920	 0.20281183530906 
1921	 0.202067199313931 
1922	 0.201378351156548 
1923	 0.200757137701376 
1924	 0.200185381421568 
1925	 0.199667610302058 
1926	 0.199210153705281 
1927	 0.198810451981765 
1928	 0.1984617413322 
1929	 0.198172148910662 
1930	 0.197937128782376 
1931	 0.19774050578549 
1932	 0.197581784591417 
1933	 0.197455440812818 
1934	 0.197359861890523 
1935	 0.197298052207879 
1936	 0.197264217817894 
1937	 0.19726378676513 
1938	 0.197299957911727 
1939	 0.197371754290817 
1940	 0.197471719394932 
1941	 0.197609341396701 
1942	 0.19780346653206 
1943	 0.198011829216061 
1944	 0.198233364345472 
1945	 0.198490026473892 
1946	 0.198750193916727 
1947	 0.199011490055637 
1948	 0.199304887601081 
1949	 0.199624564023927 
1950	 0.199952232013943 
1951	 0.200307784757797 
1952	 0.200666522240091 
1953	 0.20100133856932 
1954	 0.201368137852261 
1955	 0.201756904934164 
1956	 0.202137663212279 
1957	 0.202546620844677 
1958	 0.203000219943048 
1959	 0.20343177884591 
1960	 0.203854080462395 
1961	 0.204300647464256 
1962	 0.204760658263118 
1963	 0.205220152166573 
1964	 0.20568626230597 
1965	 0.206165539677484 
1966	 0.206659735801438 
1967	 0.207160524889517 
1968	 0.20767012242428 
1969	 0.208211040239585 
1970	 0.208725888982067 
1971	 0.209234437927161 
1972	 0.209743683520325 
1973	 0.210237730280835 
1974	 0.21074944308007 
1975	 0.211272308004152 
1976	 0.211783134067455 
1977	 0.212322120361391 
1978	 0.212880940786738 
1979	 0.213418832854646 
1980	 0.21395968715533 
1981	 0.214490027970303 
1982	 0.214996241895496 
1983	 0.215521282957606 
1984	 0.216049214895888 
1985	 0.216582114912117 
1986	 0.217130624233393 
1987	 0.217665033785932 
1988	 0.218185657787606 
1989	 0.218732435198892 
1990	 0.219263600603169 
1991	 0.219780783650959 
1992	 0.220316158908162 
1993	 0.220873812021124 
1994	 0.22139487933982 
1995	 0.221908819673506 
1996	 0.222416673808982 
1997	 0.22288541766749 
1998	 0.223386909841914 
1999	 0.223900728225048 
2000	 0.224420897243636 
2001	 0.224959406355472 
2002	 0.225491424924146 
2003	 0.226037718860144 
2004	 0.226567066504752 
2005	 0.227084463190483 
2006	 0.227597626291349 
2007	 0.228097020147435 
2008	 0.22856695146989 
2009	 0.229056293654987 
2010	 0.229538386736963 
2011	 0.23003562214081 
2012	 0.230562786032431 
2013	 0.231062109994729 
2014	 0.231569203687835 
2015	 0.232041475190264 
2016	 0.232497987171852 
2017	 0.232960042895522 
2018	 0.233439663944558 
2019	 0.233939656699066 
2020	 0.234418983928078 
2021	 0.234912357886621 
2022	 0.235380324753285 
2023	 0.235818895050426 
2024	 0.236265650206586 
2025	 0.23670745720859 
2026	 0.237146379893543 
2027	 0.237568185433439 
2028	 0.238021036902721 
2029	 0.238455845664024 
2030	 0.23888873654736 
2031	 0.239308010367486 
2032	 0.239721865997438 
2033	 0.240129295971433 
2034	 0.240517226581074 
2035	 0.240922341334006 
2036	 0.241348662368067 
2037	 0.241740466995899 
2038	 0.242135798676776 
2039	 0.242501323415727 
2040	 0.24283360034616 
2041	 0.243152033477849 
2042	 0.243455512712406 
2043	 0.243759547060741 
2044	 0.244074205543784 
2045	 0.244376792268459 
2046	 0.244708934649732 
2047	 0.245071195926499 
2048	 0.245413498422561 
2049	 0.245789883346006 
2050	 0.246113246684363 
2051	 0.246395178491262 
2052	 0.246687115297517 
2053	 0.246949985490255 
2054	 0.247218245745589 
2055	 0.247488927159486 
2056	 0.247768851597626 
2057	 0.248035512059413 
2058	 0.248289793990552 
2059	 0.248556604191751 
2060	 0.248825521309387 
2061	 0.249092325560046 
2062	 0.249363765282255 
2063	 0.249628256652291 
2064	 0.249885615635114 
2065	 0.250149812974236 
2066	 0.250427381143317 
2067	 0.25068471656649 
2068	 0.250937868952483 
2069	 0.251186554193017 
2070	 0.251409753708707 
2071	 0.25159985227883 
2072	 0.251813406165909 
2073	 0.252022304609514 
2074	 0.252229783141558 
2075	 0.25244236186882 
2076	 0.252655587438535 
2077	 0.252857296161147 
2078	 0.253071837302419 
2079	 0.253306553523995 
2080	 0.253524280150832 
2081	 0.253738225048481 
2082	 0.253950068288883 
2083	 0.254162309561778 
2084	 0.254353643320683 
2085	 0.254557011725003 
2086	 0.254764789489126 
2087	 0.254963306328377 
2088	 0.25516187837304 
2089	 0.255351541110907 
2090	 0.255533557000456 
2091	 0.255710586493772 
2092	 0.255874220778446 
2093	 0.25604693079299 
2094	 0.256222009489554 
2095	 0.256392673524479 
2096	 0.256570466529358 
2097	 0.256739717739909 
2098	 0.256906245870166 
2099	 0.2570507932934 
2100	 0.25721709157881 
2101	 0.257381009595418 
2102	 0.257557487466538 
2103	 0.257754932678625 
2104	 0.257932442132123 
2105	 0.258104527180018 
2106	 0.258283440189693 
2107	 0.258451037136843 
2108	 0.258633463899247 
2109	 0.25881641202806 
2110	 0.259020205403341 
2111	 0.25924343547248 
2112	 0.25946551445572 
2113	 0.259698894875617 
2114	 0.259960137272889 
2115	 0.260167058983893 
2116	 0.260336364131577 
2117	 0.260556211943647 
2118	 0.260770405233863 
2119	 0.260993939178527 
2120	 0.26126685042782 
2121	 0.261497888358942 
2122	 0.261696331756013 
2123	 0.261908728718579 
2124	 0.262141122863551 
2125	 0.262334408935354 
2126	 0.262515861598511 
2127	 0.26267818054217 
2128	 0.26278789099013 
2129	 0.26292128428885 
2130	 0.263068487051089 
2131	 0.263199427418531 
2132	 0.263309008258429 
2133	 0.263425385155515 
2134	 0.263503836444425 
2135	 0.263531619298652 
2136	 0.263586029188374 
2137	 0.263651617348079 
2138	 0.263679754199589 
2139	 0.26369130305763 
2140	 0.263699648452737 
2141	 0.263694677441377 
2142	 0.263661841454456 
2143	 0.26363121746589 
2144	 0.263565615779694 
2145	 0.263438248024779 
2146	 0.263327255053565 
2147	 0.263206903323052 
2148	 0.263077224459187 
2149	 0.262966085548578 
2150	 0.262866742361211 
2151	 0.262754066118723 
2152	 0.262657622784729 
2153	 0.262526036961421 
2154	 0.262370431976305 
2155	 0.262216448245072 
2156	 0.262059846376775 
2157	 0.261874004093706 
2158	 0.261681466318999 
2159	 0.261463897327738 
2160	 0.261209948067597 
2161	 0.260949492160029 
2162	 0.260653255167637 
2163	 0.260379583329 
2164	 0.26009047735588 
2165	 0.259829226533942 
2166	 0.259572029792846 
2167	 0.259348424273388 
2168	 0.259083971123285 
2169	 0.258802704113913 
2170	 0.25853612124519 
2171	 0.258255423226317 
2172	 0.257988930631096 
2173	 0.257757866438247 
2174	 0.257482000911684 
2175	 0.257186668121402 
2176	 0.256886778717187 
2177	 0.256564102770327 
2178	 0.256238291601263 
2179	 0.255904679196969 
2180	 0.255569601174756 
2181	 0.255229108599012 
2182	 0.254880228567343 
2183	 0.25451120700594 
2184	 0.254165837817865 
2185	 0.253818048372662 
2186	 0.253456980466438 
2187	 0.253122651571275 
2188	 0.252804026747054 
2189	 0.252495702522664 
2190	 0.252183158028936 
2191	 0.251916445981646 
2192	 0.251688757812172 
2193	 0.251454995069535 
2194	 0.251260407025172 
2195	 0.251043014225862 
2196	 0.250818517980521 
2197	 0.25059099788022 
2198	 0.250334382052747 
2199	 0.250120714187953 
2200	 0.249933673900089 
2201	 0.249739265396482 
2202	 0.249570862447255 
2203	 0.249393789160087 
2204	 0.249238009086211 
2205	 0.249054299196517 
2206	 0.248956487049335 
2207	 0.248903827000026 
2208	 0.248884419448722 
2209	 0.248927801533976 
2210	 0.248958723807983 
2211	 0.249013175639279 
2212	 0.249085241745923 
2213	 0.24916968301798 
2214	 0.249268991962701 
2215	 0.249422861560127 
2216	 0.249525374946569 
2217	 0.24962185355212 
2218	 0.249696553272486 
2219	 0.249737892705544 
2220	 0.24977760148375 
2221	 0.249809578951711 
2222	 0.249831402739976 
2223	 0.249833965470006 
2224	 0.249800285035261 
2225	 0.249766610144806 
2226	 0.249714001074639 
2227	 0.24964607161948 
2228	 0.24956526625212 
2229	 0.249479345268476 
2230	 0.249382336794305 
2231	 0.249258753596175 
2232	 0.24912887647479 
2233	 0.248972939074347 
2234	 0.248775905037143 
2235	 0.248583025340865 
2236	 0.248381399655202 
2237	 0.248168732985156 
2238	 0.24794675275175 
2239	 0.247709780879833 
2240	 0.247450029812577 
2241	 0.247199597893714 
2242	 0.246948659150842 
2243	 0.246681441341983 
2244	 0.246422255282046 
2245	 0.246140771904785 
2246	 0.245827161842041 
2247	 0.245489372424419 
2248	 0.245151526148862 
2249	 0.244793009919128 
2250	 0.244446789536437 
2251	 0.244099863537555 
2252	 0.243748800916266 
2253	 0.243375045443346 
2254	 0.243046980816845 
2255	 0.242720311383048 
2256	 0.242435983999184 
2257	 0.24218553409529 
2258	 0.241975327574661 
2259	 0.241810293845698 
2260	 0.241641046588755 
2261	 0.24150857567442 
2262	 0.241379966031762 
2263	 0.241241518162283 
2264	 0.241140765017053 
2265	 0.241051662681451 
2266	 0.241012025701356 
2267	 0.241008288631832 
2268	 0.241032287172788 
2269	 0.241101662022599 
2270	 0.241211339869459 
2271	 0.24132269453354 
2272	 0.241443087525103 
2273	 0.241556691259317 
2274	 0.241656263551773 
2275	 0.241789098363454 
2276	 0.241924425331594 
2277	 0.242080539474356 
2278	 0.24227494416017 
2279	 0.2424466855619 
2280	 0.242646803042055 
2281	 0.24277681377745 
2282	 0.242848616967396 
2283	 0.242973420959476 
2284	 0.243058221189064 
2285	 0.243183364612211 
2286	 0.243395799679722 
2287	 0.243550406907276 
2288	 0.243672586428273 
2289	 0.243807928683697 
2290	 0.243958998842845 
2291	 0.244055623401435 
2292	 0.244118516633589 
2293	 0.244194583645921 
2294	 0.244253205691279 
2295	 0.244286844814288 
2296	 0.244309126949193 
2297	 0.244329540550445 
2298	 0.244347741512834 
2299	 0.244370245259304 
2300	 0.244467710671654 
2301	 0.244572053624543 
2302	 0.24459859833816 
2303	 0.244609269830962 
2304	 0.244590206026279 
2305	 0.244543223729196 
2306	 0.244503298981723 
2307	 0.244459216174405 
2308	 0.244427242588406 
2309	 0.244395067507794 
2310	 0.244350057238013 
2311	 0.244316994876355 
2312	 0.2442583719027 
2313	 0.244144458304707 
2314	 0.244094138248798 
2315	 0.24411018700831 
2316	 0.244050396749501 
2317	 0.243990753056476 
2318	 0.243904280322632 
2319	 0.243717700169536 
2320	 0.243601521671866 
2321	 0.243533433826398 
2322	 0.243432191134102 
2323	 0.243353832109109 
2324	 0.243239180590254 
2325	 0.243065843602275 
2326	 0.242938005321601 
2327	 0.242837814844901 
2328	 0.242690848210029 
2329	 0.242568237314413 
2330	 0.242481804990171 
2331	 0.242315313457913 
2332	 0.242150904287922 
2333	 0.242025916929311 
2334	 0.241834841609736 
2335	 0.24166797129732 
2336	 0.241559288012196 
2337	 0.241415267003944 
2338	 0.241247966061189 
2339	 0.241075388867449 
2340	 0.240906154540151 
2341	 0.240725925851425 
2342	 0.240530709627866 
2343	 0.240364630953116 
2344	 0.240142041081877 
2345	 0.239881421916509 
2346	 0.239586941925046 
2347	 0.239286307085007 
2348	 0.238919147287191 
2349	 0.238605870288938 
2350	 0.238336194767323 
2351	 0.238004250774878 
2352	 0.237636662203529 
2353	 0.237306272428598 
2354	 0.236938958388074 
2355	 0.236603550039672 
2356	 0.236354226545857 
2357	 0.236021163056462 
2358	 0.235628414911091 
2359	 0.235278580231574 
2360	 0.234896297391424 
2361	 0.234567540955911 
2362	 0.234298903592748 
2363	 0.234007121251465 
2364	 0.233752203138974 
2365	 0.233429727241973 
2366	 0.23305982244711 
2367	 0.232709154443933 
2368	 0.232318724673163 
2369	 0.231944249285299 
2370	 0.231598205057353 
2371	 0.231244010024346 
2372	 0.230781770840292 
2373	 0.230376571223049 
2374	 0.229967755215604 
2375	 0.229506792668438 
2376	 0.229075300633142 
2377	 0.22857980816315 
2378	 0.228099268021922 
2379	 0.227650037511952 
2380	 0.227192933235755 
2381	 0.226826177387954 
2382	 0.226445551642067 
2383	 0.225995250307313 
2384	 0.225576709443969 
2385	 0.225156841965896 
2386	 0.224690944003526 
2387	 0.224210219665768 
2388	 0.223734215988694 
2389	 0.22326049520123 
2390	 0.222780638860427 
2391	 0.222333216991498 
2392	 0.221912621219507 
2393	 0.221479333590564 
2394	 0.22106152369928 
2395	 0.22059799645494 
2396	 0.220139969745475 
2397	 0.219706339770084 
2398	 0.219186776761946 
2399	 0.218741005675526 
2400	 0.218293901412092 
2401	 0.217782034571596 
2402	 0.217323162854889 
2403	 0.216815883756537 
2404	 0.216313262150711 
2405	 0.215808714131736 
2406	 0.215327248372995 
2407	 0.214927396420881 
2408	 0.214462222752865 
2409	 0.213918952945884 
2410	 0.21335085128925 
2411	 0.212792696701794 
2412	 0.212295518766252 
2413	 0.211867974838462 
2414	 0.211465436531981 
2415	 0.211090209249863 
2416	 0.210675013385402 
2417	 0.210206980027545 
2418	 0.209752523648022 
2419	 0.209277335456958 
2420	 0.208847474409912 
2421	 0.208491275292553 
2422	 0.20806206943538 
2423	 0.207620977010319 
2424	 0.207151704013263 
2425	 0.206568096750378 
2426	 0.206039045173579 
2427	 0.205587490213477 
2428	 0.205106740761954 
2429	 0.204605562231042 
2430	 0.204105874086682 
2431	 0.203598947498951 
2432	 0.203075956098217 
2433	 0.20253883887653 
2434	 0.202051295106193 
2435	 0.201563421459262 
2436	 0.201069191235051 
2437	 0.200616581406339 
2438	 0.200119110592446 
2439	 0.19961604258041 
2440	 0.199144867514833 
2441	 0.198649292149661 
2442	 0.19814644893494 
2443	 0.197644056788201 
2444	 0.197120460566006 
2445	 0.196559475683223 
2446	 0.196096813273703 
2447	 0.195725302201642 
2448	 0.195295358705948 
2449	 0.194823312769711 
2450	 0.194459565493862 
2451	 0.194144724031067 
2452	 0.193731133394391 
2453	 0.193428501838818 
2454	 0.192963023792138 
2455	 0.192279495364073 
2456	 0.191831530332568 
2457	 0.191427302491511 
2458	 0.191032439188157 
2459	 0.190735359373615 
2460	 0.190325641113951 
2461	 0.189933477433167 
2462	 0.189467735297531 
2463	 0.188872627164048 
2464	 0.18839153751 
2465	 0.187844214426153 
2466	 0.187422059981653 
2467	 0.187173572975647 
2468	 0.18689491909705 
2469	 0.186678948178164 
2470	 0.186372132776413 
2471	 0.186043333864497 
2472	 0.18550069553701 
2473	 0.185146870832909 
2474	 0.184800998090796 
2475	 0.184391654178711 
2476	 0.184271499915693 
2477	 0.184067251245237 
2478	 0.183821532986304 
2479	 0.183428588512992 
2480	 0.182935799384228 
2481	 0.182486965095661 
2482	 0.181815838158082 
2483	 0.181338755532661 
2484	 0.181014731074835 
2485	 0.180578013228575 
2486	 0.180262479277595 
2487	 0.179959351069329 
2488	 0.179664464649011 
2489	 0.179472272790142 
2490	 0.179290778481929 
2491	 0.179145557541195 
2492	 0.178855642370247 
2493	 0.17841388299096 
2494	 0.178020866665456 
2495	 0.177535659511881 
2496	 0.177129021343761 
2497	 0.176841648544068 
2498	 0.176493152239297 
2499	 0.176129366392312 
2500	 0.175815213177869 
