Wavelength	mm2100003.asd
350	 5.79297550622691E-02 
351	 6.44127322192479E-02 
352	 0.061593249524561 
353	 4.61286152753257E-02 
354	 5.02796966806603E-02 
355	 5.19449656504699E-02 
356	 5.22793545445215E-02 
357	 5.64989569942492E-02 
358	 6.23725990348158E-02 
359	 6.11060202989099E-02 
360	 5.54719985004847E-02 
361	 5.47958865407534E-02 
362	 5.21159613135315E-02 
363	 0.054270604338337 
364	 6.03088158138436E-02 
365	 5.45202174215501E-02 
366	 5.57510994441658E-02 
367	 5.85275083019754E-02 
368	 5.53583167764673E-02 
369	 5.88820447105672E-02 
370	 5.88764007305257E-02 
371	 5.50732536913044E-02 
372	 5.41856684338273E-02 
373	 5.53487711410154E-02 
374	 5.60836123674431E-02 
375	 5.61377270782691E-02 
376	 5.99428538742822E-02 
377	 0.056703936295622 
378	 5.35469885400365E-02 
379	 5.82351931078073E-02 
380	 5.67959513605353E-02 
381	 5.64898050099485E-02 
382	 0.058319899171118 
383	 5.84003640293946E-02 
384	 0.060373117480419 
385	 6.02608317984388E-02 
386	 5.76724285639826E-02 
387	 6.11917076392183E-02 
388	 6.32750350479277E-02 
389	 0.062425556126671 
390	 6.01762336397229E-02 
391	 6.22101192866582E-02 
392	 6.50629877366273E-02 
393	 6.68372557281072E-02 
394	 6.74601277640267E-02 
395	 6.81231664225027E-02 
396	 6.92299025737565E-02 
397	 7.06304793132821E-02 
398	 7.14427424940467E-02 
399	 7.16058185703543E-02 
400	 0.072165672846921 
401	 7.39643637427002E-02 
402	 7.43182909547477E-02 
403	 7.47497969471509E-02 
404	 7.55327814858385E-02 
405	 7.55158238682701E-02 
406	 7.73107583143541E-02 
407	 7.89161479620363E-02 
408	 7.87534164809176E-02 
409	 7.84975761961427E-02 
410	 7.82931812769823E-02 
411	 7.88717793116852E-02 
412	 8.07485245055714E-02 
413	 0.081427728700074 
414	 8.16172157164878E-02 
415	 0.081714379882862 
416	 8.13013486163629E-02 
417	 8.12013116746437E-02 
418	 8.16731508805158E-02 
419	 8.25137649001905E-02 
420	 8.27012169999824E-02 
421	 8.20835493561528E-02 
422	 0.081363034364985 
423	 8.15823323101264E-02 
424	 0.081287627977387 
425	 8.06597729824476E-02 
426	 8.00364126771544E-02 
427	 7.96186203597059E-02 
428	 7.94130578381301E-02 
429	 7.90159365750816E-02 
430	 7.80997617374593E-02 
431	 7.73247219548263E-02 
432	 7.68862679476192E-02 
433	 7.67869965171424E-02 
434	 7.68770235739026E-02 
435	 7.71825069635772E-02 
436	 7.73044231212834E-02 
437	 7.70663921666202E-02 
438	 7.69823873502237E-02 
439	 7.72844781062114E-02 
440	 7.78015770951683E-02 
441	 7.81873456656127E-02 
442	 7.85851867256394E-02 
443	 7.91442434767035E-02 
444	 7.98340374493224E-02 
445	 8.03575307062771E-02 
446	 8.09419777716412E-02 
447	 0.081489726597604 
448	 8.19038398466007E-02 
449	 0.082468084246378 
450	 8.31289664083096E-02 
451	 8.37921175029046E-02 
452	 0.084342552325482 
453	 8.47053677387723E-02 
454	 8.49430281477503E-02 
455	 8.52379382128211E-02 
456	 8.60678526356754E-02 
457	 8.64987304635824E-02 
458	 8.66132764918625E-02 
459	 8.69166323405283E-02 
460	 8.72237653163362E-02 
461	 8.73090054601331E-02 
462	 8.72312450676157E-02 
463	 8.74385665769554E-02 
464	 8.79490670778844E-02 
465	 8.82645237792152E-02 
466	 8.80589609308705E-02 
467	 0.088285048867335 
468	 8.85280305873075E-02 
469	 8.87227736735817E-02 
470	 8.90700667348181E-02 
471	 8.89002107622614E-02 
472	 8.88321716935161E-02 
473	 0.089197673055065 
474	 8.91203125773266E-02 
475	 8.92376634055243E-02 
476	 0.089434121901332 
477	 8.93574113615512E-02 
478	 8.94432189103847E-02 
479	 8.95616929840495E-02 
480	 8.96523192089348E-02 
481	 8.98220176323907E-02 
482	 8.98957239705826E-02 
483	 9.00157362608194E-02 
484	 9.02775192373348E-02 
485	 9.02288148054119E-02 
486	 9.01259149747929E-02 
487	 9.01135703378503E-02 
488	 0.090217674326271 
489	 9.03620760837727E-02 
490	 9.04613331545126E-02 
491	 9.04843440756448E-02 
492	 9.05113953718783E-02 
493	 9.06527772144805E-02 
494	 9.07580067244678E-02 
495	 0.090631626044666 
496	 9.07887297794851E-02 
497	 9.09009524368144E-02 
498	 9.08706502419329E-02 
499	 9.10652721803338E-02 
500	 9.11665727534858E-02 
501	 9.11944949623316E-02 
502	 9.12347214017351E-02 
503	 9.11916002936798E-02 
504	 9.11931629518593E-02 
505	 9.12677870934861E-02 
506	 9.13479589172694E-02 
507	 9.14581344475423E-02 
508	 9.15298336465706E-02 
509	 9.15447134973642E-02 
510	 9.16725370313175E-02 
511	 9.16945253046737E-02 
512	 9.16529345856997E-02 
513	 9.17097517141121E-02 
514	 9.17321309486915E-02 
515	 9.17723322675659E-02 
516	 9.18671932690961E-02 
517	 9.20049712716009E-02 
518	 9.20447652678692E-02 
519	 0.092021417386247 
520	 9.20375784779636E-02 
521	 9.21908760706247E-02 
522	 9.23491353848171E-02 
523	 9.24400156445364E-02 
524	 9.24700660014977E-02 
525	 9.25200564334966E-02 
526	 9.25293159192352E-02 
527	 9.24735150590657E-02 
528	 9.25400244586738E-02 
529	 9.26792836352049E-02 
530	 9.28183983580871E-02 
531	 9.28760436761543E-02 
532	 9.28435749657354E-02 
533	 9.29226813342209E-02 
534	 9.31599650529447E-02 
535	 9.32290699147198E-02 
536	 9.32535165475567E-02 
537	 9.33074935685866E-02 
538	 0.093433588167336 
539	 9.35471287858082E-02 
540	 9.36208068817153E-02 
541	 9.36931206594932E-02 
542	 9.38839279709022E-02 
543	 0.093968611276585 
544	 9.40554855109441E-02 
545	 9.42670744320057E-02 
546	 9.44064547917304E-02 
547	 9.44645112245537E-02 
548	 0.094541928245539 
549	 9.48095002533689E-02 
550	 9.50209011144249E-02 
551	 9.52131134124503E-02 
552	 9.54474979031266E-02 
553	 9.57191960293239E-02 
554	 9.58902603115297E-02 
555	 9.60572930413542E-02 
556	 9.64059414673351E-02 
557	 9.66841041415074E-02 
558	 9.69920457230549E-02 
559	 9.73856678224156E-02 
560	 9.77792618328832E-02 
561	 9.81283787906976E-02 
562	 9.85215643237641E-02 
563	 9.90517017842332E-02 
564	 9.95604836578963E-02 
565	 9.99988523652203E-02 
566	 0.10040102910056 
567	 0.100883101398857 
568	 0.101377975461813 
569	 0.101917450025414 
570	 0.10254524468397 
571	 0.103281976408319 
572	 0.10403140089902 
573	 0.10475652638933 
574	 0.105466849843857 
575	 0.10615450488 
576	 0.106926775938012 
577	 0.107825538154334 
578	 0.108731187135996 
579	 0.109557517098745 
580	 0.110323532869264 
581	 0.111107306647728 
582	 0.111976425325109 
583	 0.112816477968157 
584	 0.113635303772239 
585	 0.114639412713882 
586	 0.115754777713017 
587	 0.116912943342918 
588	 0.118059426064615 
589	 0.119220888591888 
590	 0.120410033895587 
591	 0.121596379603604 
592	 0.122716512640564 
593	 0.123758695419017 
594	 0.124775796898904 
595	 0.125799456468899 
596	 0.126773251640466 
597	 0.127696154528025 
598	 0.128630111209351 
599	 0.129656076698228 
600	 0.130650244936985 
601	 0.131621848223594 
602	 0.132584627651826 
603	 0.133538937830131 
604	 0.13444074194391 
605	 0.135327649305579 
606	 0.136255120540739 
607	 0.137206981914553 
608	 0.138071047058647 
609	 0.138851379664353 
610	 0.139687612708274 
611	 0.14036303083292 
612	 0.140946060046305 
613	 0.141530797578299 
614	 0.142048404936933 
615	 0.142577146300932 
616	 0.143105809386107 
617	 0.143566523426782 
618	 0.144067334616237 
619	 0.144525716612319 
620	 0.144896079715046 
621	 0.145265631742765 
622	 0.145637832495062 
623	 0.145974314463047 
624	 0.146243885756163 
625	 0.146604690365389 
626	 0.14693472964436 
627	 0.147193131081963 
628	 0.147473663751753 
629	 0.147753421107898 
630	 0.148042896610949 
631	 0.148343293626884 
632	 0.148588387802452 
633	 0.148850400358495 
634	 0.149128034748052 
635	 0.149362669462307 
636	 0.149617532046643 
637	 0.149879730811622 
638	 0.150131046918084 
639	 0.150370437714087 
640	 0.150635477024927 
641	 0.150916775515376 
642	 0.151184896896702 
643	 0.151452844370162 
644	 0.151716778212144 
645	 0.151990452586042 
646	 0.152316310152421 
647	 0.152596223396631 
648	 0.15285696792152 
649	 0.153151365831564 
650	 0.153472345676404 
651	 0.153779667681586 
652	 0.154086486173826 
653	 0.1544487012268 
654	 0.1548055194488 
655	 0.155122233920547 
656	 0.155415224165894 
657	 0.15581224943701 
658	 0.156234816199192 
659	 0.156631468747825 
660	 0.156977815052202 
661	 0.157359604191639 
662	 0.157789908748272 
663	 0.158244645621759 
664	 0.158656479311196 
665	 0.159130199373849 
666	 0.15960837165464 
667	 0.160021579157632 
668	 0.160442137217117 
669	 0.160950745245015 
670	 0.161514011801139 
671	 0.162009196565425 
672	 0.162490675880051 
673	 0.163017861236702 
674	 0.163611043464891 
675	 0.164204065539325 
676	 0.16475364522594 
677	 0.165287664146019 
678	 0.165862734390065 
679	 0.166457726392566 
680	 0.167083569349412 
681	 0.167743624208588 
682	 0.168429464599962 
683	 0.169089800954945 
684	 0.169748816630218 
685	 0.170433798920756 
686	 0.17110100258383 
687	 0.171807645721483 
688	 0.172529648363219 
689	 0.173196492900399 
690	 0.173936905815034 
691	 0.174708621931478 
692	 0.175464208902133 
693	 0.176195527660473 
694	 0.176950524671024 
695	 0.177740657517411 
696	 0.178552501570948 
697	 0.179319492129723 
698	 0.180122139223581 
699	 0.180954308743218 
700	 0.18171478359735 
701	 0.182543152547121 
702	 0.18339661446854 
703	 0.184217620522528 
704	 0.185022948757062 
705	 0.185804811824926 
706	 0.186598169709185 
707	 0.187448261185867 
708	 0.188302989702116 
709	 0.189147436234574 
710	 0.189968342041189 
711	 0.190749411001978 
712	 0.191571076067742 
713	 0.192379065113058 
714	 0.193129262838749 
715	 0.193977805693805 
716	 0.194728427362888 
717	 0.195402426703413 
718	 0.196171966279843 
719	 0.196932669973963 
720	 0.19764510039099 
721	 0.198308059035492 
722	 0.198977950689964 
723	 0.199650900589953 
724	 0.200255408883802 
725	 0.200750307971205 
726	 0.201360344629917 
727	 0.201970494426365 
728	 0.202523369060041 
729	 0.203030530789836 
730	 0.203448529880761 
731	 0.203855347058603 
732	 0.204291564641887 
733	 0.204657169029145 
734	 0.205015575947881 
735	 0.205307294684255 
736	 0.205469217829668 
737	 0.205727526880069 
738	 0.205971926414978 
739	 0.206144345762309 
740	 0.206272552118603 
741	 0.206378111394219 
742	 0.206430709344724 
743	 0.206423772163111 
744	 0.206453747641753 
745	 0.206400549525846 
746	 0.206287147840994 
747	 0.206193355515828 
748	 0.206070388846204 
749	 0.205894042810216 
750	 0.205676596804551 
751	 0.205469724877174 
752	 0.205203244360123 
753	 0.204861471763516 
754	 0.204470547395016 
755	 0.204134620980943 
756	 0.203799182476036 
757	 0.203417307134611 
758	 0.202959487687486 
759	 0.202488355490634 
760	 0.2020076552979 
761	 0.201509142480401 
762	 0.200977830545733 
763	 0.200464196957248 
764	 0.199930794863778 
765	 0.199344845505722 
766	 0.198738117116334 
767	 0.198191764543266 
768	 0.197668044907624 
769	 0.197076986233436 
770	 0.196452319309503 
771	 0.195820315723666 
772	 0.195178741854727 
773	 0.194493629339551 
774	 0.193840462513282 
775	 0.193202494813386 
776	 0.192545085250129 
777	 0.191840367312117 
778	 0.191168823107085 
779	 0.190533439956336 
780	 0.189892001673092 
781	 0.189177582351938 
782	 0.188498003878412 
783	 0.187874842573879 
784	 0.187226502707172 
785	 0.186530871719795 
786	 0.185854095294699 
787	 0.185226993730884 
788	 0.184542841076954 
789	 0.183953885735325 
790	 0.183360120916346 
791	 0.182623067124223 
792	 0.181924423106906 
793	 0.18129677222179 
794	 0.180713949505049 
795	 0.180105708690406 
796	 0.179440278020146 
797	 0.178825097999199 
798	 0.178293922386837 
799	 0.177707507536314 
800	 0.177136690360413 
801	 0.176589377758442 
802	 0.176042676117258 
803	 0.175426158386473 
804	 0.17482918707154 
805	 0.174286184611446 
806	 0.173779539660326 
807	 0.173200872610596 
808	 0.172649485895546 
809	 0.172152727410801 
810	 0.171614883202562 
811	 0.171104905293829 
812	 0.170607099145804 
813	 0.170102016619899 
814	 0.169604418572271 
815	 0.169190075623237 
816	 0.16878682081323 
817	 0.168295326755754 
818	 0.167833014787393 
819	 0.167406725982553 
820	 0.166984872384831 
821	 0.166523437955656 
822	 0.166180673078697 
823	 0.165814464675366 
824	 0.165380541755734 
825	 0.165066527329691 
826	 0.1647418832376 
827	 0.164377858898966 
828	 0.163986614971834 
829	 0.163610236444455 
830	 0.163270107030377 
831	 0.162960486392105 
832	 0.16265939669369 
833	 0.162355875233662 
834	 0.162060656556284 
835	 0.161778819881097 
836	 0.161509544071074 
837	 0.161283612433185 
838	 0.161037806772726 
839	 0.16074681467016 
840	 0.160473741620799 
841	 0.160207836907225 
842	 0.159989791639902 
843	 0.159829338288667 
844	 0.159603719681575 
845	 0.159421256820977 
846	 0.159241882676814 
847	 0.158998885064406 
848	 0.158888507481789 
849	 0.158791638283581 
850	 0.158638761654156 
851	 0.158431014472406 
852	 0.158235615077968 
853	 0.158112872948286 
854	 0.158053496128212 
855	 0.157956273670855 
856	 0.157867538685582 
857	 0.157769737632566 
858	 0.15766192032866 
859	 0.157622641868472 
860	 0.157555340349654 
861	 0.157474746267023 
862	 0.157419463332839 
863	 0.157332056821665 
864	 0.157341021013778 
865	 0.157396930603488 
866	 0.157364467220823 
867	 0.15737033972628 
868	 0.157364432434501 
869	 0.157342184824757 
870	 0.157356882926008 
871	 0.157393452544897 
872	 0.157419169312671 
873	 0.157439056622751 
874	 0.157521041620035 
875	 0.157624839457792 
876	 0.15771374294178 
877	 0.157768807442141 
878	 0.157805892979723 
879	 0.157911540850079 
880	 0.158044250839264 
881	 0.158144843742954 
882	 0.158294800869907 
883	 0.15846724683168 
884	 0.158608905114819 
885	 0.158687194171154 
886	 0.158864510408468 
887	 0.159083201397422 
888	 0.159275863767709 
889	 0.159402117281656 
890	 0.15961051908555 
891	 0.159785421007976 
892	 0.159935620571134 
893	 0.160248274717598 
894	 0.160483439013688 
895	 0.160700380815415 
896	 0.160958351870836 
897	 0.161208458406641 
898	 0.161488912882039 
899	 0.161777396631269 
900	 0.162048058788619 
901	 0.162299533783992 
902	 0.162654208189102 
903	 0.163007394695249 
904	 0.163248384833511 
905	 0.163556607239917 
906	 0.163919974086859 
907	 0.16432335924836 
908	 0.164746672036017 
909	 0.165177537422218 
910	 0.165565155677034 
911	 0.165903969200971 
912	 0.166238207774893 
913	 0.166703269306725 
914	 0.167182784527401 
915	 0.16761172498561 
916	 0.168007009431667 
917	 0.168463072809056 
918	 0.168954200446742 
919	 0.16944394627344 
920	 0.169908801863579 
921	 0.170403269546169 
922	 0.170970294078924 
923	 0.171575622506457 
924	 0.172092268257276 
925	 0.172693370187123 
926	 0.173272892965575 
927	 0.173770183375227 
928	 0.174312178150777 
929	 0.174925014157109 
930	 0.175580101944979 
931	 0.176223536782232 
932	 0.176793739382773 
933	 0.177368840769998 
934	 0.178025909201857 
935	 0.17877779878351 
936	 0.179478783235249 
937	 0.180082701798652 
938	 0.180696668239141 
939	 0.181435880631998 
940	 0.182241484782552 
941	 0.183041276400052 
942	 0.183827779225582 
943	 0.184611731397212 
944	 0.185336092014548 
945	 0.186131018297056 
946	 0.186960799617498 
947	 0.187726428222328 
948	 0.188427613080368 
949	 0.18922724694263 
950	 0.190073848211741 
951	 0.190867082902027 
952	 0.191882871157128 
953	 0.192780011789379 
954	 0.193576578107124 
955	 0.194490467786962 
956	 0.195518623083175 
957	 0.196451242100364 
958	 0.197311836461406 
959	 0.19825312796799 
960	 0.199210277168479 
961	 0.200195163036761 
962	 0.201169046749065 
963	 0.202078886396092 
964	 0.202998576540169 
965	 0.203981914468154 
966	 0.205015318522109 
967	 0.206056377233239 
968	 0.207199626495203 
969	 0.208199544725618 
970	 0.20913377656662 
971	 0.210238276942246 
972	 0.211201939404011 
973	 0.212304562354089 
974	 0.213555014644869 
975	 0.214754832306066 
976	 0.215847198757082 
977	 0.216931863217661 
978	 0.21802665007562 
979	 0.219102096511077 
980	 0.220253309778471 
981	 0.2213543284419 
982	 0.222398785831554 
983	 0.22345604074688 
984	 0.224493048507543 
985	 0.225632092920586 
986	 0.226821717600352 
987	 0.227944907117202 
988	 0.229124857427383 
989	 0.230311064149355 
990	 0.231394490440417 
991	 0.232348052503995 
992	 0.233568070389534 
993	 0.2347809917183 
994	 0.236023476920598 
995	 0.237355778155258 
996	 0.238319740177661 
997	 0.239294177677625 
998	 0.240358425556086 
999	 0.241450337487495 
1000	 0.242501680621122 
1001	 0.237289994349009 
1002	 0.238288813731815 
1003	 0.239249520441513 
1004	 0.240185552424871 
1005	 0.241062473734647 
1006	 0.242046486885518 
1007	 0.243057387293007 
1008	 0.24404010531167 
1009	 0.245111254994929 
1010	 0.246083029938733 
1011	 0.246946119274557 
1012	 0.247830702188557 
1013	 0.248685668117104 
1014	 0.249541150425678 
1015	 0.25043335565203 
1016	 0.251320291538821 
1017	 0.252199844235837 
1018	 0.253067558632536 
1019	 0.253958473656365 
1020	 0.254807956402216 
1021	 0.255580113064398 
1022	 0.256381356046219 
1023	 0.257158534805887 
1024	 0.257947110419725 
1025	 0.258805645665618 
1026	 0.25958534705645 
1027	 0.260317588406107 
1028	 0.26109997601786 
1029	 0.261870213621864 
1030	 0.262631111831916 
1031	 0.263399351954143 
1032	 0.264195940532291 
1033	 0.264952680071509 
1034	 0.26569149755643 
1035	 0.266422641030181 
1036	 0.267142214072136 
1037	 0.267842458780185 
1038	 0.268503514154787 
1039	 0.269193318562409 
1040	 0.269885901661775 
1041	 0.270553696462824 
1042	 0.271279008544461 
1043	 0.27200444925971 
1044	 0.272712244116124 
1045	 0.27344000945536 
1046	 0.274123279498495 
1047	 0.274735474905653 
1048	 0.275393020047398 
1049	 0.276000626117346 
1050	 0.276642936342194 
1051	 0.277369202387296 
1052	 0.278047819179659 
1053	 0.278707000638782 
1054	 0.279369232347931 
1055	 0.280023954917319 
1056	 0.280665536512912 
1057	 0.281304441994296 
1058	 0.28196539179252 
1059	 0.282606746409272 
1060	 0.283231173009807 
1061	 0.283824634523715 
1062	 0.284449687256633 
1063	 0.285091524439474 
1064	 0.285717564106936 
1065	 0.286321947626011 
1066	 0.286905926301021 
1067	 0.287448697341942 
1068	 0.287994837705572 
1069	 0.288566163316318 
1070	 0.289124034791117 
1071	 0.289684485244871 
1072	 0.290257065105304 
1073	 0.290835716564987 
1074	 0.291381158608342 
1075	 0.291936438142627 
1076	 0.29244886391219 
1077	 0.292922979283118 
1078	 0.293353156268309 
1079	 0.293781970752988 
1080	 0.294220916439751 
1081	 0.294647715614913 
1082	 0.295176988267781 
1083	 0.295662397730953 
1084	 0.296154233428682 
1085	 0.296607388286592 
1086	 0.297034515046219 
1087	 0.297458902355033 
1088	 0.297841956811924 
1089	 0.29830620550246 
1090	 0.298747256282063 
1091	 0.299153806511938 
1092	 0.299574287918966 
1093	 0.299998025474095 
1094	 0.300409320256399 
1095	 0.300819452261243 
1096	 0.301228062802539 
1097	 0.30164807624712 
1098	 0.302084773544829 
1099	 0.302565657356887 
1100	 0.302994730626708 
1101	 0.303414561386854 
1102	 0.303821816590088 
1103	 0.304200612049651 
1104	 0.304572193561595 
1105	 0.304968906439382 
1106	 0.305386942352741 
1107	 0.305796650360253 
1108	 0.306238741690127 
1109	 0.30667950678652 
1110	 0.307088768967066 
1111	 0.307507330986752 
1112	 0.307930944784787 
1113	 0.308333347944672 
1114	 0.30870993890119 
1115	 0.30912525690147 
1116	 0.309542835661932 
1117	 0.30996366161485 
1118	 0.310418260195997 
1119	 0.310855564988383 
1120	 0.311252011259135 
1121	 0.311649115370983 
1122	 0.312007800207412 
1123	 0.312373841198227 
1124	 0.312771231296653 
1125	 0.313181147624432 
1126	 0.313590183374228 
1127	 0.314036586419347 
1128	 0.314436133121085 
1129	 0.314794039516593 
1130	 0.315190787233516 
1131	 0.315606389063231 
1132	 0.315997945842775 
1133	 0.316410001143209 
1134	 0.316791672735014 
1135	 0.317123596775168 
1136	 0.31746891198234 
1137	 0.317857100219888 
1138	 0.318234065121569 
1139	 0.318587868795586 
1140	 0.318951290917629 
1141	 0.319284919510297 
1142	 0.319578641525976 
1143	 0.319886585425551 
1144	 0.320206390451184 
1145	 0.320499479023098 
1146	 0.320759792391544 
1147	 0.321041184311682 
1148	 0.321328497568568 
1149	 0.32160278952867 
1150	 0.32187271786019 
1151	 0.32215701302603 
1152	 0.322426450632437 
1153	 0.322672705442759 
1154	 0.32293673123849 
1155	 0.323200476936026 
1156	 0.323479915912875 
1157	 0.323778223694814 
1158	 0.324055822553082 
1159	 0.324346717938954 
1160	 0.324616610973385 
1161	 0.324843648319388 
1162	 0.325106867244597 
1163	 0.325398266087859 
1164	 0.325663601583347 
1165	 0.325924294556929 
1166	 0.326199086539268 
1167	 0.326446035949568 
1168	 0.326677715847376 
1169	 0.326914575636267 
1170	 0.32715652594977 
1171	 0.327384933711514 
1172	 0.327601938416561 
1173	 0.327821166032922 
1174	 0.32803062278503 
1175	 0.32825152119814 
1176	 0.328482889408815 
1177	 0.328701984032194 
1178	 0.32892085831555 
1179	 0.329138485584879 
1180	 0.329332970070495 
1181	 0.329551009409877 
1182	 0.329781500889351 
1183	 0.330025335245107 
1184	 0.330255297946562 
1185	 0.330499717199554 
1186	 0.33071728245785 
1187	 0.330919424130601 
1188	 0.331116055051481 
1189	 0.331294963931849 
1190	 0.331486565623338 
1191	 0.331681702060023 
1192	 0.331864978555438 
1193	 0.332038664888939 
1194	 0.332226700436711 
1195	 0.332418166972888 
1196	 0.332599543737072 
1197	 0.332785838981025 
1198	 0.332975239501755 
1199	 0.333161824457773 
1200	 0.333337872657345 
1201	 0.333511625084517 
1202	 0.33369090894837 
1203	 0.333865061328131 
1204	 0.334021793159744 
1205	 0.334192354967195 
1206	 0.33437413462301 
1207	 0.334551921665394 
1208	 0.334738544124096 
1209	 0.334906234877722 
1210	 0.335070044199307 
1211	 0.335226084396311 
1212	 0.335344158116651 
1213	 0.335496383542225 
1214	 0.33567327769839 
1215	 0.335838412698141 
1216	 0.336006559489301 
1217	 0.336196785479633 
1218	 0.336355416821426 
1219	 0.336498987610166 
1220	 0.33663469730874 
1221	 0.3367436121911 
1222	 0.336886148259838 
1223	 0.337033582108087 
1224	 0.337182115223382 
1225	 0.337361410148615 
1226	 0.337514942893527 
1227	 0.337649172611761 
1228	 0.337788467037043 
1229	 0.337935668678407 
1230	 0.338063413345874 
1231	 0.338174680826407 
1232	 0.338290239959938 
1233	 0.338401035675447 
1234	 0.338488413947054 
1235	 0.338613708238197 
1236	 0.338760994531134 
1237	 0.338894966699648 
1238	 0.339049508398679 
1239	 0.339174953154559 
1240	 0.339274052784867 
1241	 0.339393212139857 
1242	 0.339515141616786 
1243	 0.339629554437247 
1244	 0.339741416507929 
1245	 0.339863278759319 
1246	 0.339989621988772 
1247	 0.340106305523062 
1248	 0.340215268048641 
1249	 0.340348443541641 
1250	 0.340481357848242 
1251	 0.340591757780279 
1252	 0.340708070013595 
1253	 0.340842030991252 
1254	 0.340946864708009 
1255	 0.341028132148416 
1256	 0.341118482952412 
1257	 0.341209750620838 
1258	 0.341287281813019 
1259	 0.341336896367969 
1260	 0.341422170973057 
1261	 0.341520322659144 
1262	 0.341612494063165 
1263	 0.341728287020638 
1264	 0.341834529960148 
1265	 0.341920603119576 
1266	 0.342018946087341 
1267	 0.342138828683174 
1268	 0.342246458139557 
1269	 0.342336381909686 
1270	 0.342408569143859 
1271	 0.342502655729246 
1272	 0.342575089336903 
1273	 0.342693823431381 
1274	 0.34285627791181 
1275	 0.342993688489537 
1276	 0.343149108310081 
1277	 0.343283742451516 
1278	 0.343391790704404 
1279	 0.343520240339664 
1280	 0.343644593225533 
1281	 0.343783124914514 
1282	 0.343948367706376 
1283	 0.344098029011482 
1284	 0.344249765413079 
1285	 0.344395546390859 
1286	 0.344525951730472 
1287	 0.344654622575582 
1288	 0.344798860494848 
1289	 0.344962843389992 
1290	 0.345084075746803 
1291	 0.34519397543135 
1292	 0.345305832908002 
1293	 0.345398634883258 
1294	 0.345480155483104 
1295	 0.345578270085038 
1296	 0.345637975412391 
1297	 0.345642833533814 
1298	 0.345677801316898 
1299	 0.345728647604128 
1300	 0.34574838818494 
1301	 0.345762619818625 
1302	 0.345763235284137 
1303	 0.345739474947398 
1304	 0.345702167953459 
1305	 0.345684692133262 
1306	 0.345639817325193 
1307	 0.345557523048645 
1308	 0.345475526886285 
1309	 0.345393804266765 
1310	 0.345297049991571 
1311	 0.345197416793123 
1312	 0.345101804028558 
1313	 0.34500527371446 
1314	 0.344891961042634 
1315	 0.344791309501678 
1316	 0.34470077897384 
1317	 0.344605605018692 
1318	 0.344520763842563 
1319	 0.34441668328266 
1320	 0.344298368632008 
1321	 0.344194551889018 
1322	 0.344098634120009 
1323	 0.343968411134511 
1324	 0.343865324142509 
1325	 0.34376990142952 
1326	 0.343663188255271 
1327	 0.343570411735222 
1328	 0.3434801942803 
1329	 0.34339185030934 
1330	 0.34329583438327 
1331	 0.343194884498611 
1332	 0.343094054507154 
1333	 0.342988087559257 
1334	 0.342884229409684 
1335	 0.342771180058258 
1336	 0.342678590930493 
1337	 0.342599296030764 
1338	 0.34251657104633 
1339	 0.342445384280749 
1340	 0.342370046929752 
1341	 0.342290732746527 
1342	 0.342211076514991 
1343	 0.342131532628511 
1344	 0.342056121786285 
1345	 0.341978123449094 
1346	 0.34190159184073 
1347	 0.341839171735131 
1348	 0.341775792834111 
1349	 0.341698681831673 
1350	 0.34161668317545 
1351	 0.341540707436948 
1352	 0.341456508102262 
1353	 0.341385886086332 
1354	 0.341338528593046 
1355	 0.341256505791039 
1356	 0.34115047888935 
1357	 0.341067397770338 
1358	 0.340970505096228 
1359	 0.340898284162174 
1360	 0.340862596805156 
1361	 0.34080545395987 
1362	 0.340751781002369 
1363	 0.340680997744511 
1364	 0.340599541931374 
1365	 0.340513427055848 
1366	 0.340414050644448 
1367	 0.340314074021629 
1368	 0.34021574960982 
1369	 0.340122158138794 
1370	 0.340009823878062 
1371	 0.339878277776672 
1372	 0.33974250736123 
1373	 0.339572286946456 
1374	 0.339380991306577 
1375	 0.339176578373149 
1376	 0.33893855339594 
1377	 0.33867884654446 
1378	 0.338372323851847 
1379	 0.338025866981442 
1380	 0.337669001418052 
1381	 0.337264062363568 
1382	 0.33686240195707 
1383	 0.336487260707794 
1384	 0.336034588154904 
1385	 0.335568551553401 
1386	 0.335028395349644 
1387	 0.334408792650957 
1388	 0.333766510948879 
1389	 0.333082289659568 
1390	 0.332354266223027 
1391	 0.331596135988239 
1392	 0.330800244820456 
1393	 0.329933837742058 
1394	 0.329015734413638 
1395	 0.328030654928839 
1396	 0.327030766377209 
1397	 0.326036911026216 
1398	 0.325018007436391 
1399	 0.324001943615933 
1400	 0.322997390573823 
1401	 0.32196537547407 
1402	 0.320895613187036 
1403	 0.319869571641714 
1404	 0.318837068447025 
1405	 0.317841488352535 
1406	 0.316895771854683 
1407	 0.315918683633112 
1408	 0.314915635747834 
1409	 0.313969868058323 
1410	 0.31298369603753 
1411	 0.312119818569006 
1412	 0.311321249747692 
1413	 0.310603698796197 
1414	 0.309997265688243 
1415	 0.309447711400656 
1416	 0.308980941202221 
1417	 0.308573323642156 
1418	 0.308163344777362 
1419	 0.307800478536451 
1420	 0.307476843075703 
1421	 0.307143647492445 
1422	 0.3068293665219 
1423	 0.306522939801397 
1424	 0.306185911456989 
1425	 0.305823591103056 
1426	 0.305471880740168 
1427	 0.305091225409796 
1428	 0.304761776643479 
1429	 0.304434845737998 
1430	 0.304153930510505 
1431	 0.303933001020929 
1432	 0.303687037265294 
1433	 0.303468080326045 
1434	 0.303231191107041 
1435	 0.302950365184415 
1436	 0.302730280423043 
1437	 0.302540994766089 
1438	 0.302352007279015 
1439	 0.302196864731384 
1440	 0.302042193274644 
1441	 0.301867997606859 
1442	 0.301708589914786 
1443	 0.301563931655872 
1444	 0.301439095829172 
1445	 0.301319272093641 
1446	 0.301187155993113 
1447	 0.301068625814427 
1448	 0.300950137240392 
1449	 0.300819840130909 
1450	 0.300687454428493 
1451	 0.300552575100202 
1452	 0.300400989674393 
1453	 0.300268845107335 
1454	 0.300151892406762 
1455	 0.300021051987028 
1456	 0.299885476408664 
1457	 0.299754460980597 
1458	 0.299615046973009 
1459	 0.299492036628235 
1460	 0.299365468122505 
1461	 0.29927367358032 
1462	 0.299197120423196 
1463	 0.299137013673834 
1464	 0.299121989890929 
1465	 0.299088057572336 
1466	 0.299031575082376 
1467	 0.299020087608975 
1468	 0.298995571596811 
1469	 0.299037881948926 
1470	 0.299135774087795 
1471	 0.299269517568719 
1472	 0.299426717762698 
1473	 0.299618225432034 
1474	 0.299800685220063 
1475	 0.300004942487651 
1476	 0.300228298814422 
1477	 0.300440366860071 
1478	 0.300662580385081 
1479	 0.300895924339696 
1480	 0.301158915796355 
1481	 0.30143888105789 
1482	 0.301712973836608 
1483	 0.30201577877364 
1484	 0.302288206750264 
1485	 0.302531652787734 
1486	 0.302807929639847 
1487	 0.303089591579553 
1488	 0.303377508516674 
1489	 0.303695998170743 
1490	 0.303983359457172 
1491	 0.304279062764499 
1492	 0.304531188193039 
1493	 0.304734382165899 
1494	 0.304959451987592 
1495	 0.30515842080526 
1496	 0.305380901743386 
1497	 0.305643334856902 
1498	 0.305870307421836 
1499	 0.30608456905287 
1500	 0.306291158448289 
1501	 0.306463074991778 
1502	 0.306660535498559 
1503	 0.306870615302933 
1504	 0.307077490861026 
1505	 0.307282378350039 
1506	 0.307492675786891 
1507	 0.30768706205421 
1508	 0.30786992449775 
1509	 0.308039374128257 
1510	 0.308205679275341 
1511	 0.308358853839859 
1512	 0.308501477156611 
1513	 0.308652721733881 
1514	 0.308820638965196 
1515	 0.308996178717905 
1516	 0.309172671079922 
1517	 0.309347428169645 
1518	 0.309528388015791 
1519	 0.309693485532196 
1520	 0.309853954985861 
1521	 0.31000777479582 
1522	 0.310150044177018 
1523	 0.310300545036916 
1524	 0.310446227711434 
1525	 0.310593069243304 
1526	 0.310740341415898 
1527	 0.310892699551229 
1528	 0.311052936314189 
1529	 0.311205808520315 
1530	 0.311368412869682 
1531	 0.311505473939476 
1532	 0.311623230700795 
1533	 0.311740313353585 
1534	 0.311843375261871 
1535	 0.311951090646345 
1536	 0.312054172877286 
1537	 0.312159304093044 
1538	 0.312261025214543 
1539	 0.312369287093996 
1540	 0.312480103376688 
1541	 0.312598290052713 
1542	 0.312734252769578 
1543	 0.31284991211248 
1544	 0.312957052260227 
1545	 0.313066165853563 
1546	 0.313179254974479 
1547	 0.313262532639685 
1548	 0.313339660246494 
1549	 0.313425880666622 
1550	 0.313478231694217 
1551	 0.31355995422345 
1552	 0.313661548807132 
1553	 0.313764754727916 
1554	 0.313890270103419 
1555	 0.313992043288586 
1556	 0.314082618295209 
1557	 0.31417421865252 
1558	 0.314253879883485 
1559	 0.314336796927832 
1560	 0.314424002942957 
1561	 0.314520055598641 
1562	 0.314604705722403 
1563	 0.314682459765276 
1564	 0.314774827306438 
1565	 0.314871107938254 
1566	 0.314957888100788 
1567	 0.315056590605298 
1568	 0.315134257218244 
1569	 0.315193962891571 
1570	 0.315259256341894 
1571	 0.315319824795363 
1572	 0.315376916635279 
1573	 0.315431600721899 
1574	 0.315479827116657 
1575	 0.315520588381851 
1576	 0.315565588578657 
1577	 0.315607551435088 
1578	 0.315650551142473 
1579	 0.315689444439373 
1580	 0.315742580109242 
1581	 0.315797094894005 
1582	 0.315860781259711 
1583	 0.315944075442794 
1584	 0.316016996155874 
1585	 0.316107994888193 
1586	 0.316161473806352 
1587	 0.31619017045759 
1588	 0.316222933805891 
1589	 0.316225892751547 
1590	 0.316244243858511 
1591	 0.31628380572322 
1592	 0.316304705341946 
1593	 0.316303641007638 
1594	 0.316324212028545 
1595	 0.316343694800193 
1596	 0.316371514265655 
1597	 0.316431977676824 
1598	 0.316467030223243 
1599	 0.316496861082913 
1600	 0.316513323570731 
1601	 0.316507600480403 
1602	 0.316506177723133 
1603	 0.31648090730541 
1604	 0.31648416938262 
1605	 0.316497223655963 
1606	 0.316523405436504 
1607	 0.316578027844045 
1608	 0.31663202388111 
1609	 0.316690376585876 
1610	 0.316730046199905 
1611	 0.316733390518343 
1612	 0.316729155841033 
1613	 0.316700672545215 
1614	 0.316681315521472 
1615	 0.316678582430985 
1616	 0.316673630228704 
1617	 0.316678394474843 
1618	 0.31666687289412 
1619	 0.316645228835009 
1620	 0.316643776475514 
1621	 0.316646694570982 
1622	 0.316664657100741 
1623	 0.316648303472785 
1624	 0.316629359609473 
1625	 0.316603033739094 
1626	 0.316537208338135 
1627	 0.316523198568972 
1628	 0.316532738589937 
1629	 0.316541275748033 
1630	 0.316570881493433 
1631	 0.316588540449435 
1632	 0.316605878333394 
1633	 0.316623337499575 
1634	 0.316647267647317 
1635	 0.316648331150915 
1636	 0.31664905639993 
1637	 0.316622615351147 
1638	 0.316560215561799 
1639	 0.316527037648242 
1640	 0.316482741383278 
1641	 0.316464263163141 
1642	 0.316475178725151 
1643	 0.31646313278126 
1644	 0.316450434863486 
1645	 0.316438119753934 
1646	 0.316418898944076 
1647	 0.316402289029213 
1648	 0.316393804664584 
1649	 0.316373541532699 
1650	 0.316337833041594 
1651	 0.316320670882087 
1652	 0.316315237530995 
1653	 0.316291978802858 
1654	 0.316277587929634 
1655	 0.316239975046758 
1656	 0.316178279987479 
1657	 0.316119668325754 
1658	 0.316048258352931 
1659	 0.315988060779088 
1660	 0.315931499531035 
1661	 0.315865475399664 
1662	 0.315796070228825 
1663	 0.315735082171193 
1664	 0.315664637073924 
1665	 0.315608976259056 
1666	 0.315567398189596 
1667	 0.315529450975359 
1668	 0.315512945596285 
1669	 0.315459620323586 
1670	 0.315403965766546 
1671	 0.315328209678215 
1672	 0.315201139320391 
1673	 0.315118802967539 
1674	 0.315048298694512 
1675	 0.314983879717492 
1676	 0.314936187832716 
1677	 0.314891543454794 
1678	 0.314854328101065 
1679	 0.314814216069393 
1680	 0.314787304363743 
1681	 0.314746356861446 
1682	 0.31469239211218 
1683	 0.314647249157012 
1684	 0.314602583858237 
1685	 0.314556748783175 
1686	 0.314525142858168 
1687	 0.314466311456114 
1688	 0.314392589321946 
1689	 0.314315244446704 
1690	 0.314218651659232 
1691	 0.31412687438951 
1692	 0.314023118762085 
1693	 0.313946086834937 
1694	 0.313878839202007 
1695	 0.313811489172659 
1696	 0.313760863354122 
1697	 0.313709552259732 
1698	 0.313661724621794 
1699	 0.313605767665434 
1700	 0.313573937455535 
1701	 0.313493353320432 
1702	 0.313370244681084 
1703	 0.313261853612932 
1704	 0.313135476159218 
1705	 0.313014606148547 
1706	 0.312902487318862 
1707	 0.312782585754248 
1708	 0.312641081569981 
1709	 0.312528729796297 
1710	 0.312434018073385 
1711	 0.312332394731661 
1712	 0.31224858713096 
1713	 0.312144955646613 
1714	 0.312026484677932 
1715	 0.311911002192896 
1716	 0.31178494943705 
1717	 0.311673903357702 
1718	 0.31157459984655 
1719	 0.311461659407072 
1720	 0.311344885719294 
1721	 0.311241094757027 
1722	 0.311140640163412 
1723	 0.311026374178181 
1724	 0.310923388507429 
1725	 0.310800538379193 
1726	 0.310649350235517 
1727	 0.31050636041411 
1728	 0.310365448796063 
1729	 0.310230053924376 
1730	 0.310090674133502 
1731	 0.309952690574353 
1732	 0.309826618163556 
1733	 0.309676293690082 
1734	 0.309518232779251 
1735	 0.309348162010466 
1736	 0.309157409674884 
1737	 0.308982394693753 
1738	 0.308793540814463 
1739	 0.308629515817515 
1740	 0.30848464573132 
1741	 0.308338085139191 
1742	 0.308209081901101 
1743	 0.308064564840053 
1744	 0.307922627553949 
1745	 0.307758681972542 
1746	 0.307576522659678 
1747	 0.307377587330814 
1748	 0.307185177668445 
1749	 0.307004140810194 
1750	 0.306828016336238 
1751	 0.306655907408166 
1752	 0.306499096571538 
1753	 0.306343635995353 
1754	 0.306191840074225 
1755	 0.306044907384067 
1756	 0.305893238238897 
1757	 0.305709816849167 
1758	 0.305516192484688 
1759	 0.305353861707847 
1760	 0.305188703729093 
1761	 0.305034515149574 
1762	 0.304898348293881 
1763	 0.304719876907763 
1764	 0.304522345372282 
1765	 0.304339275821345 
1766	 0.304150574911098 
1767	 0.303961998286116 
1768	 0.303797563143906 
1769	 0.303647562425953 
1770	 0.303512602417558 
1771	 0.303417594840017 
1772	 0.303316734520012 
1773	 0.303192890702961 
1774	 0.303074513495308 
1775	 0.30292912219472 
1776	 0.302784484562776 
1777	 0.302662272294064 
1778	 0.302500893888888 
1779	 0.302329391085445 
1780	 0.302187992460625 
1781	 0.302049250905757 
1782	 0.301953528148904 
1783	 0.301903169663939 
1784	 0.301821990557573 
1785	 0.301725176210349 
1786	 0.301640009498952 
1787	 0.301571760942936 
1788	 0.301472749429641 
1789	 0.301375205801867 
1790	 0.301259044337942 
1791	 0.301086598642247 
1792	 0.300967657195733 
1793	 0.300860245174293 
1794	 0.300762225038119 
1795	 0.300702365041435 
1796	 0.300623880136123 
1797	 0.300543252356245 
1798	 0.300464225087069 
1799	 0.300380827624679 
1800	 0.300291991157041 
1801	 0.300696925561943 
1802	 0.300859094300458 
1803	 0.301045941634042 
1804	 0.301247321003477 
1805	 0.301492063415651 
1806	 0.301735426149402 
1807	 0.30195221972853 
1808	 0.302106593695179 
1809	 0.302223470021139 
1810	 0.302300230977084 
1811	 0.302314983862972 
1812	 0.302323808025281 
1813	 0.302333225946909 
1814	 0.302302492976636 
1815	 0.30226169880998 
1816	 0.302233867686693 
1817	 0.302194871046129 
1818	 0.30214121817101 
1819	 0.30209315642549 
1820	 0.302054397327084 
1821	 0.301988224246803 
1822	 0.301928190024161 
1823	 0.301866726260085 
1824	 0.301805176039969 
1825	 0.301730668702567 
1826	 0.30162666723287 
1827	 0.301520097411907 
1828	 0.301368007903645 
1829	 0.301174420640608 
1830	 0.300971672821193 
1831	 0.300738737683329 
1832	 0.300486251348951 
1833	 0.300248992944674 
1834	 0.300002751526633 
1835	 0.299767644803344 
1836	 0.299543894165669 
1837	 0.299312242483595 
1838	 0.299109265751202 
1839	 0.298883553975611 
1840	 0.29865984457377 
1841	 0.298405820161568 
1842	 0.298158352954158 
1843	 0.297899777488139 
1844	 0.297648510013197 
1845	 0.297423206502563 
1846	 0.297212745092379 
1847	 0.297032925387661 
1848	 0.296891952177917 
1849	 0.296762433457449 
1850	 0.29662993617483 
1851	 0.296512259561945 
1852	 0.296381515010523 
1853	 0.296258272768548 
1854	 0.296127477724294 
1855	 0.295952301231858 
1856	 0.295764852525354 
1857	 0.295522948803127 
1858	 0.295241659618105 
1859	 0.294977621639123 
1860	 0.294673290530513 
1861	 0.294341565158877 
1862	 0.293986049723199 
1863	 0.293605772045476 
1864	 0.293151659091602 
1865	 0.29267266057916 
1866	 0.292161201567921 
1867	 0.291610286829993 
1868	 0.291035798562281 
1869	 0.290403043143189 
1870	 0.289738881822896 
1871	 0.289016078561056 
1872	 0.28824375399213 
1873	 0.287421528873382 
1874	 0.286555918368274 
1875	 0.285590000032822 
1876	 0.284561022291544 
1877	 0.283451964580195 
1878	 0.282211014142455 
1879	 0.280896032989378 
1880	 0.279495278695798 
1881	 0.277991087290852 
1882	 0.276399866034022 
1883	 0.274743066798398 
1884	 0.272952200420969 
1885	 0.271063139818331 
1886	 0.269089994453226 
1887	 0.266989619417904 
1888	 0.264799175931001 
1889	 0.262510528646359 
1890	 0.260146645066499 
1891	 0.257759547747751 
1892	 0.255294823897938 
1893	 0.252821131055657 
1894	 0.250315703086559 
1895	 0.247788317477521 
1896	 0.24519311706697 
1897	 0.242625601625842 
1898	 0.240065565978362 
1899	 0.237497106114815 
1900	 0.23501269720093 
1901	 0.232579257635003 
1902	 0.230236045020983 
1903	 0.227978777569485 
1904	 0.225802953357134 
1905	 0.22369205726681 
1906	 0.22168632830846 
1907	 0.219790600293483 
1908	 0.21799362342049 
1909	 0.216320834618566 
1910	 0.214754724739561 
1911	 0.213282483884884 
1912	 0.211886735848492 
1913	 0.210562314761267 
1914	 0.209312489983302 
1915	 0.208144277977544 
1916	 0.207054198190498 
1917	 0.206034219001444 
1918	 0.205101814508725 
1919	 0.2042276208506 
1920	 0.203418658245142 
1921	 0.202675749802997 
1922	 0.20198146144571 
1923	 0.201347479771854 
1924	 0.200774215583215 
1925	 0.2002617935291 
1926	 0.199805731472264 
1927	 0.199405360962017 
1928	 0.199074111954699 
1929	 0.198789855234801 
1930	 0.198535622268233 
1931	 0.198335647593547 
1932	 0.198166896517252 
1933	 0.198039600424931 
1934	 0.197957341521568 
1935	 0.197900481462305 
1936	 0.197870903244735 
1937	 0.197881545408744 
1938	 0.197928727055257 
1939	 0.198009182169452 
1940	 0.198129341177727 
1941	 0.198282397074859 
1942	 0.198452396639727 
1943	 0.198647981628658 
1944	 0.198854937059248 
1945	 0.199099205501441 
1946	 0.199362584565377 
1947	 0.199654481882542 
1948	 0.199956187732017 
1949	 0.200293595633111 
1950	 0.200614659756711 
1951	 0.200926418568023 
1952	 0.201277567170715 
1953	 0.201625616535768 
1954	 0.201980955971702 
1955	 0.202383110151495 
1956	 0.202785797771781 
1957	 0.203200803364817 
1958	 0.203633303300448 
1959	 0.204073138930412 
1960	 0.204521525099799 
1961	 0.204978759593092 
1962	 0.205442944807145 
1963	 0.205922897408636 
1964	 0.206413646341934 
1965	 0.206921126527691 
1966	 0.20743928919992 
1967	 0.207962959222274 
1968	 0.208474106257182 
1969	 0.208972365181108 
1970	 0.209488110373797 
1971	 0.21001828015245 
1972	 0.210527645813212 
1973	 0.211026168209181 
1974	 0.211549009885794 
1975	 0.212072146218992 
1976	 0.212583350438619 
1977	 0.213153338903032 
1978	 0.213713030140488 
1979	 0.214246043506603 
1980	 0.214783218638748 
1981	 0.215305850045208 
1982	 0.215788260927855 
1983	 0.216320892185637 
1984	 0.216877154127055 
1985	 0.217422117581309 
1986	 0.218002130576526 
1987	 0.218550900365939 
1988	 0.219080712507566 
1989	 0.219596427165355 
1990	 0.22011363774249 
1991	 0.220640792232896 
1992	 0.221169142621359 
1993	 0.221704647343161 
1994	 0.222234421860022 
1995	 0.222767728780506 
1996	 0.223288836277768 
1997	 0.223795249658814 
1998	 0.224316018281023 
1999	 0.224844686230518 
2000	 0.225366720124273 
2001	 0.225889995933539 
2002	 0.226417216077398 
2003	 0.226947121875553 
2004	 0.227453627140744 
2005	 0.227955516033881 
2006	 0.228450126020303 
2007	 0.228950357782883 
2008	 0.229423186817343 
2009	 0.229929988258936 
2010	 0.230469734518452 
2011	 0.230992542347409 
2012	 0.231541288237318 
2013	 0.232054525265055 
2014	 0.232550350974145 
2015	 0.233025298313185 
2016	 0.233487482470715 
2017	 0.233941191797885 
2018	 0.234421562031739 
2019	 0.234920245997491 
2020	 0.235404634439263 
2021	 0.235909818185178 
2022	 0.23638742384109 
2023	 0.236845385506697 
2024	 0.237300324175294 
2025	 0.237749469598289 
2026	 0.238185785134525 
2027	 0.23860048950048 
2028	 0.239023457051965 
2029	 0.239450754554383 
2030	 0.239868907237408 
2031	 0.240299417491606 
2032	 0.240749568031818 
2033	 0.241181949651589 
2034	 0.241620024755198 
2035	 0.24203083121147 
2036	 0.242431650596497 
2037	 0.242816296467222 
2038	 0.243181000563887 
2039	 0.243534826152031 
2040	 0.24388095342028 
2041	 0.244200325876604 
2042	 0.244506084871528 
2043	 0.244814431827536 
2044	 0.245141747068351 
2045	 0.245471648744748 
2046	 0.245813898478294 
2047	 0.246191411611566 
2048	 0.246533107572473 
2049	 0.246880929919324 
2050	 0.247198744862153 
2051	 0.247480291035722 
2052	 0.247767910444483 
2053	 0.248027666279155 
2054	 0.248304622058993 
2055	 0.248583711923852 
2056	 0.248887960860682 
2057	 0.249156476163543 
2058	 0.249415899780904 
2059	 0.24968280937617 
2060	 0.24992702993327 
2061	 0.250188223802402 
2062	 0.250470438416189 
2063	 0.250742769892194 
2064	 0.25102325311404 
2065	 0.251281511944024 
2066	 0.2515251132982 
2067	 0.251772493280319 
2068	 0.252017848293336 
2069	 0.252232035801486 
2070	 0.252470008965606 
2071	 0.252733535931941 
2072	 0.252952654294961 
2073	 0.253147500499004 
2074	 0.253358729909096 
2075	 0.253552319602381 
2076	 0.253755403185731 
2077	 0.253962906264283 
2078	 0.254185118475671 
2079	 0.254420831666167 
2080	 0.254639790642601 
2081	 0.254866043635429 
2082	 0.255091388867586 
2083	 0.255304008154136 
2084	 0.255516126058084 
2085	 0.255718221143759 
2086	 0.255927156937552 
2087	 0.256123654222911 
2088	 0.256292134334624 
2089	 0.256486349582539 
2090	 0.256707051209755 
2091	 0.256893240796148 
2092	 0.25706650155183 
2093	 0.257241141718998 
2094	 0.257391366611601 
2095	 0.257556567395771 
2096	 0.257746281221766 
2097	 0.25791228066747 
2098	 0.258061851515579 
2099	 0.258207311330812 
2100	 0.258379218271256 
2101	 0.258549395157128 
2102	 0.258730938694761 
2103	 0.25894382374255 
2104	 0.259137575518364 
2105	 0.259314720738358 
2106	 0.259509503435713 
2107	 0.25972000900441 
2108	 0.259921708854533 
2109	 0.260126322448809 
2110	 0.260327277647509 
2111	 0.260507869151915 
2112	 0.260713516942305 
2113	 0.26091967003579 
2114	 0.261156686277856 
2115	 0.261385992757559 
2116	 0.261636838894662 
2117	 0.261865634900675 
2118	 0.262089898079617 
2119	 0.262307829761059 
2120	 0.262519605989542 
2121	 0.262730564934323 
2122	 0.262937264660729 
2123	 0.263137801066962 
2124	 0.263356122338987 
2125	 0.263528818374334 
2126	 0.263655207868194 
2127	 0.263806350493351 
2128	 0.263954193339977 
2129	 0.26408235325511 
2130	 0.264212905118134 
2131	 0.264340168066674 
2132	 0.264459454076739 
2133	 0.264556511320325 
2134	 0.264645433267312 
2135	 0.264744869861065 
2136	 0.264814776028415 
2137	 0.264850213645061 
2138	 0.264885526988083 
2139	 0.264924197925448 
2140	 0.264933646669776 
2141	 0.264926953261033 
2142	 0.264894710152623 
2143	 0.264840985446805 
2144	 0.264765328406972 
2145	 0.264648127056687 
2146	 0.264537577166717 
2147	 0.264405746421102 
2148	 0.2642751160365 
2149	 0.264161158568911 
2150	 0.264056292678843 
2151	 0.263949238178452 
2152	 0.263868314507582 
2153	 0.263742339818926 
2154	 0.263600411163672 
2155	 0.26344662593658 
2156	 0.263266995617744 
2157	 0.263082811287373 
2158	 0.262907316198096 
2159	 0.262690844922258 
2160	 0.26244056390452 
2161	 0.262184857989425 
2162	 0.261873010357429 
2163	 0.261601521227032 
2164	 0.261358068491246 
2165	 0.26109738547845 
2166	 0.26083423361396 
2167	 0.26058597809032 
2168	 0.260321650502655 
2169	 0.260029827115753 
2170	 0.259764403931116 
2171	 0.259524963939139 
2172	 0.259254529248213 
2173	 0.258977158594195 
2174	 0.25869114559626 
2175	 0.258372633369789 
2176	 0.258081214290624 
2177	 0.257820133622123 
2178	 0.257521643661447 
2179	 0.257231935520225 
2180	 0.256906173573671 
2181	 0.25651593111875 
2182	 0.256152238576912 
2183	 0.255766800578402 
2184	 0.255412903755451 
2185	 0.255065291407707 
2186	 0.254732697542701 
2187	 0.254408720300673 
2188	 0.254093500717179 
2189	 0.253791931202438 
2190	 0.253497532002715 
2191	 0.253229879439495 
2192	 0.252986240090914 
2193	 0.252744012285141 
2194	 0.25253045083528 
2195	 0.252302945283663 
2196	 0.252067483684942 
2197	 0.251843744497391 
2198	 0.2516157344893 
2199	 0.251407154064996 
2200	 0.251218552359574 
2201	 0.251029832122508 
2202	 0.250844405135952 
2203	 0.250673985505666 
2204	 0.250519294161562 
2205	 0.250351688597877 
2206	 0.250262656500306 
2207	 0.25022175114745 
2208	 0.250189876458566 
2209	 0.25020438646618 
2210	 0.250227134596582 
2211	 0.250250953281645 
2212	 0.250320946091382 
2213	 0.250439585828759 
2214	 0.250562754290214 
2215	 0.250745164016522 
2216	 0.250872883848635 
2217	 0.251012041485421 
2218	 0.251101898432362 
2219	 0.251134961568713 
2220	 0.251173613515344 
2221	 0.251203188035532 
2222	 0.251199172048628 
2223	 0.251176306559527 
2224	 0.251163328430181 
2225	 0.251136946560976 
2226	 0.251091587209634 
2227	 0.251042894846111 
2228	 0.251004269277836 
2229	 0.250920421927475 
2230	 0.250816210963108 
2231	 0.250683447780338 
2232	 0.250511404201903 
2233	 0.250345882540585 
2234	 0.250159633496567 
2235	 0.24996575037932 
2236	 0.249774259197402 
2237	 0.249556511795306 
2238	 0.249317522869616 
2239	 0.2490616208186 
2240	 0.248751972001537 
2241	 0.248495275270801 
2242	 0.248283043382842 
2243	 0.248018241481623 
2244	 0.24777179846811 
2245	 0.247488185883827 
2246	 0.247138654131286 
2247	 0.246792286460266 
2248	 0.246451259821116 
2249	 0.246119772859239 
2250	 0.245766627674108 
2251	 0.245382661633506 
2252	 0.245044468189268 
2253	 0.244714471055391 
2254	 0.244388095819662 
2255	 0.244074841376 
2256	 0.243791034535454 
2257	 0.243502211132885 
2258	 0.243262415922475 
2259	 0.243067778484255 
2260	 0.242896104634638 
2261	 0.242748147624692 
2262	 0.242630251334736 
2263	 0.242561443430956 
2264	 0.242491459929672 
2265	 0.242434249273657 
2266	 0.242399918088089 
2267	 0.242365045577377 
2268	 0.242381787568388 
2269	 0.242436890052176 
2270	 0.242527568446085 
2271	 0.242652794777577 
2272	 0.242774020553739 
2273	 0.242869221330914 
2274	 0.242973777939112 
2275	 0.243094232284302 
2276	 0.243206894945501 
2277	 0.243355808930941 
2278	 0.243544224033163 
2279	 0.243713702755051 
2280	 0.243893074589568 
2281	 0.244068086185222 
2282	 0.24424424409563 
2283	 0.244409770456858 
2284	 0.244585691212336 
2285	 0.244736247754176 
2286	 0.244859428805047 
2287	 0.2449907210591 
2288	 0.245117405828343 
2289	 0.24523723522329 
2290	 0.245369551708153 
2291	 0.245468450869669 
2292	 0.245535019504955 
2293	 0.245601558187601 
2294	 0.245658124640966 
2295	 0.245698306450179 
2296	 0.245721004701504 
2297	 0.245744441942644 
2298	 0.245773616629803 
2299	 0.245813863745145 
2300	 0.245878546769052 
2301	 0.245971555396711 
2302	 0.246011655711415 
2303	 0.245991878056687 
2304	 0.245993511152877 
2305	 0.245962549001635 
2306	 0.245945904970386 
2307	 0.245964160199039 
2308	 0.245917770757433 
2309	 0.245836202285673 
2310	 0.245753594733241 
2311	 0.245598920385283 
2312	 0.245526971762042 
2313	 0.245507574890718 
2314	 0.245449774365111 
2315	 0.245447010081582 
2316	 0.245354881002802 
2317	 0.24516557841037 
2318	 0.245037878953045 
2319	 0.244886840384684 
2320	 0.24477534809339 
2321	 0.244735250500293 
2322	 0.244637540479584 
2323	 0.244517735721637 
2324	 0.244401759588102 
2325	 0.244255412965763 
2326	 0.244131371504267 
2327	 0.244019511221498 
2328	 0.243917812882305 
2329	 0.243794669760396 
2330	 0.24367070125061 
2331	 0.243565434884929 
2332	 0.243379736157729 
2333	 0.24322399829139 
2334	 0.243098821986552 
2335	 0.242927614609675 
2336	 0.242814519563079 
2337	 0.242681836949123 
2338	 0.242506099387684 
2339	 0.24231950425044 
2340	 0.242095633667745 
2341	 0.241872924071524 
2342	 0.241643346926108 
2343	 0.241454566672158 
2344	 0.241270906578315 
2345	 0.241033468238276 
2346	 0.240770551681863 
2347	 0.240520802772885 
2348	 0.240241747020565 
2349	 0.239942232452762 
2350	 0.239656013518567 
2351	 0.23933458371257 
2352	 0.238944584644326 
2353	 0.238594769836502 
2354	 0.238265924181393 
2355	 0.237929510641175 
2356	 0.237592901484839 
2357	 0.237235797490268 
2358	 0.236852038454828 
2359	 0.236496347289522 
2360	 0.23612770444081 
2361	 0.235814553432874 
2362	 0.235576400506368 
2363	 0.235291061940166 
2364	 0.234997170878479 
2365	 0.234695033666541 
2366	 0.234406625407722 
2367	 0.234066432386012 
2368	 0.233700312063739 
2369	 0.233324932977196 
2370	 0.232909008788465 
2371	 0.232456526819783 
2372	 0.232075883439515 
2373	 0.231690231714467 
2374	 0.231329429094537 
2375	 0.230976497016105 
2376	 0.23051634380621 
2377	 0.230018280523232 
2378	 0.229536736160595 
2379	 0.229010895454202 
2380	 0.228508039960515 
2381	 0.228142718696576 
2382	 0.227755551073119 
2383	 0.227248044511032 
2384	 0.226775399685401 
2385	 0.226326955815456 
2386	 0.225853431506666 
2387	 0.225427460108693 
2388	 0.225013627723622 
2389	 0.224545144667316 
2390	 0.224012165391293 
2391	 0.223522971710095 
2392	 0.223059536013268 
2393	 0.222504308536341 
2394	 0.221999064426736 
2395	 0.221587909738392 
2396	 0.221155181439824 
2397	 0.220755626179724 
2398	 0.220386975814042 
2399	 0.219922793141997 
2400	 0.219410318995665 
2401	 0.218971436747439 
2402	 0.218528240888739 
2403	 0.218075115168712 
2404	 0.217733337779013 
2405	 0.217303764526764 
2406	 0.216744189631537 
2407	 0.216210642486216 
2408	 0.215603052779849 
2409	 0.214989390206241 
2410	 0.214519760328369 
2411	 0.214069797651932 
2412	 0.213556644992723 
2413	 0.213122493865608 
2414	 0.21269018929967 
2415	 0.212206606132354 
2416	 0.211734041320562 
2417	 0.211276356700824 
2418	 0.210790661320854 
2419	 0.210259316785125 
2420	 0.209802347743534 
2421	 0.20940907122501 
2422	 0.208963998448623 
2423	 0.208574557642068 
2424	 0.208056914274008 
2425	 0.207381688677117 
2426	 0.206879068623801 
2427	 0.206388851041464 
2428	 0.205898283279411 
2429	 0.205549393018228 
2430	 0.205050146752184 
2431	 0.204426033735304 
2432	 0.203895025767396 
2433	 0.203357871882599 
2434	 0.202890598720728 
2435	 0.202465002166016 
2436	 0.202036103553802 
2437	 0.201716358571957 
2438	 0.201211123941003 
2439	 0.200589097893664 
2440	 0.200045019308295 
2441	 0.199397811864423 
2442	 0.198878092063642 
2443	 0.198501235539723 
2444	 0.198097894783572 
2445	 0.197738707720724 
2446	 0.197302657721722 
2447	 0.196824847155589 
2448	 0.196354734723682 
2449	 0.195813604161973 
2450	 0.195334991099129 
2451	 0.194925736631289 
2452	 0.194525733674205 
2453	 0.194193203301922 
2454	 0.193740406410635 
2455	 0.19321455301439 
2456	 0.192734002835213 
2457	 0.192166262723331 
2458	 0.191695993103089 
2459	 0.191353742654338 
2460	 0.190914873881094 
2461	 0.190437542223187 
2462	 0.189995539062193 
2463	 0.189507475476622 
2464	 0.18909848983257 
2465	 0.188814245730344 
2466	 0.188407254819456 
2467	 0.187911630232812 
2468	 0.187557483813679 
2469	 0.18718765940122 
2470	 0.186969109832406 
2471	 0.18687800191911 
2472	 0.186711382222297 
2473	 0.186349836850468 
2474	 0.185984907360107 
2475	 0.185642406964913 
2476	 0.185235233648403 
2477	 0.184690358608715 
2478	 0.184243496122785 
2479	 0.183750145986337 
2480	 0.183106423097311 
2481	 0.182836048122017 
2482	 0.18267743212799 
2483	 0.182507530544955 
2484	 0.182452143437605 
2485	 0.182143289724368 
2486	 0.181712589461489 
2487	 0.181212629275615 
2488	 0.180770397837658 
2489	 0.180555508247256 
2490	 0.180217887750819 
2491	 0.179806924231896 
2492	 0.179359978735688 
2493	 0.178739244247071 
2494	 0.17820223885109 
2495	 0.177924292209879 
2496	 0.177705876086221 
2497	 0.177444424293819 
2498	 0.177248736286218 
2499	 0.177056923603479 
2500	 0.176791174575734 
