Wavelength	mm2100000.asd
350	 5.11174134717825E-02 
351	 5.07778495115922E-02 
352	 4.93217768869386E-02 
353	 4.69260046226618E-02 
354	 5.16163808820099E-02 
355	 5.73609224477398E-02 
356	 5.53234314521316E-02 
357	 4.40087191350211E-02 
358	 4.92428454474645E-02 
359	 5.33385814482181E-02 
360	 5.26303236693588E-02 
361	 5.32549232802789E-02 
362	 5.58730461768422E-02 
363	 5.53119961257345E-02 
364	 0.050853751275431 
365	 4.92646151311085E-02 
366	 5.14335637219092E-02 
367	 5.29736480694523E-02 
368	 5.10282952471481E-02 
369	 5.55043367919022E-02 
370	 5.49395960900755E-02 
371	 5.07896319726805E-02 
372	 5.26517491289716E-02 
373	 0.051544564868698 
374	 5.12321318003512E-02 
375	 5.33494699391419E-02 
376	 0.053128031242059 
377	 5.28437989474799E-02 
378	 5.39689365041144E-02 
379	 5.63506886610144E-02 
380	 5.40898693738221E-02 
381	 5.15603839064025E-02 
382	 5.25257200529546E-02 
383	 5.87872086771939E-02 
384	 5.87278349666606E-02 
385	 5.61293308565105E-02 
386	 5.56181375817139E-02 
387	 5.91696849030539E-02 
388	 6.03615756921642E-02 
389	 0.059584805779344 
390	 5.94421088812203E-02 
391	 6.12888977531525E-02 
392	 6.25712242269617E-02 
393	 6.32024044449813E-02 
394	 6.51065564535969E-02 
395	 6.54918715960248E-02 
396	 6.58912596550996E-02 
397	 0.067360225000575 
398	 6.84116388162144E-02 
399	 7.01643869614224E-02 
400	 7.15110940515607E-02 
401	 7.14261873624115E-02 
402	 7.42307077001383E-02 
403	 7.45774917425087E-02 
404	 7.26342959701631E-02 
405	 7.43459186265354E-02 
406	 7.50968012590077E-02 
407	 7.61172491269124E-02 
408	 7.80393100690473E-02 
409	 7.69632281479009E-02 
410	 7.58566940718593E-02 
411	 7.61107442472769E-02 
412	 7.79294409156835E-02 
413	 7.92686652097997E-02 
414	 8.00115429856445E-02 
415	 8.02160589096322E-02 
416	 7.98540985516041E-02 
417	 8.01001604768238E-02 
418	 8.06524478777968E-02 
419	 8.08841547778489E-02 
420	 8.04637563553209E-02 
421	 0.07982997089143 
422	 0.07958942890056 
423	 8.02243632728392E-02 
424	 7.98690324133544E-02 
425	 7.90085527012055E-02 
426	 0.078377531623588 
427	 7.86934595571542E-02 
428	 7.81247219597551E-02 
429	 7.70097284749282E-02 
430	 7.63072808850632E-02 
431	 7.61391812267234E-02 
432	 7.60622158690124E-02 
433	 7.58226713285519E-02 
434	 7.54058749650566E-02 
435	 7.55735648314133E-02 
436	 7.58066779230931E-02 
437	 0.07572074876733 
438	 7.59799516197701E-02 
439	 7.60973692745519E-02 
440	 7.62767473018446E-02 
441	 7.69528057980402E-02 
442	 7.74688128995992E-02 
443	 7.80148575642324E-02 
444	 7.86482722558268E-02 
445	 7.90857756823554E-02 
446	 7.97487893666006E-02 
447	 8.04214148022616E-02 
448	 8.08449365459679E-02 
449	 8.13919511525425E-02 
450	 8.19906049626297E-02 
451	 0.082570080626315 
452	 8.30694691796228E-02 
453	 8.33101721836923E-02 
454	 8.35093668234019E-02 
455	 0.083899347018626 
456	 8.46646831115253E-02 
457	 8.48556887712245E-02 
458	 8.47928586673508E-02 
459	 8.52505256872985E-02 
460	 0.085541319354966 
461	 0.085686203131732 
462	 8.58246977488576E-02 
463	 8.61703582506323E-02 
464	 0.086487019715555 
465	 8.66302031995516E-02 
466	 8.66032460421451E-02 
467	 8.68643214508774E-02 
468	 0.087067463824461 
469	 8.71334897892707E-02 
470	 8.72196001955065E-02 
471	 8.74385300424375E-02 
472	 8.75380014414517E-02 
473	 8.74339393774905E-02 
474	 8.75829289127115E-02 
475	 8.77634997966737E-02 
476	 8.77771045399099E-02 
477	 8.75412705863216E-02 
478	 8.77371229198313E-02 
479	 8.80631630342017E-02 
480	 8.82685396031383E-02 
481	 8.83000273011363E-02 
482	 8.83119619414651E-02 
483	 8.83911431578892E-02 
484	 0.088557693547482 
485	 8.86806510210517E-02 
486	 8.87268873359355E-02 
487	 8.87074211233089E-02 
488	 8.86696586292654E-02 
489	 8.86176200574289E-02 
490	 8.87536926907926E-02 
491	 8.90915751892481E-02 
492	 8.91423973237222E-02 
493	 8.89278072039383E-02 
494	 8.88143305638368E-02 
495	 8.92040662462053E-02 
496	 8.93603075797157E-02 
497	 8.92668322923511E-02 
498	 0.089104335796193 
499	 8.92323772769913E-02 
500	 8.92110366458906E-02 
501	 8.92830319852691E-02 
502	 8.96621703728569E-02 
503	 8.95209726246042E-02 
504	 0.089511187353027 
505	 8.97015507166166E-02 
506	 8.96127885006971E-02 
507	 8.96737702432186E-02 
508	 8.98714916619234E-02 
509	 9.00474012334821E-02 
510	 8.98593130098563E-02 
511	 8.98172823807029E-02 
512	 8.99211325941982E-02 
513	 8.99202260909854E-02 
514	 8.99997828947208E-02 
515	 9.00895045868648E-02 
516	 9.01753321745934E-02 
517	 9.04025090410452E-02 
518	 9.04722421365775E-02 
519	 9.04065913589103E-02 
520	 9.03554981524988E-02 
521	 9.05027711714348E-02 
522	 0.090633465949271 
523	 0.090645747011491 
524	 9.05836472059146E-02 
525	 9.06655891625908E-02 
526	 9.07483974483278E-02 
527	 9.07036675196909E-02 
528	 9.07076620939285E-02 
529	 9.08525160595899E-02 
530	 9.10382940147447E-02 
531	 9.10639822203699E-02 
532	 9.11604862076564E-02 
533	 9.12412626048607E-02 
534	 9.12648665635043E-02 
535	 9.13801597323327E-02 
536	 9.14902237960376E-02 
537	 0.091589392445903 
538	 9.17006819570197E-02 
539	 9.17935173158265E-02 
540	 9.19108927382479E-02 
541	 9.20451568987177E-02 
542	 9.21132699252392E-02 
543	 9.22297376988211E-02 
544	 9.23997678967026E-02 
545	 9.25794368050106E-02 
546	 9.26601320954754E-02 
547	 9.27671714266813E-02 
548	 0.092935415627343 
549	 9.31169535093908E-02 
550	 9.33073754913071E-02 
551	 9.35313549834427E-02 
552	 9.37845573233561E-02 
553	 9.39710052484508E-02 
554	 9.41406549082331E-02 
555	 9.43648610935186E-02 
556	 9.47068374646666E-02 
557	 9.50412541675162E-02 
558	 9.53584119283967E-02 
559	 9.56877972766988E-02 
560	 9.61096981393907E-02 
561	 9.64466878891393E-02 
562	 9.68101083185502E-02 
563	 9.73502907120079E-02 
564	 9.78472532646116E-02 
565	 9.83149276547185E-02 
566	 9.87628955508373E-02 
567	 9.91816215006031E-02 
568	 9.96596264725237E-02 
569	 0.100234960867607 
570	 0.100909974227643 
571	 0.101642412149158 
572	 0.102318381897375 
573	 0.102991935341396 
574	 0.103813308257462 
575	 0.104498799609797 
576	 0.105228575938124 
577	 0.106116796699781 
578	 0.106979313990233 
579	 0.107845842176317 
580	 0.108676615909667 
581	 0.109430779743786 
582	 0.110209343693932 
583	 0.11105717454241 
584	 0.11198582720332 
585	 0.112974360626548 
586	 0.1140471152232 
587	 0.115197098333028 
588	 0.116391888559246 
589	 0.117549721938865 
590	 0.118689735002406 
591	 0.119835190108044 
592	 0.121007002870123 
593	 0.122075672279479 
594	 0.123072359548662 
595	 0.124034935238336 
596	 0.124916186608437 
597	 0.125825908114254 
598	 0.126780729095039 
599	 0.127749319052607 
600	 0.128752664271556 
601	 0.129731369159165 
602	 0.130671554427562 
603	 0.131668220388201 
604	 0.13256213693869 
605	 0.133429811203334 
606	 0.134385844516673 
607	 0.135261089129673 
608	 0.136061539199974 
609	 0.136841815649134 
610	 0.137696614186878 
611	 0.138393145839308 
612	 0.138977089890401 
613	 0.139531897432816 
614	 0.140016283906434 
615	 0.14048919188133 
616	 0.140962204761474 
617	 0.141413049261334 
618	 0.141886323394701 
619	 0.142336354465578 
620	 0.142721654659366 
621	 0.143021205799348 
622	 0.143375394270203 
623	 0.143741893565633 
624	 0.144025104987032 
625	 0.144331119555785 
626	 0.144645764412377 
627	 0.144943909165653 
628	 0.145197460771362 
629	 0.145495238838537 
630	 0.145808347751979 
631	 0.146077773510504 
632	 0.146254613943917 
633	 0.146477151116589 
634	 0.146759621270015 
635	 0.147011240652875 
636	 0.147218791706506 
637	 0.147458458485478 
638	 0.14775854586988 
639	 0.147991518209084 
640	 0.148210844117794 
641	 0.148472763085427 
642	 0.148805422861378 
643	 0.14899679587993 
644	 0.149217187894925 
645	 0.149535310376623 
646	 0.149820934908694 
647	 0.15007631414742 
648	 0.150350278003992 
649	 0.150677354728044 
650	 0.150954430566323 
651	 0.151257503155192 
652	 0.151593164538652 
653	 0.151906679936859 
654	 0.152227946809707 
655	 0.15253637046247 
656	 0.152845397855772 
657	 0.15328725287905 
658	 0.153651834030159 
659	 0.15398561119901 
660	 0.154429922664089 
661	 0.154823819097076 
662	 0.155227067677325 
663	 0.155659822291335 
664	 0.156053350115486 
665	 0.15648850214495 
666	 0.156915432174979 
667	 0.157297138548329 
668	 0.157807936430666 
669	 0.158336252521985 
670	 0.158846081378731 
671	 0.15936665150166 
672	 0.159826347257692 
673	 0.160310348434929 
674	 0.160876271232532 
675	 0.161458680395741 
676	 0.162033621695979 
677	 0.162608757359999 
678	 0.163199787372832 
679	 0.163739356920532 
680	 0.16434166427513 
681	 0.165019359149747 
682	 0.165635285866955 
683	 0.166278582217307 
684	 0.16694750855413 
685	 0.167622254807981 
686	 0.168304892673568 
687	 0.169007549064564 
688	 0.16970645397994 
689	 0.170362507622511 
690	 0.171082961521476 
691	 0.171834728916645 
692	 0.172587736964618 
693	 0.173367092559196 
694	 0.174114365609911 
695	 0.174874193012263 
696	 0.175693197192434 
697	 0.176394238664446 
698	 0.177153968581843 
699	 0.178005250218773 
700	 0.178810754606879 
701	 0.179617406768135 
702	 0.180427588811209 
703	 0.18123382176115 
704	 0.182018844785793 
705	 0.182824818593279 
706	 0.183647374086063 
707	 0.184458071272689 
708	 0.185260992816194 
709	 0.18609819720653 
710	 0.186962555138296 
711	 0.187774613028766 
712	 0.188553381628895 
713	 0.18929897846897 
714	 0.190037190383768 
715	 0.190910471189171 
716	 0.19168588676112 
717	 0.192355772581601 
718	 0.193079313558044 
719	 0.193834014415942 
720	 0.19456683780468 
721	 0.195240137867078 
722	 0.195853511762312 
723	 0.196520949932189 
724	 0.197160981645186 
725	 0.197677763663142 
726	 0.19827151597879 
727	 0.198849543245957 
728	 0.199376218329666 
729	 0.199880413484119 
730	 0.200326614779524 
731	 0.200734311212268 
732	 0.201126312866311 
733	 0.20151231626237 
734	 0.20186445950412 
735	 0.202139843433983 
736	 0.202324025612599 
737	 0.202604651234047 
738	 0.202835285238623 
739	 0.202967898191273 
740	 0.203088687837399 
741	 0.203210115208827 
742	 0.203278781288966 
743	 0.203266904082598 
744	 0.20326167495446 
745	 0.203187389125811 
746	 0.203077508447012 
747	 0.202997385713136 
748	 0.202846766029108 
749	 0.202640884049912 
750	 0.202433068262347 
751	 0.20230425163125 
752	 0.202016493459765 
753	 0.201638163768304 
754	 0.201281844694658 
755	 0.200963154848531 
756	 0.200628789290671 
757	 0.200239357035872 
758	 0.199780691640894 
759	 0.199348669761258 
760	 0.19887504458208 
761	 0.198352092009318 
762	 0.197865136767504 
763	 0.197355168003711 
764	 0.196809284088852 
765	 0.19623359091077 
766	 0.195647694646721 
767	 0.195095733097339 
768	 0.194556458472265 
769	 0.193976613853627 
770	 0.193352451509524 
771	 0.192712577569628 
772	 0.192060690433209 
773	 0.191368629490277 
774	 0.190711964846869 
775	 0.190091450682101 
776	 0.189471450816448 
777	 0.188761677409573 
778	 0.188104734325554 
779	 0.187486217315443 
780	 0.186826939604549 
781	 0.186150807485078 
782	 0.1854739927127 
783	 0.184816853310807 
784	 0.184200561373152 
785	 0.183514604896886 
786	 0.182845049901035 
787	 0.182237613457053 
788	 0.181532852702484 
789	 0.180964553505801 
790	 0.180407058581349 
791	 0.179669951652361 
792	 0.178980065287103 
793	 0.178363350503718 
794	 0.177783208615436 
795	 0.177160435611648 
796	 0.176487427210642 
797	 0.175887705385614 
798	 0.175386459449438 
799	 0.17479581199367 
800	 0.174208889036811 
801	 0.173641115892848 
802	 0.1730781709181 
803	 0.172476310447082 
804	 0.171893504521132 
805	 0.171357515197702 
806	 0.170865449549839 
807	 0.170355628012672 
808	 0.169842726182075 
809	 0.169313366810544 
810	 0.168709203357816 
811	 0.168211633527897 
812	 0.16774157431263 
813	 0.167228365530968 
814	 0.166797556890442 
815	 0.166379297919126 
816	 0.165927903317961 
817	 0.165433716476556 
818	 0.165012885021359 
819	 0.164617819592911 
820	 0.164209704773631 
821	 0.163774112291635 
822	 0.163383707072851 
823	 0.162971137776566 
824	 0.162542800967683 
825	 0.162256976227129 
826	 0.161963219629698 
827	 0.161613769232641 
828	 0.161217969858271 
829	 0.160862269400127 
830	 0.160503654918977 
831	 0.160157931982587 
832	 0.159861720288199 
833	 0.159606739694111 
834	 0.15932032349649 
835	 0.159006110985223 
836	 0.158740589492333 
837	 0.158519743280118 
838	 0.158278143872826 
839	 0.157993283379832 
840	 0.157732016735642 
841	 0.157483108175307 
842	 0.157261261756628 
843	 0.157073512324722 
844	 0.15689269368607 
845	 0.156706251888497 
846	 0.156503144227142 
847	 0.156294019895779 
848	 0.156191009741875 
849	 0.156069668443209 
850	 0.155898908503334 
851	 0.155737879794249 
852	 0.155558418231033 
853	 0.155411130947048 
854	 0.155317900534588 
855	 0.155244949026105 
856	 0.155189924083987 
857	 0.155101053555531 
858	 0.154972193895722 
859	 0.154938456658391 
860	 0.154889121476951 
861	 0.15482958845196 
862	 0.154787943555717 
863	 0.154691069094115 
864	 0.154697844726383 
865	 0.154742303925007 
866	 0.154659047855706 
867	 0.154671444215563 
868	 0.154658124061286 
869	 0.154622737093414 
870	 0.154708532738223 
871	 0.154760758639949 
872	 0.154780035855091 
873	 0.154809260923381 
874	 0.154912593725066 
875	 0.155027584895815 
876	 0.155077227746806 
877	 0.155048078230584 
878	 0.155083275273111 
879	 0.155222324009762 
880	 0.155370070460438 
881	 0.155433720426137 
882	 0.155553798584904 
883	 0.155736394827953 
884	 0.155927742056561 
885	 0.156066078139413 
886	 0.156265512813865 
887	 0.156409121352741 
888	 0.156517756312121 
889	 0.156722520745159 
890	 0.156893768493982 
891	 0.157085585485139 
892	 0.157324680427256 
893	 0.157574882347086 
894	 0.157837314926159 
895	 0.158081284599412 
896	 0.158299844193294 
897	 0.15853487972978 
898	 0.158853039100168 
899	 0.159145728667145 
900	 0.159342104035607 
901	 0.159588435408026 
902	 0.159937443083074 
903	 0.160301064016642 
904	 0.160587880618818 
905	 0.16090668150199 
906	 0.161256643926772 
907	 0.16165280682727 
908	 0.162095788702445 
909	 0.162504238678328 
910	 0.162834642125262 
911	 0.163141019048905 
912	 0.16352726648543 
913	 0.163975795359041 
914	 0.164432625962288 
915	 0.164846389067986 
916	 0.165199178598275 
917	 0.165677336023907 
918	 0.166221861498862 
919	 0.166752489313535 
920	 0.167213849556329 
921	 0.167663030449008 
922	 0.168162723758282 
923	 0.168727868520633 
924	 0.169305514898064 
925	 0.169865833147185 
926	 0.170427809465949 
927	 0.171004200631693 
928	 0.171572734324301 
929	 0.172112953999642 
930	 0.172665717569676 
931	 0.17327043285497 
932	 0.17392989844575 
933	 0.174560873718717 
934	 0.175190296262011 
935	 0.175863052264264 
936	 0.176576334500907 
937	 0.177219671880259 
938	 0.177860894338097 
939	 0.178591909557965 
940	 0.179358359302111 
941	 0.180117800909255 
942	 0.180935177662403 
943	 0.181831870357767 
944	 0.182482605037047 
945	 0.183203150484527 
946	 0.184004621285308 
947	 0.184768878647806 
948	 0.185524692412678 
949	 0.186313319837167 
950	 0.187148663704903 
951	 0.188015868459869 
952	 0.188847977131872 
953	 0.189709694855602 
954	 0.190638162003819 
955	 0.191628258263535 
956	 0.192592836637064 
957	 0.193472555838824 
958	 0.194348457254153 
959	 0.195333172268498 
960	 0.196211199112704 
961	 0.197139512725656 
962	 0.198150433317758 
963	 0.199159386804754 
964	 0.200042085002734 
965	 0.200914781509629 
966	 0.201922158209934 
967	 0.20312321389626 
968	 0.204100858177683 
969	 0.205067214569822 
970	 0.206104940291218 
971	 0.207168794442964 
972	 0.208252297652947 
973	 0.209352851144922 
974	 0.21047201239213 
975	 0.211607311220775 
976	 0.212727887372946 
977	 0.213848021421277 
978	 0.214929393813933 
979	 0.215938091117932 
980	 0.217069002498821 
981	 0.218127501868075 
982	 0.219164979444876 
983	 0.220341222371481 
984	 0.221447725802746 
985	 0.222531624297312 
986	 0.223645777636319 
987	 0.224820283791588 
988	 0.226022423360962 
989	 0.227130711670512 
990	 0.228148979982295 
991	 0.229185391509437 
992	 0.230441651571798 
993	 0.231609646875256 
994	 0.232692747292322 
995	 0.233806999882245 
996	 0.23484452523048 
997	 0.235906581610563 
998	 0.236992396138234 
999	 0.238077310632968 
1000	 0.239217393924663 
1001	 0.234175437020982 
1002	 0.235136423799327 
1003	 0.236055854412443 
1004	 0.237032071171223 
1005	 0.23808960263018 
1006	 0.239067503654748 
1007	 0.239997687639248 
1008	 0.241033219236499 
1009	 0.241955060608763 
1010	 0.242839400784363 
1011	 0.243794715206756 
1012	 0.244677122813733 
1013	 0.245597063038986 
1014	 0.246524200758872 
1015	 0.247360198082811 
1016	 0.24818487150045 
1017	 0.249055005191427 
1018	 0.249925169148193 
1019	 0.250814645538086 
1020	 0.251701136296132 
1021	 0.252564820238428 
1022	 0.253343684670635 
1023	 0.254084709817778 
1024	 0.254855757207616 
1025	 0.255609821007788 
1026	 0.256438724750091 
1027	 0.257234762409361 
1028	 0.257999596515597 
1029	 0.258844302699854 
1030	 0.259600688604838 
1031	 0.260317243218911 
1032	 0.260993880545002 
1033	 0.261694534478442 
1034	 0.26239040389539 
1035	 0.263047942603706 
1036	 0.263728669334401 
1037	 0.264489661707271 
1038	 0.265211803739904 
1039	 0.265930841804556 
1040	 0.266681491115941 
1041	 0.267377138825031 
1042	 0.268036761862894 
1043	 0.268711144103456 
1044	 0.269382087544661 
1045	 0.270067375696869 
1046	 0.270732652722018 
1047	 0.271400760947938 
1048	 0.272092208764233 
1049	 0.27272283360701 
1050	 0.273390090648408 
1051	 0.274076357726168 
1052	 0.274673805662623 
1053	 0.275365966075026 
1054	 0.276055511094459 
1055	 0.276671729508382 
1056	 0.277303766242359 
1057	 0.277938782891748 
1058	 0.278552324750484 
1059	 0.279197938773966 
1060	 0.279875253717235 
1061	 0.280526558149119 
1062	 0.281144001980806 
1063	 0.281747254081698 
1064	 0.282306787205468 
1065	 0.282834530604123 
1066	 0.283445080658276 
1067	 0.284050420688386 
1068	 0.284578428218026 
1069	 0.285125579331231 
1070	 0.285713897425538 
1071	 0.286318157498089 
1072	 0.286877823329076 
1073	 0.28748444561824 
1074	 0.288044261051558 
1075	 0.288558213708563 
1076	 0.289000322803192 
1077	 0.289495066852979 
1078	 0.289966836530071 
1079	 0.290378127821222 
1080	 0.290820995913633 
1081	 0.29127780378145 
1082	 0.29173921139331 
1083	 0.292201850183871 
1084	 0.292685349836943 
1085	 0.293150990249862 
1086	 0.293622501022508 
1087	 0.294059363319909 
1088	 0.294482850635441 
1089	 0.29489600150072 
1090	 0.295280420782715 
1091	 0.295667773785581 
1092	 0.296067816493524 
1093	 0.2964784336711 
1094	 0.296919386660938 
1095	 0.29733515285609 
1096	 0.297762980970779 
1097	 0.298199247192938 
1098	 0.298616165852822 
1099	 0.299027182052489 
1100	 0.299426059964039 
1101	 0.299794330966103 
1102	 0.300185138261837 
1103	 0.300576306679834 
1104	 0.300971096274251 
1105	 0.301360823667943 
1106	 0.301787493387973 
1107	 0.302237603786481 
1108	 0.302630684763737 
1109	 0.303035473939163 
1110	 0.303470428790651 
1111	 0.303883542194981 
1112	 0.304280666909765 
1113	 0.30468482082124 
1114	 0.305096275023311 
1115	 0.305495067543496 
1116	 0.305877674863669 
1117	 0.306272424934345 
1118	 0.306679154282042 
1119	 0.307059791763783 
1120	 0.307451209384338 
1121	 0.307850167098666 
1122	 0.308234941726817 
1123	 0.308647379822349 
1124	 0.309052848878655 
1125	 0.309470387155298 
1126	 0.309861678124362 
1127	 0.310239028732462 
1128	 0.310628604926484 
1129	 0.311008134521674 
1130	 0.311392565515776 
1131	 0.311804525665983 
1132	 0.312177601749266 
1133	 0.312523518863723 
1134	 0.312881248103103 
1135	 0.313225486474271 
1136	 0.313576909243733 
1137	 0.313926996963674 
1138	 0.31425485192698 
1139	 0.314602756980653 
1140	 0.314955557006854 
1141	 0.315290364364948 
1142	 0.31565158515089 
1143	 0.315961676446276 
1144	 0.316223370663168 
1145	 0.316501422683001 
1146	 0.316754416873932 
1147	 0.317023682737307 
1148	 0.317309970167371 
1149	 0.317585450952875 
1150	 0.317856720888538 
1151	 0.318130891633348 
1152	 0.318398910869462 
1153	 0.318676096232078 
1154	 0.318947276367399 
1155	 0.319219307482633 
1156	 0.319490347047808 
1157	 0.319758324513536 
1158	 0.320026227197419 
1159	 0.320306907316031 
1160	 0.320568538819739 
1161	 0.320817434419529 
1162	 0.321066763956769 
1163	 0.32129439768224 
1164	 0.321542970776811 
1165	 0.321810696194233 
1166	 0.32207057266971 
1167	 0.322314135134212 
1168	 0.322559404161335 
1169	 0.322789717519611 
1170	 0.322996896297963 
1171	 0.323213992725169 
1172	 0.323429216834873 
1173	 0.323647536639047 
1174	 0.323860338114855 
1175	 0.324076447842364 
1176	 0.324298516196694 
1177	 0.324521832896163 
1178	 0.324756136483366 
1179	 0.324973900285007 
1180	 0.325184431846879 
1181	 0.325394900941458 
1182	 0.325588937343371 
1183	 0.325787447610076 
1184	 0.325998212554819 
1185	 0.326224811970296 
1186	 0.326433696921306 
1187	 0.326642393278289 
1188	 0.326847237977821 
1189	 0.327047826419425 
1190	 0.327240089395407 
1191	 0.327429268902434 
1192	 0.327615853107746 
1193	 0.327786180817204 
1194	 0.32796682379658 
1195	 0.328164173366349 
1196	 0.328343286136647 
1197	 0.328516410187146 
1198	 0.328684877384037 
1199	 0.328845937831628 
1200	 0.328984328027312 
1201	 0.329155360705414 
1202	 0.329334429653254 
1203	 0.329518008444699 
1204	 0.329729661278092 
1205	 0.329909186905499 
1206	 0.330074586486695 
1207	 0.33024461196213 
1208	 0.330403694432587 
1209	 0.330565712896025 
1210	 0.330740622962223 
1211	 0.330897271321419 
1212	 0.331032861246688 
1213	 0.331180873492559 
1214	 0.331320116489828 
1215	 0.331469859620181 
1216	 0.331627087735433 
1217	 0.331804380035469 
1218	 0.33195497635942 
1219	 0.332101314630559 
1220	 0.332243848136597 
1221	 0.332367404571124 
1222	 0.33250770531251 
1223	 0.33265413895959 
1224	 0.332801678575658 
1225	 0.332953303125149 
1226	 0.333105611932368 
1227	 0.333280543126454 
1228	 0.33342139518945 
1229	 0.333535857120465 
1230	 0.333664153939688 
1231	 0.333774140537955 
1232	 0.333891319632303 
1233	 0.334015265219295 
1234	 0.334162796490553 
1235	 0.334283827318055 
1236	 0.334389802887016 
1237	 0.334508106721731 
1238	 0.334624851460342 
1239	 0.334743082736268 
1240	 0.334863621356836 
1241	 0.334988612845129 
1242	 0.335112702296387 
1243	 0.335241832170601 
1244	 0.335390895317763 
1245	 0.335519109272322 
1246	 0.335631405089086 
1247	 0.335752850228242 
1248	 0.335874041392534 
1249	 0.335986364014758 
1250	 0.336105982094074 
1251	 0.336231091624661 
1252	 0.3363370638073 
1253	 0.336427414221026 
1254	 0.336526212350552 
1255	 0.336618522517805 
1256	 0.336713790042289 
1257	 0.336818876531196 
1258	 0.336904835554364 
1259	 0.336969722723697 
1260	 0.337057066863617 
1261	 0.33714391321948 
1262	 0.337236083144921 
1263	 0.33735787268468 
1264	 0.337456347332885 
1265	 0.337529670479603 
1266	 0.337619286142619 
1267	 0.337714404403334 
1268	 0.337798488195863 
1269	 0.337895932852495 
1270	 0.338007441540199 
1271	 0.33811644837976 
1272	 0.33822422205627 
1273	 0.338337883835843 
1274	 0.338456947823481 
1275	 0.338577370783699 
1276	 0.338693801246723 
1277	 0.338827882290113 
1278	 0.338974251380375 
1279	 0.339120605414367 
1280	 0.339284278294001 
1281	 0.339435566857913 
1282	 0.33959307544846 
1283	 0.33973379181871 
1284	 0.339861805441856 
1285	 0.339981516244543 
1286	 0.340113891889594 
1287	 0.340229557712226 
1288	 0.340355826399682 
1289	 0.340495007448468 
1290	 0.340623088924683 
1291	 0.340743971943047 
1292	 0.340866202737442 
1293	 0.341004241786245 
1294	 0.34110502596557 
1295	 0.341193444217868 
1296	 0.341261076868429 
1297	 0.341300057001834 
1298	 0.341333954957331 
1299	 0.341354733334712 
1300	 0.341364995580927 
1301	 0.341350638836922 
1302	 0.341341442520845 
1303	 0.341320597998981 
1304	 0.341315241792977 
1305	 0.341308296606688 
1306	 0.341281008496826 
1307	 0.341187215963629 
1308	 0.34107245130887 
1309	 0.340986489208374 
1310	 0.340878572689362 
1311	 0.340780777553893 
1312	 0.340712705986276 
1313	 0.34063252693457 
1314	 0.340531090599316 
1315	 0.340439162809949 
1316	 0.340373260198387 
1317	 0.340282199972357 
1318	 0.340159288050062 
1319	 0.340060974657158 
1320	 0.339976568552584 
1321	 0.339880340449791 
1322	 0.339787907608892 
1323	 0.339695090555254 
1324	 0.339578254448631 
1325	 0.339465409767968 
1326	 0.339359193095925 
1327	 0.339264860316322 
1328	 0.339163878575822 
1329	 0.33905483978923 
1330	 0.338960079404327 
1331	 0.338867941421066 
1332	 0.338768750086589 
1333	 0.338682702891044 
1334	 0.338582129423463 
1335	 0.338462227202312 
1336	 0.338355446822549 
1337	 0.338242307850883 
1338	 0.33815116056476 
1339	 0.338077124871769 
1340	 0.337992658345139 
1341	 0.337914603353159 
1342	 0.337842282706137 
1343	 0.337760174299096 
1344	 0.337692583232575 
1345	 0.337655083101904 
1346	 0.337598706035113 
1347	 0.337537808819598 
1348	 0.337485680189182 
1349	 0.337398756804138 
1350	 0.337306194830373 
1351	 0.33722436773355 
1352	 0.337133339279541 
1353	 0.33705467644248 
1354	 0.337001195213709 
1355	 0.336918935179796 
1356	 0.336826208412826 
1357	 0.336732050539633 
1358	 0.33660136176339 
1359	 0.336517460997963 
1360	 0.336458110043546 
1361	 0.336397436839944 
1362	 0.336383765819059 
1363	 0.336324561051368 
1364	 0.336237625838234 
1365	 0.336157030465605 
1366	 0.33605721458924 
1367	 0.335954428713993 
1368	 0.335899731449621 
1369	 0.335831110607329 
1370	 0.335729996644539 
1371	 0.335620468527738 
1372	 0.335467560175303 
1373	 0.335270933370141 
1374	 0.335077171594986 
1375	 0.334880656926225 
1376	 0.334647907031161 
1377	 0.334408741866221 
1378	 0.3341114820671 
1379	 0.333762999731784 
1380	 0.333406808960802 
1381	 0.333012248478003 
1382	 0.332603082180613 
1383	 0.332206060003239 
1384	 0.331742628841466 
1385	 0.331243702815163 
1386	 0.330701371430343 
1387	 0.330115304444745 
1388	 0.329489366277449 
1389	 0.328832661662945 
1390	 0.328117775456696 
1391	 0.327368585251973 
1392	 0.326559079145526 
1393	 0.325686963784689 
1394	 0.324801640540973 
1395	 0.323842606847579 
1396	 0.322857350220043 
1397	 0.321890792624155 
1398	 0.320908457008247 
1399	 0.319918146537176 
1400	 0.3189382094339 
1401	 0.317935417147754 
1402	 0.316891558246 
1403	 0.315885453733276 
1404	 0.314877536452391 
1405	 0.313901596644386 
1406	 0.312957985021948 
1407	 0.312004081312084 
1408	 0.311040073276822 
1409	 0.310124941389092 
1410	 0.309186564708563 
1411	 0.308341718122324 
1412	 0.307537962445787 
1413	 0.306823252597204 
1414	 0.30621682532133 
1415	 0.305668568189957 
1416	 0.305224289040379 
1417	 0.304832156419409 
1418	 0.30442883593537 
1419	 0.304080993127524 
1420	 0.303760209135462 
1421	 0.303435740013214 
1422	 0.303144253231149 
1423	 0.302840635895667 
1424	 0.302505106956005 
1425	 0.302135700035652 
1426	 0.301792566485271 
1427	 0.301418149500019 
1428	 0.301100740377961 
1429	 0.300820521446609 
1430	 0.300539135720955 
1431	 0.300287707292224 
1432	 0.300022706716106 
1433	 0.299752979155794 
1434	 0.299495817128006 
1435	 0.299226215578843 
1436	 0.298996052357364 
1437	 0.298779943176598 
1438	 0.298593040883196 
1439	 0.29844642052839 
1440	 0.298308871833111 
1441	 0.298157402971633 
1442	 0.298010586435293 
1443	 0.29784285073913 
1444	 0.297670169590812 
1445	 0.29752974282022 
1446	 0.297398080280947 
1447	 0.297276123094924 
1448	 0.297162488860852 
1449	 0.297025139611687 
1450	 0.296879360967389 
1451	 0.296740236784488 
1452	 0.29658539273924 
1453	 0.296454147868568 
1454	 0.296341004144832 
1455	 0.296219990470845 
1456	 0.296116744560653 
1457	 0.295990645305515 
1458	 0.295840504793812 
1459	 0.295712084087881 
1460	 0.295562540459593 
1461	 0.295457108680726 
1462	 0.295381057941232 
1463	 0.295320587650562 
1464	 0.295296667450691 
1465	 0.295261266367397 
1466	 0.295218723429022 
1467	 0.295207082801113 
1468	 0.295181595228896 
1469	 0.295218930870126 
1470	 0.295303148948672 
1471	 0.295417186398024 
1472	 0.295566392352056 
1473	 0.29573668476564 
1474	 0.295898070928597 
1475	 0.296088905405374 
1476	 0.29628781531251 
1477	 0.296494094555515 
1478	 0.296731255974386 
1479	 0.296962855360361 
1480	 0.29722326763845 
1481	 0.297497507508704 
1482	 0.297769422391082 
1483	 0.298067009619722 
1484	 0.29832911439745 
1485	 0.298565052922949 
1486	 0.298830726598435 
1487	 0.299086495201435 
1488	 0.299359964571923 
1489	 0.299675361268153 
1490	 0.299951017695523 
1491	 0.300220150729765 
1492	 0.300472043683215 
1493	 0.300700977389625 
1494	 0.300930662156783 
1495	 0.301144574982178 
1496	 0.301357786653558 
1497	 0.30157081449184 
1498	 0.301773985964543 
1499	 0.301964850093942 
1500	 0.302166176556748 
1501	 0.302362198819608 
1502	 0.302566702280161 
1503	 0.302787162781506 
1504	 0.302988910463094 
1505	 0.303212035992094 
1506	 0.303410503278616 
1507	 0.303591138165845 
1508	 0.303788334339792 
1509	 0.303951163020713 
1510	 0.304109526074536 
1511	 0.304256492783547 
1512	 0.304383828942515 
1513	 0.304530442940495 
1514	 0.304689095947912 
1515	 0.304852266654685 
1516	 0.30503639371751 
1517	 0.305212538810619 
1518	 0.305387043831663 
1519	 0.305555784966051 
1520	 0.305731841605085 
1521	 0.305892949719707 
1522	 0.306038958442462 
1523	 0.30618766402689 
1524	 0.306332491238848 
1525	 0.306478390525614 
1526	 0.306617562986772 
1527	 0.306764611466227 
1528	 0.306927247302483 
1529	 0.30706940895997 
1530	 0.307205492063157 
1531	 0.307335635309225 
1532	 0.307454021271189 
1533	 0.307561439650207 
1534	 0.307658907945628 
1535	 0.307761759027948 
1536	 0.307847349342835 
1537	 0.307946629711207 
1538	 0.308059457385976 
1539	 0.308171174235649 
1540	 0.308290437401356 
1541	 0.308403180178305 
1542	 0.308505143146916 
1543	 0.308612721362123 
1544	 0.308734959712527 
1545	 0.308841232300793 
1546	 0.308937703861988 
1547	 0.30904125971256 
1548	 0.309150523843893 
1549	 0.309227543802149 
1550	 0.309306535821467 
1551	 0.309416212979104 
1552	 0.309502463044684 
1553	 0.309597114657152 
1554	 0.309725993090481 
1555	 0.309822261455031 
1556	 0.309915151796133 
1557	 0.30999647011328 
1558	 0.310061564230368 
1559	 0.310149287361583 
1560	 0.310238348030665 
1561	 0.31034390725571 
1562	 0.310429088324064 
1563	 0.310504507217605 
1564	 0.310597246732309 
1565	 0.310699048676203 
1566	 0.310774000976402 
1567	 0.310853486366423 
1568	 0.310910968178689 
1569	 0.31092482149547 
1570	 0.310976785239011 
1571	 0.311050060794238 
1572	 0.311105797495597 
1573	 0.311166398246205 
1574	 0.311213011350821 
1575	 0.311240549853241 
1576	 0.311273584049818 
1577	 0.311305764077001 
1578	 0.31133990869733 
1579	 0.311359563838262 
1580	 0.311407982619068 
1581	 0.311469141869194 
1582	 0.31153792101011 
1583	 0.311644239034344 
1584	 0.311716704793474 
1585	 0.311777473381336 
1586	 0.311835932265719 
1587	 0.311887964550353 
1588	 0.311921697328781 
1589	 0.311947820517165 
1590	 0.311965104536479 
1591	 0.311943754254869 
1592	 0.311951435563708 
1593	 0.311967270993766 
1594	 0.311991000610392 
1595	 0.312034600352493 
1596	 0.312070539242538 
1597	 0.312110378358328 
1598	 0.312148549252137 
1599	 0.312202128692882 
1600	 0.312224603397364 
1601	 0.31222655380042 
1602	 0.312229560996212 
1603	 0.312181147982416 
1604	 0.312181468145398 
1605	 0.312224891375368 
1606	 0.31225280827766 
1607	 0.312293888634126 
1608	 0.312338904440694 
1609	 0.31239782869927 
1610	 0.312435841937629 
1611	 0.312439346101665 
1612	 0.312458066345845 
1613	 0.312421542556362 
1614	 0.31238250378015 
1615	 0.312412448104469 
1616	 0.31241333130819 
1617	 0.312423412939171 
1618	 0.312443308246048 
1619	 0.312416408937196 
1620	 0.312404732175169 
1621	 0.312383678517775 
1622	 0.31235456492273 
1623	 0.312324991340363 
1624	 0.312293166426006 
1625	 0.31226183776269 
1626	 0.312219308165118 
1627	 0.312202545884148 
1628	 0.312194513478659 
1629	 0.312198883482678 
1630	 0.312223424528252 
1631	 0.312240801372905 
1632	 0.31226914731665 
1633	 0.312278664763617 
1634	 0.312280688488642 
1635	 0.312286459600421 
1636	 0.312294962259556 
1637	 0.312272794716374 
1638	 0.312233039327088 
1639	 0.312212931044499 
1640	 0.312170099509973 
1641	 0.312152811150667 
1642	 0.31217635503686 
1643	 0.312159016721856 
1644	 0.312121456287806 
1645	 0.312091731283542 
1646	 0.312044740558416 
1647	 0.312024355992411 
1648	 0.31202522519257 
1649	 0.312004919948952 
1650	 0.311981900963771 
1651	 0.311970307931685 
1652	 0.311955799095574 
1653	 0.311934568699935 
1654	 0.311930577517704 
1655	 0.311904208768749 
1656	 0.311855905349323 
1657	 0.311807592255176 
1658	 0.311758264967376 
1659	 0.311699078544153 
1660	 0.311619414048503 
1661	 0.311555454814789 
1662	 0.311494971257572 
1663	 0.311433047690271 
1664	 0.31136611395859 
1665	 0.311320226854407 
1666	 0.311290907850116 
1667	 0.311245055899042 
1668	 0.311219718489962 
1669	 0.311160402409527 
1670	 0.311060942264776 
1671	 0.310990027279384 
1672	 0.310920631453825 
1673	 0.310851308114233 
1674	 0.310803661855076 
1675	 0.31072519644986 
1676	 0.310607294248378 
1677	 0.310539027839922 
1678	 0.310478409483134 
1679	 0.31042920330525 
1680	 0.3104232514236 
1681	 0.310391386329576 
1682	 0.310344163386006 
1683	 0.310306955253857 
1684	 0.310284439483812 
1685	 0.310237071354693 
1686	 0.310191520314116 
1687	 0.310115639665536 
1688	 0.309996226319731 
1689	 0.309907239257511 
1690	 0.309810132353349 
1691	 0.309725816140388 
1692	 0.309656133290703 
1693	 0.309596181676734 
1694	 0.309545595866389 
1695	 0.309490033026853 
1696	 0.309446020636505 
1697	 0.309400347552655 
1698	 0.309345689412673 
1699	 0.309299409549833 
1700	 0.309282947036419 
1701	 0.309219988543202 
1702	 0.309146329341225 
1703	 0.309042087425162 
1704	 0.308890686173002 
1705	 0.308758345401738 
1706	 0.308603008950344 
1707	 0.3084727887417 
1708	 0.308357194012092 
1709	 0.308242817373468 
1710	 0.308143963194323 
1711	 0.308034196257464 
1712	 0.30792027213891 
1713	 0.307808810912098 
1714	 0.307692369956634 
1715	 0.307581619175732 
1716	 0.307481052613128 
1717	 0.307370332130187 
1718	 0.307244854782571 
1719	 0.307148056744693 
1720	 0.307069112587043 
1721	 0.306969817969909 
1722	 0.306882563076514 
1723	 0.306779527152765 
1724	 0.306658374261494 
1725	 0.306527901132018 
1726	 0.30639317093619 
1727	 0.306260595857795 
1728	 0.306100059331249 
1729	 0.305970878506511 
1730	 0.305876526880244 
1731	 0.305743098809918 
1732	 0.30560976366123 
1733	 0.305450956967813 
1734	 0.305254440362635 
1735	 0.305085062987513 
1736	 0.30491124357906 
1737	 0.304748382003784 
1738	 0.304595460575434 
1739	 0.304439963275529 
1740	 0.304284811669072 
1741	 0.304139603353221 
1742	 0.304009496264569 
1743	 0.303872149152573 
1744	 0.303738207095768 
1745	 0.303586267388966 
1746	 0.303428254274906 
1747	 0.303203963006963 
1748	 0.303027634590462 
1749	 0.302830348558422 
1750	 0.302648333653516 
1751	 0.302497531477814 
1752	 0.302326384188037 
1753	 0.302158391063052 
1754	 0.30200853828461 
1755	 0.301864441881288 
1756	 0.301715688212961 
1757	 0.301579120366948 
1758	 0.301402342663085 
1759	 0.301181746334035 
1760	 0.300992102800067 
1761	 0.300818729109598 
1762	 0.300665027707856 
1763	 0.300524911428038 
1764	 0.30035122040808 
1765	 0.300160067633839 
1766	 0.299971700361367 
1767	 0.299809464717456 
1768	 0.299680212495817 
1769	 0.299535308162657 
1770	 0.299366632369228 
1771	 0.299225604985709 
1772	 0.299110727367273 
1773	 0.298991283417805 
1774	 0.298902742408696 
1775	 0.29880568004091 
1776	 0.298651107148139 
1777	 0.298536844951344 
1778	 0.298428509666233 
1779	 0.298243100004214 
1780	 0.298101160447088 
1781	 0.297981723139697 
1782	 0.297832847094089 
1783	 0.297768853253317 
1784	 0.297688339156259 
1785	 0.297590840605319 
1786	 0.297506433012622 
1787	 0.297455800507829 
1788	 0.297372806766791 
1789	 0.297277779300412 
1790	 0.29716945751771 
1791	 0.297042817730307 
1792	 0.296908329013121 
1793	 0.296728813567292 
1794	 0.29661770812026 
1795	 0.296521975587511 
1796	 0.296438684646532 
1797	 0.296420217389834 
1798	 0.296363714811289 
1799	 0.296306559889057 
1800	 0.296242432811214 
1801	 0.296782587602112 
1802	 0.296932162281181 
1803	 0.297105609152653 
1804	 0.297339913540091 
1805	 0.297591711034418 
1806	 0.297815308580766 
1807	 0.298024261873037 
1808	 0.298169017386005 
1809	 0.298268128161469 
1810	 0.298347640950795 
1811	 0.298378517195474 
1812	 0.298398943643104 
1813	 0.298419826959982 
1814	 0.298389022296116 
1815	 0.298322532793245 
1816	 0.298251071710649 
1817	 0.298196369288449 
1818	 0.298124359845562 
1819	 0.298079826942517 
1820	 0.298067082129968 
1821	 0.298033752880276 
1822	 0.29799408157876 
1823	 0.297948977277901 
1824	 0.297881461061088 
1825	 0.297775950311448 
1826	 0.297656362345681 
1827	 0.297529034799275 
1828	 0.297373286294508 
1829	 0.297205161375383 
1830	 0.297013670192137 
1831	 0.296797007777413 
1832	 0.29655006979542 
1833	 0.296300225766805 
1834	 0.296038534964084 
1835	 0.295796770299491 
1836	 0.295563855736932 
1837	 0.295349998273607 
1838	 0.295151185376821 
1839	 0.294938385455568 
1840	 0.294727306193342 
1841	 0.294519929952223 
1842	 0.294281032811953 
1843	 0.294040692834356 
1844	 0.293814033071377 
1845	 0.293566894418557 
1846	 0.293349290602955 
1847	 0.293169508659552 
1848	 0.293003732783535 
1849	 0.292858656561733 
1850	 0.292711096675076 
1851	 0.292580940122207 
1852	 0.292417328888014 
1853	 0.292279193626876 
1854	 0.292139805924042 
1855	 0.29198312337113 
1856	 0.291840566754385 
1857	 0.291652431763121 
1858	 0.291420523524289 
1859	 0.291163556552878 
1860	 0.290865080609952 
1861	 0.290525391482222 
1862	 0.290144603166365 
1863	 0.289746948095738 
1864	 0.289298173244707 
1865	 0.288824239594111 
1866	 0.288337583006433 
1867	 0.287799287777507 
1868	 0.287250747235852 
1869	 0.286670696270689 
1870	 0.286038560318429 
1871	 0.285337569327465 
1872	 0.284591393955695 
1873	 0.283775460906001 
1874	 0.282896068877462 
1875	 0.281935260017774 
1876	 0.280939902652131 
1877	 0.279893074508014 
1878	 0.278715609806527 
1879	 0.277470262426977 
1880	 0.276127794719669 
1881	 0.274675119396233 
1882	 0.273129616658259 
1883	 0.271514956197076 
1884	 0.269756550395921 
1885	 0.267896223368534 
1886	 0.2659600118546 
1887	 0.263909108862746 
1888	 0.261797487961321 
1889	 0.259573431624288 
1890	 0.257255111595985 
1891	 0.254917097017895 
1892	 0.252479058129088 
1893	 0.250045060624805 
1894	 0.24758533943905 
1895	 0.245107403809433 
1896	 0.242574268258271 
1897	 0.240081449391095 
1898	 0.237568328906786 
1899	 0.235073858180936 
1900	 0.232664223940238 
1901	 0.230280344828192 
1902	 0.227994047670105 
1903	 0.225802520163639 
1904	 0.223676009480642 
1905	 0.22159760039564 
1906	 0.21964929063838 
1907	 0.21778856394577 
1908	 0.216035050785931 
1909	 0.214397942562781 
1910	 0.21281944957377 
1911	 0.21132956997708 
1912	 0.209932050417384 
1913	 0.208612691330351 
1914	 0.207381218761906 
1915	 0.20622344920039 
1916	 0.205153033777853 
1917	 0.204140761438556 
1918	 0.203199052054843 
1919	 0.202322009363614 
1920	 0.201509880453308 
1921	 0.200772743279709 
1922	 0.200093635096597 
1923	 0.199463367930507 
1924	 0.198887001050966 
1925	 0.19835517806339 
1926	 0.19789430534158 
1927	 0.197492888184692 
1928	 0.197153681560242 
1929	 0.19686129353727 
1930	 0.196612107949995 
1931	 0.196390401381658 
1932	 0.196195669627856 
1933	 0.19604424187938 
1934	 0.195920976769578 
1935	 0.195840597206574 
1936	 0.195783484440996 
1937	 0.195782406352773 
1938	 0.195845646856472 
1939	 0.195929587040283 
1940	 0.196048436188069 
1941	 0.196210785285853 
1942	 0.196397919164321 
1943	 0.196570885813157 
1944	 0.196763285345379 
1945	 0.197001116112654 
1946	 0.197252050986275 
1947	 0.197525562610159 
1948	 0.197810973724493 
1949	 0.198125156056648 
1950	 0.198437409104698 
1951	 0.198749828477014 
1952	 0.19909638019661 
1953	 0.199437795685772 
1954	 0.199785481543688 
1955	 0.200155716657313 
1956	 0.200534656632905 
1957	 0.200930445791984 
1958	 0.201349242613698 
1959	 0.20177550316358 
1960	 0.202215169432354 
1961	 0.202660172133755 
1962	 0.203117878371402 
1963	 0.20358105482114 
1964	 0.204056438677828 
1965	 0.20452793252613 
1966	 0.205004318080613 
1967	 0.205496365503123 
1968	 0.205987109791477 
1969	 0.2064796958052 
1970	 0.206973985493596 
1971	 0.207476442276859 
1972	 0.207975137898352 
1973	 0.20846926166766 
1974	 0.208976768585989 
1975	 0.209489757020385 
1976	 0.209999601352136 
1977	 0.210553744573637 
1978	 0.21108306134533 
1979	 0.211599932096045 
1980	 0.212145635786895 
1981	 0.212668187727367 
1982	 0.21315984736308 
1983	 0.21367702744109 
1984	 0.214207115681944 
1985	 0.214728934208424 
1986	 0.21524867439901 
1987	 0.215778326705297 
1988	 0.216309927759541 
1989	 0.216851684193018 
1990	 0.217384344523449 
1991	 0.217912430460073 
1992	 0.218426434948543 
1993	 0.21891805112424 
1994	 0.219418520428814 
1995	 0.21991756364978 
1996	 0.220415059042086 
1997	 0.220901291716673 
1998	 0.221405697545844 
1999	 0.221919829343175 
2000	 0.22242795531259 
2001	 0.222942614016725 
2002	 0.2234662919707 
2003	 0.223972882291861 
2004	 0.224473006434875 
2005	 0.224962730120697 
2006	 0.225435250015992 
2007	 0.225926109633801 
2008	 0.226413465242523 
2009	 0.226904887335351 
2010	 0.22741867861097 
2011	 0.227913725966398 
2012	 0.228395541024602 
2013	 0.228878093797515 
2014	 0.229358383548124 
2015	 0.22983432159867 
2016	 0.230302046404927 
2017	 0.23076907771136 
2018	 0.231241413305379 
2019	 0.231711405728363 
2020	 0.232185030921675 
2021	 0.232672176567458 
2022	 0.233145988701372 
2023	 0.233621536262635 
2024	 0.234082103443988 
2025	 0.234516664575884 
2026	 0.234968198341033 
2027	 0.235435171761776 
2028	 0.235881922994163 
2029	 0.236306759344803 
2030	 0.236734819323951 
2031	 0.237143074874933 
2032	 0.237501618835707 
2033	 0.237900064694649 
2034	 0.238323560890744 
2035	 0.238720798024504 
2036	 0.239118375461011 
2037	 0.239501261894709 
2038	 0.239871383621113 
2039	 0.240227580019602 
2040	 0.24056065619047 
2041	 0.240911720638665 
2042	 0.241237290188998 
2043	 0.241550532384124 
2044	 0.241866335969477 
2045	 0.242168620222524 
2046	 0.242491178177885 
2047	 0.242828581977928 
2048	 0.243149003312542 
2049	 0.243495959547995 
2050	 0.24379346097697 
2051	 0.244039257532935 
2052	 0.244308832923516 
2053	 0.244557215290513 
2054	 0.244819485656644 
2055	 0.245093389264793 
2056	 0.245381528513446 
2057	 0.245657086811563 
2058	 0.245927049026436 
2059	 0.246202507689031 
2060	 0.246482135615121 
2061	 0.246754259242736 
2062	 0.247032851541497 
2063	 0.247295343618322 
2064	 0.247540468947139 
2065	 0.247793743402848 
2066	 0.248043579198388 
2067	 0.248289879989118 
2068	 0.248533893092904 
2069	 0.248785419843191 
2070	 0.249028051111992 
2071	 0.249262658440808 
2072	 0.249497696940518 
2073	 0.249731074114677 
2074	 0.249963485798585 
2075	 0.250206011945031 
2076	 0.250421285872992 
2077	 0.250615798435395 
2078	 0.250824331805561 
2079	 0.25102376596133 
2080	 0.251216883055765 
2081	 0.25141479727085 
2082	 0.251614234324069 
2083	 0.251791010742523 
2084	 0.251983703949878 
2085	 0.252194356162133 
2086	 0.252440066172223 
2087	 0.252639120745495 
2088	 0.252830190478306 
2089	 0.253018597729641 
2090	 0.253183819048187 
2091	 0.25335262241168 
2092	 0.253543399716572 
2093	 0.253697845287031 
2094	 0.253796543400173 
2095	 0.253940497797379 
2096	 0.254088196891653 
2097	 0.254243947510151 
2098	 0.254411055895246 
2099	 0.25461355973766 
2100	 0.254803980888927 
2101	 0.254997035133224 
2102	 0.255179134436585 
2103	 0.255357683114436 
2104	 0.255554341518517 
2105	 0.255753451962735 
2106	 0.255946059336416 
2107	 0.256164129414556 
2108	 0.256359624806172 
2109	 0.256516354203627 
2110	 0.256699848217863 
2111	 0.256893454550574 
2112	 0.257089522840454 
2113	 0.25727409949718 
2114	 0.257502239511455 
2115	 0.257721436909802 
2116	 0.257944019319068 
2117	 0.258177056939564 
2118	 0.258434421146786 
2119	 0.258663315223325 
2120	 0.258892180053775 
2121	 0.259107351402886 
2122	 0.259306915897137 
2123	 0.259501491935869 
2124	 0.259690634975003 
2125	 0.259870017450961 
2126	 0.260031642980993 
2127	 0.260195897968689 
2128	 0.260369873231781 
2129	 0.260519532345496 
2130	 0.260666891102228 
2131	 0.260787768110258 
2132	 0.260894048396545 
2133	 0.260979889205145 
2134	 0.261045075747754 
2135	 0.261079275986375 
2136	 0.261129787278641 
2137	 0.261165829163181 
2138	 0.261201405333325 
2139	 0.261263429149892 
2140	 0.261280408298543 
2141	 0.261271472023831 
2142	 0.26124795696342 
2143	 0.26120851873688 
2144	 0.26114168734807 
2145	 0.261045625264912 
2146	 0.260941352899468 
2147	 0.260807663928699 
2148	 0.260661706350175 
2149	 0.26053231258568 
2150	 0.260393258486925 
2151	 0.260285041619637 
2152	 0.260211551777149 
2153	 0.260096640957128 
2154	 0.260005857682306 
2155	 0.259854631140773 
2156	 0.25964754897183 
2157	 0.25944918494371 
2158	 0.259234600465613 
2159	 0.259000751962075 
2160	 0.258750692696601 
2161	 0.258494337682423 
2162	 0.258188498888756 
2163	 0.257921512624924 
2164	 0.257672996255382 
2165	 0.257433593691722 
2166	 0.25718012112192 
2167	 0.256942463385747 
2168	 0.256685120986126 
2169	 0.256403799487338 
2170	 0.256136348416301 
2171	 0.255875629687436 
2172	 0.255610423701327 
2173	 0.255346690887903 
2174	 0.255072794733912 
2175	 0.254803856949866 
2176	 0.254512597023016 
2177	 0.254207182040625 
2178	 0.253889551244415 
2179	 0.253549933312212 
2180	 0.253211535547115 
2181	 0.25285287690517 
2182	 0.252505591156259 
2183	 0.252146490256063 
2184	 0.251818765967995 
2185	 0.251486451968784 
2186	 0.251163204186829 
2187	 0.250845068478216 
2188	 0.250528319339356 
2189	 0.250224686771347 
2190	 0.249922569350099 
2191	 0.249645640580487 
2192	 0.249392826103392 
2193	 0.249136715649408 
2194	 0.248898512779149 
2195	 0.248654055213111 
2196	 0.248403788071526 
2197	 0.248165999427184 
2198	 0.247921676365345 
2199	 0.24770856025917 
2200	 0.247513290966715 
2201	 0.247329659312275 
2202	 0.247158669358026 
2203	 0.2470237867843 
2204	 0.246891297285952 
2205	 0.246754428326412 
2206	 0.246678085968593 
2207	 0.24663517925706 
2208	 0.246613815584492 
2209	 0.246637062209809 
2210	 0.246670430386382 
2211	 0.246716100288638 
2212	 0.246794290419034 
2213	 0.246914961333932 
2214	 0.247035856275929 
2215	 0.247209749739242 
2216	 0.247328950380204 
2217	 0.247436903134639 
2218	 0.247524759247084 
2219	 0.24758502320461 
2220	 0.247626169421966 
2221	 0.247649842341238 
2222	 0.24766138379494 
2223	 0.247656713543954 
2224	 0.247637646434531 
2225	 0.247605753917487 
2226	 0.247574876129103 
2227	 0.247510600147613 
2228	 0.247414740588838 
2229	 0.247316705887986 
2230	 0.247205266840997 
2231	 0.247077854856023 
2232	 0.246943830547103 
2233	 0.246781886178905 
2234	 0.246595569324624 
2235	 0.246396460667132 
2236	 0.246162436665268 
2237	 0.245937177359468 
2238	 0.245703013161547 
2239	 0.245468707305585 
2240	 0.245244652682159 
2241	 0.245000502826766 
2242	 0.244748086115119 
2243	 0.244477062950878 
2244	 0.244196819255776 
2245	 0.243885899669642 
2246	 0.243550434644354 
2247	 0.243237487527141 
2248	 0.242896946383881 
2249	 0.24252885334117 
2250	 0.242191909467128 
2251	 0.241856974693719 
2252	 0.241514889755047 
2253	 0.241166352438405 
2254	 0.240854521654741 
2255	 0.240547710859628 
2256	 0.240261840224694 
2257	 0.240001536841073 
2258	 0.2397759817907 
2259	 0.239553077367963 
2260	 0.239370600723465 
2261	 0.239256656072746 
2262	 0.239129056777944 
2263	 0.238992267503724 
2264	 0.238908430700695 
2265	 0.23883516924312 
2266	 0.238819357080888 
2267	 0.238894490994103 
2268	 0.238939392422451 
2269	 0.239013525901246 
2270	 0.23908569041806 
2271	 0.239079634282712 
2272	 0.239139450960351 
2273	 0.239282987164181 
2274	 0.239426970545591 
2275	 0.239581910268264 
2276	 0.239799733124943 
2277	 0.239991280853444 
2278	 0.240165131251899 
2279	 0.240337892714847 
2280	 0.24053731862242 
2281	 0.240711164363344 
2282	 0.240843968513189 
2283	 0.241011806643024 
2284	 0.241221241369717 
2285	 0.241376163500433 
2286	 0.241511215371987 
2287	 0.241636315017179 
2288	 0.241712838602483 
2289	 0.241824273933088 
2290	 0.241967567569523 
2291	 0.242071821439807 
2292	 0.242187534921885 
2293	 0.242258710655107 
2294	 0.242257030029659 
2295	 0.242290529507583 
2296	 0.242320008180631 
2297	 0.242347122698914 
2298	 0.242382055980143 
2299	 0.242442443075766 
2300	 0.242488092236845 
2301	 0.242500254086395 
2302	 0.24250539072619 
2303	 0.242534591865995 
2304	 0.242549490204404 
2305	 0.242519439944626 
2306	 0.242505254678729 
2307	 0.242493638778823 
2308	 0.242443293718423 
2309	 0.242374595626146 
2310	 0.242316044751037 
2311	 0.242219377795964 
2312	 0.242157323329881 
2313	 0.242140292934451 
2314	 0.242072902244312 
2315	 0.241981074058186 
2316	 0.241912567298874 
2317	 0.241830093864845 
2318	 0.241741630589348 
2319	 0.241667848836865 
2320	 0.241579807177974 
2321	 0.241460951956865 
2322	 0.241370769450343 
2323	 0.241333188234002 
2324	 0.241232211083714 
2325	 0.241093202077288 
2326	 0.240962872849874 
2327	 0.240802364447797 
2328	 0.240632162076872 
2329	 0.240474176158565 
2330	 0.240352779751655 
2331	 0.240268620803997 
2332	 0.240167182811236 
2333	 0.240066485157386 
2334	 0.239966217264142 
2335	 0.239808463743854 
2336	 0.239615820329923 
2337	 0.239454631957489 
2338	 0.239281558605864 
2339	 0.239105855077123 
2340	 0.238906722200395 
2341	 0.238660625974665 
2342	 0.238462102663721 
2343	 0.238225735164901 
2344	 0.238000145707134 
2345	 0.237777884503724 
2346	 0.237580739441962 
2347	 0.237301924743035 
2348	 0.23697880881326 
2349	 0.23667850321513 
2350	 0.236344749318528 
2351	 0.236026273835282 
2352	 0.235725332928474 
2353	 0.235426052705003 
2354	 0.235117113289951 
2355	 0.234807778720499 
2356	 0.234542171611707 
2357	 0.234204351346098 
2358	 0.233799922184682 
2359	 0.233424089753215 
2360	 0.232999756596879 
2361	 0.232635658928027 
2362	 0.232320442643897 
2363	 0.23200987218034 
2364	 0.2317344786329 
2365	 0.231456444102967 
2366	 0.231209738924533 
2367	 0.230894982129349 
2368	 0.230526019419865 
2369	 0.230189692242433 
2370	 0.229827349746219 
2371	 0.229528159651968 
2372	 0.229137219134807 
2373	 0.228652216576778 
2374	 0.228160724700734 
2375	 0.227661928634549 
2376	 0.227228631937807 
2377	 0.226786914255637 
2378	 0.226357075579462 
2379	 0.225865963534503 
2380	 0.225338707122381 
2381	 0.22503331797186 
2382	 0.224705382433382 
2383	 0.224283415236964 
2384	 0.223871655264658 
2385	 0.223369975335042 
2386	 0.222894272301366 
2387	 0.222424808805336 
2388	 0.221995044620193 
2389	 0.22162171033912 
2390	 0.221111181711201 
2391	 0.22059216898759 
2392	 0.220167467506799 
2393	 0.219675851291331 
2394	 0.21919725518469 
2395	 0.218815687226561 
2396	 0.218346621118428 
2397	 0.217873201977999 
2398	 0.217490851973625 
2399	 0.217072578465109 
2400	 0.216627746679916 
2401	 0.216177225664448 
2402	 0.215670084211559 
2403	 0.215114497867664 
2404	 0.214608001467667 
2405	 0.214175580018931 
2406	 0.213720240446798 
2407	 0.213227880523906 
2408	 0.212715775913236 
2409	 0.212136802137163 
2410	 0.211602043503423 
2411	 0.211173959745334 
2412	 0.210744755154176 
2413	 0.210333388616681 
2414	 0.209918023510241 
2415	 0.20949925344705 
2416	 0.209039489694672 
2417	 0.208502395704342 
2418	 0.208060325503909 
2419	 0.207648640387505 
2420	 0.207168604730793 
2421	 0.206758267956503 
2422	 0.206278421434774 
2423	 0.2056486267489 
2424	 0.205215501863063 
2425	 0.204897592031879 
2426	 0.204433859405951 
2427	 0.204033010430451 
2428	 0.203497996362559 
2429	 0.202760719440978 
2430	 0.202231167288725 
2431	 0.201714312869926 
2432	 0.201251729333843 
2433	 0.200978653370046 
2434	 0.200542550901135 
2435	 0.200021908977724 
2436	 0.199534663839992 
2437	 0.198987185074735 
2438	 0.198444350203327 
2439	 0.197937876851043 
2440	 0.197469955504979 
2441	 0.196965753771429 
2442	 0.196537930503223 
2443	 0.196266523550063 
2444	 0.195811831555652 
2445	 0.195266796738452 
2446	 0.194747997001628 
2447	 0.194120232536401 
2448	 0.193597247992132 
2449	 0.193117099987324 
2450	 0.192741914155654 
2451	 0.19247228162057 
2452	 0.192070391272521 
2453	 0.191734387177028 
2454	 0.191360333835083 
2455	 0.190933844685065 
2456	 0.190468268903414 
2457	 0.189951902404147 
2458	 0.189375032861285 
2459	 0.188624010639966 
2460	 0.188038154369847 
2461	 0.187506651687317 
2462	 0.187148198926747 
2463	 0.187010756480312 
2464	 0.186583827609598 
2465	 0.186140989102023 
2466	 0.185742450004171 
2467	 0.185203646802812 
2468	 0.184807898694798 
2469	 0.184542409930449 
2470	 0.18405481513079 
2471	 0.183594810386424 
2472	 0.183165502465791 
2473	 0.182769885831804 
2474	 0.182460014477012 
2475	 0.182143872091644 
2476	 0.181850379981802 
2477	 0.181635657073553 
2478	 0.181150053027839 
2479	 0.180659434644969 
2480	 0.180365555534902 
2481	 0.179832493526225 
2482	 0.179417733250321 
2483	 0.179219048514628 
2484	 0.178698989532905 
2485	 0.178119936203355 
2486	 0.177856300056024 
2487	 0.177738354363427 
2488	 0.177632175320588 
2489	 0.177766770850905 
2490	 0.177914118849378 
2491	 0.177658664783952 
2492	 0.177303830766025 
2493	 0.176925372918208 
2494	 0.176463391808697 
2495	 0.176043972989328 
2496	 0.175493298189657 
2497	 0.174923184181409 
2498	 0.174517696846507 
2499	 0.174049718615488 
2500	 0.173852321183556 
