Wavelength	mm2100007.asd
350	 5.92397982812081E-02 
351	 5.19336660366022E-02 
352	 4.45269643044223E-02 
353	 4.47476118870479E-02 
354	 4.92322089633926E-02 
355	 0.056556138489962 
356	 5.75707076869678E-02 
357	 4.83242859510047E-02 
358	 4.75922874346395E-02 
359	 5.08300560070113E-02 
360	 5.45572774668516E-02 
361	 5.64979800975116E-02 
362	 5.51166645421173E-02 
363	 5.21554395361718E-02 
364	 5.05041157121383E-02 
365	 5.45633996191019E-02 
366	 5.36826478165343E-02 
367	 5.11040578649788E-02 
368	 5.22194352081243E-02 
369	 5.48374625804433E-02 
370	 5.47274454921167E-02 
371	 0.052363891501953 
372	 5.14284658667518E-02 
373	 5.20477389722895E-02 
374	 5.34429308648949E-02 
375	 5.49325212415295E-02 
376	 5.64558959832149E-02 
377	 5.52242201967949E-02 
378	 5.34970556150359E-02 
379	 5.43471293447281E-02 
380	 5.77500251231516E-02 
381	 0.056424122579531 
382	 5.32823718310351E-02 
383	 5.77878809859948E-02 
384	 5.91925268963705E-02 
385	 0.058597407754196 
386	 5.83208928624033E-02 
387	 5.95696872957986E-02 
388	 6.14573274729311E-02 
389	 6.24616344395951E-02 
390	 6.17735405037861E-02 
391	 6.28627393091794E-02 
392	 0.063518510019072 
393	 6.37956645186591E-02 
394	 6.56625719269426E-02 
395	 6.69592690298372E-02 
396	 6.81756209533693E-02 
397	 6.93792482992888E-02 
398	 6.84782937529003E-02 
399	 6.95307301504163E-02 
400	 7.16868885676783E-02 
401	 7.25055534577637E-02 
402	 7.18224731773409E-02 
403	 7.20254112010585E-02 
404	 0.073366984280257 
405	 7.39104451662508E-02 
406	 7.55196541168672E-02 
407	 7.76456876054754E-02 
408	 7.90177402953808E-02 
409	 7.73819081446337E-02 
410	 7.70952779491682E-02 
411	 7.85378042917043E-02 
412	 8.00271278660039E-02 
413	 8.03583534315456E-02 
414	 8.03161912133967E-02 
415	 8.03854378675902E-02 
416	 8.03870283326004E-02 
417	 8.09365803364273E-02 
418	 8.13664057526549E-02 
419	 8.11320654934762E-02 
420	 8.11806357120904E-02 
421	 8.10466545961797E-02 
422	 8.07698504948843E-02 
423	 8.06818193667271E-02 
424	 8.04092645180659E-02 
425	 8.00218856826423E-02 
426	 7.95616134815652E-02 
427	 0.07889086458665 
428	 0.07823830925285 
429	 7.78426812876668E-02 
430	 7.78210509366598E-02 
431	 7.78783038440823E-02 
432	 7.70699686320921E-02 
433	 0.075915972204343 
434	 7.62292030613949E-02 
435	 7.65200204450009E-02 
436	 7.65483550630302E-02 
437	 0.076427798925439 
438	 7.64628918646791E-02 
439	 7.69261625597114E-02 
440	 0.077524198494492 
441	 7.77890509061117E-02 
442	 7.84315191028787E-02 
443	 7.91293457909602E-02 
444	 7.96584590647187E-02 
445	 8.00827665033162E-02 
446	 8.06474380305306E-02 
447	 8.12805730490059E-02 
448	 8.18547218479485E-02 
449	 8.24760862800161E-02 
450	 8.30088064204832E-02 
451	 8.34058586536734E-02 
452	 8.37176314425597E-02 
453	 0.084186790810636 
454	 8.47187476318578E-02 
455	 8.52140555633907E-02 
456	 8.57564084669536E-02 
457	 8.60439039947232E-02 
458	 8.60430200639714E-02 
459	 0.085964603687782 
460	 8.67651825144894E-02 
461	 8.72007701747447E-02 
462	 8.69863696603235E-02 
463	 8.74402989302187E-02 
464	 8.76700133437519E-02 
465	 8.78408537309209E-02 
466	 8.81994207895936E-02 
467	 0.088124198600229 
468	 8.82451144099898E-02 
469	 8.85707282256685E-02 
470	 8.86123639175025E-02 
471	 8.86549903487994E-02 
472	 8.88392212954169E-02 
473	 8.90898811620207E-02 
474	 8.88256500301442E-02 
475	 8.89054860002442E-02 
476	 8.92153860065189E-02 
477	 8.92693942206415E-02 
478	 8.93015439665033E-02 
479	 8.94325609630549E-02 
480	 8.96200896215513E-02 
481	 8.96113259242508E-02 
482	 8.96409076453051E-02 
483	 8.97694352672364E-02 
484	 8.99533262014122E-02 
485	 8.99584949804985E-02 
486	 8.98612339151808E-02 
487	 8.98502667850457E-02 
488	 9.01480469073954E-02 
489	 8.99865973648605E-02 
490	 8.99852926047506E-02 
491	 9.05040325860559E-02 
492	 9.07049621552729E-02 
493	 9.06987978953108E-02 
494	 9.05914555878795E-02 
495	 9.05257121570382E-02 
496	 0.090716544065968 
497	 9.09021445446048E-02 
498	 9.09743953395918E-02 
499	 9.11304842204404E-02 
500	 9.10733892985484E-02 
501	 9.09125236588008E-02 
502	 9.08731942522026E-02 
503	 9.11391123176047E-02 
504	 9.12420940897972E-02 
505	 9.11053953771839E-02 
506	 9.10292018360306E-02 
507	 9.11395296191798E-02 
508	 9.13758171796394E-02 
509	 9.16064126115914E-02 
510	 9.16399320257225E-02 
511	 9.15980939847396E-02 
512	 9.15750347301594E-02 
513	 9.16380828277087E-02 
514	 9.17315319146953E-02 
515	 9.18735690658104E-02 
516	 9.20465317641583E-02 
517	 9.21720286027634E-02 
518	 9.20972260887396E-02 
519	 9.20343882907387E-02 
520	 9.22138489528896E-02 
521	 9.22694101158295E-02 
522	 9.23614118699478E-02 
523	 9.24554134959198E-02 
524	 0.092294614417614 
525	 9.23375714135283E-02 
526	 9.24408409624042E-02 
527	 9.24434380323675E-02 
528	 9.25987264741674E-02 
529	 9.26660468590045E-02 
530	 0.092660401140433 
531	 0.092753859857731 
532	 9.28213881583731E-02 
533	 9.29367551625733E-02 
534	 9.31096679524026E-02 
535	 9.31575841042673E-02 
536	 9.31991878521736E-02 
537	 9.32866077364767E-02 
538	 9.34324715688441E-02 
539	 9.35690183351789E-02 
540	 9.36264827852312E-02 
541	 9.36372554676837E-02 
542	 9.37646390455567E-02 
543	 9.38686908649639E-02 
544	 9.40158126648355E-02 
545	 9.42580972326177E-02 
546	 9.43709359438971E-02 
547	 9.44623866869459E-02 
548	 9.46058349753703E-02 
549	 0.094829262019795 
550	 9.50282354479788E-02 
551	 9.51918482385948E-02 
552	 9.53576139298334E-02 
553	 9.56574724774594E-02 
554	 9.58177558284568E-02 
555	 9.59297374101221E-02 
556	 0.096250568723936 
557	 9.66360828264776E-02 
558	 9.69653866687304E-02 
559	 9.72390961767053E-02 
560	 9.76721667080628E-02 
561	 9.79969236691005E-02 
562	 9.83357764814006E-02 
563	 9.88747928183919E-02 
564	 9.93764290720962E-02 
565	 9.98142104570085E-02 
566	 0.100217993392747 
567	 0.100664542862968 
568	 0.101117364862974 
569	 0.101662785346607 
570	 0.102355926112542 
571	 0.103071684420033 
572	 0.103794383056957 
573	 0.104494239386715 
574	 0.105144718858622 
575	 0.105864047831046 
576	 0.106693328321532 
577	 0.107593847903746 
578	 0.108385103837306 
579	 0.109151828929082 
580	 0.109948537427451 
581	 0.11079815813353 
582	 0.11155104376732 
583	 0.112305888025895 
584	 0.113168933240472 
585	 0.114231950666036 
586	 0.115380361836044 
587	 0.116516831737194 
588	 0.11759564672535 
589	 0.118768670984993 
590	 0.119950894416819 
591	 0.121094169252515 
592	 0.122195373781722 
593	 0.123214476766745 
594	 0.124217062656212 
595	 0.125228399888779 
596	 0.126099693867831 
597	 0.127021888637402 
598	 0.128011880890712 
599	 0.128991426066701 
600	 0.129915051587257 
601	 0.130895128238642 
602	 0.131949866578326 
603	 0.132903504318267 
604	 0.133819459335755 
605	 0.134723767535954 
606	 0.135629159897409 
607	 0.136524284650939 
608	 0.137371103825574 
609	 0.138187457115592 
610	 0.139054350247571 
611	 0.139790496882859 
612	 0.140404085585733 
613	 0.140953522670942 
614	 0.141492872828915 
615	 0.142005490986968 
616	 0.142496012771613 
617	 0.142979608651813 
618	 0.14345029260729 
619	 0.143880087438787 
620	 0.144276135753732 
621	 0.144735101003009 
622	 0.145118156943286 
623	 0.145447064234824 
624	 0.145792363147328 
625	 0.146065201358869 
626	 0.146334464142509 
627	 0.146646502333597 
628	 0.147003242241465 
629	 0.147256787436301 
630	 0.147501039483782 
631	 0.147833773022084 
632	 0.148078961264118 
633	 0.148340132139132 
634	 0.148636213043977 
635	 0.148911960859849 
636	 0.14914120286962 
637	 0.149387526436639 
638	 0.149674786639865 
639	 0.149881826400111 
640	 0.150152909060614 
641	 0.150462291084882 
642	 0.150718096322351 
643	 0.150982864735735 
644	 0.151271975278563 
645	 0.151576565343868 
646	 0.151858612874963 
647	 0.152149293445722 
648	 0.152428521190595 
649	 0.152681381443422 
650	 0.152969003454168 
651	 0.153304461786931 
652	 0.153670198347528 
653	 0.1540255847997 
654	 0.154386676117993 
655	 0.154709604674044 
656	 0.154994919163575 
657	 0.155371247144272 
658	 0.155806981415786 
659	 0.156233179189718 
660	 0.156581914909636 
661	 0.156967344241216 
662	 0.157393210571991 
663	 0.157829753618054 
664	 0.158212837708188 
665	 0.158684184385233 
666	 0.159165453477258 
667	 0.159566315622302 
668	 0.160017375643995 
669	 0.160543744009054 
670	 0.161110316915693 
671	 0.161635683104213 
672	 0.162117047042898 
673	 0.16263120980613 
674	 0.163216492376442 
675	 0.163792160287464 
676	 0.164339894710851 
677	 0.164892652818366 
678	 0.165499160181751 
679	 0.166118413513169 
680	 0.166740305591564 
681	 0.167361930901708 
682	 0.167985606430394 
683	 0.168683540251853 
684	 0.169365582715643 
685	 0.169967994042736 
686	 0.17068783347708 
687	 0.171391505940266 
688	 0.172062317414731 
689	 0.172767790739374 
690	 0.173500472487135 
691	 0.174234595307757 
692	 0.174968802487447 
693	 0.175765972247896 
694	 0.176500399281281 
695	 0.177253510580195 
696	 0.17812773132535 
697	 0.178890131934316 
698	 0.179660540016608 
699	 0.180470310623759 
700	 0.181238965288288 
701	 0.18207550569075 
702	 0.182932922024 
703	 0.183750536963187 
704	 0.184521908927352 
705	 0.185305584485273 
706	 0.186129873232731 
707	 0.186990388529363 
708	 0.187784537475467 
709	 0.188606089821179 
710	 0.189471597507791 
711	 0.190258011099794 
712	 0.191081002709013 
713	 0.191872079554261 
714	 0.192581360548099 
715	 0.193430405768133 
716	 0.194209375412637 
717	 0.194903894327125 
718	 0.195645881267597 
719	 0.196425792163111 
720	 0.197159963343506 
721	 0.197811957544026 
722	 0.198456516170316 
723	 0.199134901620965 
724	 0.19976191045562 
725	 0.200261785140808 
726	 0.200842386400833 
727	 0.201425186028992 
728	 0.20196418614785 
729	 0.202457137045835 
730	 0.202883157388981 
731	 0.203289343272737 
732	 0.203706879362952 
733	 0.204105318155004 
734	 0.204460482603017 
735	 0.204735574735067 
736	 0.204921480519163 
737	 0.205185111230091 
738	 0.205436569046861 
739	 0.205615837173467 
740	 0.205720942898544 
741	 0.205851261769628 
742	 0.205928691126188 
743	 0.205901892807973 
744	 0.205900815553723 
745	 0.205851942993344 
746	 0.205760813600634 
747	 0.205663819481684 
748	 0.205541394170576 
749	 0.205349228069401 
750	 0.205112264946224 
751	 0.204936595312557 
752	 0.204661196869466 
753	 0.20430132660503 
754	 0.203924695191789 
755	 0.20362717783667 
756	 0.203284731174091 
757	 0.202877453792965 
758	 0.202445236272029 
759	 0.202023811849829 
760	 0.201547748316289 
761	 0.201019744926792 
762	 0.200537142234917 
763	 0.20005089686265 
764	 0.199512984117274 
765	 0.198911994774906 
766	 0.198332116036916 
767	 0.197795440895225 
768	 0.197254401369941 
769	 0.196640836748089 
770	 0.196033516184451 
771	 0.195413058387411 
772	 0.194758681944138 
773	 0.194061085487549 
774	 0.193427171503497 
775	 0.192810748174435 
776	 0.192154756458274 
777	 0.191469760091422 
778	 0.190817642534675 
779	 0.19018546205661 
780	 0.189527282392262 
781	 0.188842511627334 
782	 0.188163510568538 
783	 0.187510265485956 
784	 0.186884626584208 
785	 0.186204472854683 
786	 0.18552593344352 
787	 0.18489004017663 
788	 0.184225247437306 
789	 0.183660086979627 
790	 0.183072843175443 
791	 0.182319687693174 
792	 0.18165604673413 
793	 0.181062057986133 
794	 0.180474639896396 
795	 0.179816431779153 
796	 0.179164915638242 
797	 0.178589562259697 
798	 0.178077685201544 
799	 0.177475152099212 
800	 0.176871708509479 
801	 0.176297928120533 
802	 0.175751344152164 
803	 0.175172241338589 
804	 0.174606211441099 
805	 0.174063631582723 
806	 0.17353040926691 
807	 0.172996833089941 
808	 0.172478185148602 
809	 0.171968288602363 
810	 0.171430188226713 
811	 0.170942386902366 
812	 0.170431292579284 
813	 0.169868033009226 
814	 0.169436764357159 
815	 0.169048770099004 
816	 0.168630588078791 
817	 0.168141619695436 
818	 0.167680329151429 
819	 0.167259672008186 
820	 0.166847281256258 
821	 0.166390593247677 
822	 0.166028152951386 
823	 0.165649679141136 
824	 0.165218293343108 
825	 0.164875572265428 
826	 0.164566652591778 
827	 0.164237922048529 
828	 0.163861938199614 
829	 0.163494233840943 
830	 0.163115042261219 
831	 0.162764265929353 
832	 0.162492320272255 
833	 0.162246889454086 
834	 0.161962250557278 
835	 0.161646054224072 
836	 0.161375394375918 
837	 0.161189959159998 
838	 0.160970452717704 
839	 0.160666697061685 
840	 0.160389540337395 
841	 0.160124542022264 
842	 0.159902009912097 
843	 0.159722256323786 
844	 0.159460600642689 
845	 0.159280587595921 
846	 0.159132351023654 
847	 0.158906166790287 
848	 0.158768789654868 
849	 0.158666108695573 
850	 0.158537369369758 
851	 0.158342161619868 
852	 0.15818281425207 
853	 0.158035648800903 
854	 0.157905867014878 
855	 0.157864095969423 
856	 0.157805656821169 
857	 0.157717097410852 
858	 0.157618876440259 
859	 0.157556551105125 
860	 0.157483604298281 
861	 0.157399544294318 
862	 0.157319222438368 
863	 0.157233351453446 
864	 0.157253736201403 
865	 0.157319114196951 
866	 0.157286246993415 
867	 0.157268391857244 
868	 0.157260684907333 
869	 0.157259731798702 
870	 0.157272357547698 
871	 0.157292784798865 
872	 0.15731874861547 
873	 0.157361382500137 
874	 0.157450528913916 
875	 0.157567940936468 
876	 0.157656854921199 
877	 0.157687535481659 
878	 0.1577098141584 
879	 0.157845721797492 
880	 0.158005229994558 
881	 0.158074004783462 
882	 0.158184122340811 
883	 0.158347810475006 
884	 0.158509770338758 
885	 0.158607484825083 
886	 0.158773301409877 
887	 0.15898085341538 
888	 0.159170103600813 
889	 0.15928614983217 
890	 0.159501232340398 
891	 0.159700318103325 
892	 0.159873192348086 
893	 0.160172821865549 
894	 0.160419631395312 
895	 0.160652452046429 
896	 0.160902420401463 
897	 0.161108494308477 
898	 0.16139120230547 
899	 0.161702970258758 
900	 0.161977261449761 
901	 0.162215858842726 
902	 0.162537633284965 
903	 0.16289261178018 
904	 0.163193422875798 
905	 0.163451262846621 
906	 0.163831057238096 
907	 0.16426379331813 
908	 0.164611170620741 
909	 0.165032527404432 
910	 0.165433477515618 
911	 0.165783385094507 
912	 0.166124214161067 
913	 0.166613229170833 
914	 0.167106884335296 
915	 0.167518330224037 
916	 0.167863398995492 
917	 0.168328118733147 
918	 0.168866678150576 
919	 0.169378501074706 
920	 0.169762876269194 
921	 0.170244981296376 
922	 0.170788591298378 
923	 0.171336314980542 
924	 0.171875407872683 
925	 0.172466169979474 
926	 0.173048143071897 
927	 0.173587610823847 
928	 0.174144752797382 
929	 0.174760946125069 
930	 0.17537967374385 
931	 0.17596289318745 
932	 0.176581784217327 
933	 0.177183653310931 
934	 0.177847317888024 
935	 0.178605834223438 
936	 0.179261801348623 
937	 0.179879694579593 
938	 0.180500519758732 
939	 0.18117399359735 
940	 0.181992716432677 
941	 0.18281731654957 
942	 0.183572020566198 
943	 0.184263066127291 
944	 0.185070496885127 
945	 0.185856886073773 
946	 0.186603503575741 
947	 0.18735024086883 
948	 0.188113090515638 
949	 0.188917742141432 
950	 0.189738826869785 
951	 0.190559339226099 
952	 0.191539687330458 
953	 0.192451305353479 
954	 0.193323112739627 
955	 0.194306490836263 
956	 0.195308278595715 
957	 0.196194731108159 
958	 0.197040699755539 
959	 0.198006833669699 
960	 0.198945867672925 
961	 0.199891569724943 
962	 0.200836912619808 
963	 0.201743991305777 
964	 0.202586622674455 
965	 0.203612443432258 
966	 0.204776562806951 
967	 0.205841272836181 
968	 0.206782653223921 
969	 0.207748468842852 
970	 0.208740326080051 
971	 0.209688783722199 
972	 0.210833000476483 
973	 0.211921366913431 
974	 0.212968719457768 
975	 0.214149996062657 
976	 0.215318994726243 
977	 0.216395239651526 
978	 0.21744586451317 
979	 0.218588255816274 
980	 0.219660218977035 
981	 0.220730843037892 
982	 0.221860506334823 
983	 0.22304362905033 
984	 0.224024304215496 
985	 0.225101535968773 
986	 0.226254465984221 
987	 0.227332455536283 
988	 0.228650192780638 
989	 0.229736505691917 
990	 0.230718302176306 
991	 0.231945161167789 
992	 0.233153912361362 
993	 0.23429802900703 
994	 0.23545073398344 
995	 0.236649665348384 
996	 0.237564926230382 
997	 0.238628766127835 
998	 0.239774100236028 
999	 0.240816347024167 
1000	 0.241953271799867 
1001	 0.236662811543745 
1002	 0.237787888007775 
1003	 0.238812737277007 
1004	 0.239816962505253 
1005	 0.240800029802598 
1006	 0.241766506322746 
1007	 0.242675942398891 
1008	 0.24362823885537 
1009	 0.244563608456949 
1010	 0.245555595961437 
1011	 0.246552322482945 
1012	 0.247445667371991 
1013	 0.24835926092997 
1014	 0.24925786987444 
1015	 0.250103043956018 
1016	 0.251014660497736 
1017	 0.251917304166307 
1018	 0.25286555897755 
1019	 0.253663872935975 
1020	 0.254411296991888 
1021	 0.255186563886221 
1022	 0.255881772791601 
1023	 0.25663604188282 
1024	 0.257492035142844 
1025	 0.258323733090457 
1026	 0.259166812465905 
1027	 0.259978011608478 
1028	 0.260763804056159 
1029	 0.26153171545065 
1030	 0.262228476489121 
1031	 0.262961480223391 
1032	 0.263707240656386 
1033	 0.264452991921041 
1034	 0.265168955892087 
1035	 0.26590449727823 
1036	 0.26663155383861 
1037	 0.26737808805216 
1038	 0.268134589319088 
1039	 0.268884190796747 
1040	 0.269595191620741 
1041	 0.270253674899708 
1042	 0.270928804882486 
1043	 0.271601664505297 
1044	 0.272280999815934 
1045	 0.272978705613378 
1046	 0.273680714166997 
1047	 0.274329697320119 
1048	 0.275006549259285 
1049	 0.275665054302865 
1050	 0.276303997094585 
1051	 0.276993252435143 
1052	 0.277641688299264 
1053	 0.27830270040335 
1054	 0.278988433754254 
1055	 0.279639502254913 
1056	 0.280306052635146 
1057	 0.280966399596565 
1058	 0.28163659672093 
1059	 0.282283605589814 
1060	 0.282939077867428 
1061	 0.283516333398314 
1062	 0.284084884597705 
1063	 0.284689719453105 
1064	 0.285261823891087 
1065	 0.285839481183667 
1066	 0.286480990078016 
1067	 0.287095136285348 
1068	 0.287638749002174 
1069	 0.288195520485551 
1070	 0.288763303391073 
1071	 0.289282306800976 
1072	 0.289828558777266 
1073	 0.290455465023764 
1074	 0.291019353481276 
1075	 0.291553816466064 
1076	 0.29206458749287 
1077	 0.292562561767774 
1078	 0.292975011467393 
1079	 0.29343073023843 
1080	 0.293879651014435 
1081	 0.294285739135067 
1082	 0.294773166134793 
1083	 0.295252364671466 
1084	 0.295727031633294 
1085	 0.296209887842405 
1086	 0.296749286298426 
1087	 0.297198496269515 
1088	 0.297590446671263 
1089	 0.298008713017255 
1090	 0.298415487843699 
1091	 0.298831129586275 
1092	 0.299293214786638 
1093	 0.299755657275338 
1094	 0.30018435898346 
1095	 0.300586384556311 
1096	 0.300990969316853 
1097	 0.301396137620304 
1098	 0.301814909136798 
1099	 0.302270749749306 
1100	 0.302683199738565 
1101	 0.303066345260754 
1102	 0.303472800212705 
1103	 0.303882098729053 
1104	 0.304264262559087 
1105	 0.304665347624526 
1106	 0.305088567887404 
1107	 0.305504989178647 
1108	 0.305940433951131 
1109	 0.306363873378272 
1110	 0.306805392887983 
1111	 0.30723517292892 
1112	 0.307652308825986 
1113	 0.308058355404399 
1114	 0.308453832348225 
1115	 0.308865557082447 
1116	 0.309263704398849 
1117	 0.309682601856098 
1118	 0.310125240344114 
1119	 0.310572050988631 
1120	 0.311017070757613 
1121	 0.311428868354401 
1122	 0.311837675499085 
1123	 0.312267817155579 
1124	 0.312680297530405 
1125	 0.313087609693983 
1126	 0.313485329826723 
1127	 0.313875123895654 
1128	 0.314260400622641 
1129	 0.314631855868797 
1130	 0.315007873934078 
1131	 0.315378292772484 
1132	 0.315758376525253 
1133	 0.316147654639499 
1134	 0.316527465771107 
1135	 0.316915038685713 
1136	 0.317288547249283 
1137	 0.317649225738107 
1138	 0.318014221424316 
1139	 0.318371735978586 
1140	 0.318732620805423 
1141	 0.319075691046079 
1142	 0.319407389842995 
1143	 0.319736396364569 
1144	 0.320065797769435 
1145	 0.320367314018008 
1146	 0.320647777566172 
1147	 0.320934439049826 
1148	 0.321200347250231 
1149	 0.321472704823771 
1150	 0.321754969745929 
1151	 0.322034771754662 
1152	 0.322287585577576 
1153	 0.322555749916233 
1154	 0.322832317185513 
1155	 0.323108434935706 
1156	 0.323397759914225 
1157	 0.323713957646483 
1158	 0.324001009286929 
1159	 0.324287490847332 
1160	 0.324564570785556 
1161	 0.324820595869779 
1162	 0.32508530390006 
1163	 0.325357776960903 
1164	 0.325615891823877 
1165	 0.325859245367243 
1166	 0.326118165133614 
1167	 0.326369073653625 
1168	 0.32661256618661 
1169	 0.326844386247681 
1170	 0.327064825798845 
1171	 0.327299327418506 
1172	 0.32752484602602 
1173	 0.327760281116911 
1174	 0.328014988412751 
1175	 0.328256811284903 
1176	 0.328491649962692 
1177	 0.328727885878328 
1178	 0.328968767028226 
1179	 0.329202374212913 
1180	 0.329431493085658 
1181	 0.329658468235369 
1182	 0.329877726317929 
1183	 0.330098551994595 
1184	 0.330325894115826 
1185	 0.330565864936575 
1186	 0.330776787771123 
1187	 0.330982847950915 
1188	 0.331180557647601 
1189	 0.331346610323327 
1190	 0.331538423124878 
1191	 0.331748666429874 
1192	 0.331941395407831 
1193	 0.332126529136564 
1194	 0.332319062045971 
1195	 0.332508173104892 
1196	 0.332698123162672 
1197	 0.332906856877722 
1198	 0.333096517246994 
1199	 0.333276061394655 
1200	 0.333435850946987 
1201	 0.333618376256226 
1202	 0.333803168240214 
1203	 0.333981147964031 
1204	 0.334168188793909 
1205	 0.334349255914045 
1206	 0.334516698459611 
1207	 0.334691713354899 
1208	 0.334887449323776 
1209	 0.335055420422311 
1210	 0.335200915516142 
1211	 0.335357352368924 
1212	 0.335499805923203 
1213	 0.335653422533558 
1214	 0.33582173398509 
1215	 0.335985410381446 
1216	 0.336149087756611 
1217	 0.336320355291539 
1218	 0.336468630476903 
1219	 0.336603756361534 
1220	 0.33674789818935 
1221	 0.336877486474481 
1222	 0.3370219770492 
1223	 0.337182407745604 
1224	 0.337333632788054 
1225	 0.33749491039486 
1226	 0.337633040563299 
1227	 0.337748070508967 
1228	 0.337881350668522 
1229	 0.338006313816011 
1230	 0.338137209887132 
1231	 0.338294914543733 
1232	 0.338435198895576 
1233	 0.338567739984108 
1234	 0.338687758130171 
1235	 0.338813904585405 
1236	 0.338934104240806 
1237	 0.339059798451022 
1238	 0.339192630133569 
1239	 0.339315333617591 
1240	 0.339431584993196 
1241	 0.339552536812702 
1242	 0.339665564807786 
1243	 0.339789907868225 
1244	 0.339920055147511 
1245	 0.340056602227599 
1246	 0.34021889156209 
1247	 0.340352046801122 
1248	 0.340475667884251 
1249	 0.340594317073461 
1250	 0.340697969384258 
1251	 0.340809594749585 
1252	 0.340916919516119 
1253	 0.341034000585211 
1254	 0.341136859481153 
1255	 0.341234641837574 
1256	 0.341317735555165 
1257	 0.341383390262168 
1258	 0.341466115615462 
1259	 0.341529473693735 
1260	 0.34162073061251 
1261	 0.341750212217678 
1262	 0.341855620678229 
1263	 0.341966901515936 
1264	 0.342065506375593 
1265	 0.342143347817434 
1266	 0.342227443538032 
1267	 0.342304049014797 
1268	 0.342381828904027 
1269	 0.342486672713425 
1270	 0.342608165820132 
1271	 0.342723169082991 
1272	 0.342856639486951 
1273	 0.342983824561114 
1274	 0.343105459021591 
1275	 0.343223487832678 
1276	 0.343339842347596 
1277	 0.343468660976975 
1278	 0.343585288311571 
1279	 0.343726254889567 
1280	 0.343901828556569 
1281	 0.344058763194661 
1282	 0.344220579554087 
1283	 0.344375182333079 
1284	 0.344524785713072 
1285	 0.344667580339571 
1286	 0.34480679716004 
1287	 0.344936132549676 
1288	 0.345060273145893 
1289	 0.345176490652519 
1290	 0.345284918323046 
1291	 0.345380707849361 
1292	 0.345486808867862 
1293	 0.345596599871828 
1294	 0.345693976648947 
1295	 0.345807443045819 
1296	 0.345877294624017 
1297	 0.345914782100061 
1298	 0.345951151138904 
1299	 0.345965020523947 
1300	 0.345976045644127 
1301	 0.345983245651563 
1302	 0.345977474093237 
1303	 0.345953097231099 
1304	 0.345931388728985 
1305	 0.345905402836139 
1306	 0.345874744432207 
1307	 0.345813844414268 
1308	 0.345726869176412 
1309	 0.345642293780516 
1310	 0.345521755610224 
1311	 0.34544077495415 
1312	 0.34539400851177 
1313	 0.345302711214206 
1314	 0.345201180233538 
1315	 0.345096016487026 
1316	 0.344954287841436 
1317	 0.3448422480751 
1318	 0.34475433530963 
1319	 0.344656490088702 
1320	 0.344556768626412 
1321	 0.344460341187963 
1322	 0.344372975280869 
1323	 0.344271502925339 
1324	 0.344156555988228 
1325	 0.344034602474993 
1326	 0.343924094053194 
1327	 0.343826463419566 
1328	 0.343738585588505 
1329	 0.343667831696465 
1330	 0.343582399041916 
1331	 0.343487551814768 
1332	 0.343388499266976 
1333	 0.343294323868545 
1334	 0.343186604293583 
1335	 0.343053926551318 
1336	 0.342951827912588 
1337	 0.342857749841864 
1338	 0.342764995352618 
1339	 0.342688494872212 
1340	 0.342605228720731 
1341	 0.342515051753673 
1342	 0.342428202896634 
1343	 0.342331786700508 
1344	 0.342264972254969 
1345	 0.342207453249126 
1346	 0.34215502066964 
1347	 0.342108936716313 
1348	 0.342060455508943 
1349	 0.341970221606337 
1350	 0.341875058465104 
1351	 0.341798017739556 
1352	 0.341717098005687 
1353	 0.341641045107016 
1354	 0.341588873093623 
1355	 0.341512206323621 
1356	 0.341419488144255 
1357	 0.341336375042041 
1358	 0.341241018234925 
1359	 0.341162851744108 
1360	 0.341097948326215 
1361	 0.341030478870151 
1362	 0.340989630132526 
1363	 0.340914034955155 
1364	 0.340807965495838 
1365	 0.340717075765514 
1366	 0.340620309978427 
1367	 0.340516103167685 
1368	 0.340429492562172 
1369	 0.340339456196478 
1370	 0.340207724720735 
1371	 0.340066079940796 
1372	 0.339898752760059 
1373	 0.339720432328021 
1374	 0.339529141862344 
1375	 0.339336401457557 
1376	 0.339087440563173 
1377	 0.338817209999442 
1378	 0.338508661536001 
1379	 0.338150938757668 
1380	 0.337781010711074 
1381	 0.337388283453632 
1382	 0.336965635252501 
1383	 0.336520425482187 
1384	 0.336039002595358 
1385	 0.33556744798476 
1386	 0.335006852025224 
1387	 0.334368357958054 
1388	 0.333715291777443 
1389	 0.333020364120991 
1390	 0.332268312458045 
1391	 0.331499789813897 
1392	 0.330712823420187 
1393	 0.329825951145002 
1394	 0.328873288414287 
1395	 0.327851757793626 
1396	 0.326810220574409 
1397	 0.325800941049679 
1398	 0.324792862442155 
1399	 0.32375268562009 
1400	 0.32272138755303 
1401	 0.321665404579197 
1402	 0.320545089791798 
1403	 0.319488655862376 
1404	 0.318454790767215 
1405	 0.317437026502578 
1406	 0.316445122360911 
1407	 0.315449879172712 
1408	 0.314447914596741 
1409	 0.313485537629782 
1410	 0.312492429192692 
1411	 0.311611205103179 
1412	 0.310777127178808 
1413	 0.310024414619447 
1414	 0.309393409250113 
1415	 0.308822244858167 
1416	 0.308333617861324 
1417	 0.30790432152925 
1418	 0.307491283529637 
1419	 0.307119969593916 
1420	 0.306789413297835 
1421	 0.306477515729219 
1422	 0.306182474928472 
1423	 0.305890068859092 
1424	 0.305551230104413 
1425	 0.305168800715362 
1426	 0.30481845136066 
1427	 0.304429207784116 
1428	 0.304108786307318 
1429	 0.303829740149078 
1430	 0.303559875752632 
1431	 0.303340421100765 
1432	 0.303086438909546 
1433	 0.302821840482055 
1434	 0.302576591796949 
1435	 0.302299230697082 
1436	 0.302081400611204 
1437	 0.301915793433894 
1438	 0.301747778962162 
1439	 0.301611857747533 
1440	 0.301475347754808 
1441	 0.301314201863039 
1442	 0.301157170174033 
1443	 0.301002200266359 
1444	 0.300860305199535 
1445	 0.300745858091917 
1446	 0.300624127423713 
1447	 0.300516560841347 
1448	 0.300409102550876 
1449	 0.300271914558016 
1450	 0.300137757250396 
1451	 0.300000059168815 
1452	 0.299832923074735 
1453	 0.299710412880424 
1454	 0.29962003881566 
1455	 0.299501009895196 
1456	 0.29939356667899 
1457	 0.299266885124728 
1458	 0.299103119998163 
1459	 0.29897687594803 
1460	 0.298849762391643 
1461	 0.298754894528667 
1462	 0.298684603584657 
1463	 0.298626868688889 
1464	 0.298595739521533 
1465	 0.298568772163722 
1466	 0.298543731801697 
1467	 0.298547091734745 
1468	 0.29854220290559 
1469	 0.298597733660662 
1470	 0.298694768649778 
1471	 0.298827904822639 
1472	 0.298994712691914 
1473	 0.299195767951883 
1474	 0.299395388662687 
1475	 0.29960223365784 
1476	 0.299823676713322 
1477	 0.30005750113795 
1478	 0.300309842886517 
1479	 0.300575895883949 
1480	 0.300855761585311 
1481	 0.30114011213551 
1482	 0.301422438197619 
1483	 0.301711183901433 
1484	 0.30199446471973 
1485	 0.302268964977344 
1486	 0.302564212841907 
1487	 0.30286973514544 
1488	 0.303166775829676 
1489	 0.303484562416418 
1490	 0.303774113929642 
1491	 0.304053942160306 
1492	 0.304311908169775 
1493	 0.304544021098774 
1494	 0.304778526855699 
1495	 0.304988781756554 
1496	 0.305220585054785 
1497	 0.305467081474416 
1498	 0.305701351205987 
1499	 0.305948582621993 
1500	 0.306166971073094 
1501	 0.306346355882112 
1502	 0.306557530588745 
1503	 0.306774145282274 
1504	 0.306983005658492 
1505	 0.307220374126124 
1506	 0.307454285226719 
1507	 0.307664663650265 
1508	 0.307875113072742 
1509	 0.30805580528107 
1510	 0.308229903684155 
1511	 0.308395174268231 
1512	 0.308538134629795 
1513	 0.308691935592982 
1514	 0.308864198431172 
1515	 0.309044558650839 
1516	 0.309228275809169 
1517	 0.309406097006129 
1518	 0.309590845522858 
1519	 0.309764640059359 
1520	 0.309937677591508 
1521	 0.310088986712623 
1522	 0.31022248235259 
1523	 0.310366862899363 
1524	 0.31048753128352 
1525	 0.310639628463998 
1526	 0.310818484258817 
1527	 0.310989478925281 
1528	 0.311175267211131 
1529	 0.311336029834162 
1530	 0.311495838035477 
1531	 0.311633231298978 
1532	 0.311746870720684 
1533	 0.31186255489046 
1534	 0.311957568219207 
1535	 0.312067987173997 
1536	 0.312176753851653 
1537	 0.312294394662027 
1538	 0.312428137799852 
1539	 0.312552286833936 
1540	 0.312675924627217 
1541	 0.312797112943548 
1542	 0.312914569593968 
1543	 0.313029296018398 
1544	 0.313153640869251 
1545	 0.313262902214071 
1546	 0.313365878765373 
1547	 0.313452384809566 
1548	 0.313534239674049 
1549	 0.313585169821765 
1550	 0.313658161492187 
1551	 0.313757355602248 
1552	 0.313849829003365 
1553	 0.313963491146279 
1554	 0.314082540648196 
1555	 0.31417236394499 
1556	 0.314267265948849 
1557	 0.31437906375773 
1558	 0.314468153402123 
1559	 0.314556158131203 
1560	 0.314653873262557 
1561	 0.314757663713835 
1562	 0.314854084908317 
1563	 0.314950401508971 
1564	 0.315052857410503 
1565	 0.315158224735141 
1566	 0.315253776400213 
1567	 0.315364253634171 
1568	 0.315439237391988 
1569	 0.315483257472485 
1570	 0.315537338576871 
1571	 0.315572587524659 
1572	 0.315626363204901 
1573	 0.315695514605133 
1574	 0.315752504836105 
1575	 0.315812664455676 
1576	 0.315860858235941 
1577	 0.315901826023781 
1578	 0.315932047450533 
1579	 0.315937525219551 
1580	 0.315973646633409 
1581	 0.316004142276124 
1582	 0.316061611953739 
1583	 0.316163058351091 
1584	 0.316240144163277 
1585	 0.316324629536521 
1586	 0.316394380006129 
1587	 0.316459622157444 
1588	 0.316502747105189 
1589	 0.316520063869292 
1590	 0.316548772234931 
1591	 0.316555577858478 
1592	 0.316584001622588 
1593	 0.316637255668869 
1594	 0.316679735896682 
1595	 0.316730822513772 
1596	 0.316767343182585 
1597	 0.316791321169358 
1598	 0.316813740321346 
1599	 0.31682689083142 
1600	 0.316842760210388 
1601	 0.316868869762638 
1602	 0.316877281667139 
1603	 0.316851754659759 
1604	 0.316860490938235 
1605	 0.316878591946741 
1606	 0.316900612742691 
1607	 0.31694618151243 
1608	 0.316997036855309 
1609	 0.317059982040608 
1610	 0.317089321006548 
1611	 0.317098682691222 
1612	 0.317138537430207 
1613	 0.317137343315868 
1614	 0.317106854092915 
1615	 0.31711561648014 
1616	 0.317098659424535 
1617	 0.31708106896839 
1618	 0.317101209002516 
1619	 0.317107227 
1620	 0.317106004186376 
1621	 0.317100706822456 
1622	 0.317093176616742 
1623	 0.317078367855655 
1624	 0.317054666209482 
1625	 0.317037204650307 
1626	 0.317014093428731 
1627	 0.317003579895807 
1628	 0.31699687147865 
1629	 0.316997843285481 
1630	 0.317009535033283 
1631	 0.317019650606458 
1632	 0.317036283889952 
1633	 0.31704394525637 
1634	 0.317052848138556 
1635	 0.317052232994035 
1636	 0.317050458171539 
1637	 0.3170294534437 
1638	 0.316992073402815 
1639	 0.316963206273568 
1640	 0.316913683548223 
1641	 0.316895933230826 
1642	 0.316902798868708 
1643	 0.316889955633977 
1644	 0.316879306616866 
1645	 0.316870178413237 
1646	 0.316854205185608 
1647	 0.316839884563737 
1648	 0.316841185265761 
1649	 0.316818210145702 
1650	 0.31677292217973 
1651	 0.316743746080312 
1652	 0.316715054510262 
1653	 0.316679858012087 
1654	 0.316645178104095 
1655	 0.316614445990543 
1656	 0.316587758726466 
1657	 0.316538356387802 
1658	 0.316492261376083 
1659	 0.316424793145849 
1660	 0.316315207997095 
1661	 0.316237848975336 
1662	 0.316161543929169 
1663	 0.316101323069653 
1664	 0.316055803250419 
1665	 0.316014735791726 
1666	 0.315993884769932 
1667	 0.315954680111517 
1668	 0.315919444685831 
1669	 0.315868594047009 
1670	 0.31580715456327 
1671	 0.31573386437492 
1672	 0.315640624128408 
1673	 0.315561889957858 
1674	 0.315467316324747 
1675	 0.315400693798799 
1676	 0.315360162502188 
1677	 0.315307858154681 
1678	 0.315269807089029 
1679	 0.31521334215319 
1680	 0.315139525887887 
1681	 0.315079954232141 
1682	 0.315008028316273 
1683	 0.314964221171059 
1684	 0.314951352859583 
1685	 0.314914070843537 
1686	 0.314900435270695 
1687	 0.314837397311147 
1688	 0.314724852029073 
1689	 0.314642485770244 
1690	 0.314543902158698 
1691	 0.314460912362873 
1692	 0.314400438292689 
1693	 0.314330547849506 
1694	 0.314259803844688 
1695	 0.314183314542604 
1696	 0.314097209737518 
1697	 0.314035968942925 
1698	 0.313975188935209 
1699	 0.313925742883043 
1700	 0.313923681333911 
1701	 0.313862539672144 
1702	 0.313779089795141 
1703	 0.313687888249673 
1704	 0.313562658728508 
1705	 0.313445829414005 
1706	 0.313324850487519 
1707	 0.313203946118837 
1708	 0.313075322475859 
1709	 0.312952490568528 
1710	 0.312828771915463 
1711	 0.312716598314695 
1712	 0.312616264047618 
1713	 0.312500689117999 
1714	 0.312382744025616 
1715	 0.312272733790305 
1716	 0.312145849350181 
1717	 0.312048033391957 
1718	 0.311988738611828 
1719	 0.311890602211352 
1720	 0.311790107987059 
1721	 0.311674800217925 
1722	 0.311527416622112 
1723	 0.311403912323289 
1724	 0.311282237516774 
1725	 0.311170089221716 
1726	 0.311073507052758 
1727	 0.310955298466928 
1728	 0.310844587199202 
1729	 0.310707186763534 
1730	 0.310539145028467 
1731	 0.310397424490888 
1732	 0.310260411316731 
1733	 0.310098518871876 
1734	 0.309933737546389 
1735	 0.30977132439826 
1736	 0.309588482342147 
1737	 0.309414845469881 
1738	 0.309251968463977 
1739	 0.309088731241382 
1740	 0.308912814058187 
1741	 0.308763137607918 
1742	 0.308639223092002 
1743	 0.308499183636783 
1744	 0.308371764321029 
1745	 0.308194189979931 
1746	 0.307995569202717 
1747	 0.307768453567534 
1748	 0.307550071238553 
1749	 0.307364675231212 
1750	 0.307191482318526 
1751	 0.307027301230161 
1752	 0.30685176469578 
1753	 0.306686681328031 
1754	 0.306506214710382 
1755	 0.306308935431245 
1756	 0.306157792134942 
1757	 0.306021186771431 
1758	 0.305870410062582 
1759	 0.305755424034091 
1760	 0.305622738212968 
1761	 0.305437791314041 
1762	 0.305280142788567 
1763	 0.305111633719497 
1764	 0.304915829909001 
1765	 0.304749292622946 
1766	 0.304538628845362 
1767	 0.304332059598943 
1768	 0.30417246357189 
1769	 0.304004439140776 
1770	 0.303892206139254 
1771	 0.303777184448894 
1772	 0.303640697052782 
1773	 0.303543281579168 
1774	 0.30343497701257 
1775	 0.30331328094757 
1776	 0.303182221811356 
1777	 0.303034801197428 
1778	 0.302864560048368 
1779	 0.30268556050448 
1780	 0.302525140619679 
1781	 0.302344861220091 
1782	 0.302193208522848 
1783	 0.302107649376514 
1784	 0.302017935541072 
1785	 0.301970744535171 
1786	 0.301908837265813 
1787	 0.301862651291864 
1788	 0.30177097862515 
1789	 0.301654661063961 
1790	 0.301532582138478 
1791	 0.301365136454346 
1792	 0.301232457158534 
1793	 0.301104646837966 
1794	 0.300999710472916 
1795	 0.300910797183596 
1796	 0.300824412769054 
1797	 0.300756414280424 
1798	 0.300695695902619 
1799	 0.300654943835838 
1800	 0.3005963646768 
1801	 0.300731233269172 
1802	 0.300901845245639 
1803	 0.301125151079465 
1804	 0.301344088516153 
1805	 0.301596511219694 
1806	 0.301825689165785 
1807	 0.301983082182914 
1808	 0.302130813898226 
1809	 0.302271926678696 
1810	 0.302354977183427 
1811	 0.302389663320984 
1812	 0.302427677457615 
1813	 0.302418616224612 
1814	 0.302355972264267 
1815	 0.302280672301843 
1816	 0.302221971363991 
1817	 0.302163440358366 
1818	 0.302092337047543 
1819	 0.302022333702131 
1820	 0.301962349555117 
1821	 0.301894388099054 
1822	 0.301818740351395 
1823	 0.301752935539677 
1824	 0.301675868086354 
1825	 0.301577989803326 
1826	 0.301471635250141 
1827	 0.301355783713303 
1828	 0.301217245050395 
1829	 0.301077972734184 
1830	 0.30090623516374 
1831	 0.30070672116823 
1832	 0.300482191650362 
1833	 0.300244615320512 
1834	 0.300003060908687 
1835	 0.299760134391899 
1836	 0.299506528865487 
1837	 0.299291088764842 
1838	 0.29907886018888 
1839	 0.298850715181992 
1840	 0.298614646236825 
1841	 0.298417583491657 
1842	 0.298171249016452 
1843	 0.297895064098002 
1844	 0.297675419202642 
1845	 0.297430003608825 
1846	 0.297198051156313 
1847	 0.297030070015979 
1848	 0.296849898622477 
1849	 0.29666722672113 
1850	 0.296507319807365 
1851	 0.296372765572185 
1852	 0.29622728066748 
1853	 0.296083325152868 
1854	 0.295938193889795 
1855	 0.295762386083299 
1856	 0.295533045790781 
1857	 0.295272122849922 
1858	 0.295019974271625 
1859	 0.294754573895952 
1860	 0.294430655275823 
1861	 0.294082024996214 
1862	 0.293692769888654 
1863	 0.293253140768391 
1864	 0.292757419715831 
1865	 0.292255025255758 
1866	 0.291749180027353 
1867	 0.291200234884759 
1868	 0.290597683503668 
1869	 0.289966864101222 
1870	 0.289288746226012 
1871	 0.288531702545863 
1872	 0.287708328539452 
1873	 0.28684793558335 
1874	 0.285913613528558 
1875	 0.284904005017332 
1876	 0.28385043286493 
1877	 0.282720636789661 
1878	 0.281474089133807 
1879	 0.280112106643068 
1880	 0.278649924716871 
1881	 0.277055712776308 
1882	 0.275394491418141 
1883	 0.273656797840242 
1884	 0.271789360761933 
1885	 0.26983141547075 
1886	 0.267782930903271 
1887	 0.265581052056843 
1888	 0.263296204472396 
1889	 0.26089983354997 
1890	 0.258414056118908 
1891	 0.255924788846826 
1892	 0.253357322192026 
1893	 0.250788950273201 
1894	 0.248206319533912 
1895	 0.245593882614849 
1896	 0.242927702116548 
1897	 0.240274514178646 
1898	 0.237615161349322 
1899	 0.235011422125408 
1900	 0.232483221828451 
1901	 0.229975874947123 
1902	 0.227582992989568 
1903	 0.225295606317689 
1904	 0.223072861081265 
1905	 0.220908061799879 
1906	 0.218875331061662 
1907	 0.21693120150315 
1908	 0.215085466296264 
1909	 0.213359725309838 
1910	 0.211736812415675 
1911	 0.210232539770358 
1912	 0.208802017177189 
1913	 0.207453613085997 
1914	 0.206204946136379 
1915	 0.205028499452091 
1916	 0.203923351368188 
1917	 0.202898933600044 
1918	 0.201972920850458 
1919	 0.201097814104344 
1920	 0.200302293347211 
1921	 0.199566282922222 
1922	 0.198882333337663 
1923	 0.198260840192813 
1924	 0.197696737803272 
1925	 0.197197743795581 
1926	 0.196751862132585 
1927	 0.196361699920085 
1928	 0.196022444144524 
1929	 0.195751958489653 
1930	 0.195511035021977 
1931	 0.195325393345443 
1932	 0.19518053039226 
1933	 0.195075172781548 
1934	 0.195004780194767 
1935	 0.194961941894987 
1936	 0.194948806943755 
1937	 0.194977817920521 
1938	 0.195035926848293 
1939	 0.19513779532856 
1940	 0.195292240032054 
1941	 0.19546589520267 
1942	 0.195658948823241 
1943	 0.195884789006008 
1944	 0.196129615419639 
1945	 0.196420818014339 
1946	 0.196718154356948 
1947	 0.197049825590981 
1948	 0.197375736450871 
1949	 0.197710357784997 
1950	 0.198051944661914 
1951	 0.198391804437132 
1952	 0.198769628546443 
1953	 0.199151274611055 
1954	 0.199551381296815 
1955	 0.19997498927917 
1956	 0.200408437119909 
1957	 0.200844504724143 
1958	 0.201281090270491 
1959	 0.201740021275856 
1960	 0.202215849821133 
1961	 0.202693094628255 
1962	 0.203193159235937 
1963	 0.203690556578885 
1964	 0.204189095725246 
1965	 0.204675212478671 
1966	 0.205203533044361 
1967	 0.205741114629958 
1968	 0.206273427658922 
1969	 0.206825061092583 
1970	 0.207365998539932 
1971	 0.207894184490976 
1972	 0.20843065644196 
1973	 0.20896872290559 
1974	 0.209513355432931 
1975	 0.210065552936311 
1976	 0.210618098527654 
1977	 0.211155650439977 
1978	 0.211705434701163 
1979	 0.212243185005483 
1980	 0.212766158824112 
1981	 0.21330959739708 
1982	 0.213862034423595 
1983	 0.214414667381053 
1984	 0.214972865467413 
1985	 0.215540246066725 
1986	 0.216121717610453 
1987	 0.216693380788023 
1988	 0.217267175028678 
1989	 0.21784477030371 
1990	 0.218423977967099 
1991	 0.218969263337946 
1992	 0.219517418705342 
1993	 0.22005784758524 
1994	 0.220604810869401 
1995	 0.221150586204936 
1996	 0.221687694889815 
1997	 0.222226325301401 
1998	 0.222762457925687 
1999	 0.223262530563551 
2000	 0.223800038245728 
2001	 0.224375625981233 
2002	 0.224933211521286 
2003	 0.225483008870936 
2004	 0.226041020378116 
2005	 0.226568193998702 
2006	 0.227055386582261 
2007	 0.227568101923749 
2008	 0.228075751031093 
2009	 0.228592659745528 
2010	 0.229125345682342 
2011	 0.229643397244858 
2012	 0.230161486631398 
2013	 0.230670833820477 
2014	 0.231164870157202 
2015	 0.231663382916167 
2016	 0.232173278676607 
2017	 0.232674098655457 
2018	 0.233175682681729 
2019	 0.233676915219752 
2020	 0.234186496801067 
2021	 0.234706986813465 
2022	 0.23520746798456 
2023	 0.23571773284874 
2024	 0.236204133720835 
2025	 0.236668796671252 
2026	 0.237120352047458 
2027	 0.237557822411733 
2028	 0.237979366128024 
2029	 0.238414563904158 
2030	 0.238840850745845 
2031	 0.239269167180711 
2032	 0.239705371383312 
2033	 0.240137985735691 
2034	 0.240578935395982 
2035	 0.24098406955273 
2036	 0.241379728728645 
2037	 0.241767893058005 
2038	 0.242118306198965 
2039	 0.242476940144774 
2040	 0.242839479392158 
2041	 0.243201619693394 
2042	 0.243537049347151 
2043	 0.243886244083397 
2044	 0.244232424199639 
2045	 0.244576253769358 
2046	 0.2449235208421 
2047	 0.245283689260366 
2048	 0.245620397451287 
2049	 0.245956819470036 
2050	 0.246276778161057 
2051	 0.246565900100235 
2052	 0.246869111047073 
2053	 0.247171202478194 
2054	 0.24746755206228 
2055	 0.247757467178325 
2056	 0.248065748413419 
2057	 0.2483537099205 
2058	 0.248632628594798 
2059	 0.248908986681745 
2060	 0.249175888105387 
2061	 0.249447777277856 
2062	 0.24971217320919 
2063	 0.249986117540668 
2064	 0.250271562767574 
2065	 0.250545733436328 
2066	 0.250827006694739 
2067	 0.251094762403475 
2068	 0.251354042683703 
2069	 0.251601943938429 
2070	 0.251846180949448 
2071	 0.252077274720694 
2072	 0.252316511660154 
2073	 0.252556469852687 
2074	 0.252788219451486 
2075	 0.253024860113484 
2076	 0.253245325769321 
2077	 0.253433913340697 
2078	 0.253657680082721 
2079	 0.253894436262809 
2080	 0.254124151028976 
2081	 0.254377912334443 
2082	 0.254614818945336 
2083	 0.254829995999221 
2084	 0.255061652841048 
2085	 0.255269791611476 
2086	 0.255467380175311 
2087	 0.255670789656917 
2088	 0.255859585583876 
2089	 0.256058076927442 
2090	 0.256285701973735 
2091	 0.256465607682106 
2092	 0.256612208768844 
2093	 0.256775341908856 
2094	 0.256909421067474 
2095	 0.25706720105122 
2096	 0.257246021390034 
2097	 0.257424203111674 
2098	 0.257607594174043 
2099	 0.257790263773184 
2100	 0.257981540158234 
2101	 0.258187249719599 
2102	 0.258374546965723 
2103	 0.258562172024392 
2104	 0.258741667356298 
2105	 0.258900303161524 
2106	 0.259078927391601 
2107	 0.259254356566794 
2108	 0.25944922739209 
2109	 0.259675825752728 
2110	 0.25987668955103 
2111	 0.260050507230309 
2112	 0.260266031522731 
2113	 0.260489138621282 
2114	 0.260729046613688 
2115	 0.260957235205296 
2116	 0.261215357308847 
2117	 0.261458102867034 
2118	 0.261675796661719 
2119	 0.261912753676242 
2120	 0.262186299689152 
2121	 0.262420122030779 
2122	 0.262637471516755 
2123	 0.262841105441014 
2124	 0.263035092455302 
2125	 0.26320832877913 
2126	 0.263351556788856 
2127	 0.263500551260327 
2128	 0.263635441822985 
2129	 0.263768991835366 
2130	 0.263897594211697 
2131	 0.264035904722576 
2132	 0.264154573634031 
2133	 0.264265654002475 
2134	 0.26436130874665 
2135	 0.264449892231703 
2136	 0.264517090839907 
2137	 0.264566065212176 
2138	 0.264605780158138 
2139	 0.26462691044992 
2140	 0.264642106891569 
2141	 0.264654829568485 
2142	 0.26464241201074 
2143	 0.264625861283976 
2144	 0.264575807992177 
2145	 0.264489673549996 
2146	 0.264395346671883 
2147	 0.264273436690494 
2148	 0.264136206370278 
2149	 0.264012020967261 
2150	 0.263888451482807 
2151	 0.263750121893015 
2152	 0.26360641705783 
2153	 0.263465446648575 
2154	 0.263315848056022 
2155	 0.263161878098827 
2156	 0.263023535354659 
2157	 0.262857152709814 
2158	 0.262683347205676 
2159	 0.26247646126542 
2160	 0.262236273816897 
2161	 0.261996299879914 
2162	 0.261723822944382 
2163	 0.261460807693934 
2164	 0.261203637849557 
2165	 0.260937146614954 
2166	 0.260676236719667 
2167	 0.260414001430561 
2168	 0.260145040055581 
2169	 0.25987021322144 
2170	 0.259608034253496 
2171	 0.259354727264367 
2172	 0.259082351124528 
2173	 0.258816929048077 
2174	 0.258534914114728 
2175	 0.258224701907825 
2176	 0.257922223572056 
2177	 0.257635622218006 
2178	 0.257318033923298 
2179	 0.25697252416475 
2180	 0.256635490391286 
2181	 0.256282049768418 
2182	 0.255930541146371 
2183	 0.255567200744992 
2184	 0.255232612762856 
2185	 0.254901774435145 
2186	 0.254568066550319 
2187	 0.254251687998514 
2188	 0.253964720555981 
2189	 0.253656081451592 
2190	 0.25332035557251 
2191	 0.25303904278192 
2192	 0.252786305042953 
2193	 0.25252727296807 
2194	 0.252292789222705 
2195	 0.252063014983036 
2196	 0.251827777786684 
2197	 0.25160245448432 
2198	 0.251398040653727 
2199	 0.251201251928699 
2200	 0.250998436177858 
2201	 0.250812853304544 
2202	 0.250642338942039 
2203	 0.250484977571073 
2204	 0.250355036638979 
2205	 0.250235476359045 
2206	 0.250154220369299 
2207	 0.250101642161243 
2208	 0.250081916381034 
2209	 0.250089143213948 
2210	 0.250131754094055 
2211	 0.250239091171437 
2212	 0.25031257053454 
2213	 0.250388311964549 
2214	 0.25048987443948 
2215	 0.250623255920973 
2216	 0.250709533252171 
2217	 0.250810757559328 
2218	 0.250879359319591 
2219	 0.250894436301512 
2220	 0.250908245723462 
2221	 0.25090401827934 
2222	 0.250916093670901 
2223	 0.250916369135083 
2224	 0.250891256832183 
2225	 0.250852221650713 
2226	 0.250811206588028 
2227	 0.250748908335279 
2228	 0.250659192646449 
2229	 0.250553095960485 
2230	 0.250440772116889 
2231	 0.250309331768411 
2232	 0.250136117135943 
2233	 0.249984123756823 
2234	 0.249840798665953 
2235	 0.249671628089468 
2236	 0.249503496502147 
2237	 0.249306447902426 
2238	 0.249072065885528 
2239	 0.248848605437179 
2240	 0.248630841453399 
2241	 0.248375709024481 
2242	 0.248095941985839 
2243	 0.247822752299664 
2244	 0.247528881001721 
2245	 0.247222852620942 
2246	 0.246954879574943 
2247	 0.246617447579706 
2248	 0.246269711559504 
2249	 0.245878627186754 
2250	 0.245515116436743 
2251	 0.245131325228242 
2252	 0.244787263453192 
2253	 0.244458895988312 
2254	 0.244137771766063 
2255	 0.243825545826019 
2256	 0.243535979934463 
2257	 0.243248372098057 
2258	 0.243013340341545 
2259	 0.242824287741215 
2260	 0.242638169497196 
2261	 0.242474291010781 
2262	 0.242338532101858 
2263	 0.242219674856473 
2264	 0.242121576945191 
2265	 0.242047977621551 
2266	 0.242010511350612 
2267	 0.241996678453848 
2268	 0.242013719610951 
2269	 0.242075713748114 
2270	 0.242159581311495 
2271	 0.242267343423747 
2272	 0.242378440978818 
2273	 0.242490612508031 
2274	 0.242592270256119 
2275	 0.242720203853287 
2276	 0.242841288728389 
2277	 0.242993591135909 
2278	 0.243203005410665 
2279	 0.243354528079895 
2280	 0.243479838817957 
2281	 0.24363404457939 
2282	 0.243780352413348 
2283	 0.243929534218668 
2284	 0.244110626616538 
2285	 0.244258658814441 
2286	 0.244369361033987 
2287	 0.244501982970119 
2288	 0.244649200977682 
2289	 0.244779796724823 
2290	 0.244941673548646 
2291	 0.245041400466146 
2292	 0.245078738443969 
2293	 0.245137398901434 
2294	 0.245157312623035 
2295	 0.245187995193463 
2296	 0.245227115983825 
2297	 0.245298696983384 
2298	 0.245308379190248 
2299	 0.245302272330777 
2300	 0.24532842905843 
2301	 0.245324580121479 
2302	 0.245347243066915 
2303	 0.245422294290228 
2304	 0.245464997527527 
2305	 0.245460132162185 
2306	 0.245404668676204 
2307	 0.245272971437014 
2308	 0.245203334885084 
2309	 0.245100040768926 
2310	 0.245029525537567 
2311	 0.245009310701755 
2312	 0.24496728109059 
2313	 0.244922933110984 
2314	 0.244872709676391 
2315	 0.244839347954025 
2316	 0.244768169272868 
2317	 0.244663603165733 
2318	 0.244555492926426 
2319	 0.244433201730182 
2320	 0.24430263061548 
2321	 0.244137521039116 
2322	 0.244015418307912 
2323	 0.24389908496357 
2324	 0.24380435883082 
2325	 0.243782839442287 
2326	 0.243686053591014 
2327	 0.243561182437102 
2328	 0.2434167611124 
2329	 0.243264907844582 
2330	 0.243134253812651 
2331	 0.243007868445733 
2332	 0.242885834658379 
2333	 0.242723450822569 
2334	 0.242522018604744 
2335	 0.242330731915097 
2336	 0.242138610674427 
2337	 0.24194491097774 
2338	 0.241743520024408 
2339	 0.241532242699109 
2340	 0.241291548483064 
2341	 0.24105986932531 
2342	 0.240872179388683 
2343	 0.240649133129177 
2344	 0.2404464038167 
2345	 0.240229105323184 
2346	 0.240001749785444 
2347	 0.239716556777407 
2348	 0.239418226675369 
2349	 0.239110188455078 
2350	 0.238739008257077 
2351	 0.238409220639043 
2352	 0.238069675546726 
2353	 0.237778007204429 
2354	 0.237560945109224 
2355	 0.237240903718095 
2356	 0.236916127283725 
2357	 0.236574704810488 
2358	 0.236114647480191 
2359	 0.23574140466993 
2360	 0.235441169606312 
2361	 0.23508367985001 
2362	 0.234705284292475 
2363	 0.23435343214758 
2364	 0.234006356063578 
2365	 0.233660460103593 
2366	 0.233341514315041 
2367	 0.232984142872966 
2368	 0.232602152575372 
2369	 0.232209973341166 
2370	 0.231791381432263 
2371	 0.231394587978655 
2372	 0.231011405913109 
2373	 0.23055994235438 
2374	 0.230080453869741 
2375	 0.229647080108538 
2376	 0.229181803352091 
2377	 0.228760884340746 
2378	 0.228392261502085 
2379	 0.227965824107097 
2380	 0.227555065213468 
2381	 0.227157783625142 
2382	 0.226723603621777 
2383	 0.226263237062622 
2384	 0.225762984701206 
2385	 0.225221337557574 
2386	 0.224635273593954 
2387	 0.224115456713865 
2388	 0.223713554263548 
2389	 0.223256787772098 
2390	 0.222812249488901 
2391	 0.222393794288274 
2392	 0.221862542934615 
2393	 0.221341378385799 
2394	 0.220885555955915 
2395	 0.220377578611049 
2396	 0.219826857429597 
2397	 0.219353657269233 
2398	 0.218836107692373 
2399	 0.218321759942608 
2400	 0.217951036848785 
2401	 0.217522300123249 
2402	 0.217131592303401 
2403	 0.216743069694271 
2404	 0.216269604337332 
2405	 0.215810957947284 
2406	 0.215281049418862 
2407	 0.214811924820357 
2408	 0.21430102317241 
2409	 0.21371836196175 
2410	 0.213211768234089 
2411	 0.212623127561787 
2412	 0.212125044737036 
2413	 0.211713701766355 
2414	 0.211154034444254 
2415	 0.210719172166525 
2416	 0.21026550344458 
2417	 0.209717261496739 
2418	 0.209291943241537 
2419	 0.209034416493915 
2420	 0.208568222102698 
2421	 0.208072379422045 
2422	 0.207594100869384 
2423	 0.206971880810936 
2424	 0.206432061368199 
2425	 0.20601076773777 
2426	 0.205441749229212 
2427	 0.204781915829064 
2428	 0.20427393650347 
2429	 0.203722298019839 
2430	 0.203293367081527 
2431	 0.20303634154402 
2432	 0.202588266868854 
2433	 0.202145589249428 
2434	 0.20166574055438 
2435	 0.201038870602813 
2436	 0.200563747602555 
2437	 0.200171512594943 
2438	 0.19974835231711 
2439	 0.199389359938048 
2440	 0.198917450858411 
2441	 0.198358928520919 
2442	 0.197833414962213 
2443	 0.197261286832065 
2444	 0.196764956946414 
2445	 0.196397760108394 
2446	 0.195875063058 
2447	 0.195228179348927 
2448	 0.194680396367239 
2449	 0.194096418689544 
2450	 0.193563997433798 
2451	 0.193104241860624 
2452	 0.192711502031426 
2453	 0.192349141469653 
2454	 0.192001379014589 
2455	 0.191805530595548 
2456	 0.19141447649686 
2457	 0.19093521072964 
2458	 0.190405840804847 
2459	 0.189732226413806 
2460	 0.189150165944971 
2461	 0.188547127073191 
2462	 0.188068125730906 
2463	 0.18765349509903 
2464	 0.187208966715374 
2465	 0.186774889474451 
2466	 0.186453853981969 
2467	 0.186271105537975 
2468	 0.18603045733015 
2469	 0.185899582156324 
2470	 0.185518840211735 
2471	 0.185029978875932 
2472	 0.184551544469476 
2473	 0.184078416065455 
2474	 0.183688859626078 
2475	 0.183251503038168 
2476	 0.182665395263723 
2477	 0.182314946315822 
2478	 0.182114814002308 
2479	 0.18178309703662 
2480	 0.181444766474149 
2481	 0.181112804013179 
2482	 0.18056454648359 
2483	 0.179899384740992 
2484	 0.179602510115555 
2485	 0.17935048244952 
2486	 0.178987186994466 
2487	 0.178801685442023 
2488	 0.178290376518994 
2489	 0.177686625489762 
2490	 0.177264245671374 
2491	 0.176837304572852 
2492	 0.176714432252161 
2493	 0.176510247743562 
2494	 0.17611781857658 
2495	 0.175929935265597 
2496	 0.175554426446869 
2497	 0.175074689608847 
2498	 0.174864580742259 
2499	 0.17454762506323 
2500	 0.174211454681362 
