Wavelength	mm2200009.asd
350	 2.35612174103966E-02 
351	 2.86499836729906E-02 
352	 2.93368718795122E-02 
353	 2.36591224707169E-02 
354	 3.18395596849436E-02 
355	 3.29062427209028E-02 
356	 0.029850000904626 
357	 2.96668612235257E-02 
358	 2.90697832606439E-02 
359	 2.69673202808694E-02 
360	 2.64991432406049E-02 
361	 3.20743902739355E-02 
362	 3.22265027654013E-02 
363	 3.10392991521946E-02 
364	 3.14944391357601E-02 
365	 3.18216780340585E-02 
366	 3.15262967909655E-02 
367	 3.15995073009762E-02 
368	 3.27233796192823E-02 
369	 3.29942709282797E-02 
370	 3.07927741845031E-02 
371	 2.79400343935562E-02 
372	 2.83142468859593E-02 
373	 3.15046817909758E-02 
374	 3.19375541966267E-02 
375	 2.92241676081116E-02 
376	 0.033190165574471 
377	 3.14692930559032E-02 
378	 2.93720874039252E-02 
379	 3.38248403406316E-02 
380	 3.54187587480994E-02 
381	 3.41112675371883E-02 
382	 3.34793424548698E-02 
383	 3.84006721538149E-02 
384	 3.80629777288074E-02 
385	 3.43049813641374E-02 
386	 0.030989464248174 
387	 3.18933912799149E-02 
388	 3.53813720907276E-02 
389	 0.037997144317381 
390	 3.70847786172208E-02 
391	 3.66698869014092E-02 
392	 3.64010677179685E-02 
393	 3.65317788936299E-02 
394	 3.78037043312382E-02 
395	 3.76076792127146E-02 
396	 3.81882708832998E-02 
397	 4.02901563202192E-02 
398	 3.96507658712161E-02 
399	 3.96585020829376E-02 
400	 0.040287653273979 
401	 4.03090933236143E-02 
402	 3.90438335912319E-02 
403	 3.90381819930624E-02 
404	 0.040207607876449 
405	 3.98016794700239E-02 
406	 4.02810050337067E-02 
407	 4.11407575738912E-02 
408	 4.13780539238252E-02 
409	 0.040056842480337 
410	 3.92042214960471E-02 
411	 3.91970139485874E-02 
412	 3.95680794551482E-02 
413	 0.040250775454586 
414	 4.07916900488263E-02 
415	 0.040821718058773 
416	 4.00724360100758E-02 
417	 3.99031848020096E-02 
418	 4.05800774998157E-02 
419	 4.15329699639047E-02 
420	 4.04815697136933E-02 
421	 3.95263917906308E-02 
422	 3.98180527202902E-02 
423	 4.14681169772893E-02 
424	 4.10814507335204E-02 
425	 4.04221801067672E-02 
426	 4.06773151370611E-02 
427	 4.08457342157952E-02 
428	 4.02311075895219E-02 
429	 3.95707720921003E-02 
430	 0.039790520854244 
431	 4.01642280601046E-02 
432	 4.02365864985662E-02 
433	 4.00351743410519E-02 
434	 4.00148111741997E-02 
435	 4.02327026081114E-02 
436	 0.04040279644601 
437	 4.02686589803943E-02 
438	 3.97043922897685E-02 
439	 3.99683854085211E-02 
440	 4.05983527464967E-02 
441	 4.04217147368181E-02 
442	 4.02445691266898E-02 
443	 4.02541239079692E-02 
444	 4.03835801783783E-02 
445	 4.02922620238666E-02 
446	 4.01296915096734E-02 
447	 4.00277194789645E-02 
448	 0.040082944663029 
449	 4.02727541660021E-02 
450	 4.03886503290995E-02 
451	 4.03395282600366E-02 
452	 4.01461488656003E-02 
453	 3.97962377732502E-02 
454	 0.039654871447421 
455	 3.98710109520962E-02 
456	 3.99763067385071E-02 
457	 3.98272157091454E-02 
458	 0.03965152753274 
459	 3.97713343520138E-02 
460	 3.96997469248217E-02 
461	 3.95592848597685E-02 
462	 3.94760601035484E-02 
463	 3.95009385535037E-02 
464	 3.95858078112974E-02 
465	 3.95774875355431E-02 
466	 3.93993498424732E-02 
467	 3.93760642587614E-02 
468	 3.93867576284656E-02 
469	 3.92867841649457E-02 
470	 3.89669161632078E-02 
471	 3.90579714483866E-02 
472	 3.92071238635851E-02 
473	 3.91367607069485E-02 
474	 3.91577081203818E-02 
475	 3.91360930816078E-02 
476	 3.90035332565321E-02 
477	 3.87884396283258E-02 
478	 3.90394899989611E-02 
479	 3.90173276394645E-02 
480	 3.86533816993976E-02 
481	 3.89510396230029E-02 
482	 3.90296326831963E-02 
483	 3.90306609205917E-02 
484	 3.92029282183498E-02 
485	 3.90645569279825E-02 
486	 3.87979906650509E-02 
487	 3.85887315129282E-02 
488	 3.85917239116311E-02 
489	 3.86766878003603E-02 
490	 3.86899848549559E-02 
491	 3.85888666214102E-02 
492	 3.86143578841834E-02 
493	 3.84928060572881E-02 
494	 3.83814488417272E-02 
495	 3.85670622938626E-02 
496	 3.86991883841142E-02 
497	 3.85689479240025E-02 
498	 3.83061758659274E-02 
499	 3.85186439674152E-02 
500	 3.85134103853704E-02 
501	 3.84052111062475E-02 
502	 3.84528880067894E-02 
503	 3.84355768975108E-02 
504	 3.84409181321023E-02 
505	 3.84546255147579E-02 
506	 3.83732029469404E-02 
507	 0.038439630554148 
508	 3.84570162579809E-02 
509	 3.83192194805346E-02 
510	 3.84071239329188E-02 
511	 3.83899891348308E-02 
512	 3.82719169632595E-02 
513	 3.82349518157744E-02 
514	 3.83367480615652E-02 
515	 3.83847570125052E-02 
516	 3.83289899037376E-02 
517	 3.84083845382298E-02 
518	 0.038503905712549 
519	 3.85080721275556E-02 
520	 3.83881710919931E-02 
521	 3.84813276817107E-02 
522	 3.85526080304816E-02 
523	 3.85157991812456E-02 
524	 3.84739579065571E-02 
525	 3.85095572037425E-02 
526	 3.84990622537588E-02 
527	 3.83799259286424E-02 
528	 0.038429028038915 
529	 3.85554969266957E-02 
530	 3.86721428959281E-02 
531	 0.038702055335524 
532	 3.86430420626562E-02 
533	 0.038657536574147 
534	 3.88002653473225E-02 
535	 3.88681391399371E-02 
536	 3.88906970599754E-02 
537	 3.88891500345524E-02 
538	 3.88946561499471E-02 
539	 3.89670318333066E-02 
540	 3.90582457504107E-02 
541	 3.91302858508782E-02 
542	 3.91706361065477E-02 
543	 3.91899963753966E-02 
544	 3.92222963461897E-02 
545	 3.93063023091801E-02 
546	 3.94948077689459E-02 
547	 3.95755267634299E-02 
548	 3.95639636304554E-02 
549	 3.96657244373833E-02 
550	 3.97863171699298E-02 
551	 3.98855576074503E-02 
552	 3.99786196032593E-02 
553	 4.02184659695485E-02 
554	 4.03688119261585E-02 
555	 4.04681118887971E-02 
556	 4.06794870015831E-02 
557	 4.08617883708228E-02 
558	 4.10418992960081E-02 
559	 0.041249391826724 
560	 4.14895339117751E-02 
561	 4.16940006659672E-02 
562	 4.19418799292716E-02 
563	 4.23263592304563E-02 
564	 4.27224389946628E-02 
565	 4.31039797372085E-02 
566	 4.34593053512467E-02 
567	 0.043787691934812 
568	 4.42054138468426E-02 
569	 4.46816339002791E-02 
570	 4.51723457577954E-02 
571	 4.57285723591812E-02 
572	 4.63024921452809E-02 
573	 4.68786642857574E-02 
574	 0.047469702469773 
575	 4.81349775279746E-02 
576	 4.87975803536807E-02 
577	 4.94100601773439E-02 
578	 5.00183548984361E-02 
579	 5.07572665366083E-02 
580	 5.15881441445622E-02 
581	 5.23989146938622E-02 
582	 5.31779399381699E-02 
583	 5.40092651102148E-02 
584	 5.49177585501785E-02 
585	 5.58387654282549E-02 
586	 0.056763322694193 
587	 5.77040462793388E-02 
588	 5.86745261805936E-02 
589	 5.96584128420318E-02 
590	 6.06464182319305E-02 
591	 6.16360954614165E-02 
592	 6.26342012277528E-02 
593	 6.36343796927955E-02 
594	 6.46428444761424E-02 
595	 6.56427798776704E-02 
596	 6.65451432649816E-02 
597	 6.74800654424587E-02 
598	 6.84219765024824E-02 
599	 6.92838915883821E-02 
600	 7.02258386117638E-02 
601	 7.11480716209227E-02 
602	 7.19846014559625E-02 
603	 7.27808875946682E-02 
604	 7.36316734343018E-02 
605	 0.074458784555051 
606	 7.51634389955893E-02 
607	 7.59171542484688E-02 
608	 7.66360650781846E-02 
609	 7.73025866586789E-02 
610	 7.79909262721554E-02 
611	 7.86380241270128E-02 
612	 7.92128385123988E-02 
613	 7.97141046161846E-02 
614	 8.02151142987492E-02 
615	 0.080685341348043 
616	 0.081126183560639 
617	 8.15576422728164E-02 
618	 8.19751359683267E-02 
619	 8.23488617496652E-02 
620	 8.26713385908771E-02 
621	 8.29810383919103E-02 
622	 8.33288100635222E-02 
623	 8.36680365510703E-02 
624	 8.39326436031215E-02 
625	 8.42333068234193E-02 
626	 8.45207842310054E-02 
627	 8.47791742499413E-02 
628	 8.50526805594041E-02 
629	 8.52907985251184E-02 
630	 8.55116736889457E-02 
631	 8.57415539186731E-02 
632	 8.59545685474927E-02 
633	 8.61888896100528E-02 
634	 8.64335641536004E-02 
635	 8.66414411528587E-02 
636	 8.68713093688675E-02 
637	 0.087106623249213 
638	 8.73291240323539E-02 
639	 8.75485902851768E-02 
640	 0.087772630392563 
641	 0.088009451516637 
642	 8.82610270041342E-02 
643	 8.84892259228655E-02 
644	 8.87188567503066E-02 
645	 8.89662711379058E-02 
646	 8.92270775544779E-02 
647	 8.94636663021574E-02 
648	 8.97092908516709E-02 
649	 8.99965614370609E-02 
650	 9.02592731661617E-02 
651	 9.05352783028489E-02 
652	 0.090822336982212 
653	 9.10864598380082E-02 
654	 9.14040061614605E-02 
655	 9.17180635516065E-02 
656	 9.20004387051195E-02 
657	 9.23563179855662E-02 
658	 9.27213056960794E-02 
659	 9.30716438586945E-02 
660	 9.34073708209629E-02 
661	 9.37581125499023E-02 
662	 0.094151398049228 
663	 9.45649710426548E-02 
664	 9.49044749617579E-02 
665	 9.53017752469005E-02 
666	 0.095721274181668 
667	 9.61097387840822E-02 
668	 9.65594502741966E-02 
669	 9.69781057578189E-02 
670	 9.73752075672591E-02 
671	 9.78406778324817E-02 
672	 9.82842027006775E-02 
673	 9.87505812168768E-02 
674	 9.92749062652117E-02 
675	 9.98246106650826E-02 
676	 0.100326938535049 
677	 0.100796600384816 
678	 0.101288096935058 
679	 0.101801930330735 
680	 0.1023415151273 
681	 0.102914550203078 
682	 0.103535980459098 
683	 0.104082810043571 
684	 0.104643586734329 
685	 0.105304636237495 
686	 0.105938388794195 
687	 0.106538453144061 
688	 0.10714522757494 
689	 0.107817895051852 
690	 0.108425483299782 
691	 0.109030579058676 
692	 0.109691128426239 
693	 0.110407607118189 
694	 0.111081942547975 
695	 0.111735872660331 
696	 0.112429458672821 
697	 0.113154449757888 
698	 0.113853831698725 
699	 0.114525478578594 
700	 0.11522613224416 
701	 0.115974054476421 
702	 0.116706435378486 
703	 0.117389257285899 
704	 0.118123178731867 
705	 0.118837831002959 
706	 0.119535836667238 
707	 0.120254094897037 
708	 0.120980746219111 
709	 0.121717408896737 
710	 0.122465422794858 
711	 0.123228343925051 
712	 0.123929074212049 
713	 0.12459509288242 
714	 0.125284138358546 
715	 0.126044325198452 
716	 0.126756895769516 
717	 0.127412742605714 
718	 0.128083921143142 
719	 0.128749740293866 
720	 0.129384203544316 
721	 0.129978872110217 
722	 0.130560684983899 
723	 0.131166230559089 
724	 0.131770328383412 
725	 0.132333239080949 
726	 0.132870330375927 
727	 0.133375684552522 
728	 0.13385599815088 
729	 0.134329158550585 
730	 0.134790491074475 
731	 0.135217571536076 
732	 0.135604954613015 
733	 0.135996010575747 
734	 0.136365007794833 
735	 0.136684357115576 
736	 0.13693936868614 
737	 0.137198035520278 
738	 0.137441879095162 
739	 0.137659956425839 
740	 0.137855768306105 
741	 0.137978384858743 
742	 0.13806752035719 
743	 0.138165263272828 
744	 0.138271308271607 
745	 0.138314959250664 
746	 0.138293098160472 
747	 0.13824276018795 
748	 0.138212522189473 
749	 0.138140088003734 
750	 0.138019626350301 
751	 0.137923787288648 
752	 0.137785768664124 
753	 0.137616183703099 
754	 0.137434232925908 
755	 0.137230410208804 
756	 0.13701068018343 
757	 0.136755152587432 
758	 0.136444394937847 
759	 0.136159056589837 
760	 0.135857263961886 
761	 0.135511749283355 
762	 0.135129543279851 
763	 0.134782395415196 
764	 0.134433760500712 
765	 0.134044758490648 
766	 0.133648767332993 
767	 0.133256131044757 
768	 0.132856320026847 
769	 0.132430401742485 
770	 0.131991303442165 
771	 0.131533969201018 
772	 0.131066083462401 
773	 0.130611102611166 
774	 0.13013879581249 
775	 0.129678180014025 
776	 0.12923960763507 
777	 0.128744124748164 
778	 0.128260761599736 
779	 0.127796155055625 
780	 0.127328774819711 
781	 0.12685746709935 
782	 0.126397267712941 
783	 0.125935656228788 
784	 0.125435260003682 
785	 0.124963375593097 
786	 0.124504885996777 
787	 0.124037161579691 
788	 0.123554746554983 
789	 0.12312952383509 
790	 0.12268812047506 
791	 0.122146802249278 
792	 0.121671790714512 
793	 0.121226250237157 
794	 0.120786939671313 
795	 0.120351132456474 
796	 0.119908735754706 
797	 0.119471338026829 
798	 0.119047704565056 
799	 0.118636768700339 
800	 0.118212559181786 
801	 0.117781267165158 
802	 0.117357796811066 
803	 0.116943379237224 
804	 0.116557755066942 
805	 0.11619905882231 
806	 0.11584665765856 
807	 0.115451436701356 
808	 0.115070967907023 
809	 0.114724604184879 
810	 0.114365688426234 
811	 0.113992032294322 
812	 0.113631251599534 
813	 0.113303311580622 
814	 0.11298623386697 
815	 0.112707136175219 
816	 0.112416182023402 
817	 0.112063089378273 
818	 0.111767840169164 
819	 0.111498000862984 
820	 0.111224924376416 
821	 0.110937075517508 
822	 0.11069866560338 
823	 0.11042425269145 
824	 0.110105297099949 
825	 0.109891937796928 
826	 0.109689515381438 
827	 0.109473941221945 
828	 0.109244998586361 
829	 0.109017065421356 
830	 0.108768472216944 
831	 0.108544029351533 
832	 0.108400410058491 
833	 0.108272695633616 
834	 0.108080113709666 
835	 0.107838632349344 
836	 0.107653733640671 
837	 0.107547969042358 
838	 0.107448653333762 
839	 0.107303268359373 
840	 0.107123377046002 
841	 0.106973368839116 
842	 0.106855649007046 
843	 0.106753454526626 
844	 0.106657198006224 
845	 0.106579966206959 
846	 0.106493415452886 
847	 0.106371345394654 
848	 0.106311535130949 
849	 0.106227033157806 
850	 0.106146774938809 
851	 0.106182303389946 
852	 0.106132646147654 
853	 0.106059185785198 
854	 0.106020133572426 
855	 0.106011340142186 
856	 0.106038205388058 
857	 0.106053883239522 
858	 0.106036415786849 
859	 0.106056672451152 
860	 0.106083557417399 
861	 0.106096293084747 
862	 0.106085700489939 
863	 0.106071161114567 
864	 0.106108090571387 
865	 0.106194994744847 
866	 0.106289059818841 
867	 0.106351126645758 
868	 0.106402458575949 
869	 0.106458128793215 
870	 0.106523423741463 
871	 0.106663462043926 
872	 0.106796011182952 
873	 0.106884301546573 
874	 0.107003239514021 
875	 0.107141985024763 
876	 0.107256575739119 
877	 0.107341240031899 
878	 0.107515417685426 
879	 0.107677001625568 
880	 0.107808488062532 
881	 0.107938866346222 
882	 0.108151891798621 
883	 0.108350829997962 
884	 0.108527283154441 
885	 0.108728815715914 
886	 0.108997216405924 
887	 0.109234766540413 
888	 0.109422940182666 
889	 0.10962122492754 
890	 0.109851908700571 
891	 0.110078406512175 
892	 0.110297181090606 
893	 0.110553982796598 
894	 0.110833079070296 
895	 0.111111157177325 
896	 0.111381566963015 
897	 0.111670047055527 
898	 0.112001951593417 
899	 0.112318662675365 
900	 0.112590779136705 
901	 0.112927323136344 
902	 0.113254397799698 
903	 0.113575231378239 
904	 0.113912030858443 
905	 0.114253029037415 
906	 0.114639948037689 
907	 0.115049963426267 
908	 0.115443385598948 
909	 0.115876398016944 
910	 0.116269460559867 
911	 0.116651451920687 
912	 0.117099320167957 
913	 0.117467522609762 
914	 0.117880081928684 
915	 0.118357876133575 
916	 0.118815869974879 
917	 0.119276929990397 
918	 0.119756812081371 
919	 0.120248975885312 
920	 0.12072471642939 
921	 0.12123246254359 
922	 0.121790012476755 
923	 0.122336124113388 
924	 0.122724980364227 
925	 0.123259650423043 
926	 0.123888111981741 
927	 0.124499858320945 
928	 0.125032820713226 
929	 0.125611465407363 
930	 0.126231782575526 
931	 0.126857765688688 
932	 0.127468059795251 
933	 0.128083305040675 
934	 0.128720880067063 
935	 0.129383303049442 
936	 0.130033450937316 
937	 0.130706819146798 
938	 0.131372735100946 
939	 0.132017351638669 
940	 0.132763000364277 
941	 0.13344662150753 
942	 0.134125790884685 
943	 0.13490755731473 
944	 0.135725503820033 
945	 0.136427053812152 
946	 0.137102492645652 
947	 0.137893609365161 
948	 0.138624502810786 
949	 0.139359923446178 
950	 0.140190570199199 
951	 0.141146375996593 
952	 0.141948682674203 
953	 0.142694465997126 
954	 0.143494256075495 
955	 0.144412525044556 
956	 0.145307320338667 
957	 0.146184465425397 
958	 0.14705322348098 
959	 0.147915402597354 
960	 0.148724086844629 
961	 0.14964459290617 
962	 0.15063007048727 
963	 0.151510248250078 
964	 0.152324379101566 
965	 0.153250741923699 
966	 0.154262028843795 
967	 0.1552081174469 
968	 0.156162320699193 
969	 0.157059615410685 
970	 0.157942684827996 
971	 0.158907851620448 
972	 0.159896091503288 
973	 0.160919882010357 
974	 0.161951915807383 
975	 0.162950147381913 
976	 0.163970998118612 
977	 0.164929312708007 
978	 0.16590554734986 
979	 0.167030802540239 
980	 0.16807226813747 
981	 0.169078379727258 
982	 0.170068929390108 
983	 0.171033138619466 
984	 0.17193650496527 
985	 0.172920895897486 
986	 0.174017604195546 
987	 0.175158216643892 
988	 0.176211548290087 
989	 0.177204307996854 
990	 0.178155402448989 
991	 0.179099993450598 
992	 0.18015237469312 
993	 0.181235191862838 
994	 0.182264842420133 
995	 0.183206062353515 
996	 0.184191921623998 
997	 0.185241692786029 
998	 0.186240882914786 
999	 0.187141702899224 
1000	 0.188304217484946 
1001	 0.188363162017199 
1002	 0.189300785864854 
1003	 0.19032741821363 
1004	 0.191257015912176 
1005	 0.192191732534386 
1006	 0.193075476243673 
1007	 0.19388306790725 
1008	 0.194666726673291 
1009	 0.195504647595905 
1010	 0.196297285142759 
1011	 0.197158896010909 
1012	 0.19803152645398 
1013	 0.198811341282071 
1014	 0.199616324958295 
1015	 0.200437633204492 
1016	 0.201180304071361 
1017	 0.201958133505898 
1018	 0.20275010296681 
1019	 0.203572883567244 
1020	 0.204339608138678 
1021	 0.205045831128559 
1022	 0.205713549082415 
1023	 0.206397306925741 
1024	 0.207053013356692 
1025	 0.207721287634482 
1026	 0.208412642563338 
1027	 0.209128662344844 
1028	 0.20985967041847 
1029	 0.210556180900935 
1030	 0.211257887602354 
1031	 0.211909953582614 
1032	 0.212497444085303 
1033	 0.213052822573573 
1034	 0.213672278926769 
1035	 0.214282462167852 
1036	 0.21490714549237 
1037	 0.215528551444122 
1038	 0.216080300469174 
1039	 0.21662117055566 
1040	 0.217164827204998 
1041	 0.217718841729096 
1042	 0.21834993215201 
1043	 0.218960369097536 
1044	 0.21950943337592 
1045	 0.220014860680792 
1046	 0.220546831461971 
1047	 0.221030396675847 
1048	 0.221500988276127 
1049	 0.222080623720945 
1050	 0.22265447075463 
1051	 0.2232215950562 
1052	 0.223805173941318 
1053	 0.224329472413134 
1054	 0.22484043353603 
1055	 0.225335461101304 
1056	 0.225836427451608 
1057	 0.226370630398106 
1058	 0.226964451121306 
1059	 0.227490750659575 
1060	 0.227994185751109 
1061	 0.228525962920065 
1062	 0.229022978256951 
1063	 0.229509557959527 
1064	 0.230042431721502 
1065	 0.230521811225504 
1066	 0.230958523816563 
1067	 0.231437180888687 
1068	 0.231904334005427 
1069	 0.232368977442371 
1070	 0.232872432124004 
1071	 0.233434208248717 
1072	 0.233948260938963 
1073	 0.234463348372517 
1074	 0.234961537143617 
1075	 0.235442131867776 
1076	 0.235899009331905 
1077	 0.236352041634696 
1078	 0.236779722137924 
1079	 0.237217881069142 
1080	 0.237622554018378 
1081	 0.237995139330998 
1082	 0.23846160411884 
1083	 0.238918965612549 
1084	 0.239380562724692 
1085	 0.239841336820549 
1086	 0.240344283177166 
1087	 0.240779775768054 
1088	 0.241161487121114 
1089	 0.241601555763561 
1090	 0.242025175634233 
1091	 0.2424219736756 
1092	 0.242846390226108 
1093	 0.243236838107198 
1094	 0.243585709666825 
1095	 0.243973040016229 
1096	 0.244346631166083 
1097	 0.244723047735514 
1098	 0.245123720883355 
1099	 0.245565149860674 
1100	 0.245949159410091 
1101	 0.246323185204583 
1102	 0.24668606766385 
1103	 0.247023533823497 
1104	 0.247344555189305 
1105	 0.247661540454525 
1106	 0.248047220996969 
1107	 0.248394388814005 
1108	 0.248723674096265 
1109	 0.249103480753765 
1110	 0.249454457551551 
1111	 0.24979969745241 
1112	 0.250157338862654 
1113	 0.250488276341981 
1114	 0.250789156089491 
1115	 0.251104377017004 
1116	 0.251411053032906 
1117	 0.251720209870386 
1118	 0.252031724126402 
1119	 0.252343410602875 
1120	 0.252643244581468 
1121	 0.252953414899524 
1122	 0.253281371812696 
1123	 0.253593726029853 
1124	 0.253898273982864 
1125	 0.254214970349762 
1126	 0.254498449929473 
1127	 0.254746889711626 
1128	 0.255015834498078 
1129	 0.255266764488593 
1130	 0.255543728182547 
1131	 0.255858015534954 
1132	 0.256136247173526 
1133	 0.256402111724221 
1134	 0.25667484177092 
1135	 0.256940887929019 
1136	 0.257185543542792 
1137	 0.257455192034203 
1138	 0.257722810795238 
1139	 0.257977316561637 
1140	 0.258218213661449 
1141	 0.258471065032921 
1142	 0.258729555888607 
1143	 0.258971602184206 
1144	 0.259220572321908 
1145	 0.25943969527721 
1146	 0.259630625947488 
1147	 0.259828402877697 
1148	 0.260001643058374 
1149	 0.260196182012459 
1150	 0.260393094887538 
1151	 0.26060803449081 
1152	 0.260826926236208 
1153	 0.261063302930127 
1154	 0.26126841793071 
1155	 0.261456829109013 
1156	 0.261658609984863 
1157	 0.261856902757003 
1158	 0.262044036305184 
1159	 0.262236636975674 
1160	 0.262427326724335 
1161	 0.262589317559238 
1162	 0.26277679723358 
1163	 0.262988412790007 
1164	 0.263189590143763 
1165	 0.263388677258218 
1166	 0.263605497495762 
1167	 0.26378974492852 
1168	 0.263965802489228 
1169	 0.264142804735643 
1170	 0.264299961140334 
1171	 0.264477562931838 
1172	 0.264675622901776 
1173	 0.264848929347127 
1174	 0.265015597484856 
1175	 0.265184750159031 
1176	 0.265343263524542 
1177	 0.265501142928385 
1178	 0.265656605008919 
1179	 0.265819911447505 
1180	 0.265993308634419 
1181	 0.26614997563827 
1182	 0.266304758110747 
1183	 0.266462561666785 
1184	 0.266603741787008 
1185	 0.266720958299362 
1186	 0.26685054444296 
1187	 0.266979412400587 
1188	 0.267112713384834 
1189	 0.267241638786968 
1190	 0.26738026445459 
1191	 0.26753972328104 
1192	 0.267674125539229 
1193	 0.267793643233231 
1194	 0.267924197516793 
1195	 0.268040630520135 
1196	 0.268170361009239 
1197	 0.268326296561817 
1198	 0.26846629917629 
1199	 0.268601362847331 
1200	 0.268738978279705 
1201	 0.268852654239239 
1202	 0.268946838461167 
1203	 0.269051261907004 
1204	 0.26914102237673 
1205	 0.269244541332449 
1206	 0.26935790440526 
1207	 0.269468443234619 
1208	 0.269592995273127 
1209	 0.269692522438012 
1210	 0.269770264283803 
1211	 0.269865963412254 
1212	 0.269943194201047 
1213	 0.270042434664699 
1214	 0.270178649826167 
1215	 0.270297729447231 
1216	 0.270414135360073 
1217	 0.270538880675427 
1218	 0.270635401299293 
1219	 0.270720042573765 
1220	 0.270791944515016 
1221	 0.27083474076243 
1222	 0.270898747209448 
1223	 0.270953113899232 
1224	 0.271025481624924 
1225	 0.271121064408087 
1226	 0.271201620447419 
1227	 0.271280635921899 
1228	 0.271363039315965 
1229	 0.271447285707409 
1230	 0.271522709449859 
1231	 0.27159451414737 
1232	 0.271669940422524 
1233	 0.271743566905968 
1234	 0.27181083801385 
1235	 0.271875267664766 
1236	 0.271942598659623 
1237	 0.272007972004328 
1238	 0.272068982506028 
1239	 0.272121578023369 
1240	 0.27217097841517 
1241	 0.272224720185369 
1242	 0.272263759182134 
1243	 0.272316079068863 
1244	 0.272375547409387 
1245	 0.272444578157829 
1246	 0.272531947835392 
1247	 0.272603991168477 
1248	 0.27268058500016 
1249	 0.272753153472515 
1250	 0.272812425274334 
1251	 0.272862631814879 
1252	 0.272916768325165 
1253	 0.272974670873087 
1254	 0.273025026451176 
1255	 0.273067224401617 
1256	 0.273112967625674 
1257	 0.273166915898345 
1258	 0.27320107476691 
1259	 0.273211071731666 
1260	 0.27324901428233 
1261	 0.273295655685588 
1262	 0.273330746118937 
1263	 0.273382947488906 
1264	 0.273424265635178 
1265	 0.273430127556559 
1266	 0.273462720209712 
1267	 0.273521538178227 
1268	 0.273570173594255 
1269	 0.273608708431823 
1270	 0.273645162731489 
1271	 0.273690278873783 
1272	 0.273725611816214 
1273	 0.273769317530961 
1274	 0.273825208989848 
1275	 0.273881085086178 
1276	 0.273928945497299 
1277	 0.273993944803225 
1278	 0.274077782104391 
1279	 0.274155334153373 
1280	 0.274239256342725 
1281	 0.274314986073826 
1282	 0.27438745596638 
1283	 0.274462434236252 
1284	 0.274540361248112 
1285	 0.274604706372046 
1286	 0.274674830345004 
1287	 0.274758575788998 
1288	 0.274834799517317 
1289	 0.274911893273277 
1290	 0.27498522391411 
1291	 0.275057594716708 
1292	 0.275127562158467 
1293	 0.275195590131189 
1294	 0.275259077143903 
1295	 0.275315110064885 
1296	 0.27537871149782 
1297	 0.275446453427257 
1298	 0.275509114806051 
1299	 0.275580695685201 
1300	 0.27563451286795 
1301	 0.275676221253504 
1302	 0.27571235617011 
1303	 0.275730155034683 
1304	 0.275758819804232 
1305	 0.275788229816128 
1306	 0.275831604676468 
1307	 0.275868761964323 
1308	 0.275881806768867 
1309	 0.275892016767284 
1310	 0.275880109604872 
1311	 0.275875639580291 
1312	 0.27587399349961 
1313	 0.275866841600019 
1314	 0.275857796021958 
1315	 0.275840042057396 
1316	 0.275816259152439 
1317	 0.27578556837789 
1318	 0.275744668653327 
1319	 0.27570592366459 
1320	 0.275664038689188 
1321	 0.27562103021337 
1322	 0.275585419271612 
1323	 0.275533955371834 
1324	 0.275456876041355 
1325	 0.275389081320638 
1326	 0.275333169628323 
1327	 0.275267576467055 
1328	 0.275207758245927 
1329	 0.275146758481624 
1330	 0.275066420484779 
1331	 0.27496241398561 
1332	 0.274861541038523 
1333	 0.274757631667931 
1334	 0.274652202274309 
1335	 0.274537478634817 
1336	 0.27442321919943 
1337	 0.274302104227635 
1338	 0.274190120685452 
1339	 0.274080269758912 
1340	 0.273970164748949 
1341	 0.273875888040123 
1342	 0.273768275957173 
1343	 0.273641492231484 
1344	 0.273533870311597 
1345	 0.273431481335663 
1346	 0.273303949900941 
1347	 0.273195033628707 
1348	 0.273092356950629 
1349	 0.272963828189991 
1350	 0.272842315011377 
1351	 0.272723058439619 
1352	 0.272593801525746 
1353	 0.272477034695104 
1354	 0.27236722597505 
1355	 0.272264149074678 
1356	 0.27217233821401 
1357	 0.272068724850749 
1358	 0.271967690261541 
1359	 0.27186788697212 
1360	 0.271755373710899 
1361	 0.271654944798869 
1362	 0.271577799550445 
1363	 0.271478888902018 
1364	 0.271364275240169 
1365	 0.271258324563325 
1366	 0.271150265968807 
1367	 0.271030539400899 
1368	 0.270938124805533 
1369	 0.270860076594158 
1370	 0.270758052373667 
1371	 0.27065649101013 
1372	 0.270522033664635 
1373	 0.270376506454682 
1374	 0.270229941322064 
1375	 0.270082321007065 
1376	 0.269901635856222 
1377	 0.269717727961183 
1378	 0.269494586315188 
1379	 0.269222508132341 
1380	 0.268966210598568 
1381	 0.26869983999045 
1382	 0.268418889329443 
1383	 0.268150300244057 
1384	 0.267835160965303 
1385	 0.267515599024916 
1386	 0.26713623239356 
1387	 0.266691683764818 
1388	 0.26625047005483 
1389	 0.265789915088743 
1390	 0.265280352781866 
1391	 0.264774406374633 
1392	 0.264260796014988 
1393	 0.263684732230327 
1394	 0.263072532505531 
1395	 0.262394666808978 
1396	 0.261681352796263 
1397	 0.260979043475419 
1398	 0.260241711630228 
1399	 0.25951795457033 
1400	 0.258811906386689 
1401	 0.258076422452621 
1402	 0.257315802153971 
1403	 0.256567029079699 
1404	 0.255804103692418 
1405	 0.255060728577138 
1406	 0.254316584205083 
1407	 0.253587510466463 
1408	 0.252862907791181 
1409	 0.252169932680229 
1410	 0.251485501295379 
1411	 0.25084119917489 
1412	 0.250233341339666 
1413	 0.249634827558746 
1414	 0.249084034665645 
1415	 0.248564852636405 
1416	 0.248050881248762 
1417	 0.247579678606292 
1418	 0.247119842264109 
1419	 0.246674618453108 
1420	 0.246277183152256 
1421	 0.245898836821604 
1422	 0.245546436313743 
1423	 0.245220171931974 
1424	 0.244889612721021 
1425	 0.244559266390158 
1426	 0.244261210771708 
1427	 0.24396558228667 
1428	 0.243711908327962 
1429	 0.243504459457986 
1430	 0.243296787851289 
1431	 0.243111081501956 
1432	 0.242930442564705 
1433	 0.242750815194728 
1434	 0.242597634938457 
1435	 0.242458822509679 
1436	 0.24234383076955 
1437	 0.242265265722747 
1438	 0.242176246557236 
1439	 0.242098368245802 
1440	 0.242026024298022 
1441	 0.241943332694176 
1442	 0.241864743666529 
1443	 0.241794752433808 
1444	 0.241737104766092 
1445	 0.241698878320848 
1446	 0.241671095492444 
1447	 0.241647941391525 
1448	 0.241629583237296 
1449	 0.241606617333775 
1450	 0.241584923033629 
1451	 0.241573725622738 
1452	 0.241571974967896 
1453	 0.241569942580598 
1454	 0.241573296715156 
1455	 0.241578951371098 
1456	 0.241591066518678 
1457	 0.241599972638968 
1458	 0.241608341873801 
1459	 0.241620765016012 
1460	 0.241618682273603 
1461	 0.241647657982052 
1462	 0.241700448808006 
1463	 0.24174622254308 
1464	 0.241806942009783 
1465	 0.241867175776615 
1466	 0.241915243056488 
1467	 0.241981596093577 
1468	 0.242059801074114 
1469	 0.242151498595702 
1470	 0.242254435530968 
1471	 0.242363914566168 
1472	 0.2425036528934 
1473	 0.242645409687139 
1474	 0.242780600702452 
1475	 0.242929144656014 
1476	 0.243068053559987 
1477	 0.24321448448735 
1478	 0.243380687696219 
1479	 0.243547116906087 
1480	 0.243735728419546 
1481	 0.243923210277815 
1482	 0.244107872573619 
1483	 0.244295151192195 
1484	 0.24449141026886 
1485	 0.244690753383511 
1486	 0.244888196849617 
1487	 0.245090212351805 
1488	 0.245298588287996 
1489	 0.245504582187114 
1490	 0.245710511459224 
1491	 0.245943164402369 
1492	 0.246140809800162 
1493	 0.246311234313307 
1494	 0.246493307521396 
1495	 0.246656578881438 
1496	 0.246836586375819 
1497	 0.247039505941466 
1498	 0.247223449797472 
1499	 0.247403756538925 
1500	 0.247578569928836 
1501	 0.247734175837885 
1502	 0.247902479103909 
1503	 0.2480691674531 
1504	 0.248251237407424 
1505	 0.24844211312871 
1506	 0.248624418964861 
1507	 0.24880833279051 
1508	 0.24898757799254 
1509	 0.249151869805479 
1510	 0.249308602827203 
1511	 0.249465843800162 
1512	 0.24961304073799 
1513	 0.249765547474937 
1514	 0.249927137160171 
1515	 0.25006926307838 
1516	 0.250219812566008 
1517	 0.250364047631863 
1518	 0.250494844517541 
1519	 0.250640148018991 
1520	 0.250795808838728 
1521	 0.250937808246625 
1522	 0.251079106330053 
1523	 0.251217745706796 
1524	 0.251354533101005 
1525	 0.251482068197113 
1526	 0.251602167796975 
1527	 0.251726273083309 
1528	 0.251839191166962 
1529	 0.251959367758969 
1530	 0.252094219033886 
1531	 0.252214539038815 
1532	 0.252331116370258 
1533	 0.25243721039949 
1534	 0.252526601488478 
1535	 0.252626912850759 
1536	 0.252717494901634 
1537	 0.252824570053704 
1538	 0.25295329245529 
1539	 0.253066929146196 
1540	 0.253183134195452 
1541	 0.25329503853109 
1542	 0.253398423135217 
1543	 0.253498023422135 
1544	 0.253608354637858 
1545	 0.253693161430544 
1546	 0.253754742085817 
1547	 0.253819516025172 
1548	 0.253875860199503 
1549	 0.25391943061721 
1550	 0.253982752300442 
1551	 0.254058035501769 
1552	 0.254135109028825 
1553	 0.254214353623444 
1554	 0.254287226900351 
1555	 0.254350701483757 
1556	 0.254410611647642 
1557	 0.254473496968293 
1558	 0.254538802546601 
1559	 0.254601877336353 
1560	 0.254665012424197 
1561	 0.25472644478967 
1562	 0.254789652152811 
1563	 0.254853744418034 
1564	 0.254915236858312 
1565	 0.254979498498765 
1566	 0.25503339352986 
1567	 0.255075630606335 
1568	 0.25513379691196 
1569	 0.255196699398239 
1570	 0.255248716811891 
1571	 0.255308794264976 
1572	 0.255361620026415 
1573	 0.255396324158785 
1574	 0.25544054703963 
1575	 0.255501735537193 
1576	 0.255537877166768 
1577	 0.255559826717132 
1578	 0.255584178773326 
1579	 0.255582820979266 
1580	 0.255612653239786 
1581	 0.255662686628318 
1582	 0.255703467804213 
1583	 0.255753191434713 
1584	 0.255803067100062 
1585	 0.255850953096572 
1586	 0.255896741165703 
1587	 0.255959724297075 
1588	 0.255999798720803 
1589	 0.256016914729828 
1590	 0.256039143591856 
1591	 0.256051768505307 
1592	 0.256070265251011 
1593	 0.256088094903667 
1594	 0.256112839846502 
1595	 0.256149762138917 
1596	 0.256170986401617 
1597	 0.256183339335565 
1598	 0.256205058799169 
1599	 0.256228360694765 
1600	 0.256242533480183 
1601	 0.256261499321819 
1602	 0.256275109766509 
1603	 0.256258131370814 
1604	 0.256268386852115 
1605	 0.256295541817221 
1606	 0.256326259707483 
1607	 0.256369155417433 
1608	 0.256424791456609 
1609	 0.256484369107831 
1610	 0.256514535159346 
1611	 0.256515217958525 
1612	 0.256523433100908 
1613	 0.256510186785238 
1614	 0.256502801383767 
1615	 0.256526366923609 
1616	 0.256528313029821 
1617	 0.256539060641717 
1618	 0.256565562477729 
1619	 0.256596614592343 
1620	 0.256629381083915 
1621	 0.256631848427085 
1622	 0.25662173342083 
1623	 0.256608583208103 
1624	 0.256567356205832 
1625	 0.25655504667268 
1626	 0.256551548604515 
1627	 0.256555570486363 
1628	 0.256567455294177 
1629	 0.25658184252535 
1630	 0.256610659205199 
1631	 0.256625828905608 
1632	 0.25664156553505 
1633	 0.256644618371595 
1634	 0.256637065248529 
1635	 0.256629912133728 
1636	 0.256620575160184 
1637	 0.256598605313396 
1638	 0.256566309059541 
1639	 0.256540746489357 
1640	 0.256500761275032 
1641	 0.25648242564653 
1642	 0.256475213783051 
1643	 0.256474674610278 
1644	 0.25648648573264 
1645	 0.256494176248573 
1646	 0.256513954538686 
1647	 0.256518162310052 
1648	 0.256517904250499 
1649	 0.256508384121505 
1650	 0.256485654568173 
1651	 0.256470194858231 
1652	 0.256450791431992 
1653	 0.25643414852705 
1654	 0.256416999880585 
1655	 0.256407508759426 
1656	 0.256408137730338 
1657	 0.256391105023235 
1658	 0.256379619994272 
1659	 0.256347985772886 
1660	 0.256293783731323 
1661	 0.256242503672703 
1662	 0.256176409377837 
1663	 0.256127630906778 
1664	 0.256085390114873 
1665	 0.256035624169165 
1666	 0.255976120831945 
1667	 0.255952063046438 
1668	 0.255943177463994 
1669	 0.255926787238453 
1670	 0.255956586511718 
1671	 0.255929142411248 
1672	 0.25584811160651 
1673	 0.255804130170252 
1674	 0.255755206729679 
1675	 0.255714894027915 
1676	 0.255693004046295 
1677	 0.255666367281125 
1678	 0.255632498554212 
1679	 0.255609420951811 
1680	 0.255604067062841 
1681	 0.2555821896737 
1682	 0.255556003391221 
1683	 0.255528575744476 
1684	 0.255485393890587 
1685	 0.255461120004281 
1686	 0.255460024284497 
1687	 0.255426695392871 
1688	 0.255390164430926 
1689	 0.255342287306602 
1690	 0.255255501372308 
1691	 0.255202524026148 
1692	 0.255165236791815 
1693	 0.255122332624053 
1694	 0.255089499098407 
1695	 0.255051311306325 
1696	 0.255008285014023 
1697	 0.254967650088842 
1698	 0.254933217032005 
1699	 0.254889143629811 
1700	 0.254832424099034 
1701	 0.25479338277766 
1702	 0.254770138772281 
1703	 0.254721571116168 
1704	 0.254677649602158 
1705	 0.254610953516232 
1706	 0.25450966658032 
1707	 0.25442259234943 
1708	 0.25432817934884 
1709	 0.254247906038509 
1710	 0.254165370158884 
1711	 0.254106073094121 
1712	 0.254078627069482 
1713	 0.254020578948138 
1714	 0.253962517290866 
1715	 0.253898150892854 
1716	 0.253816613459363 
1717	 0.253735287843297 
1718	 0.253650076317478 
1719	 0.253576463691839 
1720	 0.253500900185821 
1721	 0.253423082820709 
1722	 0.253363587379286 
1723	 0.253285109443877 
1724	 0.253188873676409 
1725	 0.253094207974087 
1726	 0.252994985865594 
1727	 0.25289642119947 
1728	 0.252786944260248 
1729	 0.252696981318137 
1730	 0.252618181837346 
1731	 0.252537052627647 
1732	 0.252466999700726 
1733	 0.252385092656698 
1734	 0.252303496791405 
1735	 0.252206219000461 
1736	 0.252095300910897 
1737	 0.251991661216293 
1738	 0.25188367510922 
1739	 0.25177321656641 
1740	 0.251663539075099 
1741	 0.251551779289859 
1742	 0.25142975981095 
1743	 0.251320660998323 
1744	 0.251229397940823 
1745	 0.251108536293539 
1746	 0.250977573038612 
1747	 0.2508209481652 
1748	 0.250671055891432 
1749	 0.250552805245418 
1750	 0.250463459905959 
1751	 0.250375628045607 
1752	 0.250271805976162 
1753	 0.250157951006885 
1754	 0.250018540789784 
1755	 0.249881732859875 
1756	 0.249781173461818 
1757	 0.249690618678171 
1758	 0.24959173921415 
1759	 0.249497016634387 
1760	 0.249406099302399 
1761	 0.249288266567814 
1762	 0.249166248725 
1763	 0.249048778225882 
1764	 0.248893474627489 
1765	 0.248741381448305 
1766	 0.248600350013031 
1767	 0.248461159686818 
1768	 0.248367134330089 
1769	 0.248289181274823 
1770	 0.24821844107347 
1771	 0.248152332371412 
1772	 0.248063561115753 
1773	 0.247988437429816 
1774	 0.247910872796317 
1775	 0.247823807978681 
1776	 0.247748525665826 
1777	 0.247655166781148 
1778	 0.247561944312625 
1779	 0.247479913327965 
1780	 0.24739469294982 
1781	 0.24729636353057 
1782	 0.247210425297782 
1783	 0.247140581155765 
1784	 0.247089188948155 
1785	 0.247088506972767 
1786	 0.247062103347922 
1787	 0.247036559309159 
1788	 0.247002496637191 
1789	 0.246960909647461 
1790	 0.24690419546271 
1791	 0.246825179871901 
1792	 0.246755520189265 
1793	 0.246666740724143 
1794	 0.246619218708675 
1795	 0.24660010351485 
1796	 0.246586921936685 
1797	 0.246602337742555 
1798	 0.246583090077993 
1799	 0.246549924223658 
1800	 0.246533279040906 
1801	 0.244405174010503 
1802	 0.244592917023093 
1803	 0.244778287657408 
1804	 0.244995405543733 
1805	 0.245218986011011 
1806	 0.245440409967896 
1807	 0.245646730337446 
1808	 0.245816186389487 
1809	 0.24594618973198 
1810	 0.246077253058708 
1811	 0.246187870885355 
1812	 0.246298788885331 
1813	 0.246398559510672 
1814	 0.246452034302446 
1815	 0.246480460940212 
1816	 0.246511103266321 
1817	 0.246547314352576 
1818	 0.246581148071307 
1819	 0.246619573471858 
1820	 0.246674573271646 
1821	 0.246696005411951 
1822	 0.246710768885114 
1823	 0.246711041123137 
1824	 0.246713738152902 
1825	 0.246744433794032 
1826	 0.246778988833684 
1827	 0.246790145070974 
1828	 0.246787652198934 
1829	 0.24676807064828 
1830	 0.246740650378051 
1831	 0.246683342140614 
1832	 0.246660689528758 
1833	 0.246646797558952 
1834	 0.24660082616364 
1835	 0.246585977752379 
1836	 0.246571884158782 
1837	 0.246533977106316 
1838	 0.246528116406848 
1839	 0.24650108733209 
1840	 0.246470636571344 
1841	 0.246412752778713 
1842	 0.246374120331027 
1843	 0.24631970386902 
1844	 0.246266013070288 
1845	 0.246222295878783 
1846	 0.246166407294915 
1847	 0.24610030969031 
1848	 0.24601922910825 
1849	 0.245917565621908 
1850	 0.245789393383557 
1851	 0.245624234948038 
1852	 0.245461332464867 
1853	 0.245314867695753 
1854	 0.245138915655001 
1855	 0.244966823048261 
1856	 0.244775060827229 
1857	 0.244530436400184 
1858	 0.244295487273055 
1859	 0.244050327093487 
1860	 0.243764327419951 
1861	 0.243452633025347 
1862	 0.243116653154803 
1863	 0.242736618559335 
1864	 0.242329542737626 
1865	 0.241900102804787 
1866	 0.241448199521373 
1867	 0.240950980133717 
1868	 0.240412169042924 
1869	 0.239855700649292 
1870	 0.23924394796861 
1871	 0.238581710391668 
1872	 0.237880676208431 
1873	 0.237142307786236 
1874	 0.236336347203709 
1875	 0.23548504453922 
1876	 0.234603039109248 
1877	 0.233650420691616 
1878	 0.23262929485558 
1879	 0.231539324176914 
1880	 0.230356914755182 
1881	 0.229075511383697 
1882	 0.227748504609247 
1883	 0.226358823232704 
1884	 0.224857070570618 
1885	 0.223316174120214 
1886	 0.221695206500422 
1887	 0.219947163257025 
1888	 0.218142149548811 
1889	 0.216249930086481 
1890	 0.214286442044346 
1891	 0.212320368661335 
1892	 0.210307730376363 
1893	 0.208269628680273 
1894	 0.206208763883132 
1895	 0.204123099789275 
1896	 0.201965793750612 
1897	 0.199831621403367 
1898	 0.197693996810403 
1899	 0.195570603820137 
1900	 0.193540169689851 
1901	 0.191544045390432 
1902	 0.189619959813294 
1903	 0.18778445645396 
1904	 0.185992319746791 
1905	 0.184249192567129 
1906	 0.182568888921202 
1907	 0.180936755506473 
1908	 0.179401770474902 
1909	 0.177966204864728 
1910	 0.176623640602133 
1911	 0.175401579257092 
1912	 0.174244962762347 
1913	 0.173144152451288 
1914	 0.172112604162909 
1915	 0.171137468234322 
1916	 0.170214929928779 
1917	 0.169364939381905 
1918	 0.168593001734676 
1919	 0.167864054361145 
1920	 0.167193323853391 
1921	 0.166578909441827 
1922	 0.166026800308126 
1923	 0.165537291476776 
1924	 0.165094326352614 
1925	 0.164720737543721 
1926	 0.164389923600168 
1927	 0.16410382395787 
1928	 0.163860226224261 
1929	 0.163675809238113 
1930	 0.163533092827527 
1931	 0.16341651158004 
1932	 0.163334858470589 
1933	 0.163279997723737 
1934	 0.163234732595883 
1935	 0.163208161347552 
1936	 0.163179080071695 
1937	 0.163208091381724 
1938	 0.163263247897203 
1939	 0.163361184168533 
1940	 0.1635186101109 
1941	 0.163688771697317 
1942	 0.163866651590556 
1943	 0.164057439809397 
1944	 0.164270756684266 
1945	 0.164493171643721 
1946	 0.164730949973822 
1947	 0.164993426388571 
1948	 0.165261552972231 
1949	 0.165535585965022 
1950	 0.16582866428294 
1951	 0.166137411709158 
1952	 0.166457621618086 
1953	 0.166796918022269 
1954	 0.167145265003616 
1955	 0.167507609036163 
1956	 0.167898702590736 
1957	 0.168294859569698 
1958	 0.168711009071993 
1959	 0.169119603882104 
1960	 0.169541224178989 
1961	 0.169958386531817 
1962	 0.170363623712788 
1963	 0.170786904866637 
1964	 0.171219006516171 
1965	 0.171659856611036 
1966	 0.172095563910137 
1967	 0.172544137909754 
1968	 0.173013604021761 
1969	 0.17350233575396 
1970	 0.173978387518186 
1971	 0.174475273452174 
1972	 0.174964756762763 
1973	 0.175433577095893 
1974	 0.175917129355452 
1975	 0.176411058677727 
1976	 0.176909778330271 
1977	 0.177410319060034 
1978	 0.177918400832231 
1979	 0.178431028257722 
1980	 0.17894772740074 
1981	 0.179456017488149 
1982	 0.179959207399919 
1983	 0.180466676082704 
1984	 0.180971390870247 
1985	 0.181474729187644 
1986	 0.181979943465344 
1987	 0.182487281603034 
1988	 0.182994853237659 
1989	 0.183503058776804 
1990	 0.184009526707679 
1991	 0.184505175656078 
1992	 0.184997618865203 
1993	 0.185472156861537 
1994	 0.185967243160171 
1995	 0.186469853377297 
1996	 0.18696809151096 
1997	 0.187477028274893 
1998	 0.1879787173668 
1999	 0.188471918518102 
2000	 0.188969725049839 
2001	 0.189477295593667 
2002	 0.189970930147302 
2003	 0.190461734233234 
2004	 0.190936468120574 
2005	 0.191400204911948 
2006	 0.191838574845961 
2007	 0.192297500029925 
2008	 0.192743827357912 
2009	 0.193212213959451 
2010	 0.193707594988914 
2011	 0.194182240601304 
2012	 0.194666067812988 
2013	 0.195136161930067 
2014	 0.19559615889339 
2015	 0.196044495981918 
2016	 0.196471844473835 
2017	 0.196922268284827 
2018	 0.197360992875657 
2019	 0.197784574572183 
2020	 0.198225946253652 
2021	 0.198683827462828 
2022	 0.199121566238375 
2023	 0.199552528483646 
2024	 0.199993764736556 
2025	 0.200434802809534 
2026	 0.200868238750545 
2027	 0.201311201672814 
2028	 0.201746925982671 
2029	 0.202165489143479 
2030	 0.202566613256083 
2031	 0.202967153942025 
2032	 0.203358289129629 
2033	 0.203746877922168 
2034	 0.204127668024069 
2035	 0.204506200974679 
2036	 0.204892699452611 
2037	 0.205255876024147 
2038	 0.205601966796668 
2039	 0.205944357667039 
2040	 0.206276056790711 
2041	 0.206592024186071 
2042	 0.206891536398558 
2043	 0.2072212925884 
2044	 0.207550320768476 
2045	 0.207877582003466 
2046	 0.208211271102063 
2047	 0.208575881316727 
2048	 0.208902482188668 
2049	 0.209218262668493 
2050	 0.209521934273709 
2051	 0.209785482165748 
2052	 0.210079049492044 
2053	 0.210379315178499 
2054	 0.210677308198549 
2055	 0.210997769148781 
2056	 0.211306281802408 
2057	 0.211597281613125 
2058	 0.211875163189726 
2059	 0.212148248722571 
2060	 0.212396567023873 
2061	 0.212668678465575 
2062	 0.212945789879461 
2063	 0.21322325306077 
2064	 0.213520094760453 
2065	 0.213796703051252 
2066	 0.214062193178449 
2067	 0.214324537999895 
2068	 0.214566884827483 
2069	 0.21482761888562 
2070	 0.215085133499321 
2071	 0.215343148547084 
2072	 0.215602010082797 
2073	 0.215870764077812 
2074	 0.216121320983355 
2075	 0.216352527929383 
2076	 0.216609701283151 
2077	 0.216866093244641 
2078	 0.217131440661333 
2079	 0.217421156646775 
2080	 0.217700975725876 
2081	 0.217987985115869 
2082	 0.218258463521839 
2083	 0.218522360603394 
2084	 0.218784288158293 
2085	 0.219036488299591 
2086	 0.219273632382678 
2087	 0.219509113847676 
2088	 0.219739739781852 
2089	 0.219970880894296 
2090	 0.22018219807217 
2091	 0.220418306440224 
2092	 0.220673811805929 
2093	 0.220917144811586 
2094	 0.221176854596591 
2095	 0.221414604560414 
2096	 0.221632147725888 
2097	 0.221854579731835 
2098	 0.222079190203893 
2099	 0.222276072987999 
2100	 0.222499876531131 
2101	 0.222737341144881 
2102	 0.222958133620922 
2103	 0.223181190476529 
2104	 0.223402644691016 
2105	 0.223600709928867 
2106	 0.223827082058405 
2107	 0.224071829359618 
2108	 0.224311441393399 
2109	 0.224569817156989 
2110	 0.224814768904338 
2111	 0.225051354316451 
2112	 0.225288889719415 
2113	 0.225531977221312 
2114	 0.225755658663064 
2115	 0.225981964240022 
2116	 0.226210437498385 
2117	 0.226424159677688 
2118	 0.2266207192369 
2119	 0.226832154713965 
2120	 0.227037505494666 
2121	 0.227253695722287 
2122	 0.227482532352754 
2123	 0.227706043582282 
2124	 0.22794963620264 
2125	 0.228158676810924 
2126	 0.228374438829757 
2127	 0.228546027958459 
2128	 0.228657904391553 
2129	 0.228784258822746 
2130	 0.228896261805351 
2131	 0.228992029611934 
2132	 0.229098121523811 
2133	 0.22921388392433 
2134	 0.229319902032725 
2135	 0.229407576898999 
2136	 0.229521051094308 
2137	 0.229665438075147 
2138	 0.229764675007703 
2139	 0.229856639284887 
2140	 0.229942580986858 
2141	 0.230018602033193 
2142	 0.23005832622171 
2143	 0.230079831524369 
2144	 0.230093933015756 
2145	 0.230049784102814 
2146	 0.230031384675312 
2147	 0.230036374640751 
2148	 0.230033001695936 
2149	 0.230018999870424 
2150	 0.229999872522887 
2151	 0.229978820607531 
2152	 0.229953913636473 
2153	 0.229917668437792 
2154	 0.22988956711227 
2155	 0.229827201165218 
2156	 0.229743554341849 
2157	 0.229644880912555 
2158	 0.229521647915076 
2159	 0.22938972079252 
2160	 0.229220135710569 
2161	 0.22907813660845 
2162	 0.228949744925025 
2163	 0.22880760710359 
2164	 0.228664465846233 
2165	 0.228534318682241 
2166	 0.22839299351815 
2167	 0.228228646856206 
2168	 0.228084881805393 
2169	 0.227957569020379 
2170	 0.227819012076748 
2171	 0.227677125537702 
2172	 0.227538198036788 
2173	 0.227392004552623 
2174	 0.227261166762789 
2175	 0.227148366957057 
2176	 0.227017259074302 
2177	 0.226885125807522 
2178	 0.226751981799809 
2179	 0.22660715419781 
2180	 0.226463691146828 
2181	 0.22633064090407 
2182	 0.226188350966666 
2183	 0.226041969688977 
2184	 0.225869975868923 
2185	 0.225732667494108 
2186	 0.225596343105053 
2187	 0.225483261102884 
2188	 0.225406676715925 
2189	 0.225300220559175 
2190	 0.225192669202461 
2191	 0.225083662197032 
2192	 0.224953873798158 
2193	 0.224849375290045 
2194	 0.224753921921632 
2195	 0.224667036911572 
2196	 0.224614294526976 
2197	 0.224527968037154 
2198	 0.224415437788965 
2199	 0.224333856224956 
2200	 0.224225050800652 
2201	 0.224157759857205 
2202	 0.224146247287199 
2203	 0.224130916007783 
2204	 0.224110729792425 
2205	 0.224104091164156 
2206	 0.224090131235692 
2207	 0.22406322689064 
2208	 0.224053340516707 
2209	 0.224055442981293 
2210	 0.224053745542607 
2211	 0.224049961537163 
2212	 0.224061983575279 
2213	 0.224091023184952 
2214	 0.224104743640686 
2215	 0.224117117636658 
2216	 0.224134798506554 
2217	 0.22415191946925 
2218	 0.224159240761463 
2219	 0.2241513971153 
2220	 0.224176069863303 
2221	 0.224219859318967 
2222	 0.224245959776428 
2223	 0.224284261834066 
2224	 0.224328747073386 
2225	 0.224341248176484 
2226	 0.22430471961104 
2227	 0.224315396200495 
2228	 0.224332189115648 
2229	 0.224362636656547 
2230	 0.224440741897964 
2231	 0.224448679472861 
2232	 0.224417967548277 
2233	 0.22442002006881 
2234	 0.224397903052303 
2235	 0.224382882587121 
2236	 0.224420546871511 
2237	 0.224404331402594 
2238	 0.22432752275915 
2239	 0.22428450336295 
2240	 0.224229632958749 
2241	 0.224197060936906 
2242	 0.224199761627177 
2243	 0.224182556688628 
2244	 0.224164306406798 
2245	 0.224144165651604 
2246	 0.224123474767223 
2247	 0.224112575927377 
2248	 0.224109624429628 
2249	 0.2241373758257 
2250	 0.224121027833955 
2251	 0.224089288101798 
2252	 0.224055411557951 
2253	 0.223998402154174 
2254	 0.223946265916293 
2255	 0.22389207335147 
2256	 0.223845982153038 
2257	 0.223786000390609 
2258	 0.22375552808317 
2259	 0.223752207353999 
2260	 0.223734265773204 
2261	 0.223736992768262 
2262	 0.223710386223888 
2263	 0.223660047594958 
2264	 0.223615491701638 
2265	 0.223546778230871 
2266	 0.22350703144775 
2267	 0.223484744701781 
2268	 0.223465499338991 
2269	 0.223477079469824 
2270	 0.223458811864205 
2271	 0.223434759508846 
2272	 0.223402691818793 
2273	 0.223368035267508 
2274	 0.223307815156765 
2275	 0.223244424996274 
2276	 0.223175909985887 
2277	 0.223098551994023 
2278	 0.222981384264507 
2279	 0.222925444770971 
2280	 0.222913246849347 
2281	 0.222843746117708 
2282	 0.222776543697884 
2283	 0.222717575229787 
2284	 0.222616294351025 
2285	 0.22253928506028 
2286	 0.222502144595444 
2287	 0.222443180066501 
2288	 0.222351535044333 
2289	 0.222298431937632 
2290	 0.222290279349004 
2291	 0.22223957927063 
2292	 0.222168678660784 
2293	 0.222108080496056 
2294	 0.222040481369808 
2295	 0.22196991220252 
2296	 0.22190370240201 
2297	 0.221843217695005 
2298	 0.22179576325778 
2299	 0.221696095097255 
2300	 0.22163440842011 
2301	 0.221632215781641 
2302	 0.221547040643914 
2303	 0.221399256877535 
2304	 0.221263790987094 
2305	 0.221108839958622 
2306	 0.220986090518376 
2307	 0.220917352486265 
2308	 0.220788941084646 
2309	 0.220640503186472 
2310	 0.220479586039986 
2311	 0.220262535532975 
2312	 0.220105952700661 
2313	 0.219974607808317 
2314	 0.219835484800094 
2315	 0.219732157449168 
2316	 0.219606145609406 
2317	 0.219461757612361 
2318	 0.219323378806086 
2319	 0.219186120860677 
2320	 0.219038999806069 
2321	 0.218881502368978 
2322	 0.218722483326327 
2323	 0.218543080409639 
2324	 0.218396322881159 
2325	 0.218267806515957 
2326	 0.218148489208869 
2327	 0.218056879365491 
2328	 0.21796127353997 
2329	 0.217866235076388 
2330	 0.217706576010551 
2331	 0.217542690092597 
2332	 0.217363923310755 
2333	 0.217178295165591 
2334	 0.217049595729778 
2335	 0.216918688980013 
2336	 0.216799186209785 
2337	 0.216685764379089 
2338	 0.216545976338634 
2339	 0.216366378959828 
2340	 0.216152217042273 
2341	 0.215959387635837 
2342	 0.215758971520604 
2343	 0.215591011681542 
2344	 0.215462988361148 
2345	 0.215285455037228 
2346	 0.215066639562649 
2347	 0.214890958268198 
2348	 0.214732050741567 
2349	 0.214527313250528 
2350	 0.214344114452586 
2351	 0.214092101155106 
2352	 0.213736113747781 
2353	 0.21347426180774 
2354	 0.213229053772146 
2355	 0.212990736843768 
2356	 0.212810300734309 
2357	 0.212584010356594 
2358	 0.212302639758885 
2359	 0.212075045433121 
2360	 0.211919389776468 
2361	 0.211661129925602 
2362	 0.211368774835849 
2363	 0.211088839530222 
2364	 0.210695037817914 
2365	 0.210408542989874 
2366	 0.210227049593518 
2367	 0.209997139987852 
2368	 0.209772070235397 
2369	 0.209541999369469 
2370	 0.209342930601317 
2371	 0.209050671110459 
2372	 0.208675025576444 
2373	 0.20836907385581 
2374	 0.208023943658866 
2375	 0.20776483377739 
2376	 0.207542136956739 
2377	 0.207271311088762 
2378	 0.207010487437021 
2379	 0.206694283127182 
2380	 0.206392576632017 
2381	 0.206116705386693 
2382	 0.205858292467452 
2383	 0.205562068304865 
2384	 0.205201136616971 
2385	 0.204861317755656 
2386	 0.204435237007493 
2387	 0.203986130864344 
2388	 0.20362308190706 
2389	 0.203341159217881 
2390	 0.203102846533615 
2391	 0.202786583770407 
2392	 0.202483410238561 
2393	 0.202178925814722 
2394	 0.201769350045504 
2395	 0.201369221452132 
2396	 0.200995304507381 
2397	 0.200639672069435 
2398	 0.200336270098613 
2399	 0.200142069680174 
2400	 0.199970030525368 
2401	 0.199680214232838 
2402	 0.199383168137728 
2403	 0.199055997304198 
2404	 0.198665028505701 
2405	 0.19830309909652 
2406	 0.197961348302226 
2407	 0.197528385562503 
2408	 0.197165715963476 
2409	 0.196939615474283 
2410	 0.196639042331163 
2411	 0.196356612925191 
2412	 0.196054766254259 
2413	 0.195671448119261 
2414	 0.195293284628819 
2415	 0.194916706546701 
2416	 0.194542717507288 
2417	 0.194161469178704 
2418	 0.193767932309401 
2419	 0.193364511064029 
2420	 0.192950426608921 
2421	 0.192510372276883 
2422	 0.192105014444403 
2423	 0.191712474968535 
2424	 0.191336130259481 
2425	 0.191008232459772 
2426	 0.190617974599451 
2427	 0.190188076431536 
2428	 0.189833851985679 
2429	 0.1895228028347 
2430	 0.189133931950099 
2431	 0.188710917859275 
2432	 0.188308333481407 
2433	 0.18786177000184 
2434	 0.187416963521836 
2435	 0.187013608132206 
2436	 0.186650088587233 
2437	 0.18624768259293 
2438	 0.185902449198781 
2439	 0.185675730241162 
2440	 0.185318389762188 
2441	 0.184940020619763 
2442	 0.184524994554463 
2443	 0.184013647446685 
2444	 0.183561379669572 
2445	 0.183072372694763 
2446	 0.182664953746547 
2447	 0.182338558846896 
2448	 0.181955278639112 
2449	 0.181581664482787 
2450	 0.181256687634936 
2451	 0.180938253676239 
2452	 0.180633278695686 
2453	 0.180405467362648 
2454	 0.180062116848906 
2455	 0.179636018042169 
2456	 0.179234289731863 
2457	 0.178769940295937 
2458	 0.178370096681003 
2459	 0.178016567355841 
2460	 0.177649192051217 
2461	 0.177356191297953 
2462	 0.177010075286403 
2463	 0.176604576917097 
2464	 0.176197774948587 
2465	 0.175722044289355 
2466	 0.175342539323314 
2467	 0.174985296787511 
2468	 0.17475088874814 
2469	 0.174675002924132 
2470	 0.174490429958225 
2471	 0.174300830646905 
2472	 0.173943806747338 
2473	 0.173442705864694 
2474	 0.17300786875925 
2475	 0.172609087941833 
2476	 0.172271740571981 
2477	 0.172001574238762 
2478	 0.171806172862273 
2479	 0.171587346155129 
2480	 0.171092135620207 
2481	 0.170672764251274 
2482	 0.170293310363106 
2483	 0.169828423654102 
2484	 0.169514807282435 
2485	 0.169288185643712 
2486	 0.169040169897424 
2487	 0.16872031723634 
2488	 0.168380148204355 
2489	 0.168008989482742 
2490	 0.16761323914171 
2491	 0.167331456748863 
2492	 0.167191271209708 
2493	 0.167014038040714 
2494	 0.166809280762893 
2495	 0.166576098822156 
2496	 0.166260699435453 
2497	 0.166031288945906 
2498	 0.165829630212866 
2499	 0.165568579841463 
2500	 0.165338860402335 
