Wavelength	mm2200002.asd
350	 3.69451816797974E-02 
351	 3.44199502070808E-02 
352	 2.67262034066533E-02 
353	 1.56173390436736E-02 
354	 2.67300381136888E-02 
355	 2.70274201589546E-02 
356	 2.61022523361018E-02 
357	 3.70147736494373E-02 
358	 4.31051369646035E-02 
359	 3.90855797078365E-02 
360	 3.22073602087433E-02 
361	 3.52273481833662E-02 
362	 0.030881220749496 
363	 2.85493715000072E-02 
364	 3.14603485033523E-02 
365	 2.81891941960318E-02 
366	 0.028305697891707 
367	 3.04829069768357E-02 
368	 3.15826636623817E-02 
369	 3.41563455438106E-02 
370	 0.034469032302172 
371	 3.28632924232508E-02 
372	 0.032431778834226 
373	 3.23775326698103E-02 
374	 0.032833320714764 
375	 3.37028211921085E-02 
376	 3.43569494407789E-02 
377	 3.52238607354573E-02 
378	 3.59256870237465E-02 
379	 0.035979775801941 
380	 3.55774986990283E-02 
381	 3.46711105653351E-02 
382	 3.36871924960367E-02 
383	 3.34880116728513E-02 
384	 3.63580573415045E-02 
385	 3.87770017654059E-02 
386	 3.85189457987751E-02 
387	 3.72502500252807E-02 
388	 3.65344155107969E-02 
389	 3.65983127083864E-02 
390	 3.70084497916868E-02 
391	 3.68781981974456E-02 
392	 3.77480852495392E-02 
393	 3.88243986399006E-02 
394	 3.75862759447292E-02 
395	 3.77280855404724E-02 
396	 3.86665066947319E-02 
397	 3.95470779189641E-02 
398	 0.040729202441405 
399	 4.03340132984386E-02 
400	 4.02122066897085E-02 
401	 4.22974054147552E-02 
402	 4.09374072364737E-02 
403	 3.85920523101952E-02 
404	 3.75020060050438E-02 
405	 0.038928328293241 
406	 3.92277471974422E-02 
407	 3.93705462943926E-02 
408	 4.02566106432012E-02 
409	 4.01368566061083E-02 
410	 3.94710373944717E-02 
411	 0.039443956019251 
412	 0.040982460301598 
413	 0.040664876901981 
414	 4.05075482945327E-02 
415	 4.11330584423144E-02 
416	 4.07786116654524E-02 
417	 4.07447205951767E-02 
418	 4.07207455764615E-02 
419	 4.04312020790566E-02 
420	 4.11773219956987E-02 
421	 4.10695943297694E-02 
422	 4.04796809231036E-02 
423	 4.10580838734437E-02 
424	 4.13035081388465E-02 
425	 4.06981497209422E-02 
426	 3.96446455527919E-02 
427	 3.99481057376146E-02 
428	 4.01706278267053E-02 
429	 4.01304464699606E-02 
430	 4.01049257710574E-02 
431	 4.06555490978509E-02 
432	 4.05089431104535E-02 
433	 3.97973439794565E-02 
434	 3.99977664890935E-02 
435	 0.040494307123965 
436	 0.040702339812755 
437	 4.03689664798192E-02 
438	 4.00107187016989E-02 
439	 3.99047743566321E-02 
440	 4.01081117359837E-02 
441	 4.04745770566444E-02 
442	 4.03951618265928E-02 
443	 4.02353608030456E-02 
444	 4.02082581321873E-02 
445	 4.01435514404833E-02 
446	 4.01081760924028E-02 
447	 4.01529163556666E-02 
448	 4.02641309710044E-02 
449	 4.01536345421392E-02 
450	 4.02704427732342E-02 
451	 0.040517055288376 
452	 4.03596358430592E-02 
453	 4.03756483665069E-02 
454	 0.040196583101721 
455	 0.039709574172893 
456	 3.98367665353701E-02 
457	 3.99343072194319E-02 
458	 3.98339811708701E-02 
459	 3.96377457866968E-02 
460	 3.97859954610256E-02 
461	 3.97850639537085E-02 
462	 3.95335234670759E-02 
463	 0.039592761818488 
464	 3.95257863567675E-02 
465	 3.94225509696948E-02 
466	 3.94435291892364E-02 
467	 3.94507742281713E-02 
468	 0.039359766358946 
469	 3.92859933276725E-02 
470	 3.94630921166982E-02 
471	 3.93170734095717E-02 
472	 0.039252223162675 
473	 0.03946687414723 
474	 3.92707706924019E-02 
475	 0.039113170700789 
476	 3.90738300202012E-02 
477	 3.90701414004303E-02 
478	 3.90528664849254E-02 
479	 3.90612106767388E-02 
480	 3.90927890750052E-02 
481	 0.039075112131054 
482	 0.039116107143384 
483	 3.91421590943983E-02 
484	 0.039066979822274 
485	 3.89523380719948E-02 
486	 3.89013543191513E-02 
487	 3.88685451432321E-02 
488	 3.87045277652903E-02 
489	 0.038690914194837 
490	 3.87780843536927E-02 
491	 3.88503654908632E-02 
492	 3.87880068272267E-02 
493	 3.86165461145443E-02 
494	 3.85352994107415E-02 
495	 3.87391276411046E-02 
496	 3.87216258526854E-02 
497	 3.85822381230838E-02 
498	 3.84911091396982E-02 
499	 3.86423766174641E-02 
500	 3.85120789739285E-02 
501	 3.83970613631915E-02 
502	 3.86255455668783E-02 
503	 0.038535097774301 
504	 3.83941107243484E-02 
505	 3.83494234612378E-02 
506	 3.83998834368937E-02 
507	 3.84516346699716E-02 
508	 3.84722239077295E-02 
509	 3.84713674133438E-02 
510	 3.85509498066686E-02 
511	 3.84370047104217E-02 
512	 3.83294730620673E-02 
513	 0.038590040546919 
514	 3.85690573133537E-02 
515	 3.84804676241809E-02 
516	 3.85063932888555E-02 
517	 3.86182973526623E-02 
518	 3.86161714715316E-02 
519	 3.85049384121072E-02 
520	 3.83942010017219E-02 
521	 3.85092896545242E-02 
522	 3.86030595437145E-02 
523	 3.85804724340823E-02 
524	 3.85346478211062E-02 
525	 3.85550786820737E-02 
526	 3.85647211729174E-02 
527	 0.038522769891077 
528	 3.86443519631202E-02 
529	 3.87250559748055E-02 
530	 3.87355938013261E-02 
531	 3.87627383400476E-02 
532	 3.87812903436624E-02 
533	 3.88293487582869E-02 
534	 3.89110933027682E-02 
535	 3.89484753592419E-02 
536	 3.89502541944811E-02 
537	 3.89673077180908E-02 
538	 3.90519984230786E-02 
539	 3.91375896627635E-02 
540	 3.91602688820471E-02 
541	 3.91461819318109E-02 
542	 3.92372971491277E-02 
543	 3.93032992792126E-02 
544	 3.93732752942578E-02 
545	 3.94887332630709E-02 
546	 0.039566796188723 
547	 3.96141031536722E-02 
548	 3.96937411568713E-02 
549	 0.039896078175914 
550	 3.98974381025799E-02 
551	 3.99174829094808E-02 
552	 4.01322080063501E-02 
553	 4.03530455521551E-02 
554	 4.05171144700847E-02 
555	 4.06669794127683E-02 
556	 4.08923487841395E-02 
557	 4.10971028005207E-02 
558	 4.13342870552765E-02 
559	 4.16309299596853E-02 
560	 4.19525437126315E-02 
561	 4.21319065006054E-02 
562	 4.23345500042947E-02 
563	 4.27662606653928E-02 
564	 4.31555707492635E-02 
565	 4.35158226107452E-02 
566	 4.38648105220129E-02 
567	 4.42076945557833E-02 
568	 4.46754174701779E-02 
569	 4.52205150396252E-02 
570	 4.57738692513796E-02 
571	 4.63606319106728E-02 
572	 4.69636093964577E-02 
573	 4.75876846921144E-02 
574	 4.82518533161987E-02 
575	 4.89465300185444E-02 
576	 4.96561367616581E-02 
577	 5.03616605443863E-02 
578	 5.10201683296131E-02 
579	 5.18055955298994E-02 
580	 5.26605149569236E-02 
581	 5.34587445599621E-02 
582	 5.43789148260302E-02 
583	 5.53036438744035E-02 
584	 5.61838777371378E-02 
585	 5.71047542285181E-02 
586	 5.81184465748221E-02 
587	 5.91413312196742E-02 
588	 6.01083331821143E-02 
589	 6.12478049150869E-02 
590	 6.23238899071684E-02 
591	 6.33159184884926E-02 
592	 6.44072010844738E-02 
593	 6.54412599942982E-02 
594	 6.64423674918873E-02 
595	 6.74537090649777E-02 
596	 6.84861883414463E-02 
597	 6.94544176325027E-02 
598	 7.03547167395984E-02 
599	 7.12418735820663E-02 
600	 7.22058994887704E-02 
601	 7.31934491037092E-02 
602	 7.41281699082099E-02 
603	 7.49196914661041E-02 
604	 7.57692647048842E-02 
605	 7.66276977856576E-02 
606	 0.077391278844734 
607	 0.078200228632765 
608	 7.89338896670331E-02 
609	 7.95957563992199E-02 
610	 8.03441903686709E-02 
611	 8.10349701764302E-02 
612	 8.16403394521023E-02 
613	 8.21711359255559E-02 
614	 8.26695038009914E-02 
615	 0.083144254195603 
616	 8.35890305073156E-02 
617	 8.39919343696751E-02 
618	 8.44618175973203E-02 
619	 8.48569042819808E-02 
620	 0.085120968722478 
621	 8.54520106654944E-02 
622	 8.58278271657772E-02 
623	 8.61871151465401E-02 
624	 8.64641720245807E-02 
625	 8.67304107966928E-02 
626	 8.69963297425486E-02 
627	 8.72747451513336E-02 
628	 8.75881321948405E-02 
629	 8.78653814062094E-02 
630	 8.81010629320649E-02 
631	 8.83143136418697E-02 
632	 8.85312461771152E-02 
633	 0.088744839993353 
634	 8.89705614299882E-02 
635	 8.92386754122955E-02 
636	 8.95097241706268E-02 
637	 0.089753147362941 
638	 8.99543212527321E-02 
639	 9.01193416717863E-02 
640	 9.03530451210234E-02 
641	 0.090634097352265 
642	 9.08815069172045E-02 
643	 9.10820323659392E-02 
644	 9.13253980995946E-02 
645	 9.16200122376951E-02 
646	 9.18417401977895E-02 
647	 9.20735680457244E-02 
648	 0.092350575418384 
649	 9.26752562060312E-02 
650	 9.29807594647082E-02 
651	 9.32570434355953E-02 
652	 9.35216485670738E-02 
653	 0.093815821835687 
654	 0.094185531714224 
655	 9.45137802642346E-02 
656	 9.47531509220281E-02 
657	 9.50981586953847E-02 
658	 9.54920603214633E-02 
659	 9.58738021251064E-02 
660	 9.61934448538191E-02 
661	 9.65397622286139E-02 
662	 9.69350574687692E-02 
663	 9.73523972890612E-02 
664	 9.77021181012945E-02 
665	 9.81375390945971E-02 
666	 9.85812983198043E-02 
667	 9.89432417134995E-02 
668	 9.93673950269843E-02 
669	 9.98235442300221E-02 
670	 0.100290593337437 
671	 0.100758338612476 
672	 0.101223003818368 
673	 0.101720474180236 
674	 0.102259538631693 
675	 0.102774698706692 
676	 0.10324090860035 
677	 0.103735509126921 
678	 0.104340518232454 
679	 0.104804639362188 
680	 0.105344216767391 
681	 0.106005362370257 
682	 0.106563709257235 
683	 0.107135310488637 
684	 0.107731849339868 
685	 0.108345991324605 
686	 0.10900391566 
687	 0.109619683907307 
688	 0.110215818248877 
689	 0.110883987437914 
690	 0.111550166994059 
691	 0.112219473652 
692	 0.112893199485157 
693	 0.113537499884014 
694	 0.114234712215364 
695	 0.114973227771155 
696	 0.115703563416562 
697	 0.116381861898161 
698	 0.117070691662983 
699	 0.117783967718296 
700	 0.118478669587683 
701	 0.119218907868503 
702	 0.11999107947901 
703	 0.120751692807281 
704	 0.121413833981536 
705	 0.12213464226454 
706	 0.122894592692728 
707	 0.123595316114037 
708	 0.124335803374216 
709	 0.125118863959929 
710	 0.1259075089943 
711	 0.126624834193887 
712	 0.127348686717338 
713	 0.128071706612255 
714	 0.128776513124763 
715	 0.129496987013917 
716	 0.130224020802563 
717	 0.130931836474307 
718	 0.131589425469135 
719	 0.132239666535976 
720	 0.132880263799946 
721	 0.133505670709356 
722	 0.134119982956885 
723	 0.13473981920399 
724	 0.135334223673117 
725	 0.135872764032476 
726	 0.136411986128962 
727	 0.136941722048289 
728	 0.137450220885103 
729	 0.137927864118764 
730	 0.138375891461716 
731	 0.138802877767878 
732	 0.139215090172586 
733	 0.139615152594211 
734	 0.139958583049634 
735	 0.140255178095159 
736	 0.140536463985356 
737	 0.14080653022992 
738	 0.141052532664667 
739	 0.141266131419421 
740	 0.141445850437584 
741	 0.141584679776221 
742	 0.141687448042194 
743	 0.141770405288219 
744	 0.141880702384498 
745	 0.141916239112131 
746	 0.141898204875715 
747	 0.141894378814207 
748	 0.141836686917839 
749	 0.141734782050442 
750	 0.141624459273486 
751	 0.141561247900117 
752	 0.141401692916522 
753	 0.141185419345056 
754	 0.140977889694356 
755	 0.140786277653601 
756	 0.14057602554592 
757	 0.140314357690932 
758	 0.139988483875536 
759	 0.139705820795578 
760	 0.13941078871225 
761	 0.139070063915117 
762	 0.138699035678689 
763	 0.13832536756914 
764	 0.137955091398837 
765	 0.137581485739357 
766	 0.137173077854758 
767	 0.136811000188808 
768	 0.136429676137635 
769	 0.135924885373314 
770	 0.13548771510422 
771	 0.135075656743091 
772	 0.134641872148452 
773	 0.134163196156079 
774	 0.133694684239792 
775	 0.133215143136806 
776	 0.132714795848866 
777	 0.132268585579212 
778	 0.131789175085938 
779	 0.131289548966746 
780	 0.130816901256647 
781	 0.130312970718167 
782	 0.129826871776722 
783	 0.129350560352128 
784	 0.128816163234181 
785	 0.128353953917045 
786	 0.127915727609706 
787	 0.127444022221043 
788	 0.126939814457881 
789	 0.126484829411863 
790	 0.12602746099608 
791	 0.125503183006035 
792	 0.125069364043072 
793	 0.124627206485611 
794	 0.124157443898682 
795	 0.123716935955148 
796	 0.123260087684511 
797	 0.122815025970178 
798	 0.122391808888556 
799	 0.121947725822946 
800	 0.121522951373629 
801	 0.121099545046056 
802	 0.120664650801181 
803	 0.120299086559485 
804	 0.119917794856752 
805	 0.119501268598636 
806	 0.119080622421163 
807	 0.118698897014345 
808	 0.118320526863526 
809	 0.117938001705323 
810	 0.117590353044831 
811	 0.117269286016813 
812	 0.116933169666739 
813	 0.116563176342654 
814	 0.116216745907136 
815	 0.115917013214492 
816	 0.115625279118747 
817	 0.115293612971025 
818	 0.114982985959557 
819	 0.114693712074955 
820	 0.114411849688463 
821	 0.114119788269053 
822	 0.113876574140943 
823	 0.113608846610795 
824	 0.113299853779105 
825	 0.113054486000966 
826	 0.11284865415494 
827	 0.112623160394489 
828	 0.112347298378264 
829	 0.112110362999349 
830	 0.111904387299038 
831	 0.111708028904525 
832	 0.11150565228243 
833	 0.111378899813839 
834	 0.111201285320411 
835	 0.110962944601407 
836	 0.110776475956081 
837	 0.110675652794145 
838	 0.110574708026711 
839	 0.110413702614346 
840	 0.110212536626547 
841	 0.110067606212933 
842	 0.109951088594101 
843	 0.109822444849023 
844	 0.109723603247155 
845	 0.109674956084915 
846	 0.109619275953764 
847	 0.109495374949232 
848	 0.109443632634014 
849	 0.109355177070776 
850	 0.109237304267966 
851	 0.109196350792413 
852	 0.109151535196155 
853	 0.109114185865144 
854	 0.10909056464884 
855	 0.109062616270162 
856	 0.109086105765026 
857	 0.109130059525515 
858	 0.109154762651974 
859	 0.109150827762451 
860	 0.109175372259974 
861	 0.109212267203005 
862	 0.109220338107307 
863	 0.109170534536469 
864	 0.109211974548131 
865	 0.109318778221824 
866	 0.109366898083389 
867	 0.109408186737923 
868	 0.109459612344555 
869	 0.109533592001809 
870	 0.109638333573254 
871	 0.109780595238332 
872	 0.109907765283474 
873	 0.110007259636042 
874	 0.110144134632184 
875	 0.110228686731266 
876	 0.110316889224402 
877	 0.110470337840451 
878	 0.110675583906257 
879	 0.110838413212057 
880	 0.110962454336938 
881	 0.111099885600087 
882	 0.111327771878071 
883	 0.111527370716161 
884	 0.111684236990285 
885	 0.111852359261552 
886	 0.112079504296812 
887	 0.112326688937404 
888	 0.112554362330764 
889	 0.112740111855638 
890	 0.112949329188447 
891	 0.113193736313947 
892	 0.113483744157849 
893	 0.113830491094366 
894	 0.114107457330428 
895	 0.114364079183142 
896	 0.11465637277064 
897	 0.114983773322315 
898	 0.115305381671924 
899	 0.115583577352289 
900	 0.115832274840636 
901	 0.116192414051521 
902	 0.116538466592179 
903	 0.1168880350915 
904	 0.117270393831535 
905	 0.117561111603178 
906	 0.117944766375623 
907	 0.118382639385363 
908	 0.118762615701299 
909	 0.119224434036965 
910	 0.119619670453571 
911	 0.119972463206827 
912	 0.120408286196536 
913	 0.120845175174904 
914	 0.121284888057833 
915	 0.121742467236614 
916	 0.122231340916731 
917	 0.12268182281991 
918	 0.123143985726756 
919	 0.123636139446477 
920	 0.124124990533731 
921	 0.124678872386481 
922	 0.125235393587055 
923	 0.1257460995299 
924	 0.126222249031518 
925	 0.126727284428177 
926	 0.127290022703269 
927	 0.127891253711853 
928	 0.128445428828661 
929	 0.129091905656512 
930	 0.129744380868584 
931	 0.130329617241617 
932	 0.130942893843173 
933	 0.13157183977924 
934	 0.132214159572265 
935	 0.132878067064408 
936	 0.133606286537466 
937	 0.134267301763458 
938	 0.134878591081812 
939	 0.135527389222803 
940	 0.136335108242549 
941	 0.137126103973663 
942	 0.137886245885062 
943	 0.138650971926099 
944	 0.139357313285636 
945	 0.140050647930507 
946	 0.140763077037551 
947	 0.141511876823979 
948	 0.142288456038402 
949	 0.143129488318991 
950	 0.143973109773936 
951	 0.144748039615458 
952	 0.145597429773098 
953	 0.146362285598057 
954	 0.147133752659228 
955	 0.148075948805945 
956	 0.148902107475272 
957	 0.149820996336944 
958	 0.1507369303975 
959	 0.151463103618738 
960	 0.152478902761646 
961	 0.153498043960936 
962	 0.154418925842283 
963	 0.155290573718396 
964	 0.156056085666933 
965	 0.157041449019573 
966	 0.158125714271061 
967	 0.158973072879033 
968	 0.1599823242148 
969	 0.161025874423069 
970	 0.16197097750081 
971	 0.162767741809205 
972	 0.163683078044597 
973	 0.164763977291146 
974	 0.165849484859851 
975	 0.166747186490349 
976	 0.167876847972602 
977	 0.168843260300711 
978	 0.169716956676198 
979	 0.170811488866828 
980	 0.171765053540165 
981	 0.172801405664135 
982	 0.173884930925553 
983	 0.174851814170428 
984	 0.175873961457784 
985	 0.176972865767821 
986	 0.178022277768136 
987	 0.178908847436034 
988	 0.179973777968562 
989	 0.181060990100225 
990	 0.182090170720493 
991	 0.183080389313238 
992	 0.184225091386633 
993	 0.185226750838665 
994	 0.18614937267923 
995	 0.187165560179912 
996	 0.188129362461108 
997	 0.189047066866395 
998	 0.189985875076513 
999	 0.191008487623721 
1000	 0.192076234400823 
1001	 0.192012783175453 
1002	 0.192900577143017 
1003	 0.193808839971362 
1004	 0.194733657813897 
1005	 0.19570292460236 
1006	 0.196607129651932 
1007	 0.197536248388709 
1008	 0.198373842139888 
1009	 0.199102085612434 
1010	 0.199892503617445 
1011	 0.200671948691876 
1012	 0.2014742075976 
1013	 0.20232941621444 
1014	 0.203156522218076 
1015	 0.20398356421145 
1016	 0.204771430848245 
1017	 0.205575904529935 
1018	 0.206380018245064 
1019	 0.207182164347407 
1020	 0.207884574303662 
1021	 0.208596033828656 
1022	 0.209270527986968 
1023	 0.2098995179127 
1024	 0.210570332122852 
1025	 0.211246795078831 
1026	 0.211944469072589 
1027	 0.212626002548403 
1028	 0.213303277106574 
1029	 0.214005630399179 
1030	 0.214686813226547 
1031	 0.215333317221736 
1032	 0.215958814431132 
1033	 0.216581893665624 
1034	 0.21717110465491 
1035	 0.217736607334587 
1036	 0.218328870836481 
1037	 0.218924204441113 
1038	 0.219543639193445 
1039	 0.220130451595882 
1040	 0.220654098498132 
1041	 0.22119854460264 
1042	 0.221737590032829 
1043	 0.222291128624044 
1044	 0.222833659371214 
1045	 0.223393233885825 
1046	 0.223920335948848 
1047	 0.22443861568888 
1048	 0.2249871448612 
1049	 0.2255529169258 
1050	 0.226114705716545 
1051	 0.226698219423327 
1052	 0.227216699219503 
1053	 0.22769163020463 
1054	 0.228233669275661 
1055	 0.228754986613508 
1056	 0.22920057478334 
1057	 0.22970998009532 
1058	 0.230282157853996 
1059	 0.230793093824709 
1060	 0.231284675282396 
1061	 0.231802876500885 
1062	 0.232296151379103 
1063	 0.232714781234045 
1064	 0.233142053336465 
1065	 0.233651930559625 
1066	 0.234134790428093 
1067	 0.234571081834354 
1068	 0.235096235437605 
1069	 0.23559973471448 
1070	 0.236083892260945 
1071	 0.236568052785777 
1072	 0.237061713600956 
1073	 0.237550105193495 
1074	 0.238026938894129 
1075	 0.23851094255833 
1076	 0.238973076228064 
1077	 0.239412114664203 
1078	 0.239780304282138 
1079	 0.240215743480285 
1080	 0.240653094726206 
1081	 0.241072343572271 
1082	 0.241551981335545 
1083	 0.241987363228812 
1084	 0.242386238173178 
1085	 0.242810635967405 
1086	 0.243239912504244 
1087	 0.243651809030429 
1088	 0.244054366627809 
1089	 0.244467875032227 
1090	 0.24488939323305 
1091	 0.245302785712202 
1092	 0.245687974109155 
1093	 0.246072161320938 
1094	 0.24644493179586 
1095	 0.246798227654359 
1096	 0.247166680707216 
1097	 0.24754191218868 
1098	 0.247923039083741 
1099	 0.248312613305886 
1100	 0.248685119301933 
1101	 0.249078530639796 
1102	 0.249436599458226 
1103	 0.249760124242958 
1104	 0.250090822790879 
1105	 0.25042783171215 
1106	 0.250744710566811 
1107	 0.251116081262305 
1108	 0.251450930500011 
1109	 0.251744561975617 
1110	 0.252089495214311 
1111	 0.252420890530369 
1112	 0.252739670958195 
1113	 0.253064112131113 
1114	 0.253406374578646 
1115	 0.253724154726395 
1116	 0.254035202486474 
1117	 0.254331536035709 
1118	 0.25460358423487 
1119	 0.254893956274099 
1120	 0.255213126836978 
1121	 0.255501101504036 
1122	 0.255803542398679 
1123	 0.256132524107373 
1124	 0.256435668676398 
1125	 0.256721276433412 
1126	 0.257001944053101 
1127	 0.257269655631396 
1128	 0.257550383999126 
1129	 0.257826561138932 
1130	 0.258102741872254 
1131	 0.258400506555313 
1132	 0.258675899514208 
1133	 0.258934580190346 
1134	 0.25919117469002 
1135	 0.259439908474734 
1136	 0.259681668266388 
1137	 0.259938641787573 
1138	 0.260178932606102 
1139	 0.260433762902819 
1140	 0.260708431148001 
1141	 0.260961529725347 
1142	 0.261227545898229 
1143	 0.261440591384449 
1144	 0.261611805001666 
1145	 0.26180014602623 
1146	 0.261953356103015 
1147	 0.262134638049973 
1148	 0.26233125511523 
1149	 0.26253628646137 
1150	 0.262754816051146 
1151	 0.262974098018865 
1152	 0.263176758677434 
1153	 0.263379318727955 
1154	 0.263582006552019 
1155	 0.263765460017836 
1156	 0.263962574950234 
1157	 0.264185203150298 
1158	 0.264377988936041 
1159	 0.26455284696497 
1160	 0.264733568210083 
1161	 0.264898570159494 
1162	 0.265075062662248 
1163	 0.265255891377198 
1164	 0.265441600095094 
1165	 0.265626518910216 
1166	 0.265832101014189 
1167	 0.266038852893444 
1168	 0.266230035599462 
1169	 0.26640455021089 
1170	 0.266565528994772 
1171	 0.266727011260778 
1172	 0.266866885962273 
1173	 0.267028159266092 
1174	 0.267202970466752 
1175	 0.267366879820489 
1176	 0.267534934348467 
1177	 0.267692631482072 
1178	 0.267836364560998 
1179	 0.267990745146246 
1180	 0.268155251071109 
1181	 0.268303741172257 
1182	 0.268444185639642 
1183	 0.268591157415828 
1184	 0.26872903815839 
1185	 0.268850668921974 
1186	 0.268987505432736 
1187	 0.269132728582052 
1188	 0.269269935967981 
1189	 0.269410014311835 
1190	 0.269540687865988 
1191	 0.26966246478798 
1192	 0.269789325335643 
1193	 0.269917099983259 
1194	 0.270038334759705 
1195	 0.27015786071949 
1196	 0.270276250209691 
1197	 0.270386833319514 
1198	 0.270499364979331 
1199	 0.27061266629197 
1200	 0.270730427661889 
1201	 0.270842806805204 
1202	 0.270946693838655 
1203	 0.271064958309442 
1204	 0.271197829526195 
1205	 0.27130753944492 
1206	 0.271421841844155 
1207	 0.271518565065219 
1208	 0.271585893436966 
1209	 0.27166762599048 
1210	 0.271744325145983 
1211	 0.27182993579986 
1212	 0.271918680550133 
1213	 0.272012798686594 
1214	 0.272121773746153 
1215	 0.272221491576444 
1216	 0.272319243860027 
1217	 0.27242550193512 
1218	 0.27250413535306 
1219	 0.272562982364343 
1220	 0.272633569373794 
1221	 0.272685592083976 
1222	 0.272760498621174 
1223	 0.272853082843862 
1224	 0.272938698510773 
1225	 0.273028869086456 
1226	 0.273118345766992 
1227	 0.273215568236525 
1228	 0.273299571886564 
1229	 0.273372501086333 
1230	 0.27345259243522 
1231	 0.273543290698366 
1232	 0.273609531359533 
1233	 0.273666421512171 
1234	 0.273715694658541 
1235	 0.273780217577181 
1236	 0.273828889735609 
1237	 0.273893208961466 
1238	 0.2739855203554 
1239	 0.274056063856887 
1240	 0.274116566662645 
1241	 0.274174263388174 
1242	 0.274223511767979 
1243	 0.274283055040613 
1244	 0.274341314088938 
1245	 0.274399192708931 
1246	 0.274471534274933 
1247	 0.27453289728031 
1248	 0.27457447388414 
1249	 0.274628307717068 
1250	 0.274717142164681 
1251	 0.27478455097505 
1252	 0.27484214226405 
1253	 0.274903005601131 
1254	 0.274959323906597 
1255	 0.274992773157026 
1256	 0.275036752031156 
1257	 0.27510314939381 
1258	 0.275141856748953 
1259	 0.275148058898962 
1260	 0.275181025686199 
1261	 0.275222129981784 
1262	 0.275254534869656 
1263	 0.275289790401395 
1264	 0.275330927686125 
1265	 0.275368131037757 
1266	 0.275407090530154 
1267	 0.275462243838542 
1268	 0.275504943347081 
1269	 0.275548221873156 
1270	 0.275582985024445 
1271	 0.275625309649913 
1272	 0.275667142588206 
1273	 0.275718617776855 
1274	 0.275774515729551 
1275	 0.275830708381832 
1276	 0.275888350117641 
1277	 0.275959661751681 
1278	 0.276043760540699 
1279	 0.276116793576642 
1280	 0.276193111296961 
1281	 0.276274532967727 
1282	 0.276354933154205 
1283	 0.276429250106303 
1284	 0.276519556486451 
1285	 0.276587226127321 
1286	 0.276633203206972 
1287	 0.276695220677637 
1288	 0.276768423972564 
1289	 0.276856145054777 
1290	 0.276925315604492 
1291	 0.276996733679659 
1292	 0.277066141087008 
1293	 0.277127857644707 
1294	 0.277181330451901 
1295	 0.277240704155629 
1296	 0.277286533702932 
1297	 0.277306007931557 
1298	 0.277340059063433 
1299	 0.277387848967251 
1300	 0.277418346374749 
1301	 0.277441180573002 
1302	 0.277461485483154 
1303	 0.277470305399754 
1304	 0.277473617459438 
1305	 0.277497293348544 
1306	 0.277530888836629 
1307	 0.277545887192875 
1308	 0.277551452695533 
1309	 0.277557102860801 
1310	 0.277540644208939 
1311	 0.277539534060729 
1312	 0.277561198694887 
1313	 0.277553123763255 
1314	 0.277535149272302 
1315	 0.277510074791605 
1316	 0.277457903063621 
1317	 0.277425276669154 
1318	 0.277397767505642 
1319	 0.277365749014522 
1320	 0.277362297944218 
1321	 0.277316994503858 
1322	 0.277242446255852 
1323	 0.277167362190478 
1324	 0.277090773620295 
1325	 0.277013047171593 
1326	 0.276956263810008 
1327	 0.27691234069157 
1328	 0.27683653779577 
1329	 0.276724093192614 
1330	 0.276625889866263 
1331	 0.276506868204427 
1332	 0.276409132139821 
1333	 0.276338024663689 
1334	 0.276236469380887 
1335	 0.27611597828671 
1336	 0.276009561941142 
1337	 0.275890049743217 
1338	 0.275785410077811 
1339	 0.275702038878829 
1340	 0.275608634526402 
1341	 0.275525616488601 
1342	 0.275419864034038 
1343	 0.275294220847319 
1344	 0.275179946388898 
1345	 0.275064799643839 
1346	 0.274928623841981 
1347	 0.274826947777121 
1348	 0.274760651141254 
1349	 0.27467122982067 
1350	 0.274574376725023 
1351	 0.274469818735003 
1352	 0.274344609525677 
1353	 0.27422721347495 
1354	 0.274112123475835 
1355	 0.273995975979044 
1356	 0.273869550638223 
1357	 0.273763106945598 
1358	 0.273669028841896 
1359	 0.273565982574273 
1360	 0.273467490036596 
1361	 0.273369825440002 
1362	 0.273273131071991 
1363	 0.273170871684698 
1364	 0.273063178892084 
1365	 0.272965335630018 
1366	 0.272867584435952 
1367	 0.272769143481626 
1368	 0.272677349026095 
1369	 0.272597787199058 
1370	 0.272490769396934 
1371	 0.272363561354345 
1372	 0.272213882843003 
1373	 0.272052273400607 
1374	 0.271891258636839 
1375	 0.271723224204688 
1376	 0.271533775331697 
1377	 0.271347351138909 
1378	 0.271123821847251 
1379	 0.270867718372179 
1380	 0.270610450277939 
1381	 0.270333732526582 
1382	 0.270047049997023 
1383	 0.269766537111453 
1384	 0.269440317996245 
1385	 0.269102570912029 
1386	 0.268723458081604 
1387	 0.268294382997695 
1388	 0.267856216626488 
1389	 0.267405431107107 
1390	 0.266911582791482 
1391	 0.26638444717823 
1392	 0.265845411663457 
1393	 0.265237975788503 
1394	 0.264590892273295 
1395	 0.263919565658295 
1396	 0.263213371035417 
1397	 0.262506071359575 
1398	 0.261780910664542 
1399	 0.261043014659139 
1400	 0.260297700361608 
1401	 0.259527484813344 
1402	 0.258725342156502 
1403	 0.257936517619521 
1404	 0.257116183654511 
1405	 0.256346134271027 
1406	 0.255595502566971 
1407	 0.25485569070424 
1408	 0.25414526784812 
1409	 0.253436396660309 
1410	 0.252714679517642 
1411	 0.252040555572902 
1412	 0.251386893963086 
1413	 0.250761866521424 
1414	 0.250199588054125 
1415	 0.249653575739835 
1416	 0.249120187976834 
1417	 0.248627099626927 
1418	 0.24813805023006 
1419	 0.247685270997336 
1420	 0.247272777551206 
1421	 0.246876354388098 
1422	 0.246518522942334 
1423	 0.24616275846739 
1424	 0.245815096934638 
1425	 0.245482201840853 
1426	 0.245165003538029 
1427	 0.244837059830493 
1428	 0.244561805745917 
1429	 0.244326294734485 
1430	 0.244097440534201 
1431	 0.243903226517049 
1432	 0.243707147982092 
1433	 0.243510363262949 
1434	 0.243340870684902 
1435	 0.243181220889895 
1436	 0.243049405208768 
1437	 0.242957620016357 
1438	 0.242855430947235 
1439	 0.242765549765952 
1440	 0.242682808841799 
1441	 0.242582305348278 
1442	 0.242490905479837 
1443	 0.242410905200501 
1444	 0.242342810121801 
1445	 0.242300756230331 
1446	 0.242273857540093 
1447	 0.242261108034672 
1448	 0.242251573631513 
1449	 0.242223830127846 
1450	 0.242193950434816 
1451	 0.242181465039919 
1452	 0.242166672089639 
1453	 0.242162623704098 
1454	 0.24218498913146 
1455	 0.242187874921913 
1456	 0.242176023407885 
1457	 0.242182039048113 
1458	 0.242193454698882 
1459	 0.242207184298871 
1460	 0.24222322701534 
1461	 0.242251910328321 
1462	 0.242282504268024 
1463	 0.242327715553663 
1464	 0.242394325772188 
1465	 0.242458458747038 
1466	 0.242527542730126 
1467	 0.242601788990544 
1468	 0.24266792087601 
1469	 0.242757681965427 
1470	 0.242862362156292 
1471	 0.242975675434231 
1472	 0.243109419843331 
1473	 0.243255572384374 
1474	 0.243395546237109 
1475	 0.2435473489189 
1476	 0.243694690003012 
1477	 0.243851979473732 
1478	 0.244033375338013 
1479	 0.244217386827911 
1480	 0.244413653554894 
1481	 0.244612240949833 
1482	 0.244804161245384 
1483	 0.244993301023542 
1484	 0.245175076298146 
1485	 0.245343965106786 
1486	 0.245540992430172 
1487	 0.245737460645575 
1488	 0.245949797176211 
1489	 0.246200240417545 
1490	 0.246416743935845 
1491	 0.246630238028635 
1492	 0.246831354339137 
1493	 0.247012739768011 
1494	 0.24719829640886 
1495	 0.247369007306106 
1496	 0.247551671401416 
1497	 0.247738825524203 
1498	 0.2479303052522 
1499	 0.248144321433569 
1500	 0.24833295066037 
1501	 0.248507958931295 
1502	 0.248682161875646 
1503	 0.248841043364365 
1504	 0.248996408976308 
1505	 0.249170316686009 
1506	 0.249353438526013 
1507	 0.249539224311147 
1508	 0.249725482701725 
1509	 0.249899881478075 
1510	 0.250063715366692 
1511	 0.250215475089279 
1512	 0.250360263890322 
1513	 0.25050941979098 
1514	 0.250673841660659 
1515	 0.250848276184963 
1516	 0.251027986726663 
1517	 0.25118738814123 
1518	 0.251344829170785 
1519	 0.25148678880595 
1520	 0.251602396454081 
1521	 0.25173530686411 
1522	 0.251867672414416 
1523	 0.252003044439463 
1524	 0.252140878029837 
1525	 0.252283734439745 
1526	 0.252437543686806 
1527	 0.252577782362976 
1528	 0.252725429412173 
1529	 0.252847310707037 
1530	 0.25293800569056 
1531	 0.253050775460807 
1532	 0.253163018883268 
1533	 0.253271084581847 
1534	 0.25339442364577 
1535	 0.253498541247414 
1536	 0.253578874711166 
1537	 0.253673569017854 
1538	 0.253772384522108 
1539	 0.25386581571955 
1540	 0.2539527061583 
1541	 0.254051642657568 
1542	 0.25415917575079 
1543	 0.254256430253648 
1544	 0.25436616747341 
1545	 0.254462228319852 
1546	 0.254541781458812 
1547	 0.254616807313507 
1548	 0.254705712852933 
1549	 0.254769657202264 
1550	 0.254819334559743 
1551	 0.25488993685161 
1552	 0.254968496279107 
1553	 0.25505292506607 
1554	 0.255141879713577 
1555	 0.255216626907125 
1556	 0.25527873771113 
1557	 0.255343517917381 
1558	 0.255420187039476 
1559	 0.255496555683856 
1560	 0.255569410266343 
1561	 0.255638529063565 
1562	 0.255711080904668 
1563	 0.255789665567986 
1564	 0.255855523413264 
1565	 0.255918040833462 
1566	 0.25597176824617 
1567	 0.256012103408169 
1568	 0.256057902291152 
1569	 0.256097205607237 
1570	 0.256151969013993 
1571	 0.256213564624579 
1572	 0.256270804080004 
1573	 0.256342072347037 
1574	 0.256395717647676 
1575	 0.256438493365843 
1576	 0.256480633402304 
1577	 0.256506542333867 
1578	 0.256553310306572 
1579	 0.256606198439095 
1580	 0.256660088628227 
1581	 0.256732884908817 
1582	 0.25679147635876 
1583	 0.256853005775994 
1584	 0.256892766382649 
1585	 0.256917177912125 
1586	 0.256940054730922 
1587	 0.256926745510754 
1588	 0.256951786097866 
1589	 0.257007855365448 
1590	 0.257042358480867 
1591	 0.257089331515842 
1592	 0.257123799765468 
1593	 0.257135317025272 
1594	 0.25715345900235 
1595	 0.257173842485309 
1596	 0.257193283038252 
1597	 0.257209020987929 
1598	 0.257225080266587 
1599	 0.257244264976856 
1600	 0.257260429164322 
1601	 0.257271866976463 
1602	 0.257287788525036 
1603	 0.257298280097292 
1604	 0.257319526711417 
1605	 0.257367326583172 
1606	 0.257385660808478 
1607	 0.257391430253111 
1608	 0.257393278578042 
1609	 0.257406330817653 
1610	 0.257409540531122 
1611	 0.257413005788687 
1612	 0.257435900135742 
1613	 0.257423685855999 
1614	 0.257418573846713 
1615	 0.257450839215556 
1616	 0.257476012901272 
1617	 0.257511898332443 
1618	 0.257532891936699 
1619	 0.257542053438587 
1620	 0.257554487597702 
1621	 0.25755585586083 
1622	 0.257553008912793 
1623	 0.257537624805637 
1624	 0.25750552295954 
1625	 0.257491878029648 
1626	 0.257469544299786 
1627	 0.2574716143237 
1628	 0.257498723399012 
1629	 0.25750350722464 
1630	 0.257506738868625 
1631	 0.257517022368773 
1632	 0.257519388486541 
1633	 0.257535806074364 
1634	 0.257576601986088 
1635	 0.25758160123208 
1636	 0.257584715272334 
1637	 0.257554653988113 
1638	 0.257474489952728 
1639	 0.257454075471891 
1640	 0.257430361220523 
1641	 0.257436734848159 
1642	 0.257503146726284 
1643	 0.257516769169266 
1644	 0.257516047543708 
1645	 0.25751673590026 
1646	 0.257499347674275 
1647	 0.257493019939683 
1648	 0.257496701240659 
1649	 0.257486821407425 
1650	 0.25746725624418 
1651	 0.257456046417974 
1652	 0.257447443561748 
1653	 0.257426275800489 
1654	 0.257404382907107 
1655	 0.257379297010174 
1656	 0.2573422212104 
1657	 0.257307125612334 
1658	 0.25728589733025 
1659	 0.257233631958534 
1660	 0.2571506133001 
1661	 0.257093519874988 
1662	 0.257031998641021 
1663	 0.25697375374234 
1664	 0.256926216992042 
1665	 0.256885196415772 
1666	 0.256825650789305 
1667	 0.256809644968568 
1668	 0.256845511273153 
1669	 0.256839185097374 
1670	 0.256846388323153 
1671	 0.256820858007123 
1672	 0.256748817703975 
1673	 0.256706785975421 
1674	 0.256666649508742 
1675	 0.256627197796237 
1676	 0.25660027346615 
1677	 0.256561154986468 
1678	 0.256514729944336 
1679	 0.25646752033672 
1680	 0.256402463434024 
1681	 0.256370041762919 
1682	 0.256356858860724 
1683	 0.256332050976496 
1684	 0.256325633906453 
1685	 0.25630640139798 
1686	 0.256271735788972 
1687	 0.256241273511521 
1688	 0.256220358984066 
1689	 0.256184585939334 
1690	 0.256136221767175 
1691	 0.256085795404897 
1692	 0.256030911006397 
1693	 0.255971659255862 
1694	 0.255900266387694 
1695	 0.255843745873664 
1696	 0.255773920775906 
1697	 0.255742150842954 
1698	 0.255751170072811 
1699	 0.255725838974171 
1700	 0.255716930141809 
1701	 0.255681132131087 
1702	 0.255615864298231 
1703	 0.255549353332723 
1704	 0.255475247266858 
1705	 0.25539503217553 
1706	 0.255291873345089 
1707	 0.255210446583721 
1708	 0.255134590251448 
1709	 0.255065357572695 
1710	 0.255011524668185 
1711	 0.254944713534681 
1712	 0.25487622773608 
1713	 0.25480644205377 
1714	 0.254728989321454 
1715	 0.254657095506394 
1716	 0.254590484276931 
1717	 0.254516971801733 
1718	 0.254433969255229 
1719	 0.254370622365642 
1720	 0.254325519384436 
1721	 0.254253644245335 
1722	 0.254186996635775 
1723	 0.25410013311427 
1724	 0.253979294309996 
1725	 0.253875544750447 
1726	 0.253774490293698 
1727	 0.253671917023593 
1728	 0.253555765443137 
1729	 0.253468060910177 
1730	 0.253395219612721 
1731	 0.253328641459328 
1732	 0.253294841852204 
1733	 0.253224804888718 
1734	 0.253146607185814 
1735	 0.253047323765856 
1736	 0.252916136955692 
1737	 0.25280644065804 
1738	 0.252696427775125 
1739	 0.252582293631863 
1740	 0.252471108702439 
1741	 0.252366382098378 
1742	 0.252262080294564 
1743	 0.252146844821034 
1744	 0.252040953638738 
1745	 0.251914511000916 
1746	 0.251754914161538 
1747	 0.251626654752415 
1748	 0.251515786784179 
1749	 0.251433139355611 
1750	 0.25135494924794 
1751	 0.251277517750153 
1752	 0.251171026042899 
1753	 0.25101481367352 
1754	 0.250874971179143 
1755	 0.250749022200354 
1756	 0.250628851044156 
1757	 0.25053764493262 
1758	 0.25043328610363 
1759	 0.250297205170249 
1760	 0.250179877736883 
1761	 0.250063111833829 
1762	 0.249936804119688 
1763	 0.249819568639356 
1764	 0.249683299887719 
1765	 0.249557849599927 
1766	 0.249437585653358 
1767	 0.249299632453199 
1768	 0.249197218526577 
1769	 0.249110007422118 
1770	 0.249009581918015 
1771	 0.24894482374891 
1772	 0.248868840428637 
1773	 0.248741159914373 
1774	 0.248652723816259 
1775	 0.248580432743104 
1776	 0.248464292999301 
1777	 0.248377597520284 
1778	 0.248297673174716 
1779	 0.248179395677391 
1780	 0.24809163912582 
1781	 0.248038492979087 
1782	 0.247989978761983 
1783	 0.247967271135615 
1784	 0.247930083723731 
1785	 0.247871815322811 
1786	 0.247822105607791 
1787	 0.247785887407169 
1788	 0.247740390809788 
1789	 0.247718406748717 
1790	 0.247654847219785 
1791	 0.247538921116575 
1792	 0.247453561477381 
1793	 0.247331270824474 
1794	 0.247277238138046 
1795	 0.247285081369024 
1796	 0.24728092138119 
1797	 0.247310288015612 
1798	 0.247317234252425 
1799	 0.247326138689626 
1800	 0.247315340515908 
1801	 0.245462397180023 
1802	 0.245636723410714 
1803	 0.24581328303482 
1804	 0.245992989214205 
1805	 0.246213571519976 
1806	 0.24643437650393 
1807	 0.246650890209002 
1808	 0.246832649208121 
1809	 0.247008485870535 
1810	 0.247136002150217 
1811	 0.247217814847021 
1812	 0.247309167787041 
1813	 0.247369838198486 
1814	 0.247401115322282 
1815	 0.247451831470926 
1816	 0.247505477792585 
1817	 0.247540679826788 
1818	 0.247564419450407 
1819	 0.247587791101144 
1820	 0.247602368703295 
1821	 0.24760836621326 
1822	 0.247626057002786 
1823	 0.247666963807827 
1824	 0.247733879568944 
1825	 0.247741851994726 
1826	 0.247741911910349 
1827	 0.247747657964452 
1828	 0.247731553888426 
1829	 0.247684512243344 
1830	 0.2476702149371 
1831	 0.247668795047394 
1832	 0.24764305621741 
1833	 0.247612424575768 
1834	 0.24756586634424 
1835	 0.247493045042645 
1836	 0.247431062065749 
1837	 0.247386395407146 
1838	 0.247319524236838 
1839	 0.247274412135883 
1840	 0.247245124943161 
1841	 0.247200791407989 
1842	 0.247161084241815 
1843	 0.247167409046476 
1844	 0.247138138118145 
1845	 0.247082374142508 
1846	 0.247031024375351 
1847	 0.246938938682425 
1848	 0.246810446228349 
1849	 0.246697492948706 
1850	 0.246578665730313 
1851	 0.246451726798334 
1852	 0.246307630622594 
1853	 0.246167243261235 
1854	 0.245973475338934 
1855	 0.245749264751944 
1856	 0.245531795009874 
1857	 0.245279901930694 
1858	 0.245040463279281 
1859	 0.244801328024936 
1860	 0.244506773870977 
1861	 0.244167859047965 
1862	 0.24381504710411 
1863	 0.243435603108538 
1864	 0.243014755528169 
1865	 0.242576955643889 
1866	 0.242099441961635 
1867	 0.241593255184052 
1868	 0.241029383272475 
1869	 0.240401741315093 
1870	 0.239778533369532 
1871	 0.239110191252302 
1872	 0.238408117984789 
1873	 0.237665156000248 
1874	 0.23688336052306 
1875	 0.23600042246217 
1876	 0.235068115308007 
1877	 0.234090562558724 
1878	 0.233032323021201 
1879	 0.231942070330298 
1880	 0.230749086490415 
1881	 0.22945718741204 
1882	 0.22809541616229 
1883	 0.226668188242681 
1884	 0.225117410008611 
1885	 0.22351045951781 
1886	 0.221847348684104 
1887	 0.220079921414098 
1888	 0.218260419453128 
1889	 0.216369671131894 
1890	 0.214388276547789 
1891	 0.212386364655582 
1892	 0.210319516342491 
1893	 0.208231478129764 
1894	 0.206092924901605 
1895	 0.203956809912505 
1896	 0.201765046310603 
1897	 0.199602673984655 
1898	 0.197456984488582 
1899	 0.195306888923677 
1900	 0.193210920856351 
1901	 0.191139607135886 
1902	 0.189155310709716 
1903	 0.187233535348654 
1904	 0.185383453110245 
1905	 0.183597081728911 
1906	 0.181912145964592 
1907	 0.180280828047258 
1908	 0.178717062355805 
1909	 0.177263140838454 
1910	 0.175897818658655 
1911	 0.17462114609266 
1912	 0.173421927095619 
1913	 0.172278588076549 
1914	 0.171202242292592 
1915	 0.17019061889767 
1916	 0.169233652485098 
1917	 0.168351532911438 
1918	 0.16756404886282 
1919	 0.166812092129073 
1920	 0.166125855362761 
1921	 0.165517247502123 
1922	 0.164954932210293 
1923	 0.164458572665719 
1924	 0.164010612503179 
1925	 0.163625389624717 
1926	 0.163287017568468 
1927	 0.163003368044776 
1928	 0.162753330197989 
1929	 0.16256746832467 
1930	 0.162405500061289 
1931	 0.162257668218256 
1932	 0.16217113407458 
1933	 0.16211460481915 
1934	 0.162070707312398 
1935	 0.162047490111481 
1936	 0.162037297596326 
1937	 0.162071112751021 
1938	 0.162138986089383 
1939	 0.162218821652912 
1940	 0.162326087153768 
1941	 0.16247305923487 
1942	 0.162624598015269 
1943	 0.162792046095768 
1944	 0.162997041482716 
1945	 0.16322797475224 
1946	 0.16347042975654 
1947	 0.163729836707885 
1948	 0.164005929226153 
1949	 0.164303354173722 
1950	 0.164607762435303 
1951	 0.16492958425388 
1952	 0.165250981686093 
1953	 0.165586167622875 
1954	 0.165937357241499 
1955	 0.166287752308036 
1956	 0.16666322988411 
1957	 0.16705229796689 
1958	 0.167462465822095 
1959	 0.167874791640661 
1960	 0.168305779316709 
1961	 0.168731279107154 
1962	 0.169152192350411 
1963	 0.169590714022991 
1964	 0.170040672789789 
1965	 0.170498254325637 
1966	 0.170954446951998 
1967	 0.171422905507648 
1968	 0.171896254553313 
1969	 0.172371130482606 
1970	 0.172853432710063 
1971	 0.173350679983047 
1972	 0.173841200562942 
1973	 0.174328470137183 
1974	 0.174820559706004 
1975	 0.175309187962796 
1976	 0.175820852546673 
1977	 0.176320847738751 
1978	 0.176815327437969 
1979	 0.17732479057345 
1980	 0.177835022929443 
1981	 0.178332622370279 
1982	 0.178819667724289 
1983	 0.179321626818045 
1984	 0.179808020724604 
1985	 0.180320515304498 
1986	 0.180880121994595 
1987	 0.181405101728658 
1988	 0.181917036070377 
1989	 0.182438970763928 
1990	 0.182939395719886 
1991	 0.183438227486787 
1992	 0.18395007985296 
1993	 0.184481299496994 
1994	 0.184986636288965 
1995	 0.185475861316263 
1996	 0.18597992302459 
1997	 0.186489001020454 
1998	 0.18699021335843 
1999	 0.1874978022159 
2000	 0.188002855598263 
2001	 0.188516934326809 
2002	 0.188984881180693 
2003	 0.189465429014123 
2004	 0.189960540093771 
2005	 0.190443035799385 
2006	 0.190914470025601 
2007	 0.191392218590446 
2008	 0.191872812627835 
2009	 0.192348858844727 
2010	 0.192824784777606 
2011	 0.193292327874064 
2012	 0.193747640149319 
2013	 0.194211925706462 
2014	 0.194661463990104 
2015	 0.195149591033096 
2016	 0.195614087611984 
2017	 0.196069528308063 
2018	 0.196520603224363 
2019	 0.19695123191831 
2020	 0.197390137009813 
2021	 0.197835997093453 
2022	 0.198273196785935 
2023	 0.198703016370198 
2024	 0.199137816705931 
2025	 0.199566884465551 
2026	 0.200001566705784 
2027	 0.200447238859999 
2028	 0.200881212044015 
2029	 0.201316254829236 
2030	 0.201763552145806 
2031	 0.202173845792796 
2032	 0.202561542679005 
2033	 0.202957697884221 
2034	 0.203343190324286 
2035	 0.203714292222531 
2036	 0.204092804824648 
2037	 0.204447391261213 
2038	 0.20474863539918 
2039	 0.205087526681347 
2040	 0.205433461627645 
2041	 0.205790455755727 
2042	 0.206154546800376 
2043	 0.206495435380346 
2044	 0.206842904265387 
2045	 0.207175893864472 
2046	 0.207519278409571 
2047	 0.207880246255488 
2048	 0.20821964985479 
2049	 0.208551721459594 
2050	 0.208875508715029 
2051	 0.209188869474167 
2052	 0.209493649498596 
2053	 0.209792315966573 
2054	 0.210081121844816 
2055	 0.210349295135121 
2056	 0.210625755871316 
2057	 0.210898047139879 
2058	 0.211158165142037 
2059	 0.211436201906152 
2060	 0.211718225749672 
2061	 0.21200802319234 
2062	 0.212315672215012 
2063	 0.212612597365217 
2064	 0.212914413237886 
2065	 0.213207565492718 
2066	 0.213499008676738 
2067	 0.213778087725061 
2068	 0.214045256293344 
2069	 0.214315037884407 
2070	 0.214573639320787 
2071	 0.214821681364588 
2072	 0.215065245455437 
2073	 0.215293004259702 
2074	 0.215542369451408 
2075	 0.215795237688821 
2076	 0.216047430723802 
2077	 0.216307490196104 
2078	 0.216573297813272 
2079	 0.216833021151543 
2080	 0.21710340169882 
2081	 0.217407637592147 
2082	 0.217684572187477 
2083	 0.217953103520824 
2084	 0.218212404115878 
2085	 0.218464006352677 
2086	 0.218696833465022 
2087	 0.218937586400962 
2088	 0.219169143838702 
2089	 0.219417672034814 
2090	 0.219676121595805 
2091	 0.219925992745236 
2092	 0.220179791943826 
2093	 0.220434940954578 
2094	 0.220689648202963 
2095	 0.22093606230213 
2096	 0.22119123362468 
2097	 0.22143387136592 
2098	 0.221648410442953 
2099	 0.221884768197088 
2100	 0.222109508170243 
2101	 0.222328388679132 
2102	 0.222552470584399 
2103	 0.222775429191556 
2104	 0.223000697597396 
2105	 0.223236668772697 
2106	 0.223455515456885 
2107	 0.223659362830317 
2108	 0.223879448627536 
2109	 0.224076564573811 
2110	 0.224313909058059 
2111	 0.224602253466246 
2112	 0.22485951823826 
2113	 0.225119625897379 
2114	 0.225391498693663 
2115	 0.225625521085379 
2116	 0.225817311207672 
2117	 0.226051393309823 
2118	 0.226288616204591 
2119	 0.226525698664511 
2120	 0.226805474683775 
2121	 0.227020932366648 
2122	 0.227191302707106 
2123	 0.227381274657533 
2124	 0.227550777918694 
2125	 0.227717777257286 
2126	 0.227901179325263 
2127	 0.228065484823887 
2128	 0.228194629731256 
2129	 0.228339929207882 
2130	 0.228497999269292 
2131	 0.228642176774548 
2132	 0.228776639663502 
2133	 0.228914672012854 
2134	 0.22903106031264 
2135	 0.229118863060716 
2136	 0.229223552517327 
2137	 0.229340232472387 
2138	 0.229422213213341 
2139	 0.229490938437866 
2140	 0.229555055487371 
2141	 0.229590408450349 
2142	 0.229630803692891 
2143	 0.2296920107247 
2144	 0.229718727296806 
2145	 0.22971711646072 
2146	 0.229713857575092 
2147	 0.229685220833813 
2148	 0.229659088478482 
2149	 0.229639347186597 
2150	 0.229624943895828 
2151	 0.229598142284433 
2152	 0.229571065864721 
2153	 0.229537412280425 
2154	 0.229493677362895 
2155	 0.22944962808287 
2156	 0.229420334147524 
2157	 0.229356095384461 
2158	 0.229268790513096 
2159	 0.229178809868503 
2160	 0.2290759720775 
2161	 0.228954869435126 
2162	 0.228803260616795 
2163	 0.22867638934367 
2164	 0.228550179592386 
2165	 0.228417321704942 
2166	 0.22827906514877 
2167	 0.228159069197261 
2168	 0.228015455190959 
2169	 0.22782944191774 
2170	 0.227695070321845 
2171	 0.227595754198883 
2172	 0.227464798498924 
2173	 0.227338264005501 
2174	 0.227208202975146 
2175	 0.22705229130543 
2176	 0.226914561534649 
2177	 0.226817379979735 
2178	 0.22667136215959 
2179	 0.226490514838121 
2180	 0.22632533268026 
2181	 0.226129613619588 
2182	 0.225955345145879 
2183	 0.225800465667286 
2184	 0.225652525710073 
2185	 0.225506273751232 
2186	 0.225357869253305 
2187	 0.225228554543352 
2188	 0.225115226957583 
2189	 0.224998469679857 
2190	 0.224895426706781 
2191	 0.224784549935831 
2192	 0.224664705987602 
2193	 0.22455773750193 
2194	 0.224456901976103 
2195	 0.224357394425903 
2196	 0.224264531111332 
2197	 0.224172724061427 
2198	 0.224081130533536 
2199	 0.223994006828783 
2200	 0.22390173427699 
2201	 0.223829483176612 
2202	 0.223758665056469 
2203	 0.223709530675522 
2204	 0.223681145096408 
2205	 0.223676240812487 
2206	 0.223677371919005 
2207	 0.223695999052949 
2208	 0.223724130789542 
2209	 0.223787062834343 
2210	 0.223807792255578 
2211	 0.223812583370588 
2212	 0.223834499686581 
2213	 0.223830995631836 
2214	 0.223852401804636 
2215	 0.223921731045565 
2216	 0.223952712431026 
2217	 0.223961774938316 
2218	 0.223978019556696 
2219	 0.223973579689533 
2220	 0.223990497833632 
2221	 0.224026401543072 
2222	 0.224060236450556 
2223	 0.224090591579346 
2224	 0.22410876761543 
2225	 0.22411072318212 
2226	 0.224086126168279 
2227	 0.224082229204964 
2228	 0.22407063143737 
2229	 0.224074284696245 
2230	 0.224094428963615 
2231	 0.22410187196057 
2232	 0.224102905162786 
2233	 0.224116514921669 
2234	 0.224156495263396 
2235	 0.224144937952284 
2236	 0.224114773973025 
2237	 0.224090192098944 
2238	 0.224025404302335 
2239	 0.223973330008102 
2240	 0.223929320040324 
2241	 0.223898189692983 
2242	 0.2238620190203 
2243	 0.223835383255969 
2244	 0.223842792485676 
2245	 0.223832916598058 
2246	 0.223799242578864 
2247	 0.223769265344998 
2248	 0.2237469893756 
2249	 0.22371600969786 
2250	 0.223707517825836 
2251	 0.223724068092038 
2252	 0.223714915326551 
2253	 0.223711742643651 
2254	 0.223692419071658 
2255	 0.223656215288066 
2256	 0.223614550445193 
2257	 0.223547904293536 
2258	 0.223514734448526 
2259	 0.223493262072828 
2260	 0.223467230796267 
2261	 0.223486741078887 
2262	 0.22344714591223 
2263	 0.223351479163176 
2264	 0.223285520354381 
2265	 0.223182837957574 
2266	 0.223125931500327 
2267	 0.223123958491671 
2268	 0.223097160344441 
2269	 0.223063710126457 
2270	 0.223067586770209 
2271	 0.223037170468144 
2272	 0.222979902143079 
2273	 0.222975568621209 
2274	 0.222938034545414 
2275	 0.222873434267959 
2276	 0.222796840272495 
2277	 0.222716521817585 
2278	 0.222590335743839 
2279	 0.222497640153732 
2280	 0.222430332637403 
2281	 0.2223464538472 
2282	 0.222244050559331 
2283	 0.222173876205726 
2284	 0.222123320820888 
2285	 0.222050794536048 
2286	 0.221978087839765 
2287	 0.221917044845144 
2288	 0.221847792447196 
2289	 0.221789759156151 
2290	 0.221774475131277 
2291	 0.22171833904158 
2292	 0.221635431112329 
2293	 0.221553184884244 
2294	 0.22144822368618 
2295	 0.22135260475245 
2296	 0.221259447004308 
2297	 0.221163191753095 
2298	 0.221068851602845 
2299	 0.220968542099771 
2300	 0.220916441027841 
2301	 0.220862602039067 
2302	 0.220774185920851 
2303	 0.220708273038482 
2304	 0.220605877746784 
2305	 0.220467789507481 
2306	 0.220339647656462 
2307	 0.220220208828321 
2308	 0.220079038568805 
2309	 0.219914197811482 
2310	 0.219768153923578 
2311	 0.219624213193027 
2312	 0.219468129941159 
2313	 0.219308606480042 
2314	 0.219150619396671 
2315	 0.218979556507081 
2316	 0.218827748371764 
2317	 0.218689424156142 
2318	 0.218547215772088 
2319	 0.218421560878796 
2320	 0.2182743063463 
2321	 0.21811532555689 
2322	 0.217946515500537 
2323	 0.217744781832754 
2324	 0.217577879369359 
2325	 0.217431633056192 
2326	 0.217279864867366 
2327	 0.217135276374662 
2328	 0.217004828687268 
2329	 0.216836714003464 
2330	 0.216715967011218 
2331	 0.216652647595621 
2332	 0.216544704121497 
2333	 0.216455678389099 
2334	 0.216347108871726 
2335	 0.216153550681974 
2336	 0.215978518415251 
2337	 0.21583171091267 
2338	 0.215675058719763 
2339	 0.215523317021466 
2340	 0.215327353792949 
2341	 0.215134816537627 
2342	 0.214919936403822 
2343	 0.214704937641148 
2344	 0.214555749940746 
2345	 0.214373291998382 
2346	 0.214179299847786 
2347	 0.213984131675563 
2348	 0.213789238095723 
2349	 0.213577765050069 
2350	 0.213372127310796 
2351	 0.213120638263389 
2352	 0.212804386349781 
2353	 0.212553484748242 
2354	 0.212302898839749 
2355	 0.212060322753333 
2356	 0.211894554023223 
2357	 0.211670123017449 
2358	 0.211446250009008 
2359	 0.21112580758457 
2360	 0.210687005411853 
2361	 0.210329792247466 
2362	 0.209892154405466 
2363	 0.209572944940008 
2364	 0.209399473717075 
2365	 0.209176292700824 
2366	 0.208990789163313 
2367	 0.208777183931469 
2368	 0.208524219910542 
2369	 0.208290045815439 
2370	 0.208074371707457 
2371	 0.20783807708712 
2372	 0.207586049906942 
2373	 0.207355067864682 
2374	 0.207048076472226 
2375	 0.206809035355689 
2376	 0.206557373645526 
2377	 0.206223741642185 
2378	 0.205966790160221 
2379	 0.205577781294976 
2380	 0.205120958134669 
2381	 0.204792172412646 
2382	 0.204433969352364 
2383	 0.204075364517148 
2384	 0.203797611409339 
2385	 0.203486393730329 
2386	 0.203096348576271 
2387	 0.202781626715459 
2388	 0.202503683703373 
2389	 0.202200601994788 
2390	 0.202042560047133 
2391	 0.201894257193549 
2392	 0.201610336395455 
2393	 0.201297483745599 
2394	 0.200939131836773 
2395	 0.200530895021384 
2396	 0.200179379654957 
2397	 0.199900236254211 
2398	 0.199588975896444 
2399	 0.199259365345716 
2400	 0.198989932920726 
2401	 0.198617367812438 
2402	 0.198177898601559 
2403	 0.197844566783569 
2404	 0.197478405865005 
2405	 0.197127348336586 
2406	 0.196890053547006 
2407	 0.196604799018073 
2408	 0.196199962338983 
2409	 0.195858476136864 
2410	 0.195544266066947 
2411	 0.1951580133805 
2412	 0.194825857894639 
2413	 0.194431978261298 
2414	 0.193919347793384 
2415	 0.19347369567359 
2416	 0.193087964455242 
2417	 0.192713894898785 
2418	 0.19237808205359 
2419	 0.192188681617933 
2420	 0.191859961418092 
2421	 0.191510929938993 
2422	 0.191124029714415 
2423	 0.190611937850877 
2424	 0.190188351603471 
2425	 0.189759361693762 
2426	 0.189374085706405 
2427	 0.189114764635231 
2428	 0.188749478626724 
2429	 0.188322155111864 
2430	 0.187903982003206 
2431	 0.187434705028648 
2432	 0.187011767050543 
2433	 0.186611869597153 
2434	 0.186230911534385 
2435	 0.185896090712467 
2436	 0.185488119693262 
2437	 0.185035121692329 
2438	 0.184626268086402 
2439	 0.184191313700371 
2440	 0.183790070691333 
2441	 0.183483397822319 
2442	 0.18312761548512 
2443	 0.182734468698222 
2444	 0.182352976445793 
2445	 0.181989261310918 
2446	 0.181583748272771 
2447	 0.181074440989484 
2448	 0.180643779715005 
2449	 0.180252607807816 
2450	 0.17990141545481 
2451	 0.179647200461547 
2452	 0.179380016029228 
2453	 0.179135804301767 
2454	 0.178718851951057 
2455	 0.178199068593362 
2456	 0.177850232862021 
2457	 0.177540359738699 
2458	 0.177115246847418 
2459	 0.176676243091731 
2460	 0.176341424835402 
2461	 0.175924168259407 
2462	 0.17559105202533 
2463	 0.17550940755427 
2464	 0.175147213146718 
2465	 0.174608669285805 
2466	 0.174141872298469 
2467	 0.173540480991701 
2468	 0.173214627323797 
2469	 0.173021317478947 
2470	 0.172927225939877 
2471	 0.172768783740913 
2472	 0.172387169549198 
2473	 0.17204353989697 
2474	 0.171599660251948 
2475	 0.171300714360824 
2476	 0.171094299087684 
2477	 0.170678769750168 
2478	 0.170292847031941 
2479	 0.169833017085923 
2480	 0.169224522692093 
2481	 0.168831940765145 
2482	 0.168646389536025 
2483	 0.168422627583541 
2484	 0.16825147657629 
2485	 0.168061591700035 
2486	 0.167764979924489 
2487	 0.167401034760245 
2488	 0.16723453585299 
2489	 0.167127522633385 
2490	 0.166754751256602 
2491	 0.166544548283864 
2492	 0.166212787098527 
2493	 0.165727232964248 
2494	 0.165510008946467 
2495	 0.165190696197917 
2496	 0.164765683706944 
2497	 0.164441203319152 
2498	 0.164224235159952 
2499	 0.164048836718907 
2500	 0.164027469025384 
