Wavelength	mm2200008.asd
350	 3.42759580964864E-02 
351	 4.46633509908918E-02 
352	 0.039277218561841 
353	 2.05939105058327E-02 
354	 2.61926340855684E-02 
355	 2.99961715292901E-02 
356	 3.00033243328188E-02 
357	 3.03208684499676E-02 
358	 3.26168050226658E-02 
359	 3.29567607677551E-02 
360	 3.12813102514875E-02 
361	 2.99914426285794E-02 
362	 2.77840686258795E-02 
363	 2.72578473842397E-02 
364	 2.90888884898631E-02 
365	 0.030500325438823 
366	 3.23357648412608E-02 
367	 3.23594991640179E-02 
368	 2.96561735270988E-02 
369	 0.031163206489313 
370	 3.04124612277222E-02 
371	 2.89456387460101E-02 
372	 3.28582700651441E-02 
373	 3.12343439204599E-02 
374	 3.22072391022742E-02 
375	 3.75104964536457E-02 
376	 0.033553257232978 
377	 3.11165087807247E-02 
378	 3.32386166320018E-02 
379	 3.83335737776163E-02 
380	 3.62481580969188E-02 
381	 3.36371070655217E-02 
382	 3.39509345347969E-02 
383	 3.70780992646087E-02 
384	 0.03678792875973 
385	 3.57111151861381E-02 
386	 3.59139300855187E-02 
387	 3.56755814526122E-02 
388	 3.69538646659659E-02 
389	 3.66006556614532E-02 
390	 3.23653577934865E-02 
391	 3.35864775667021E-02 
392	 3.67165469873907E-02 
393	 0.039041133532711 
394	 3.92386202736484E-02 
395	 3.76027326663907E-02 
396	 0.037144870885102 
397	 3.91917597828985E-02 
398	 4.12840117786195E-02 
399	 3.88042277337325E-02 
400	 3.63447364814566E-02 
401	 3.96654412817788E-02 
402	 4.03346688164808E-02 
403	 3.95713953839489E-02 
404	 3.88111173784511E-02 
405	 3.89699977753016E-02 
406	 3.92586696162224E-02 
407	 3.96763821103026E-02 
408	 4.01476443679717E-02 
409	 0.040061671575467 
410	 3.91597995511901E-02 
411	 0.038868204195595 
412	 4.06518233065501E-02 
413	 4.04205720865387E-02 
414	 3.99296837340955E-02 
415	 0.040058222504041 
416	 3.98759102842949E-02 
417	 3.99780364402686E-02 
418	 4.04260697617519E-02 
419	 4.09530943867841E-02 
420	 4.06405289306859E-02 
421	 4.04325900502251E-02 
422	 4.04350856979337E-02 
423	 4.02551448605727E-02 
424	 4.06960103113938E-02 
425	 4.05767072903803E-02 
426	 3.97479241758606E-02 
427	 0.040381401814878 
428	 4.07243050269244E-02 
429	 4.05922968916552E-02 
430	 4.03147402205345E-02 
431	 4.00625951384908E-02 
432	 4.00797244750058E-02 
433	 4.02448139259428E-02 
434	 4.01177931626319E-02 
435	 3.99218098163866E-02 
436	 3.98960343968668E-02 
437	 4.00450324427752E-02 
438	 3.97039058396311E-02 
439	 3.97564769988861E-02 
440	 0.040116617826238 
441	 4.02461861720502E-02 
442	 4.03038397389559E-02 
443	 4.01786100996282E-02 
444	 3.99355952949313E-02 
445	 3.99369798919211E-02 
446	 0.039716104344682 
447	 3.96640281924683E-02 
448	 4.01120901349688E-02 
449	 4.01040693273459E-02 
450	 4.00319708694664E-02 
451	 4.00540586011262E-02 
452	 4.00840551867636E-02 
453	 3.99563340309206E-02 
454	 3.97015361617773E-02 
455	 3.94938682910307E-02 
456	 3.98104660413059E-02 
457	 0.039911184219982 
458	 3.97588203696241E-02 
459	 3.96360258737607E-02 
460	 0.03955956602428 
461	 3.93265043490102E-02 
462	 3.90441735671555E-02 
463	 3.92817830926464E-02 
464	 3.94324949345282E-02 
465	 3.94195390494874E-02 
466	 3.93467975747554E-02 
467	 3.94154794952944E-02 
468	 3.92919065610596E-02 
469	 0.039035046138685 
470	 3.90143168908684E-02 
471	 3.91456759780277E-02 
472	 3.91659920952392E-02 
473	 3.89610202143524E-02 
474	 3.88095724402885E-02 
475	 3.87931574314817E-02 
476	 3.88063527475055E-02 
477	 3.87152041237269E-02 
478	 0.038930409914828 
479	 3.90648940171742E-02 
480	 3.89241571032315E-02 
481	 0.038654146781156 
482	 3.89075918338518E-02 
483	 3.92200075979014E-02 
484	 3.90327886909552E-02 
485	 3.87697438990939E-02 
486	 3.86396061163518E-02 
487	 3.86959930539465E-02 
488	 0.038840012881182 
489	 3.86373443805646E-02 
490	 3.84950638159621E-02 
491	 3.86660247189003E-02 
492	 0.038670461719427 
493	 3.85700219671238E-02 
494	 3.84527110279476E-02 
495	 3.84168504618027E-02 
496	 3.84224502677013E-02 
497	 3.83910771587022E-02 
498	 3.83866770472015E-02 
499	 3.87091682380787E-02 
500	 3.86421664272885E-02 
501	 3.84050198236723E-02 
502	 3.83964974871082E-02 
503	 3.84696136463686E-02 
504	 3.84740637463081E-02 
505	 3.84131423481734E-02 
506	 3.84233662976594E-02 
507	 3.83782147256015E-02 
508	 3.83823741165064E-02 
509	 3.84709635753337E-02 
510	 3.83683960953366E-02 
511	 3.83226057651807E-02 
512	 3.83400090141181E-02 
513	 3.83036312061512E-02 
514	 3.82222723070126E-02 
515	 3.82260193041412E-02 
516	 3.83310483561324E-02 
517	 3.83428542937694E-02 
518	 3.83408384075793E-02 
519	 3.83354898143856E-02 
520	 3.83339386467891E-02 
521	 3.84296812377291E-02 
522	 3.84976491723148E-02 
523	 3.84634790087889E-02 
524	 3.83228434211436E-02 
525	 0.038374981587726 
526	 0.038458143310524 
527	 3.84095159966454E-02 
528	 3.84084657534317E-02 
529	 3.84690807684735E-02 
530	 3.85347030515493E-02 
531	 3.85155556187275E-02 
532	 3.85213308396523E-02 
533	 0.038595575054292 
534	 3.87248747533354E-02 
535	 3.88160999913685E-02 
536	 3.87824258456932E-02 
537	 3.87453701773901E-02 
538	 3.88651338263692E-02 
539	 3.89188717149662E-02 
540	 3.89716800633824E-02 
541	 3.90446520895264E-02 
542	 3.90690521652048E-02 
543	 3.91248593808136E-02 
544	 3.91953359954758E-02 
545	 3.92582037809357E-02 
546	 3.93898515238334E-02 
547	 3.94779771996852E-02 
548	 3.95363659408174E-02 
549	 3.96790596195477E-02 
550	 3.97245401393652E-02 
551	 0.039781646343494 
552	 3.99474855687233E-02 
553	 4.01727259746216E-02 
554	 0.040256695368922 
555	 4.03036972619361E-02 
556	 4.05504255089036E-02 
557	 4.08027898586052E-02 
558	 4.10265407862402E-02 
559	 4.12387099280285E-02 
560	 4.15132490692516E-02 
561	 4.17974369667449E-02 
562	 4.20777210177845E-02 
563	 0.042362198192085 
564	 0.042704018561714 
565	 4.30299753156084E-02 
566	 0.043354707937895 
567	 0.043795449202861 
568	 4.42117711773734E-02 
569	 4.46676233661348E-02 
570	 4.52186063073039E-02 
571	 4.57251479380661E-02 
572	 4.62657504322235E-02 
573	 4.68641456847974E-02 
574	 4.75000001628238E-02 
575	 4.81385218123356E-02 
576	 4.87632271201343E-02 
577	 4.93938822906312E-02 
578	 5.01215534091458E-02 
579	 5.08898129729097E-02 
580	 5.16546543988203E-02 
581	 5.24003407057366E-02 
582	 5.32758808803137E-02 
583	 5.41536389637294E-02 
584	 0.054985761716884 
585	 5.58738398155188E-02 
586	 5.68481397180391E-02 
587	 5.78129948679528E-02 
588	 5.87018136085829E-02 
589	 5.97619046743553E-02 
590	 6.08160095812138E-02 
591	 6.18034687218781E-02 
592	 6.27875757425908E-02 
593	 6.37787234315055E-02 
594	 6.47886813359029E-02 
595	 6.57990240246152E-02 
596	 6.67150290696913E-02 
597	 6.76401276565636E-02 
598	 6.85748897092714E-02 
599	 6.94730617305122E-02 
600	 7.03722144337867E-02 
601	 7.12917102150289E-02 
602	 7.22076124244204E-02 
603	 7.30274761545534E-02 
604	 7.37997874859582E-02 
605	 7.45870815885351E-02 
606	 7.54228944112056E-02 
607	 7.61452809305717E-02 
608	 7.68391431736667E-02 
609	 7.75462225829113E-02 
610	 7.82427865788732E-02 
611	 7.88897196168691E-02 
612	 7.95032151600842E-02 
613	 8.00875912719915E-02 
614	 8.05605939111896E-02 
615	 8.09962006965367E-02 
616	 8.14217417521598E-02 
617	 8.18298840214022E-02 
618	 8.22603432579648E-02 
619	 8.26447819514211E-02 
620	 8.29575203041732E-02 
621	 8.32942928997583E-02 
622	 8.36284430751802E-02 
623	 8.39406793294654E-02 
624	 8.42183051698152E-02 
625	 8.44851819917622E-02 
626	 8.47706775802687E-02 
627	 8.50661209846701E-02 
628	 8.53129489960604E-02 
629	 0.085548293356893 
630	 8.57926373611702E-02 
631	 8.60502607997464E-02 
632	 8.62790264418458E-02 
633	 0.086494619575173 
634	 0.086704667413245 
635	 8.69113918473994E-02 
636	 8.71496370100807E-02 
637	 8.73920181671004E-02 
638	 8.76215217300778E-02 
639	 8.78793611450195E-02 
640	 8.81113966675362E-02 
641	 8.83184197690195E-02 
642	 8.85341877045037E-02 
643	 8.88286349500385E-02 
644	 8.90962777762924E-02 
645	 0.089299125231317 
646	 8.95189327072268E-02 
647	 8.97691347562851E-02 
648	 9.00230542823722E-02 
649	 9.02635879687735E-02 
650	 9.05836625899807E-02 
651	 9.08735223850133E-02 
652	 9.11188645932217E-02 
653	 9.13939894187229E-02 
654	 9.17210027325721E-02 
655	 9.20560131083114E-02 
656	 9.23740352624181E-02 
657	 9.27370201863954E-02 
658	 9.30486511193825E-02 
659	 9.33413910471512E-02 
660	 9.37000421154017E-02 
661	 9.40887627655906E-02 
662	 9.44995084239371E-02 
663	 9.49059178009164E-02 
664	 9.52501393485743E-02 
665	 9.56443997313308E-02 
666	 9.60550457141855E-02 
667	 9.64379480955696E-02 
668	 9.68949747496207E-02 
669	 9.73580652749269E-02 
670	 0.097797551387463 
671	 0.098223429963364 
672	 9.87045839674631E-02 
673	 9.91649398721707E-02 
674	 9.95793048580957E-02 
675	 0.100104393617789 
676	 0.100652751691591 
677	 0.101186106148811 
678	 0.101693428292043 
679	 0.102203175005854 
680	 0.102751338502811 
681	 0.103335184433786 
682	 0.10390257056946 
683	 0.104458366453043 
684	 0.105032681047443 
685	 0.105650218210982 
686	 0.106292823110448 
687	 0.106942705773527 
688	 0.107581664610035 
689	 0.108196988434461 
690	 0.108845162477134 
691	 0.109490990314377 
692	 0.11012339536313 
693	 0.110810159672265 
694	 0.111496854961672 
695	 0.112189838325228 
696	 0.112900947829238 
697	 0.113539339124132 
698	 0.114228893145866 
699	 0.11497022110007 
700	 0.115627707225161 
701	 0.116360424387257 
702	 0.117105688283046 
703	 0.117801846390534 
704	 0.118523111494023 
705	 0.119269671184786 
706	 0.120013822797309 
707	 0.120721630447197 
708	 0.1214566772986 
709	 0.122206519453228 
710	 0.122951221944848 
711	 0.123674650950647 
712	 0.124385223730333 
713	 0.125067719924568 
714	 0.125733846186095 
715	 0.126527290047575 
716	 0.127232657686669 
717	 0.127849681194849 
718	 0.128532982302304 
719	 0.129216252857937 
720	 0.129870597157053 
721	 0.130485245124825 
722	 0.131073574257276 
723	 0.131700718887016 
724	 0.132320609490933 
725	 0.132865342875614 
726	 0.133372964912741 
727	 0.133872809271256 
728	 0.134367157176793 
729	 0.134834586536941 
730	 0.135303056381452 
731	 0.135739672070577 
732	 0.13612595321062 
733	 0.136502602320385 
734	 0.13686626401099 
735	 0.137173148468817 
736	 0.13739311534481 
737	 0.137690203053909 
738	 0.137960736322006 
739	 0.138161010747076 
740	 0.138334957322237 
741	 0.138488087171201 
742	 0.138610915720779 
743	 0.138699077013656 
744	 0.138777177181825 
745	 0.138802505283107 
746	 0.13878117002684 
747	 0.138743113684484 
748	 0.138698248074638 
749	 0.138624853369074 
750	 0.138528174277129 
751	 0.13844789659886 
752	 0.138299814428867 
753	 0.13810932162963 
754	 0.137914718434337 
755	 0.137711324904763 
756	 0.137498630629857 
757	 0.137246667529717 
758	 0.136926834644765 
759	 0.136627725894182 
760	 0.136328558486224 
761	 0.13601162144889 
762	 0.135677039431422 
763	 0.135313373814289 
764	 0.134925917099174 
765	 0.134526073577767 
766	 0.134125437113403 
767	 0.13373192660077 
768	 0.133331879238324 
769	 0.132905387823947 
770	 0.13247770999659 
771	 0.13203850779129 
772	 0.131584483407463 
773	 0.131124631751408 
774	 0.13066605008815 
775	 0.130200346461616 
776	 0.129724481000379 
777	 0.129261169472874 
778	 0.128792993873796 
779	 0.128313109650119 
780	 0.127820085902973 
781	 0.127307059357513 
782	 0.126837329872928 
783	 0.126400557156871 
784	 0.125910111083131 
785	 0.125435900457274 
786	 0.124982920486495 
787	 0.124532598993636 
788	 0.124035705425624 
789	 0.123579897813995 
790	 0.123120299166917 
791	 0.122597436781574 
792	 0.122154126244584 
793	 0.121703998857763 
794	 0.121234397405802 
795	 0.120802453851822 
796	 0.120369986740557 
797	 0.119938878954458 
798	 0.119510962274967 
799	 0.119078202692584 
800	 0.118633302725076 
801	 0.118206407692692 
802	 0.117817108619691 
803	 0.11739820645048 
804	 0.117007649181042 
805	 0.116650808925973 
806	 0.116293096801579 
807	 0.115877485213431 
808	 0.115502070562649 
809	 0.115177783588161 
810	 0.114783165110972 
811	 0.114426266819507 
812	 0.114080224514608 
813	 0.113716843251895 
814	 0.113383165869117 
815	 0.113108051137126 
816	 0.112843175055002 
817	 0.11252915863393 
818	 0.112244768179183 
819	 0.111955314579991 
820	 0.111643786188091 
821	 0.111322828768177 
822	 0.111105274739774 
823	 0.110851877394857 
824	 0.110528317949826 
825	 0.110332337885343 
826	 0.110112915486091 
827	 0.109868315197494 
828	 0.109636487078029 
829	 0.10945263904068 
830	 0.109212712585008 
831	 0.108963910221754 
832	 0.108807013562137 
833	 0.108678620993292 
834	 0.108492121981969 
835	 0.108259863843689 
836	 0.108084590399534 
837	 0.107950243227561 
838	 0.107834949143473 
839	 0.107706336445382 
840	 0.107518783030891 
841	 0.107387111017163 
842	 0.107274430500937 
843	 0.107136302730635 
844	 0.107049718340098 
845	 0.106971213442398 
846	 0.106877325957914 
847	 0.106769760349738 
848	 0.106731815875521 
849	 0.10665428843925 
850	 0.106551117020572 
851	 0.106535905884693 
852	 0.106501846845434 
853	 0.106473107769253 
854	 0.106459476809515 
855	 0.106425104970065 
856	 0.106411312866716 
857	 0.106424315110517 
858	 0.106451774636465 
859	 0.106458016917961 
860	 0.106471085441562 
861	 0.106480786250472 
862	 0.106469271935453 
863	 0.106435662845133 
864	 0.106482027289313 
865	 0.106600949111216 
866	 0.106707163722146 
867	 0.106720533574658 
868	 0.106760288366902 
869	 0.10685594396852 
870	 0.106931495286657 
871	 0.107054398484586 
872	 0.107168053180514 
873	 0.107262753175834 
874	 0.107432740276033 
875	 0.107540595566041 
876	 0.107623662272234 
877	 0.107736920296508 
878	 0.107854611724222 
879	 0.10804177696468 
880	 0.108221927202701 
881	 0.108330998412035 
882	 0.108572278296766 
883	 0.108809037011346 
884	 0.108976220645536 
885	 0.109092310936113 
886	 0.10936615158697 
887	 0.109642023497085 
888	 0.109828338957596 
889	 0.109938353688713 
890	 0.11016171589876 
891	 0.110425297369421 
892	 0.110680592102673 
893	 0.110957187567 
894	 0.111281095579987 
895	 0.11155597857636 
896	 0.11176478464245 
897	 0.112069332954196 
898	 0.112426771639207 
899	 0.112753694277953 
900	 0.113014801730846 
901	 0.113332839761785 
902	 0.113652197508328 
903	 0.113987199527943 
904	 0.114354873320054 
905	 0.114699857246301 
906	 0.115062492667998 
907	 0.115467403329342 
908	 0.115913457590974 
909	 0.116334111157424 
910	 0.116708420050687 
911	 0.117063996886673 
912	 0.11745589299307 
913	 0.11789750746387 
914	 0.118362979782944 
915	 0.11881098255727 
916	 0.119211854831038 
917	 0.119712893464588 
918	 0.120231573423442 
919	 0.120706688192636 
920	 0.121147228799669 
921	 0.121694490340038 
922	 0.122232019503183 
923	 0.122697983849076 
924	 0.123179812822375 
925	 0.123725867472202 
926	 0.124331118446012 
927	 0.124945374168579 
928	 0.125469578118127 
929	 0.126054254975206 
930	 0.126659811271073 
931	 0.127250921553341 
932	 0.127926319001662 
933	 0.128505790350523 
934	 0.129107239369775 
935	 0.129844037085518 
936	 0.130563866932481 
937	 0.131181473700907 
938	 0.131779600791717 
939	 0.132469785110103 
940	 0.133230098178366 
941	 0.133987077589979 
942	 0.134720790984948 
943	 0.13544134575749 
944	 0.136166774174971 
945	 0.136843008092446 
946	 0.137546697732721 
947	 0.13836337293652 
948	 0.139156170778728 
949	 0.139885677988253 
950	 0.140643584329751 
951	 0.141535113983973 
952	 0.142395681702086 
953	 0.143170662951399 
954	 0.143964139898119 
955	 0.144903595329728 
956	 0.145744725326998 
957	 0.146662098243676 
958	 0.147592936637083 
959	 0.148379420274236 
960	 0.14925967198934 
961	 0.150189697382255 
962	 0.151150799876471 
963	 0.15212375848828 
964	 0.152949358059154 
965	 0.153811258517194 
966	 0.154755070707297 
967	 0.155714377291978 
968	 0.156675460611658 
969	 0.157685576781053 
970	 0.158663328096332 
971	 0.159495526684509 
972	 0.160428665028002 
973	 0.161475474784613 
974	 0.162534964486643 
975	 0.163494714715912 
976	 0.164584866408778 
977	 0.165607103113814 
978	 0.166510999989146 
979	 0.167402886157452 
980	 0.168538473076682 
981	 0.169605518122877 
982	 0.170619321345865 
983	 0.171749023351922 
984	 0.172680439581044 
985	 0.173634852719582 
986	 0.174653486335604 
987	 0.175673891876916 
988	 0.176788009611972 
989	 0.177858527996647 
990	 0.178829611002009 
991	 0.179757350688107 
992	 0.180916364648522 
993	 0.181940744144232 
994	 0.182876485457158 
995	 0.183909323922087 
996	 0.184912770185838 
997	 0.185888458182804 
998	 0.18679965501188 
999	 0.187658115243015 
1000	 0.188666151914814 
1001	 0.188953618122206 
1002	 0.189980313714128 
1003	 0.190934441740541 
1004	 0.191859483904927 
1005	 0.192806728365334 
1006	 0.193674251884212 
1007	 0.194434912229185 
1008	 0.195270422276039 
1009	 0.196108418579911 
1010	 0.196903682417106 
1011	 0.197818528255557 
1012	 0.198654897239438 
1013	 0.199461479154999 
1014	 0.200323800497962 
1015	 0.201111858488577 
1016	 0.201864334900527 
1017	 0.202634176924718 
1018	 0.203403419118166 
1019	 0.204136987077841 
1020	 0.204856105847032 
1021	 0.20562471374057 
1022	 0.206365250041237 
1023	 0.207078500935613 
1024	 0.207794722174579 
1025	 0.208477577057358 
1026	 0.209181879235401 
1027	 0.209848698148189 
1028	 0.210484542984488 
1029	 0.21114338702016 
1030	 0.211779566931524 
1031	 0.212418161972889 
1032	 0.213053463650797 
1033	 0.213712785727643 
1034	 0.214346174172181 
1035	 0.214932843888505 
1036	 0.215522890501838 
1037	 0.216138454208722 
1038	 0.216762389657187 
1039	 0.217373800920457 
1040	 0.217956516874177 
1041	 0.218543440787347 
1042	 0.219090854793163 
1043	 0.219579715570671 
1044	 0.220115857612603 
1045	 0.220671363119122 
1046	 0.221225688978268 
1047	 0.221750754595447 
1048	 0.222323654493836 
1049	 0.222864161635001 
1050	 0.223343456942217 
1051	 0.223885800227329 
1052	 0.224456136284548 
1053	 0.225016471908849 
1054	 0.22558232759755 
1055	 0.226109867099877 
1056	 0.226589939195142 
1057	 0.22711499974211 
1058	 0.227683193599392 
1059	 0.228207511079987 
1060	 0.228716186977783 
1061	 0.229252624362125 
1062	 0.229747223252899 
1063	 0.230226416721887 
1064	 0.2307577945518 
1065	 0.231233516204868 
1066	 0.23170239170438 
1067	 0.232182262020684 
1068	 0.2326669078891 
1069	 0.233195887906216 
1070	 0.233697572014606 
1071	 0.234220532378086 
1072	 0.234708684114058 
1073	 0.235142680977976 
1074	 0.235611151585783 
1075	 0.236097826055978 
1076	 0.236565790212315 
1077	 0.237003765581485 
1078	 0.23747928162735 
1079	 0.237947992838976 
1080	 0.238357113964084 
1081	 0.238800764577201 
1082	 0.239258409917588 
1083	 0.239701736286388 
1084	 0.240142096993214 
1085	 0.240585950043403 
1086	 0.241033826445674 
1087	 0.241447456557363 
1088	 0.241833652924832 
1089	 0.242229194504162 
1090	 0.242639739723002 
1091	 0.243078164747762 
1092	 0.243542904364955 
1093	 0.243966615094193 
1094	 0.244350964696121 
1095	 0.244732377674004 
1096	 0.245077911591701 
1097	 0.245431747009498 
1098	 0.24580755866507 
1099	 0.246198115299092 
1100	 0.24658204994652 
1101	 0.246988477052848 
1102	 0.247374097252935 
1103	 0.247765742770822 
1104	 0.248116714364692 
1105	 0.248449321819347 
1106	 0.248798701625328 
1107	 0.249140796691464 
1108	 0.249497088312347 
1109	 0.249823851937883 
1110	 0.250143503825114 
1111	 0.250492439462978 
1112	 0.250856327414753 
1113	 0.251173836979138 
1114	 0.251502316893827 
1115	 0.251822615649048 
1116	 0.252076922962485 
1117	 0.252380631528163 
1118	 0.252726543909677 
1119	 0.2530560662357 
1120	 0.253384154818839 
1121	 0.25371507072599 
1122	 0.253995204742011 
1123	 0.254282974290598 
1124	 0.254560207279668 
1125	 0.254801776895685 
1126	 0.255075594214206 
1127	 0.255363102656884 
1128	 0.25564120517774 
1129	 0.255926386861639 
1130	 0.25620430093015 
1131	 0.256477138693445 
1132	 0.256758067995855 
1133	 0.2570306087384 
1134	 0.257311066802038 
1135	 0.257603735677661 
1136	 0.257891432253745 
1137	 0.258174599965889 
1138	 0.258475805943328 
1139	 0.258738356903303 
1140	 0.258986741207873 
1141	 0.259220312810992 
1142	 0.259416897577092 
1143	 0.259639619018954 
1144	 0.25986725915087 
1145	 0.260088372232383 
1146	 0.260321852271206 
1147	 0.260536457601113 
1148	 0.260726080783304 
1149	 0.260930947686156 
1150	 0.261130899386558 
1151	 0.261347193333442 
1152	 0.261559386030153 
1153	 0.261772747574476 
1154	 0.261961382273209 
1155	 0.26211701028433 
1156	 0.26230793411064 
1157	 0.26249936880927 
1158	 0.262699353555777 
1159	 0.262928207726721 
1160	 0.263138668144433 
1161	 0.263348980057823 
1162	 0.263541290066833 
1163	 0.263718133721534 
1164	 0.263902745133842 
1165	 0.264080547741639 
1166	 0.264252832964294 
1167	 0.264433220469786 
1168	 0.264622410955009 
1169	 0.264803748701436 
1170	 0.264976996375792 
1171	 0.265160804105064 
1172	 0.265358451549249 
1173	 0.265532429239726 
1174	 0.265701332560124 
1175	 0.265865498904879 
1176	 0.266004142607098 
1177	 0.266164965290553 
1178	 0.266347173139253 
1179	 0.26650811455014 
1180	 0.266662083849621 
1181	 0.266819932098533 
1182	 0.266965921894311 
1183	 0.267120535479619 
1184	 0.267264168652474 
1185	 0.267413397073206 
1186	 0.267553254638538 
1187	 0.267677048868302 
1188	 0.267809446325794 
1189	 0.267944086173865 
1190	 0.268080715563301 
1191	 0.268221351223727 
1192	 0.268354357952312 
1193	 0.268487402145639 
1194	 0.268619491393976 
1195	 0.268744191517355 
1196	 0.268869933914637 
1197	 0.269000428584589 
1198	 0.269125825835828 
1199	 0.269248255162875 
1200	 0.269367767842968 
1201	 0.269482304485732 
1202	 0.269595600240404 
1203	 0.269701314738925 
1204	 0.269790667216821 
1205	 0.269900583073355 
1206	 0.270020579107812 
1207	 0.270129510223279 
1208	 0.270248639120162 
1209	 0.270355541227482 
1210	 0.270447746519805 
1211	 0.270541000123201 
1212	 0.270620976869805 
1213	 0.270719230796962 
1214	 0.270832122633126 
1215	 0.270932862071727 
1216	 0.271033689390159 
1217	 0.271146373556601 
1218	 0.27124638657515 
1219	 0.27133447645985 
1220	 0.271421141056971 
1221	 0.271513408154045 
1222	 0.271590837595206 
1223	 0.271646116410689 
1224	 0.271717534544978 
1225	 0.271789089530395 
1226	 0.271863641280123 
1227	 0.271944960158645 
1228	 0.27202659309015 
1229	 0.272108763699353 
1230	 0.272192396771817 
1231	 0.272290487058329 
1232	 0.272370611551225 
1233	 0.272442983911677 
1234	 0.27251079355823 
1235	 0.272571574733612 
1236	 0.272615588886987 
1237	 0.272670888194775 
1238	 0.272723772432608 
1239	 0.272782827649974 
1240	 0.272841676591084 
1241	 0.272910051656361 
1242	 0.272992558244778 
1243	 0.273065572994699 
1244	 0.273153917193915 
1245	 0.273216015249361 
1246	 0.273245675080322 
1247	 0.273296701353214 
1248	 0.273345891902382 
1249	 0.273394971999494 
1250	 0.27345288794463 
1251	 0.273526237895821 
1252	 0.273584385498485 
1253	 0.273631298866581 
1254	 0.273687023592154 
1255	 0.273752286864999 
1256	 0.273798952869324 
1257	 0.273838190232654 
1258	 0.273877396685041 
1259	 0.273900795989266 
1260	 0.273935453214921 
1261	 0.273976675868386 
1262	 0.274015452675763 
1263	 0.274057020504369 
1264	 0.274097163674878 
1265	 0.274129632261779 
1266	 0.274173174977322 
1267	 0.274232364211576 
1268	 0.274272723235589 
1269	 0.274320207288258 
1270	 0.274374272726242 
1271	 0.274424278117006 
1272	 0.274470536314004 
1273	 0.274515492465767 
1274	 0.274556162301698 
1275	 0.274608801761892 
1276	 0.274663059557702 
1277	 0.274720183243131 
1278	 0.274788548508459 
1279	 0.274852846499782 
1280	 0.274903908204208 
1281	 0.274973760399454 
1282	 0.275063408885586 
1283	 0.275144295054598 
1284	 0.275225538136285 
1285	 0.275318641330268 
1286	 0.275405241893404 
1287	 0.275475957692269 
1288	 0.275541597334988 
1289	 0.27559848077117 
1290	 0.275666185881791 
1291	 0.275718547886465 
1292	 0.275797298593648 
1293	 0.275916870222745 
1294	 0.275987216711004 
1295	 0.276046065928661 
1296	 0.276098184556747 
1297	 0.276119895103088 
1298	 0.276150452733446 
1299	 0.276169840735985 
1300	 0.276211781745282 
1301	 0.276260038351719 
1302	 0.276310673246072 
1303	 0.276384244615651 
1304	 0.276456041622475 
1305	 0.276502390319976 
1306	 0.276529915503339 
1307	 0.276534890943362 
1308	 0.276549194984126 
1309	 0.276560166212449 
1310	 0.276569722068686 
1311	 0.276565773195625 
1312	 0.27655375646944 
1313	 0.276544814282955 
1314	 0.276533609661041 
1315	 0.276511156910575 
1316	 0.276489026867906 
1317	 0.276460000961095 
1318	 0.276419212293739 
1319	 0.276370845639384 
1320	 0.276305790690919 
1321	 0.27626104447262 
1322	 0.276224001488534 
1323	 0.276172237467138 
1324	 0.276133911842432 
1325	 0.276098466601581 
1326	 0.276052075885323 
1327	 0.275984634592353 
1328	 0.275902405830362 
1329	 0.275815299527738 
1330	 0.275726712363948 
1331	 0.275616362440573 
1332	 0.275525648321894 
1333	 0.275458754023697 
1334	 0.275359353793507 
1335	 0.275244567950885 
1336	 0.275129031842884 
1337	 0.274994167043294 
1338	 0.274872592551249 
1339	 0.274751406352231 
1340	 0.274639884270232 
1341	 0.274549263730536 
1342	 0.274436519885756 
1343	 0.274311973002463 
1344	 0.274193747716072 
1345	 0.274093602149585 
1346	 0.273970022144071 
1347	 0.273872073200965 
1348	 0.273793561621691 
1349	 0.273659252567772 
1350	 0.273525957994453 
1351	 0.273412108755285 
1352	 0.273298122788502 
1353	 0.273182978324275 
1354	 0.27308796337597 
1355	 0.27297795754966 
1356	 0.272847838314788 
1357	 0.272733250524 
1358	 0.272621242648566 
1359	 0.272521048466688 
1360	 0.272432745978109 
1361	 0.272339751464817 
1362	 0.272266324916011 
1363	 0.272169628147931 
1364	 0.272049091843607 
1365	 0.271941149963054 
1366	 0.271831847519297 
1367	 0.271719386528653 
1368	 0.271618508375309 
1369	 0.271520702000364 
1370	 0.271395828943596 
1371	 0.271275121916548 
1372	 0.271150759753626 
1373	 0.271018670993933 
1374	 0.270864846939136 
1375	 0.270701092703805 
1376	 0.270520898756082 
1377	 0.270328110507699 
1378	 0.270102385489361 
1379	 0.269859027839937 
1380	 0.269600768026856 
1381	 0.26929885554146 
1382	 0.269007364729583 
1383	 0.268737206179721 
1384	 0.268418482087188 
1385	 0.268094448016814 
1386	 0.267720189237554 
1387	 0.267286143439032 
1388	 0.26685313791937 
1389	 0.266401562964559 
1390	 0.265926371183159 
1391	 0.265433528908243 
1392	 0.264900040340803 
1393	 0.26428648686759 
1394	 0.263638161750057 
1395	 0.262958218340478 
1396	 0.262254786513811 
1397	 0.261557275526036 
1398	 0.260855774833597 
1399	 0.260136092827436 
1400	 0.259406036080932 
1401	 0.258663895731758 
1402	 0.25790147815943 
1403	 0.257147007559045 
1404	 0.256371584698915 
1405	 0.255631733748919 
1406	 0.254906846954934 
1407	 0.254182372312019 
1408	 0.25346342173916 
1409	 0.252768764093229 
1410	 0.252068548623088 
1411	 0.251414448128024 
1412	 0.250780189813796 
1413	 0.250200969540507 
1414	 0.249677654371493 
1415	 0.249147714446644 
1416	 0.248659043704643 
1417	 0.248197118386236 
1418	 0.247720752907792 
1419	 0.247288925883616 
1420	 0.246882870278124 
1421	 0.24648201141586 
1422	 0.246132328531928 
1423	 0.245795020794691 
1424	 0.245463813164357 
1425	 0.245153218714426 
1426	 0.244854510374261 
1427	 0.244550902021376 
1428	 0.244288639498848 
1429	 0.244053268997894 
1430	 0.243837274858956 
1431	 0.243653884298975 
1432	 0.243468885571804 
1433	 0.243301089561315 
1434	 0.243143054671862 
1435	 0.242974692154917 
1436	 0.242850575888557 
1437	 0.242764430226342 
1438	 0.242674155567253 
1439	 0.242608802125192 
1440	 0.242555561379277 
1441	 0.242462712484501 
1442	 0.242368730622496 
1443	 0.242285702196262 
1444	 0.242208422730205 
1445	 0.242159630779894 
1446	 0.242121354013618 
1447	 0.242113349625877 
1448	 0.242109325108929 
1449	 0.242084617716069 
1450	 0.242077929997925 
1451	 0.242058742621661 
1452	 0.242006308622155 
1453	 0.242000302371831 
1454	 0.24201987621563 
1455	 0.242034961911454 
1456	 0.242078337550556 
1457	 0.242089502627547 
1458	 0.242076241900522 
1459	 0.242087926560813 
1460	 0.242090980440539 
1461	 0.24211985865852 
1462	 0.242173944069842 
1463	 0.242227516507596 
1464	 0.242293480721265 
1465	 0.242353648487947 
1466	 0.242411179390227 
1467	 0.242485904366499 
1468	 0.242556451690191 
1469	 0.242649286723183 
1470	 0.242761195257495 
1471	 0.242891933316888 
1472	 0.243025389742051 
1473	 0.243164264845253 
1474	 0.243304319338012 
1475	 0.243440145605774 
1476	 0.243582975644104 
1477	 0.243746668148446 
1478	 0.243911194222009 
1479	 0.244086195421618 
1480	 0.244279532713832 
1481	 0.244463358635254 
1482	 0.244654372776509 
1483	 0.244862079293742 
1484	 0.245058172505548 
1485	 0.245244713567907 
1486	 0.245437047516131 
1487	 0.245622462345201 
1488	 0.245821851104467 
1489	 0.246039185635198 
1490	 0.246241164560109 
1491	 0.246453149846933 
1492	 0.246647761558012 
1493	 0.246815247049936 
1494	 0.246999481906551 
1495	 0.247183925432591 
1496	 0.247370273040523 
1497	 0.247569801927452 
1498	 0.247756082302029 
1499	 0.24793678118721 
1500	 0.248116001044831 
1501	 0.248282399234467 
1502	 0.248457034239916 
1503	 0.248637631811851 
1504	 0.248812240974364 
1505	 0.248985070959571 
1506	 0.249180703668955 
1507	 0.24937807907206 
1508	 0.249559972023845 
1509	 0.249736000172432 
1510	 0.249893868513871 
1511	 0.25002776064762 
1512	 0.250156270466918 
1513	 0.25028580183303 
1514	 0.250425551763841 
1515	 0.250573754022069 
1516	 0.250733460218123 
1517	 0.250887401552204 
1518	 0.251050557764855 
1519	 0.251194780798858 
1520	 0.251326955171183 
1521	 0.251470601670222 
1522	 0.25161287103223 
1523	 0.251749560968849 
1524	 0.251891597996247 
1525	 0.25202180949791 
1526	 0.252136071151339 
1527	 0.252263660687946 
1528	 0.252402154223625 
1529	 0.252522075558283 
1530	 0.252637122048064 
1531	 0.252749723263525 
1532	 0.252846359106355 
1533	 0.252947863694727 
1534	 0.253053834575138 
1535	 0.25315758183227 
1536	 0.253257591184502 
1537	 0.253357775080173 
1538	 0.253446980081656 
1539	 0.253554734694924 
1540	 0.253684044445849 
1541	 0.253792177258545 
1542	 0.253907142573409 
1543	 0.254010510203241 
1544	 0.254086506758614 
1545	 0.254173244495372 
1546	 0.254270973658965 
1547	 0.254355041019274 
1548	 0.254434145578414 
1549	 0.254498075008427 
1550	 0.254560299517062 
1551	 0.254644119615377 
1552	 0.25472333945033 
1553	 0.254801039517968 
1554	 0.254868635161139 
1555	 0.254920928075127 
1556	 0.254978643433873 
1557	 0.255043507912257 
1558	 0.255110606467633 
1559	 0.255162685150857 
1560	 0.255225237060387 
1561	 0.255285316606359 
1562	 0.255353039401567 
1563	 0.255432619060339 
1564	 0.255505181954745 
1565	 0.255584627582477 
1566	 0.255639436215436 
1567	 0.255674431449608 
1568	 0.255724984450752 
1569	 0.255764746834978 
1570	 0.255819303841152 
1571	 0.255901117699573 
1572	 0.255950513478104 
1573	 0.255976075988852 
1574	 0.25602655392266 
1575	 0.256085505098942 
1576	 0.25612525773371 
1577	 0.256173065007603 
1578	 0.256207525165575 
1579	 0.25620467174606 
1580	 0.256232046123453 
1581	 0.256271938606515 
1582	 0.256323393207844 
1583	 0.256401191292096 
1584	 0.256449264826711 
1585	 0.256501351394365 
1586	 0.256535442544261 
1587	 0.256531456137505 
1588	 0.256551444313529 
1589	 0.256574417337961 
1590	 0.256602765211523 
1591	 0.25664750404101 
1592	 0.256679252182045 
1593	 0.256704326681156 
1594	 0.25673575822575 
1595	 0.256768095723671 
1596	 0.256791332175977 
1597	 0.256817077146474 
1598	 0.256837822918632 
1599	 0.256852380192589 
1600	 0.256861723401701 
1601	 0.256850832911237 
1602	 0.256865898093434 
1603	 0.256888469781904 
1604	 0.256909895597833 
1605	 0.256968803491062 
1606	 0.257000004894605 
1607	 0.257004815418419 
1608	 0.257010339962364 
1609	 0.257041909200439 
1610	 0.257067135860016 
1611	 0.257094004576218 
1612	 0.257112924150366 
1613	 0.2570870418198 
1614	 0.25705550849284 
1615	 0.257064512885263 
1616	 0.257086693594118 
1617	 0.257121568539882 
1618	 0.257157426964401 
1619	 0.257160125118857 
1620	 0.257161022331752 
1621	 0.257170303603609 
1622	 0.257182222125962 
1623	 0.257181138923107 
1624	 0.257186306917222 
1625	 0.257165819250708 
1626	 0.257114674561218 
1627	 0.257099068085977 
1628	 0.257081534826061 
1629	 0.257084590057469 
1630	 0.257110827805146 
1631	 0.257135331156195 
1632	 0.257174158908375 
1633	 0.257190362309366 
1634	 0.25721342604973 
1635	 0.257210911828811 
1636	 0.257182045871288 
1637	 0.257160102474205 
1638	 0.257124195810429 
1639	 0.257104964465429 
1640	 0.257086773315751 
1641	 0.257077357980719 
1642	 0.257080913691565 
1643	 0.257078701540067 
1644	 0.257078156394104 
1645	 0.257077480213349 
1646	 0.25707607185821 
1647	 0.257078876179348 
1648	 0.257091968643843 
1649	 0.25708333372247 
1650	 0.257064773691381 
1651	 0.257052179399725 
1652	 0.257024059790945 
1653	 0.257011155292592 
1654	 0.257020182716933 
1655	 0.257003097620521 
1656	 0.256984353216378 
1657	 0.256943478492719 
1658	 0.256870041356796 
1659	 0.256824283779701 
1660	 0.256774292988288 
1661	 0.256732962390241 
1662	 0.256717411034645 
1663	 0.256677223637648 
1664	 0.256615612597983 
1665	 0.256577334103948 
1666	 0.256540037008543 
1667	 0.256511359328379 
1668	 0.256507868238065 
1669	 0.256481221453004 
1670	 0.256444963303127 
1671	 0.256410948653209 
1672	 0.256364208953133 
1673	 0.256332167714561 
1674	 0.256311625756678 
1675	 0.256282674459224 
1676	 0.256254492751132 
1677	 0.25622732809107 
1678	 0.256194680056604 
1679	 0.256167868016126 
1680	 0.25614845410523 
1681	 0.256125578352628 
1682	 0.256096950104971 
1683	 0.256079451178319 
1684	 0.256070504302756 
1685	 0.256055285512644 
1686	 0.256054144951489 
1687	 0.256028434475693 
1688	 0.255991124034868 
1689	 0.255941593439724 
1690	 0.25587287195045 
1691	 0.255805335290207 
1692	 0.255717526269138 
1693	 0.255655252485421 
1694	 0.255594021883809 
1695	 0.255551058291086 
1696	 0.255539185351896 
1697	 0.255506961737681 
1698	 0.255473746688581 
1699	 0.255444930886646 
1700	 0.255420686018055 
1701	 0.255374242113725 
1702	 0.25532722352089 
1703	 0.255266244451396 
1704	 0.255172481618009 
1705	 0.255098697950311 
1706	 0.255031832925728 
1707	 0.254959936328258 
1708	 0.254887039069576 
1709	 0.254817701605739 
1710	 0.254750526556848 
1711	 0.254679997051136 
1712	 0.254610208467435 
1713	 0.254542129626549 
1714	 0.254463256931532 
1715	 0.254405991847294 
1716	 0.254371598801399 
1717	 0.254307369934659 
1718	 0.254245210739282 
1719	 0.254171045820515 
1720	 0.254073629810811 
1721	 0.253982952577921 
1722	 0.253888522122454 
1723	 0.253801807543218 
1724	 0.253708611048185 
1725	 0.253631012312687 
1726	 0.253580343691562 
1727	 0.253497802831978 
1728	 0.253405526579526 
1729	 0.253309164981897 
1730	 0.253184238287883 
1731	 0.253091052446537 
1732	 0.253015282183187 
1733	 0.252935349722168 
1734	 0.252878765602974 
1735	 0.252783737098196 
1736	 0.25266723748315 
1737	 0.252556742535629 
1738	 0.252426529471744 
1739	 0.252312179344525 
1740	 0.252207721506315 
1741	 0.252096750614516 
1742	 0.25198579176586 
1743	 0.251871995537301 
1744	 0.251757084912804 
1745	 0.251636473843834 
1746	 0.251516118691017 
1747	 0.251382069254153 
1748	 0.251242562997612 
1749	 0.251121642315029 
1750	 0.250987286833777 
1751	 0.250867512259749 
1752	 0.250782894999785 
1753	 0.250689643669047 
1754	 0.250585792623634 
1755	 0.250479057394357 
1756	 0.250375445818914 
1757	 0.250272253600043 
1758	 0.250167380430501 
1759	 0.250063973602663 
1760	 0.249953637871031 
1761	 0.249840084772839 
1762	 0.249717111534418 
1763	 0.249587001976644 
1764	 0.249448151339108 
1765	 0.249300105157882 
1766	 0.249158548355349 
1767	 0.249013393832319 
1768	 0.248888864987173 
1769	 0.248792706830195 
1770	 0.248714654179238 
1771	 0.248686229985171 
1772	 0.248645218088891 
1773	 0.248564952918774 
1774	 0.248510350022856 
1775	 0.248435339667042 
1776	 0.248319480465415 
1777	 0.248225583446856 
1778	 0.248134654081034 
1779	 0.248013829320722 
1780	 0.247925273155744 
1781	 0.247858522694776 
1782	 0.247757080255622 
1783	 0.247662110095516 
1784	 0.247609211717551 
1785	 0.247605864838772 
1786	 0.247570099161527 
1787	 0.247551151011937 
1788	 0.24751376085324 
1789	 0.247441156131991 
1790	 0.247374456658121 
1791	 0.247305842577491 
1792	 0.247244359359679 
1793	 0.247161636827696 
1794	 0.247134172097552 
1795	 0.247149239594765 
1796	 0.247131800733016 
1797	 0.247127277697273 
1798	 0.247117888297604 
1799	 0.247103382700187 
1800	 0.247097285235925 
1801	 0.244935340967461 
1802	 0.245112069582246 
1803	 0.245273115207455 
1804	 0.245476242952905 
1805	 0.245691794065892 
1806	 0.245862673837052 
1807	 0.246053622933 
1808	 0.246231471368735 
1809	 0.246399303688859 
1810	 0.246556090425402 
1811	 0.246731297933982 
1812	 0.246859669187282 
1813	 0.246951552748895 
1814	 0.246990518911613 
1815	 0.246986763134992 
1816	 0.247024629895501 
1817	 0.247061721181413 
1818	 0.247108487393785 
1819	 0.247134693954525 
1820	 0.247167770224414 
1821	 0.247174146234485 
1822	 0.247163657178916 
1823	 0.247165983525653 
1824	 0.24719493507186 
1825	 0.247238714204985 
1826	 0.247278169787017 
1827	 0.247333892702541 
1828	 0.247342527127887 
1829	 0.247310918375322 
1830	 0.247267614549658 
1831	 0.247184314550158 
1832	 0.247128794044157 
1833	 0.247076523307711 
1834	 0.247067932998023 
1835	 0.247089339502751 
1836	 0.247066477671374 
1837	 0.247025570679174 
1838	 0.246994216055173 
1839	 0.246961530236736 
1840	 0.246920386237562 
1841	 0.246891456767637 
1842	 0.246865033967523 
1843	 0.246823423799963 
1844	 0.24678722434148 
1845	 0.24672317504483 
1846	 0.246636690123977 
1847	 0.246550979882998 
1848	 0.24644766478561 
1849	 0.246336216192968 
1850	 0.246218993547646 
1851	 0.24610100995757 
1852	 0.245974171954626 
1853	 0.245825701282955 
1854	 0.245656582118549 
1855	 0.245474218275482 
1856	 0.245241298505279 
1857	 0.244984109234757 
1858	 0.244738252793007 
1859	 0.2444595653042 
1860	 0.244167641852912 
1861	 0.243874736505015 
1862	 0.243567370615463 
1863	 0.243200814448622 
1864	 0.242816208054062 
1865	 0.242392430873372 
1866	 0.241930995756684 
1867	 0.241433431451335 
1868	 0.240862584283336 
1869	 0.24026127090704 
1870	 0.239634846769764 
1871	 0.238965746405174 
1872	 0.23825777844078 
1873	 0.237537661253369 
1874	 0.236782092273597 
1875	 0.235951791749197 
1876	 0.235067826293916 
1877	 0.234144461505601 
1878	 0.233116925410791 
1879	 0.232000246989373 
1880	 0.230806236679356 
1881	 0.229513897602437 
1882	 0.228165346512943 
1883	 0.226750410441756 
1884	 0.225233720949803 
1885	 0.223674104617389 
1886	 0.222036577243019 
1887	 0.220294521812582 
1888	 0.218516547142649 
1889	 0.216647303938771 
1890	 0.214698693655437 
1891	 0.212725201247895 
1892	 0.210667079383702 
1893	 0.208604820203235 
1894	 0.20650791553942 
1895	 0.204405495069234 
1896	 0.202237726973918 
1897	 0.200132685415758 
1898	 0.198032337993049 
1899	 0.195898029254637 
1900	 0.193835152813483 
1901	 0.191797872817711 
1902	 0.189849502793225 
1903	 0.187975251824948 
1904	 0.18616613287687 
1905	 0.184424608216217 
1906	 0.182760559715005 
1907	 0.181157776810199 
1908	 0.179641936336156 
1909	 0.178232683050567 
1910	 0.17689960809289 
1911	 0.175642158196045 
1912	 0.174445589047458 
1913	 0.173326695231358 
1914	 0.172285363896801 
1915	 0.171303965836074 
1916	 0.17038816391192 
1917	 0.169552440012527 
1918	 0.168779611167524 
1919	 0.168041049913514 
1920	 0.167369119152167 
1921	 0.166745785775919 
1922	 0.16618569293537 
1923	 0.165699078156121 
1924	 0.165258049035393 
1925	 0.164894303067814 
1926	 0.164561041688349 
1927	 0.164271497024261 
1928	 0.164018813895736 
1929	 0.163810709622679 
1930	 0.163652610148804 
1931	 0.16351993579476 
1932	 0.163412238554239 
1933	 0.163356691199626 
1934	 0.163319318507243 
1935	 0.1633093501034 
1936	 0.163344691081345 
1937	 0.163378709192991 
1938	 0.1634066344659 
1939	 0.163491583140397 
1940	 0.163602864125631 
1941	 0.16374455230114 
1942	 0.163941802763061 
1943	 0.164152691241433 
1944	 0.164356933954977 
1945	 0.164578712796864 
1946	 0.164817179167325 
1947	 0.165058290999029 
1948	 0.165333673591923 
1949	 0.165656686820482 
1950	 0.165956721246706 
1951	 0.166261781712955 
1952	 0.166574603981826 
1953	 0.16688125107621 
1954	 0.167212741003464 
1955	 0.167590448441378 
1956	 0.167988333076313 
1957	 0.16839345635219 
1958	 0.168824067547379 
1959	 0.169250509435405 
1960	 0.169702448190121 
1961	 0.17012875945262 
1962	 0.170539302710773 
1963	 0.170967456585376 
1964	 0.171398555013223 
1965	 0.171807705503639 
1966	 0.172233963413325 
1967	 0.172694417266736 
1968	 0.173157087566276 
1969	 0.173623469827432 
1970	 0.174102609314824 
1971	 0.174609120437039 
1972	 0.175104018447941 
1973	 0.175590665354305 
1974	 0.176090163290475 
1975	 0.176600351639686 
1976	 0.17710563972771 
1977	 0.177631587606252 
1978	 0.178169694166502 
1979	 0.178692688897939 
1980	 0.179219233698063 
1981	 0.179725846677108 
1982	 0.18020627808577 
1983	 0.180703901925237 
1984	 0.181192760792301 
1985	 0.181692999123369 
1986	 0.182218956163498 
1987	 0.182716274301847 
1988	 0.183192063429188 
1989	 0.183689253474861 
1990	 0.184174460033517 
1991	 0.184656857638077 
1992	 0.185152401129259 
1993	 0.185667026431991 
1994	 0.186164855212658 
1995	 0.186652331447651 
1996	 0.187155141957574 
1997	 0.187672260515689 
1998	 0.1881754912939 
1999	 0.188679893748797 
2000	 0.189184650429277 
2001	 0.189690005165665 
2002	 0.190174574038568 
2003	 0.190675056065421 
2004	 0.19114434508802 
2005	 0.191616653993492 
2006	 0.192076452394931 
2007	 0.192534513639627 
2008	 0.192978470663951 
2009	 0.193440725860038 
2010	 0.193901418510613 
2011	 0.194363628770161 
2012	 0.194853669581592 
2013	 0.195321173937525 
2014	 0.195777189803521 
2015	 0.196226785394826 
2016	 0.196664661319592 
2017	 0.197072130854126 
2018	 0.197517666322786 
2019	 0.197974855910852 
2020	 0.198422384772668 
2021	 0.198897917219285 
2022	 0.199345621458739 
2023	 0.199764176466149 
2024	 0.200192283761846 
2025	 0.200607550654059 
2026	 0.201040415620721 
2027	 0.201488782030039 
2028	 0.201929077849387 
2029	 0.20236038044797 
2030	 0.202801100233869 
2031	 0.203221729870102 
2032	 0.203632212673044 
2033	 0.204021317812248 
2034	 0.204390889217289 
2035	 0.204767783511739 
2036	 0.205132588343981 
2037	 0.205484753102766 
2038	 0.205839319494799 
2039	 0.206183636325352 
2040	 0.20649882992684 
2041	 0.206820284530838 
2042	 0.20715319299097 
2043	 0.207487432733072 
2044	 0.207820212222925 
2045	 0.208155134722588 
2046	 0.208485708040974 
2047	 0.208815669171725 
2048	 0.209143429222 
2049	 0.209479144786037 
2050	 0.209792176234112 
2051	 0.210092501625127 
2052	 0.21038962768321 
2053	 0.210655218528961 
2054	 0.21094404703525 
2055	 0.211240817080048 
2056	 0.21154963631823 
2057	 0.211847522424344 
2058	 0.212160330367256 
2059	 0.212445304844709 
2060	 0.212703082001692 
2061	 0.21298279187878 
2062	 0.213261832883067 
2063	 0.213539899642369 
2064	 0.213830971751618 
2065	 0.214112211018839 
2066	 0.214393158105925 
2067	 0.214659398900224 
2068	 0.214919841566025 
2069	 0.215166174557324 
2070	 0.215420860724764 
2071	 0.21566412684816 
2072	 0.215914646181189 
2073	 0.216171304990773 
2074	 0.216430050357557 
2075	 0.216684698249123 
2076	 0.216944053703618 
2077	 0.217219603535464 
2078	 0.217479041867648 
2079	 0.21772556334939 
2080	 0.217980658900145 
2081	 0.218255020627476 
2082	 0.218496707700644 
2083	 0.218727464043052 
2084	 0.218936995800485 
2085	 0.219169508250086 
2086	 0.219380645436945 
2087	 0.219612804372495 
2088	 0.219876273836591 
2089	 0.220123761596413 
2090	 0.220356071228658 
2091	 0.220601940560871 
2092	 0.220868862371286 
2093	 0.22111564206816 
2094	 0.221351570733035 
2095	 0.221593117339233 
2096	 0.221830599015815 
2097	 0.222064815713016 
2098	 0.222293422838782 
2099	 0.222532420646667 
2100	 0.222773177748866 
2101	 0.223018758120211 
2102	 0.22324561480347 
2103	 0.223474442458376 
2104	 0.223694774407007 
2105	 0.223880494680433 
2106	 0.224104175045447 
2107	 0.224349844607892 
2108	 0.224587429772143 
2109	 0.224835026087533 
2110	 0.225083557177035 
2111	 0.225327175530748 
2112	 0.22557632076841 
2113	 0.22584059699639 
2114	 0.226090924293745 
2115	 0.226355747223384 
2116	 0.226644142555269 
2117	 0.226876881522081 
2118	 0.227092332770234 
2119	 0.227307265411077 
2120	 0.227476258562157 
2121	 0.227676666531891 
2122	 0.227913456104576 
2123	 0.228108404848331 
2124	 0.228276974555696 
2125	 0.228454796992127 
2126	 0.228624937986427 
2127	 0.228787769559855 
2128	 0.228955970664018 
2129	 0.229111322897203 
2130	 0.229252067624726 
2131	 0.22938055476806 
2132	 0.22951245022508 
2133	 0.229647937382101 
2134	 0.229762645833874 
2135	 0.229868250442401 
2136	 0.229964959254034 
2137	 0.230037917864209 
2138	 0.230123637727439 
2139	 0.230220841766696 
2140	 0.230293452646968 
2141	 0.23036351547438 
2142	 0.230414888810627 
2143	 0.230448539860751 
2144	 0.230465498877499 
2145	 0.230458024933048 
2146	 0.230455002744539 
2147	 0.230445257867874 
2148	 0.230419267480561 
2149	 0.230389903807059 
2150	 0.230355545370841 
2151	 0.230325484839941 
2152	 0.230283815161154 
2153	 0.230248249368048 
2154	 0.230235312292403 
2155	 0.230187867859317 
2156	 0.230139299780768 
2157	 0.230051539653743 
2158	 0.229919418664828 
2159	 0.229800683427716 
2160	 0.229653426249595 
2161	 0.229519159350524 
2162	 0.229390242464908 
2163	 0.229268248490684 
2164	 0.229163745649434 
2165	 0.229031264531742 
2166	 0.228909591238312 
2167	 0.228808084031406 
2168	 0.228663868041616 
2169	 0.228490835178206 
2170	 0.228333944567825 
2171	 0.228154065129549 
2172	 0.227998698295664 
2173	 0.227857340786107 
2174	 0.227720775942573 
2175	 0.227608731559341 
2176	 0.227467692233549 
2177	 0.227323753406824 
2178	 0.227168412660338 
2179	 0.226972242508781 
2180	 0.22680553273931 
2181	 0.226659264264591 
2182	 0.226503281738909 
2183	 0.226353879988191 
2184	 0.22619806374519 
2185	 0.226056308416797 
2186	 0.22591231113573 
2187	 0.225771566924084 
2188	 0.225640937245761 
2189	 0.225518700281119 
2190	 0.225392643591229 
2191	 0.225275308357461 
2192	 0.22517321223688 
2193	 0.225073348902832 
2194	 0.224968993088331 
2195	 0.224881196181237 
2196	 0.22482162955295 
2197	 0.224745048317366 
2198	 0.224658292681266 
2199	 0.224585243096434 
2200	 0.224498224483865 
2201	 0.224439908269574 
2202	 0.224395119301807 
2203	 0.224381589236844 
2204	 0.224371481398676 
2205	 0.224380884499874 
2206	 0.224386086721179 
2207	 0.224408413420683 
2208	 0.224410332064339 
2209	 0.224398561903629 
2210	 0.224413070085616 
2211	 0.224438895917315 
2212	 0.224448323549486 
2213	 0.224450847608354 
2214	 0.224480544461674 
2215	 0.22453217456593 
2216	 0.224545822116332 
2217	 0.224575194302268 
2218	 0.224584543857501 
2219	 0.224519721501691 
2220	 0.224504145791147 
2221	 0.224517175777609 
2222	 0.224537234560361 
2223	 0.224549133293044 
2224	 0.224571107417765 
2225	 0.224584630276046 
2226	 0.224583225032149 
2227	 0.224602207954941 
2228	 0.224633702045261 
2229	 0.224660922885165 
2230	 0.224707186795075 
2231	 0.224719806489425 
2232	 0.224716660131188 
2233	 0.224709437755419 
2234	 0.224681504826267 
2235	 0.224657280679964 
2236	 0.224628869985313 
2237	 0.22460388669109 
2238	 0.224568432203202 
2239	 0.224546224880466 
2240	 0.22453827518124 
2241	 0.22452600693657 
2242	 0.224517551745763 
2243	 0.22450668294689 
2244	 0.224524900665085 
2245	 0.224486010640996 
2246	 0.224422715922095 
2247	 0.2243550123434 
2248	 0.224303501127285 
2249	 0.224216613775898 
2250	 0.224201610882218 
2251	 0.22424838645473 
2252	 0.224251248876494 
2253	 0.224273822694945 
2254	 0.224258566959967 
2255	 0.224199736152095 
2256	 0.224171484904235 
2257	 0.22414581981753 
2258	 0.224121417931541 
2259	 0.224109082838024 
2260	 0.224098176904271 
2261	 0.224098081841049 
2262	 0.224064737792148 
2263	 0.224019456914038 
2264	 0.223973273954615 
2265	 0.223875933480005 
2266	 0.223827526824073 
2267	 0.223810564472162 
2268	 0.223794972466526 
2269	 0.223802613701845 
2270	 0.22382092126585 
2271	 0.22381765633986 
2272	 0.223802237949459 
2273	 0.223743520315114 
2274	 0.223666431414831 
2275	 0.223589119620582 
2276	 0.223476111761199 
2277	 0.223400616134694 
2278	 0.223345003565697 
2279	 0.223270356657936 
2280	 0.22319952016532 
2281	 0.22312582916323 
2282	 0.22303145367369 
2283	 0.222966311260632 
2284	 0.222918977463079 
2285	 0.222869616367593 
2286	 0.222852855180944 
2287	 0.222791361526548 
2288	 0.222693133236516 
2289	 0.22262383554474 
2290	 0.222536600282968 
2291	 0.222465131392336 
2292	 0.2224384789883 
2293	 0.222380923354668 
2294	 0.222305881568811 
2295	 0.22223679486074 
2296	 0.22216157740367 
2297	 0.222081196169154 
2298	 0.222014442670766 
2299	 0.221912396109152 
2300	 0.221797755604032 
2301	 0.221733088959216 
2302	 0.221689558015669 
2303	 0.221629987346513 
2304	 0.221581939665889 
2305	 0.221462031172824 
2306	 0.22132106824975 
2307	 0.221109589847422 
2308	 0.2209654119409 
2309	 0.220826587957088 
2310	 0.220685782768678 
2311	 0.220579756462289 
2312	 0.220427833840972 
2313	 0.220221476091209 
2314	 0.220067109257581 
2315	 0.219932922069838 
2316	 0.219792668532274 
2317	 0.21967875864897 
2318	 0.219542641066543 
2319	 0.219392495014851 
2320	 0.219247869615761 
2321	 0.21910381254887 
2322	 0.218935953948645 
2323	 0.218741137765667 
2324	 0.218567969834229 
2325	 0.218368606558405 
2326	 0.218227173548661 
2327	 0.218157420979196 
2328	 0.218043172933749 
2329	 0.217912204105275 
2330	 0.217811746600971 
2331	 0.21767751900768 
2332	 0.217510741827564 
2333	 0.217316750284717 
2334	 0.217108704375007 
2335	 0.216943991302956 
2336	 0.216808029979222 
2337	 0.216675317005469 
2338	 0.216576203095245 
2339	 0.216476286944799 
2340	 0.216302785244594 
2341	 0.216127587770134 
2342	 0.215974780334497 
2343	 0.215796275484978 
2344	 0.215626972060271 
2345	 0.215457971138398 
2346	 0.215332435310131 
2347	 0.215138781442073 
2348	 0.214912729246847 
2349	 0.214660570501895 
2350	 0.214349586615936 
2351	 0.214087569343497 
2352	 0.213784399691365 
2353	 0.213575707889699 
2354	 0.213486041422412 
2355	 0.213289005568855 
2356	 0.213103729556694 
2357	 0.212886622456821 
2358	 0.212567235690252 
2359	 0.212297420282918 
2360	 0.212070304595437 
2361	 0.211801283223787 
2362	 0.211500297346983 
2363	 0.211225053095018 
2364	 0.210923536602238 
2365	 0.210670593272506 
2366	 0.210488135481991 
2367	 0.210254922452117 
2368	 0.210012092074381 
2369	 0.20976380130708 
2370	 0.209473317420498 
2371	 0.20923289152854 
2372	 0.208974144186065 
2373	 0.208683495013545 
2374	 0.208417567010244 
2375	 0.208068420499106 
2376	 0.207689107302531 
2377	 0.207413021665555 
2378	 0.207125010180621 
2379	 0.206826127866736 
2380	 0.206527088101783 
2381	 0.206250683439562 
2382	 0.206011211969915 
2383	 0.205672409962483 
2384	 0.205389441859471 
2385	 0.20517496512812 
2386	 0.204862644217777 
2387	 0.204605523974862 
2388	 0.204339524152796 
2389	 0.203883840390976 
2390	 0.203384533005349 
2391	 0.202949665262763 
2392	 0.20256167818084 
2393	 0.20223014480062 
2394	 0.201941115146426 
2395	 0.201626566687926 
2396	 0.201220720953849 
2397	 0.20087592810502 
2398	 0.200621412463289 
2399	 0.200313259007481 
2400	 0.199963478303162 
2401	 0.199600153705024 
2402	 0.199149551828595 
2403	 0.198635412205988 
2404	 0.198286184582163 
2405	 0.19800111201839 
2406	 0.197668123100857 
2407	 0.197433858263626 
2408	 0.19710854338552 
2409	 0.196669907215189 
2410	 0.196272084549204 
2411	 0.195873445586405 
2412	 0.195558380370392 
2413	 0.195195411317145 
2414	 0.19478999061687 
2415	 0.194517227148525 
2416	 0.194191362823395 
2417	 0.193799706360316 
2418	 0.193525437244769 
2419	 0.193353475381652 
2420	 0.193004996366165 
2421	 0.19258179225514 
2422	 0.192243327115199 
2423	 0.191872789532196 
2424	 0.191502634056545 
2425	 0.191253849096123 
2426	 0.190916995273405 
2427	 0.190466637310047 
2428	 0.190051396002626 
2429	 0.189638478282812 
2430	 0.189201825993675 
2431	 0.188692055928476 
2432	 0.188302307592327 
2433	 0.188018120831022 
2434	 0.187590532244547 
2435	 0.187143151546667 
2436	 0.186761393815582 
2437	 0.186277746000605 
2438	 0.185994440180969 
2439	 0.185950085915509 
2440	 0.185628679218132 
2441	 0.185268098892552 
2442	 0.184883366360713 
2443	 0.184327490418047 
2444	 0.18387275636256 
2445	 0.183429948413601 
2446	 0.183011000413226 
2447	 0.182645362980733 
2448	 0.18222544501007 
2449	 0.181826049146771 
2450	 0.181437777070501 
2451	 0.180942877255513 
2452	 0.180545920773206 
2453	 0.180320637094058 
2454	 0.179946997459068 
2455	 0.179461217400606 
2456	 0.179129908683003 
2457	 0.178832762190076 
2458	 0.178503773374814 
2459	 0.178322795835292 
2460	 0.17799070781856 
2461	 0.177450457398172 
2462	 0.177008038369144 
2463	 0.176605244125499 
2464	 0.17617581834194 
2465	 0.175727349364765 
2466	 0.175359889240555 
2467	 0.175000161021291 
2468	 0.174672276662628 
2469	 0.174467298743376 
2470	 0.174194221682452 
2471	 0.173857159530184 
2472	 0.173466801540934 
2473	 0.173110770097675 
2474	 0.17275375686284 
2475	 0.172397554819626 
2476	 0.172036378799382 
2477	 0.171645360708831 
2478	 0.171157721230243 
2479	 0.17074526527795 
2480	 0.170609257808079 
2481	 0.170408765690241 
2482	 0.170182307630856 
2483	 0.169989799150314 
2484	 0.169574712019695 
2485	 0.169105643490716 
2486	 0.168908865838994 
2487	 0.168789076051617 
2488	 0.168574579838171 
2489	 0.168376902233816 
2490	 0.167982208539501 
2491	 0.167532607409915 
2492	 0.167243885444134 
2493	 0.167034046319847 
2494	 0.167001107042965 
2495	 0.166939814701591 
2496	 0.166674567276364 
2497	 0.166471899981063 
2498	 0.166214920833209 
2499	 0.165793962739786 
2500	 0.165464680023875 
