Wavelength	mm2200005.asd
350	 4.14302923021325E-02 
351	 4.04479703280531E-02 
352	 3.02628503432196E-02 
353	 2.39937445030807E-02 
354	 2.72689965128125E-02 
355	 2.76945542540948E-02 
356	 2.71307186179753E-02 
357	 2.98602894186835E-02 
358	 3.48063290044791E-02 
359	 3.28836466561238E-02 
360	 2.74213149605981E-02 
361	 2.85338367082683E-02 
362	 2.65194121513949E-02 
363	 2.82333214302813E-02 
364	 3.34228912499017E-02 
365	 2.76339616489624E-02 
366	 2.57870116157759E-02 
367	 2.73659485596063E-02 
368	 2.86400631712725E-02 
369	 3.24124416411211E-02 
370	 3.04514006883275E-02 
371	 2.78093149525995E-02 
372	 3.63483681309267E-02 
373	 3.51381535201219E-02 
374	 3.07414978143944E-02 
375	 2.93755618281018E-02 
376	 0.030468021935829 
377	 3.02288132967394E-02 
378	 3.10197564348224E-02 
379	 3.48842489984564E-02 
380	 3.44976898783402E-02 
381	 3.21567742003345E-02 
382	 3.18011221031323E-02 
383	 3.71332369123761E-02 
384	 3.72705679015648E-02 
385	 3.48399539828194E-02 
386	 3.36707587460533E-02 
387	 3.60538083322036E-02 
388	 3.72600863295793E-02 
389	 3.70397236625756E-02 
390	 3.66526589474417E-02 
391	 3.68912919727056E-02 
392	 3.64550216220996E-02 
393	 3.55661780499158E-02 
394	 3.57529064663476E-02 
395	 0.037258137798752 
396	 0.038316601697434 
397	 3.80715512461463E-02 
398	 3.82409710339931E-02 
399	 3.83219390768058E-02 
400	 3.87006421100182E-02 
401	 3.96458352420977E-02 
402	 3.91932740211418E-02 
403	 3.86444562593347E-02 
404	 3.87072241973477E-02 
405	 3.92425949708416E-02 
406	 3.93102401980361E-02 
407	 4.00599038205398E-02 
408	 4.15718327321422E-02 
409	 3.99426749623898E-02 
410	 3.93137766007416E-02 
411	 3.98007093709827E-02 
412	 3.97880993814169E-02 
413	 0.040268529904661 
414	 4.00837904520289E-02 
415	 3.93723296515936E-02 
416	 4.01150688852964E-02 
417	 0.040022119413387 
418	 3.99522072592475E-02 
419	 4.06945009426643E-02 
420	 4.01121741502121E-02 
421	 3.95919767351461E-02 
422	 3.97608778823169E-02 
423	 4.05141294261171E-02 
424	 3.98302003452917E-02 
425	 3.92048680943155E-02 
426	 3.95547302455475E-02 
427	 4.00431383740536E-02 
428	 3.98951859372698E-02 
429	 3.95763948730284E-02 
430	 3.97983126986834E-02 
431	 4.02319817300491E-02 
432	 4.00149389452922E-02 
433	 3.94345151649803E-02 
434	 3.98025831600124E-02 
435	 3.97794543741865E-02 
436	 3.96646111152876E-02 
437	 3.97678547373766E-02 
438	 3.95062110747239E-02 
439	 0.039764436725259 
440	 0.040227561597904 
441	 4.01092176116497E-02 
442	 4.01503649168651E-02 
443	 4.00484143994976E-02 
444	 3.97262055434647E-02 
445	 3.95783578489877E-02 
446	 3.96692425578203E-02 
447	 0.039780330959357 
448	 3.96780684166218E-02 
449	 0.039432698852054 
450	 3.95009936063002E-02 
451	 3.98000485902324E-02 
452	 0.039803481564512 
453	 3.96700927803446E-02 
454	 3.95589383416123E-02 
455	 3.95419866067948E-02 
456	 3.94548384354827E-02 
457	 3.95518332863145E-02 
458	 3.95835257611085E-02 
459	 0.039196221297537 
460	 3.90809012460536E-02 
461	 3.90506364591302E-02 
462	 3.89845356712841E-02 
463	 0.038969413603995 
464	 3.90363333453373E-02 
465	 3.90781184935138E-02 
466	 3.90141276607825E-02 
467	 3.90508617470343E-02 
468	 3.88968542603516E-02 
469	 3.87592198322052E-02 
470	 0.039171094277571 
471	 3.90853410092566E-02 
472	 3.87875734490912E-02 
473	 3.86412847858411E-02 
474	 3.86475821611777E-02 
475	 3.85911207207121E-02 
476	 3.85719265710433E-02 
477	 3.87620266861585E-02 
478	 3.87766049380822E-02 
479	 3.86227853158025E-02 
480	 3.84851295432915E-02 
481	 3.87411187837913E-02 
482	 3.88522898471769E-02 
483	 3.87566542722548E-02 
484	 3.85523800119986E-02 
485	 3.83423051808831E-02 
486	 3.83378395074722E-02 
487	 3.84260172188721E-02 
488	 0.038256815612108 
489	 3.82425204054259E-02 
490	 3.82675670080063E-02 
491	 3.82349014944108E-02 
492	 3.83487417642693E-02 
493	 3.82782610225219E-02 
494	 3.81529046222573E-02 
495	 3.82527782546679E-02 
496	 3.81948072232733E-02 
497	 3.80823871826846E-02 
498	 3.80308818604352E-02 
499	 3.81015019147885E-02 
500	 3.82791448676317E-02 
501	 3.82782186072488E-02 
502	 3.79423710192933E-02 
503	 3.80101311647676E-02 
504	 3.80417986700701E-02 
505	 3.79697144123227E-02 
506	 3.80829931138887E-02 
507	 3.80414945005377E-02 
508	 3.80562950379899E-02 
509	 3.82174052290527E-02 
510	 0.037965265833592 
511	 3.79768698496459E-02 
512	 3.81691895097025E-02 
513	 3.80884446242745E-02 
514	 3.79020659107542E-02 
515	 3.78279161505049E-02 
516	 3.79389181563635E-02 
517	 3.80788254589939E-02 
518	 3.80338667700034E-02 
519	 3.79646673289837E-02 
520	 0.038088537350036 
521	 3.81874914124536E-02 
522	 3.82074865532658E-02 
523	 3.81592969229434E-02 
524	 3.81109830036982E-02 
525	 3.81579060586481E-02 
526	 3.81896403573641E-02 
527	 3.81266838240316E-02 
528	 0.038130628817517 
529	 3.82372335701714E-02 
530	 3.83653064209645E-02 
531	 3.83702765660445E-02 
532	 3.83307556970566E-02 
533	 0.038357720382525 
534	 3.84687213609824E-02 
535	 3.84774657560081E-02 
536	 3.85275543441798E-02 
537	 3.85964608518297E-02 
538	 3.86129839822625E-02 
539	 3.86344406719301E-02 
540	 3.86494189843766E-02 
541	 0.038697536748029 
542	 3.88971334046193E-02 
543	 3.89698957177633E-02 
544	 0.038974089251362 
545	 3.90364275227161E-02 
546	 3.91569015807931E-02 
547	 3.91910762539553E-02 
548	 0.039217967292689 
549	 3.94822570819048E-02 
550	 3.95678935049598E-02 
551	 3.96168993465353E-02 
552	 3.97838779045887E-02 
553	 3.99926244054273E-02 
554	 4.01238634246943E-02 
555	 4.02423104470277E-02 
556	 0.040487230959086 
557	 4.06781305545981E-02 
558	 4.08798926418658E-02 
559	 4.11497848652028E-02 
560	 4.14980404891344E-02 
561	 0.041698045295631 
562	 4.19021083226624E-02 
563	 4.23203819298725E-02 
564	 4.26751799932941E-02 
565	 4.30643763742839E-02 
566	 4.35068542896709E-02 
567	 4.39125213064871E-02 
568	 4.44666211439102E-02 
569	 4.50191388757463E-02 
570	 4.54515445917742E-02 
571	 4.60269824885258E-02 
572	 4.66267799542334E-02 
573	 4.72368510109418E-02 
574	 4.79127284568606E-02 
575	 4.85914000995725E-02 
576	 4.92752858933946E-02 
577	 4.99832534883978E-02 
578	 5.07434695509253E-02 
579	 5.15700839708901E-02 
580	 5.24212254642837E-02 
581	 5.32473184556225E-02 
582	 5.41318448647802E-02 
583	 5.50482370412297E-02 
584	 5.59847243438981E-02 
585	 5.69705759612096E-02 
586	 0.057967522394327 
587	 5.89527062013229E-02 
588	 5.99360647174444E-02 
589	 6.10543463164977E-02 
590	 6.21329888180463E-02 
591	 6.31575458189595E-02 
592	 6.42636524920107E-02 
593	 6.52783429730346E-02 
594	 6.63066094841082E-02 
595	 6.74106059520105E-02 
596	 6.83992939684249E-02 
597	 6.93461276329488E-02 
598	 7.02886173140803E-02 
599	 7.12515354575446E-02 
600	 7.22753673627907E-02 
601	 7.32561170274954E-02 
602	 7.41415421110202E-02 
603	 7.50011151903144E-02 
604	 7.58672273019093E-02 
605	 7.67101836132065E-02 
606	 7.74938762127667E-02 
607	 7.82934842188876E-02 
608	 7.90750763808407E-02 
609	 7.98207402675716E-02 
610	 8.05391216773726E-02 
611	 8.11702553949656E-02 
612	 8.17476955156987E-02 
613	 8.23039015808949E-02 
614	 8.27843935951867E-02 
615	 8.32663231643166E-02 
616	 8.37448158049671E-02 
617	 0.084162159092881 
618	 0.084615187456649 
619	 8.50042260447458E-02 
620	 8.53088625793838E-02 
621	 8.57514531451433E-02 
622	 8.61150392531902E-02 
623	 8.63951863172728E-02 
624	 8.66750954543127E-02 
625	 8.70033372302452E-02 
626	 8.73035543502757E-02 
627	 8.75583579553585E-02 
628	 8.78409368325585E-02 
629	 8.81057169208988E-02 
630	 0.08833413059492 
631	 8.85326502379303E-02 
632	 8.87662679438653E-02 
633	 8.90339350414773E-02 
634	 8.93108269889841E-02 
635	 8.95567701409942E-02 
636	 8.97943026947851E-02 
637	 9.00344163449887E-02 
638	 9.02765122647375E-02 
639	 9.04963562720117E-02 
640	 9.07090624868301E-02 
641	 0.090937707029553 
642	 9.11974526809704E-02 
643	 9.14081939246499E-02 
644	 9.16682245661262E-02 
645	 9.19841632444857E-02 
646	 9.22045380920432E-02 
647	 9.24762198966803E-02 
648	 9.27644068998108E-02 
649	 9.30128247848285E-02 
650	 9.33078689792797E-02 
651	 9.35994683337354E-02 
652	 9.38836473370592E-02 
653	 9.41983589506254E-02 
654	 9.45290763320982E-02 
655	 9.48433391508427E-02 
656	 9.51481076339625E-02 
657	 9.55665569549708E-02 
658	 9.59231561479992E-02 
659	 0.096231620486622 
660	 9.65882996181174E-02 
661	 9.69563208318645E-02 
662	 9.73495574921092E-02 
663	 9.77568926803391E-02 
664	 9.81243108393507E-02 
665	 9.85274370486191E-02 
666	 9.89554472274206E-02 
667	 9.93812502085471E-02 
668	 9.98241871896281E-02 
669	 0.100266210838714 
670	 0.100718065537686 
671	 0.101210288945266 
672	 0.101695614434025 
673	 0.102180453559502 
674	 0.102675994784486 
675	 0.103177093005416 
676	 0.103720288536074 
677	 0.104281991554411 
678	 0.104819294158554 
679	 0.105357430592549 
680	 0.105919821522294 
681	 0.106504492244802 
682	 0.107076654798687 
683	 0.107699355158961 
684	 0.108334964388582 
685	 0.108941775612251 
686	 0.10956568666228 
687	 0.1101958245485 
688	 0.110833428717703 
689	 0.111488075310361 
690	 0.112173803569518 
691	 0.112835099880945 
692	 0.113469688194404 
693	 0.114208279207901 
694	 0.11491008552098 
695	 0.115587020697381 
696	 0.116295293064117 
697	 0.117000673443988 
698	 0.117716962394616 
699	 0.118446279792481 
700	 0.119175739434925 
701	 0.119932516795559 
702	 0.120692354859863 
703	 0.121433278638486 
704	 0.122169097502398 
705	 0.122919798714089 
706	 0.123678749126089 
707	 0.124423747474624 
708	 0.125140862124249 
709	 0.125899087481991 
710	 0.126697028047759 
711	 0.127422715483183 
712	 0.12815799232881 
713	 0.128867009479429 
714	 0.129528189693849 
715	 0.130294550058413 
716	 0.13104447721504 
717	 0.131736359704042 
718	 0.132397408605063 
719	 0.133073358612628 
720	 0.133741695331541 
721	 0.134383591268367 
722	 0.13501250339098 
723	 0.13562628368434 
724	 0.136208151148346 
725	 0.136751534931828 
726	 0.137326203892126 
727	 0.137860227716085 
728	 0.138345720254499 
729	 0.138837674952145 
730	 0.139301361072936 
731	 0.139728686558241 
732	 0.140123928475141 
733	 0.140509986607456 
734	 0.140869884087907 
735	 0.141202251123509 
736	 0.141506509936275 
737	 0.141746930625457 
738	 0.141977809701243 
739	 0.142211928747202 
740	 0.142409400476611 
741	 0.142539879823027 
742	 0.142628752029843 
743	 0.142712889965536 
744	 0.14283282427393 
745	 0.142864231711971 
746	 0.142827383527612 
747	 0.142805241019923 
748	 0.142772975361696 
749	 0.142669905629725 
750	 0.142533051010038 
751	 0.142514773324129 
752	 0.142390711931689 
753	 0.142162005898161 
754	 0.141897899441255 
755	 0.141697354599492 
756	 0.141482514013393 
757	 0.141218473937426 
758	 0.140906315572009 
759	 0.140629160689272 
760	 0.140321582423555 
761	 0.139960575030171 
762	 0.139593765738231 
763	 0.139230346626168 
764	 0.138857954418219 
765	 0.138465697113872 
766	 0.138061020544354 
767	 0.137681819146555 
768	 0.137286746830498 
769	 0.136813399465 
770	 0.136363722648216 
771	 0.135902315189646 
772	 0.13542463810371 
773	 0.134976055618479 
774	 0.134511502309261 
775	 0.134019592044395 
776	 0.133511435972305 
777	 0.133034878693854 
778	 0.132572517541323 
779	 0.132113905291596 
780	 0.131647769089902 
781	 0.131145973582577 
782	 0.130644345746994 
783	 0.130140687823588 
784	 0.129594056693762 
785	 0.129104887962058 
786	 0.128652517691011 
787	 0.128192530228525 
788	 0.127676552819332 
789	 0.127235626088849 
790	 0.126798628857671 
791	 0.126259854825233 
792	 0.125763027922377 
793	 0.125306918863336 
794	 0.124866717673512 
795	 0.124406566783352 
796	 0.123947600024722 
797	 0.123496085939165 
798	 0.123053197351923 
799	 0.122615178287556 
800	 0.122193906781152 
801	 0.121771239427217 
802	 0.121336416066755 
803	 0.120942379717961 
804	 0.120573606231132 
805	 0.120195393767921 
806	 0.119772118320851 
807	 0.119349946591714 
808	 0.118952126388411 
809	 0.118580951253354 
810	 0.118214726573513 
811	 0.117879393123075 
812	 0.117546274707466 
813	 0.117195020166704 
814	 0.11685809150342 
815	 0.116553415499409 
816	 0.116244968529433 
817	 0.115894136624158 
818	 0.115576644714423 
819	 0.115295804206678 
820	 0.115016906084533 
821	 0.114690845185612 
822	 0.114457566394263 
823	 0.114200799495733 
824	 0.113878368574983 
825	 0.113629813151271 
826	 0.113414480632406 
827	 0.113185372907083 
828	 0.112919920869771 
829	 0.112681417603121 
830	 0.112454455022627 
831	 0.112245021210955 
832	 0.112065633666008 
833	 0.111915987789821 
834	 0.111748425301116 
835	 0.111546700038031 
836	 0.111334318495142 
837	 0.111203919084722 
838	 0.111084771207979 
839	 0.110922553783325 
840	 0.110738808704701 
841	 0.110591166486019 
842	 0.110480948776215 
843	 0.110386845973219 
844	 0.110279233935071 
845	 0.110186483975178 
846	 0.110102308346264 
847	 0.1100115017263 
848	 0.109945964207627 
849	 0.109886730153327 
850	 0.109820927425058 
851	 0.109746260440112 
852	 0.109681404067003 
853	 0.109629930482601 
854	 0.109599038619324 
855	 0.109603736087297 
856	 0.109612289169486 
857	 0.1096318780215 
858	 0.10966053455301 
859	 0.10964295376639 
860	 0.109676468363543 
861	 0.10971418657528 
862	 0.109685961402961 
863	 0.109653558669508 
864	 0.109708610857999 
865	 0.109807958582806 
866	 0.109843840971148 
867	 0.109909759289375 
868	 0.109965490449441 
869	 0.110019121407212 
870	 0.110132603836416 
871	 0.110266372007646 
872	 0.110392963785647 
873	 0.110511315248419 
874	 0.110658452584801 
875	 0.110765297896362 
876	 0.110850584599063 
877	 0.110955115126867 
878	 0.111111928170328 
879	 0.111322613918052 
880	 0.11151410674099 
881	 0.111638391946759 
882	 0.111863261845829 
883	 0.112059815690625 
884	 0.112210495805518 
885	 0.112372514311182 
886	 0.112613026743599 
887	 0.112843213512969 
888	 0.113043076471853 
889	 0.113261367872118 
890	 0.113500385009336 
891	 0.113750203600944 
892	 0.114025198048216 
893	 0.114364117280298 
894	 0.114627538821211 
895	 0.114872882101914 
896	 0.115158254643001 
897	 0.115467517836212 
898	 0.115829408299589 
899	 0.116153557160031 
900	 0.116403093310512 
901	 0.11676168606928 
902	 0.117127493850949 
903	 0.117464014478771 
904	 0.117770612767837 
905	 0.118086927426662 
906	 0.118489024207263 
907	 0.118929326141074 
908	 0.119325677381058 
909	 0.119770793590548 
910	 0.120151986569675 
911	 0.120502806032144 
912	 0.120939098035675 
913	 0.121386304116355 
914	 0.121866274287636 
915	 0.12236464431946 
916	 0.122838081274424 
917	 0.123338538464513 
918	 0.123795753289343 
919	 0.124225128374013 
920	 0.124745208024033 
921	 0.125312518420924 
922	 0.125879663497388 
923	 0.126407436833704 
924	 0.126881039161374 
925	 0.127442181381624 
926	 0.128044752339986 
927	 0.128616531830085 
928	 0.12912006489728 
929	 0.129776067384523 
930	 0.130436600263638 
931	 0.130994842428309 
932	 0.131670562687603 
933	 0.132294119097119 
934	 0.132919037250144 
935	 0.133616425234312 
936	 0.134321867753523 
937	 0.134962275531627 
938	 0.135598425688935 
939	 0.136314365483161 
940	 0.13709932359717 
941	 0.137844653680912 
942	 0.138582494186216 
943	 0.139375742352922 
944	 0.140161054234474 
945	 0.140874397859456 
946	 0.141580359761016 
947	 0.142363590502677 
948	 0.1431130132192 
949	 0.143901604523176 
950	 0.144729240973855 
951	 0.145563980759231 
952	 0.146439707863425 
953	 0.147235821144242 
954	 0.148026290069813 
955	 0.148952140562107 
956	 0.149863748470685 
957	 0.150782692232165 
958	 0.151666874687745 
959	 0.152472539662306 
960	 0.153373196984452 
961	 0.154311353386963 
962	 0.155280214997993 
963	 0.156279561766483 
964	 0.157104179132537 
965	 0.158064039060096 
966	 0.159135497592643 
967	 0.160082503983069 
968	 0.161009992817853 
969	 0.161896147496311 
970	 0.162762869664557 
971	 0.163677628088144 
972	 0.164790504946528 
973	 0.165852938215291 
974	 0.166804782227262 
975	 0.167756146199955 
976	 0.168851552831693 
977	 0.169872279519186 
978	 0.170856058823187 
979	 0.171968342992401 
980	 0.172989647094915 
981	 0.173990054152465 
982	 0.175016797774715 
983	 0.176078467372943 
984	 0.177131629230161 
985	 0.178149862204989 
986	 0.179151978296852 
987	 0.180179220649167 
988	 0.181255607178806 
989	 0.18226368850769 
990	 0.183270567282784 
991	 0.18438432388455 
992	 0.185421180333576 
993	 0.186393083904386 
994	 0.187371649303123 
995	 0.188400557461909 
996	 0.189309657220419 
997	 0.190373840970194 
998	 0.191422693321883 
999	 0.192274958787785 
1000	 0.193364637016523 
1001	 0.193725328860359 
1002	 0.194713202164661 
1003	 0.195693065954049 
1004	 0.19663104942916 
1005	 0.197593695595309 
1006	 0.198471112802143 
1007	 0.199276438656647 
1008	 0.200033297935409 
1009	 0.20085803924205 
1010	 0.201629656630032 
1011	 0.202435625226732 
1012	 0.203323312408018 
1013	 0.204168098043137 
1014	 0.205002517031953 
1015	 0.20583016130972 
1016	 0.206639410972707 
1017	 0.207443813302259 
1018	 0.208227037173669 
1019	 0.209018156923033 
1020	 0.209774607564801 
1021	 0.210478432934911 
1022	 0.211160124451303 
1023	 0.211883415105175 
1024	 0.212609077185332 
1025	 0.213308627520939 
1026	 0.214030560418442 
1027	 0.214671852823682 
1028	 0.215331016302237 
1029	 0.216033027713506 
1030	 0.216671398319582 
1031	 0.21731642909866 
1032	 0.217976324334235 
1033	 0.218562677798815 
1034	 0.219130563527942 
1035	 0.219770670627478 
1036	 0.22035242466657 
1037	 0.220935628020261 
1038	 0.221536253527832 
1039	 0.222111898071458 
1040	 0.22269560102205 
1041	 0.223286491981177 
1042	 0.223827868220655 
1043	 0.224349693106437 
1044	 0.224915073715953 
1045	 0.225488286094335 
1046	 0.226059756901833 
1047	 0.226647775778515 
1048	 0.227230273763971 
1049	 0.227719801657068 
1050	 0.2281712775303 
1051	 0.228699342564423 
1052	 0.22923364234971 
1053	 0.229781618544417 
1054	 0.230383992187004 
1055	 0.230904645120595 
1056	 0.23139131703056 
1057	 0.2318976461934 
1058	 0.23237288234407 
1059	 0.232878166472077 
1060	 0.233413756622395 
1061	 0.233937697040855 
1062	 0.234445142164607 
1063	 0.234924655749224 
1064	 0.235375365443272 
1065	 0.23585672019398 
1066	 0.236371004187513 
1067	 0.23687109839373 
1068	 0.237369437887645 
1069	 0.23789058530003 
1070	 0.238406145239673 
1071	 0.238918109616063 
1072	 0.239428732448239 
1073	 0.239963103398916 
1074	 0.240446959633847 
1075	 0.240910265818063 
1076	 0.24131741576761 
1077	 0.241736227954184 
1078	 0.242198834947946 
1079	 0.242636703834497 
1080	 0.243078700955691 
1081	 0.243537088452915 
1082	 0.243973911348131 
1083	 0.24440422300977 
1084	 0.244836645671239 
1085	 0.245263406620514 
1086	 0.245657297292893 
1087	 0.246074634974037 
1088	 0.246481107705468 
1089	 0.246944959942781 
1090	 0.247424630014166 
1091	 0.247863917671061 
1092	 0.24826501060185 
1093	 0.248635498434572 
1094	 0.248995459850641 
1095	 0.249374259737002 
1096	 0.249776318124647 
1097	 0.250161359379517 
1098	 0.25054762379183 
1099	 0.250932485851607 
1100	 0.251303026938597 
1101	 0.251671505747468 
1102	 0.252036533889987 
1103	 0.252408100477406 
1104	 0.252723943047173 
1105	 0.253037417825651 
1106	 0.253348803946595 
1107	 0.253672808636283 
1108	 0.254031050303787 
1109	 0.254394872133718 
1110	 0.25477524319793 
1111	 0.255134369595293 
1112	 0.255488896492414 
1113	 0.255806114138077 
1114	 0.256089850537678 
1115	 0.256403622053701 
1116	 0.256714054094732 
1117	 0.257012046328565 
1118	 0.257317906377783 
1119	 0.25762165862495 
1120	 0.257932458078969 
1121	 0.258226826698549 
1122	 0.258512262956697 
1123	 0.258814144428466 
1124	 0.259107501268041 
1125	 0.259376550482332 
1126	 0.259654937275998 
1127	 0.259946397587417 
1128	 0.260231097908344 
1129	 0.260495362709401 
1130	 0.26077287566016 
1131	 0.261082994723106 
1132	 0.261366236350154 
1133	 0.261628877003894 
1134	 0.261895889816698 
1135	 0.262175111110548 
1136	 0.262406539256043 
1137	 0.262636904337113 
1138	 0.262892278458474 
1139	 0.263121819404274 
1140	 0.263320061125284 
1141	 0.263552518522024 
1142	 0.26379794804887 
1143	 0.264034671231919 
1144	 0.264299514453075 
1145	 0.264524533672906 
1146	 0.264719559874075 
1147	 0.264918643680679 
1148	 0.265099049212408 
1149	 0.265285148001056 
1150	 0.265462774936741 
1151	 0.265660769906188 
1152	 0.265865176813326 
1153	 0.266067450052009 
1154	 0.26626457757159 
1155	 0.266469877551854 
1156	 0.266667501284164 
1157	 0.266839194760884 
1158	 0.26704528007949 
1159	 0.267287657459812 
1160	 0.267491342278155 
1161	 0.267695941407504 
1162	 0.267888869327641 
1163	 0.26804121063644 
1164	 0.268220081849303 
1165	 0.26840333050244 
1166	 0.268609699786002 
1167	 0.268808970798028 
1168	 0.268985667755313 
1169	 0.269168381067319 
1170	 0.269337791278208 
1171	 0.269521375323433 
1172	 0.269730551043699 
1173	 0.269895820510431 
1174	 0.270030798287593 
1175	 0.270193972702424 
1176	 0.270346084856596 
1177	 0.270501986990113 
1178	 0.27068902337875 
1179	 0.270854493074342 
1180	 0.27099821938143 
1181	 0.271144086915912 
1182	 0.271286869429543 
1183	 0.271434635458807 
1184	 0.271573625131527 
1185	 0.271701879292166 
1186	 0.27184376912441 
1187	 0.271990842239835 
1188	 0.272132096655663 
1189	 0.27227851462134 
1190	 0.27241825134852 
1191	 0.272552924033975 
1192	 0.272685098072167 
1193	 0.272820550377491 
1194	 0.272945061508497 
1195	 0.27305088554226 
1196	 0.273170321813597 
1197	 0.27329083180941 
1198	 0.273412526162176 
1199	 0.273537770172256 
1200	 0.273684147493127 
1201	 0.273787315513373 
1202	 0.273862773557743 
1203	 0.273967355150412 
1204	 0.274065809095003 
1205	 0.274162056662607 
1206	 0.274266751240131 
1207	 0.27438143554552 
1208	 0.274497545810137 
1209	 0.274601631586424 
1210	 0.274732934559723 
1211	 0.274832659818309 
1212	 0.274874233162336 
1213	 0.274956563529099 
1214	 0.275064131060746 
1215	 0.27515479356092 
1216	 0.275245954171402 
1217	 0.275356628520647 
1218	 0.27543862783888 
1219	 0.275489564017958 
1220	 0.275567987370452 
1221	 0.27565387869315 
1222	 0.275734795807075 
1223	 0.275823496797645 
1224	 0.275905619139359 
1225	 0.2759731542109 
1226	 0.27605751608605 
1227	 0.276161612699082 
1228	 0.276246114070919 
1229	 0.276332475038451 
1230	 0.276409642350272 
1231	 0.27646790736202 
1232	 0.276527865571546 
1233	 0.276586112638266 
1234	 0.276640374198984 
1235	 0.276705106938491 
1236	 0.27677365962252 
1237	 0.276836403829777 
1238	 0.276905074364683 
1239	 0.276967734782421 
1240	 0.277019371867012 
1241	 0.277078542969196 
1242	 0.277142470236736 
1243	 0.277205878294735 
1244	 0.277266714085464 
1245	 0.277332532266582 
1246	 0.277401653611178 
1247	 0.277473224164393 
1248	 0.277552294060616 
1249	 0.277628763396619 
1250	 0.277706343535029 
1251	 0.277766356023926 
1252	 0.27781722150647 
1253	 0.277851025560672 
1254	 0.277892909322988 
1255	 0.277924609981847 
1256	 0.277964716241132 
1257	 0.27801502407956 
1258	 0.278053464253046 
1259	 0.27808151389662 
1260	 0.278121147066173 
1261	 0.278156806066724 
1262	 0.27820058430348 
1263	 0.278261392697622 
1264	 0.278313904219376 
1265	 0.278375484313637 
1266	 0.278420194648895 
1267	 0.278456942995087 
1268	 0.278476537805071 
1269	 0.278513177474892 
1270	 0.278542466275258 
1271	 0.278578826644293 
1272	 0.278628223714615 
1273	 0.278675426540541 
1274	 0.278715350026405 
1275	 0.27876559754004 
1276	 0.278824993555121 
1277	 0.278885033323412 
1278	 0.278939951999058 
1279	 0.279013601722991 
1280	 0.279117857628828 
1281	 0.27919346597354 
1282	 0.279258260515203 
1283	 0.279332932745393 
1284	 0.279404817144537 
1285	 0.279459831909835 
1286	 0.279531998523423 
1287	 0.279606588897701 
1288	 0.27967461970375 
1289	 0.279724170924043 
1290	 0.279798298344194 
1291	 0.279895226116645 
1292	 0.279963938644597 
1293	 0.280024794826074 
1294	 0.280092963438554 
1295	 0.280157354112211 
1296	 0.280209297165507 
1297	 0.280253080530151 
1298	 0.280310421269137 
1299	 0.280370273586908 
1300	 0.280413927535421 
1301	 0.280460292205302 
1302	 0.280507607462889 
1303	 0.280529672178459 
1304	 0.280569038642693 
1305	 0.2806235691727 
1306	 0.2806688893639 
1307	 0.280703899533955 
1308	 0.280705921223631 
1309	 0.280703828352887 
1310	 0.280677026915307 
1311	 0.280675689624595 
1312	 0.280674358900869 
1313	 0.280666948204476 
1314	 0.280678081367361 
1315	 0.280664221608575 
1316	 0.280633606323903 
1317	 0.28059837385304 
1318	 0.280539460401891 
1319	 0.28049992222631 
1320	 0.280484712845694 
1321	 0.280432375336296 
1322	 0.280372124221943 
1323	 0.280302713689921 
1324	 0.280214478968899 
1325	 0.280124576247084 
1326	 0.280067248747661 
1327	 0.280017797881467 
1328	 0.279938726009393 
1329	 0.279854547064765 
1330	 0.279769747926591 
1331	 0.27967782587817 
1332	 0.279574636290528 
1333	 0.279464237895093 
1334	 0.279355682313336 
1335	 0.279230624503164 
1336	 0.279122841456528 
1337	 0.279032055069064 
1338	 0.278931001715183 
1339	 0.278834164855927 
1340	 0.278724714285355 
1341	 0.278602799236397 
1342	 0.278488277687661 
1343	 0.278377211642281 
1344	 0.278247249735396 
1345	 0.278139454023006 
1346	 0.278023969879571 
1347	 0.277897003801341 
1348	 0.277783578604786 
1349	 0.277645326851908 
1350	 0.277520673013435 
1351	 0.277410035656876 
1352	 0.277311103599945 
1353	 0.27720116601706 
1354	 0.277102947108948 
1355	 0.276994114108023 
1356	 0.276873876316612 
1357	 0.27675638763903 
1358	 0.276633631422132 
1359	 0.276523943564976 
1360	 0.276416605656204 
1361	 0.276311935303978 
1362	 0.276226071701052 
1363	 0.276124181652811 
1364	 0.276012097646981 
1365	 0.275901787968796 
1366	 0.275779492741923 
1367	 0.275672405709218 
1368	 0.275581755092327 
1369	 0.275484730636024 
1370	 0.275370684892113 
1371	 0.275244704839549 
1372	 0.275098679942897 
1373	 0.274937844023457 
1374	 0.27477272691174 
1375	 0.274607641575403 
1376	 0.274416583455501 
1377	 0.274215096811026 
1378	 0.273986805249518 
1379	 0.27373719593346 
1380	 0.273477841807675 
1381	 0.273197560240796 
1382	 0.272900609799014 
1383	 0.272601891196314 
1384	 0.272262563309124 
1385	 0.271902688659892 
1386	 0.271512908017762 
1387	 0.271084615585643 
1388	 0.270646707496405 
1389	 0.270193952744374 
1390	 0.269715950489085 
1391	 0.269211950549128 
1392	 0.268662195696795 
1393	 0.26805159747155 
1394	 0.267395614411671 
1395	 0.266682981057665 
1396	 0.265959442264343 
1397	 0.265241790641644 
1398	 0.264508687427112 
1399	 0.263764693531224 
1400	 0.263031547178844 
1401	 0.262259960771732 
1402	 0.261448073708279 
1403	 0.260657036676712 
1404	 0.259842812914204 
1405	 0.259062949005756 
1406	 0.258300747687436 
1407	 0.257535581975038 
1408	 0.256767204671042 
1409	 0.256033166605226 
1410	 0.255296050364314 
1411	 0.254612649970276 
1412	 0.25396482587312 
1413	 0.253357994312215 
1414	 0.252798912682304 
1415	 0.252242228910895 
1416	 0.251719678477605 
1417	 0.251219114957238 
1418	 0.250715917004859 
1419	 0.250258630892335 
1420	 0.249827047217407 
1421	 0.249417093329865 
1422	 0.24905227926551 
1423	 0.248694806377858 
1424	 0.248350672892424 
1425	 0.248029156006245 
1426	 0.247718743256285 
1427	 0.24740850363367 
1428	 0.247134309169594 
1429	 0.246879576399937 
1430	 0.246650587180273 
1431	 0.246464512589841 
1432	 0.246267504606098 
1433	 0.246076836392872 
1434	 0.245912027400508 
1435	 0.24574482327621 
1436	 0.245605478895348 
1437	 0.245506945240627 
1438	 0.2454068908676 
1439	 0.245317386816734 
1440	 0.245242241362815 
1441	 0.24515964067576 
1442	 0.2450812858849 
1443	 0.245009287531354 
1444	 0.24494107979872 
1445	 0.244910731937019 
1446	 0.244892008627204 
1447	 0.244868815408315 
1448	 0.244860977663634 
1449	 0.244840679952102 
1450	 0.244810118705685 
1451	 0.244789096990624 
1452	 0.244762937952604 
1453	 0.244759138295654 
1454	 0.244772092854998 
1455	 0.244779220964446 
1456	 0.244798924954566 
1457	 0.244816057844804 
1458	 0.244826222527259 
1459	 0.244842666117125 
1460	 0.244858334631061 
1461	 0.244891769744194 
1462	 0.244936759714995 
1463	 0.244979740345439 
1464	 0.245033060788156 
1465	 0.245089569555442 
1466	 0.245139168715756 
1467	 0.245205154507025 
1468	 0.245276913073486 
1469	 0.245371458777556 
1470	 0.245484387647847 
1471	 0.245598637579351 
1472	 0.245743415198789 
1473	 0.245913245359327 
1474	 0.246081142492 
1475	 0.246246210769851 
1476	 0.246389172894621 
1477	 0.246534866435767 
1478	 0.246682163815182 
1479	 0.246840185360121 
1480	 0.247049293961254 
1481	 0.247257970062314 
1482	 0.247458536254896 
1483	 0.247676506225513 
1484	 0.247876966799639 
1485	 0.248054780582108 
1486	 0.248253489466511 
1487	 0.248458629378191 
1488	 0.248663528492017 
1489	 0.248877085964478 
1490	 0.249081430559889 
1491	 0.249290930280383 
1492	 0.249485415036486 
1493	 0.249662395804808 
1494	 0.249849625145915 
1495	 0.250034326314503 
1496	 0.250220251218136 
1497	 0.250414838003467 
1498	 0.250601963161738 
1499	 0.25078247488035 
1500	 0.250960372755568 
1501	 0.251127886090656 
1502	 0.251308085452726 
1503	 0.251488852224962 
1504	 0.251677406534509 
1505	 0.25189325071526 
1506	 0.252090410222511 
1507	 0.25225255482829 
1508	 0.252412105362591 
1509	 0.252551337300767 
1510	 0.252694173587364 
1511	 0.252851515190797 
1512	 0.253005289524917 
1513	 0.253165887741428 
1514	 0.253323170384552 
1515	 0.25348488937064 
1516	 0.253659373122327 
1517	 0.2538171313666 
1518	 0.253959718836347 
1519	 0.25411423222883 
1520	 0.254277118740293 
1521	 0.254417944857667 
1522	 0.254543163913344 
1523	 0.25468918304045 
1524	 0.254832749047199 
1525	 0.25497240502525 
1526	 0.255135632210949 
1527	 0.255271031750829 
1528	 0.255381437419155 
1529	 0.255500486385781 
1530	 0.255612999477487 
1531	 0.255729495271699 
1532	 0.255843662773162 
1533	 0.255954343711675 
1534	 0.256075634901126 
1535	 0.256183050315002 
1536	 0.256275724006228 
1537	 0.256376008258398 
1538	 0.256470445284704 
1539	 0.256565380214226 
1540	 0.256662471082333 
1541	 0.256763672679363 
1542	 0.256863856108093 
1543	 0.256965952214383 
1544	 0.257092657438445 
1545	 0.257186125878841 
1546	 0.257261444630357 
1547	 0.257327617387585 
1548	 0.257395680343425 
1549	 0.257457868009844 
1550	 0.257520928275428 
1551	 0.257593920116959 
1552	 0.257648279529912 
1553	 0.257706301746104 
1554	 0.257793442021801 
1555	 0.257880444775629 
1556	 0.257972313647768 
1557	 0.258065452380557 
1558	 0.25812555759861 
1559	 0.258190008748729 
1560	 0.258270580175801 
1561	 0.258354848819898 
1562	 0.258427442545814 
1563	 0.258515553392836 
1564	 0.258581995768654 
1565	 0.258626387400612 
1566	 0.258675922467607 
1567	 0.258722230112234 
1568	 0.258776649781066 
1569	 0.258820924336257 
1570	 0.258878309452017 
1571	 0.258959762008397 
1572	 0.259015513910399 
1573	 0.25906385704548 
1574	 0.259112351630239 
1575	 0.259145139565513 
1576	 0.259189229100844 
1577	 0.259242130669997 
1578	 0.259285932260969 
1579	 0.259328627182272 
1580	 0.259367219398565 
1581	 0.259394876102213 
1582	 0.25943170313421 
1583	 0.259476005460965 
1584	 0.259513402024088 
1585	 0.259553199899262 
1586	 0.259590304586935 
1587	 0.259617905110761 
1588	 0.259648351571698 
1589	 0.259682855261327 
1590	 0.259712567581286 
1591	 0.259737858601659 
1592	 0.259765644446194 
1593	 0.25979298899327 
1594	 0.25981964092574 
1595	 0.259850747244202 
1596	 0.259875850319772 
1597	 0.259889597568321 
1598	 0.259912605179269 
1599	 0.259952687066377 
1600	 0.259967050743227 
1601	 0.25996546619441 
1602	 0.259974939785591 
1603	 0.259955368434319 
1604	 0.259964511248451 
1605	 0.260012998433118 
1606	 0.260046282811041 
1607	 0.260088366175736 
1608	 0.260118109241757 
1609	 0.260142693974047 
1610	 0.260156810765243 
1611	 0.260160175729324 
1612	 0.260166530914262 
1613	 0.260169036161156 
1614	 0.260165554063233 
1615	 0.260174256611297 
1616	 0.26018458010883 
1617	 0.260201782343188 
1618	 0.260221496354763 
1619	 0.260222998914453 
1620	 0.260234816432362 
1621	 0.260242591597158 
1622	 0.260248922807596 
1623	 0.260233191437284 
1624	 0.260210282294791 
1625	 0.260191233088787 
1626	 0.260148790721136 
1627	 0.260134655911476 
1628	 0.260137389869806 
1629	 0.260143578520438 
1630	 0.26015435992328 
1631	 0.260170594175246 
1632	 0.260206490634965 
1633	 0.260222006378531 
1634	 0.260232179790017 
1635	 0.260237754420004 
1636	 0.260239308409287 
1637	 0.260224706705392 
1638	 0.260197859757208 
1639	 0.260178461328377 
1640	 0.260137773123738 
1641	 0.260132281457019 
1642	 0.260154165414887 
1643	 0.260154269344284 
1644	 0.260164396492623 
1645	 0.26015835256745 
1646	 0.260131230665537 
1647	 0.260118365693985 
1648	 0.260111136873124 
1649	 0.260096010873893 
1650	 0.260075411485497 
1651	 0.260065248673607 
1652	 0.260060288080649 
1653	 0.260043210969016 
1654	 0.26002938421239 
1655	 0.260010174843674 
1656	 0.259979596990427 
1657	 0.259947232073155 
1658	 0.259919449616676 
1659	 0.259879954815425 
1660	 0.259822774344116 
1661	 0.259776425424405 
1662	 0.259734307157885 
1663	 0.259684785632473 
1664	 0.259632796901919 
1665	 0.259581267539091 
1666	 0.259509653911883 
1667	 0.259476701465214 
1668	 0.259467989437722 
1669	 0.259450660673588 
1670	 0.259460228539557 
1671	 0.259445499261979 
1672	 0.259417923479983 
1673	 0.259383509148491 
1674	 0.259343286439353 
1675	 0.259295316912291 
1676	 0.259221821815429 
1677	 0.259177126426932 
1678	 0.259144991909333 
1679	 0.259105893104018 
1680	 0.259071541454544 
1681	 0.259047092257313 
1682	 0.259027791190578 
1683	 0.25899887039994 
1684	 0.258985217991401 
1685	 0.25895224225209 
1686	 0.258888855725067 
1687	 0.25884941348963 
1688	 0.258826881327956 
1689	 0.258782238096154 
1690	 0.258727869791432 
1691	 0.258685451066552 
1692	 0.258642465756006 
1693	 0.258587152357185 
1694	 0.25853239153109 
1695	 0.258484810438648 
1696	 0.258414872675694 
1697	 0.258372721446531 
1698	 0.258366957199351 
1699	 0.258335314819958 
1700	 0.25830362901806 
1701	 0.258257993940271 
1702	 0.258202662536374 
1703	 0.258139721822486 
1704	 0.258066822121227 
1705	 0.257986589695704 
1706	 0.257889558116881 
1707	 0.257803237821615 
1708	 0.257707702347384 
1709	 0.257634422589734 
1710	 0.257576515669886 
1711	 0.25751612578213 
1712	 0.257468418791684 
1713	 0.257410950866046 
1714	 0.257353714723252 
1715	 0.25729100512331 
1716	 0.257221909122818 
1717	 0.257153968616014 
1718	 0.257084152928528 
1719	 0.257010956313927 
1720	 0.256943113207706 
1721	 0.256862981987471 
1722	 0.256774047345243 
1723	 0.256677713734921 
1724	 0.256562486073911 
1725	 0.256465451173021 
1726	 0.256380026232472 
1727	 0.256273593146235 
1728	 0.256153130603184 
1729	 0.256064917678642 
1730	 0.255975272599197 
1731	 0.255891096084154 
1732	 0.255849562850198 
1733	 0.255767515655097 
1734	 0.255662195657347 
1735	 0.25555253804854 
1736	 0.255424168826961 
1737	 0.255316517659211 
1738	 0.255206307247407 
1739	 0.255097208937021 
1740	 0.255003502114487 
1741	 0.254898943581628 
1742	 0.254780973330286 
1743	 0.254676872381793 
1744	 0.254590429556725 
1745	 0.254475395988826 
1746	 0.254351532133192 
1747	 0.254219267222872 
1748	 0.254072684354199 
1749	 0.253948964501886 
1750	 0.253817594014439 
1751	 0.253682828526982 
1752	 0.253562387860867 
1753	 0.253447413757356 
1754	 0.25333753229476 
1755	 0.253224306379506 
1756	 0.253108174083951 
1757	 0.252977170885894 
1758	 0.252836625282117 
1759	 0.252735281426215 
1760	 0.252650871089255 
1761	 0.25255919815832 
1762	 0.252475196759371 
1763	 0.252352595430233 
1764	 0.252216319454633 
1765	 0.252114700211549 
1766	 0.251994767593221 
1767	 0.251863730464087 
1768	 0.251757908526425 
1769	 0.251632940018942 
1770	 0.251534844261236 
1771	 0.251481438275172 
1772	 0.251397471090808 
1773	 0.251302536269862 
1774	 0.251204413442161 
1775	 0.251096144750857 
1776	 0.250981911966622 
1777	 0.250870137953345 
1778	 0.250768296149199 
1779	 0.25066786318948 
1780	 0.250591350259 
1781	 0.25051827793025 
1782	 0.250463683928841 
1783	 0.250413997416568 
1784	 0.250360982882902 
1785	 0.250324671244356 
1786	 0.250281369437286 
1787	 0.250243244364983 
1788	 0.250195807290581 
1789	 0.250150273838018 
1790	 0.250096489312437 
1791	 0.250019659891697 
1792	 0.249941641206057 
1793	 0.249843344695933 
1794	 0.24978830068743 
1795	 0.249748777605703 
1796	 0.2497209192832 
1797	 0.249740413059983 
1798	 0.249717544683305 
1799	 0.249673359084897 
1800	 0.249640647648015 
1801	 0.247546619991588 
1802	 0.247686553848344 
1803	 0.247890606026797 
1804	 0.248141406040216 
1805	 0.248360174323803 
1806	 0.248588847199232 
1807	 0.24879643063376 
1808	 0.248979598387244 
1809	 0.249139892366547 
1810	 0.249295019509079 
1811	 0.249449942079836 
1812	 0.249571599757773 
1813	 0.249641835928079 
1814	 0.249671142758449 
1815	 0.249680086054123 
1816	 0.249680016974537 
1817	 0.249686264189242 
1818	 0.249680160445385 
1819	 0.249709306945659 
1820	 0.249766961687496 
1821	 0.249784116343362 
1822	 0.249798174665569 
1823	 0.249818675479163 
1824	 0.249815667678347 
1825	 0.249811937757892 
1826	 0.249819733521494 
1827	 0.249860447388898 
1828	 0.249861926420856 
1829	 0.249824432378965 
1830	 0.249801200408866 
1831	 0.249783377954835 
1832	 0.24973566233226 
1833	 0.2496890134801 
1834	 0.249673657660117 
1835	 0.249650184561597 
1836	 0.249611668166694 
1837	 0.249573096452746 
1838	 0.249532556429912 
1839	 0.249499822419688 
1840	 0.249474083196913 
1841	 0.249440180647658 
1842	 0.249399183644526 
1843	 0.249366894023598 
1844	 0.2492970310424 
1845	 0.249212358848261 
1846	 0.249135373819548 
1847	 0.249037383106121 
1848	 0.248934757048301 
1849	 0.248843333621109 
1850	 0.24873316773216 
1851	 0.24862115736451 
1852	 0.248478835224449 
1853	 0.248304573915309 
1854	 0.248115674010171 
1855	 0.24793584801529 
1856	 0.2477435470223 
1857	 0.247528812466247 
1858	 0.247311540740803 
1859	 0.247065496654888 
1860	 0.246764967850238 
1861	 0.246417485972741 
1862	 0.24605975475084 
1863	 0.245665790617657 
1864	 0.245218562477196 
1865	 0.244771118033294 
1866	 0.24429301550662 
1867	 0.243773113253763 
1868	 0.243205777747668 
1869	 0.242581780955284 
1870	 0.241946908026711 
1871	 0.24125823928699 
1872	 0.240529505978604 
1873	 0.239753966966877 
1874	 0.238946909135794 
1875	 0.238063648835295 
1876	 0.237135044138027 
1877	 0.236155511101708 
1878	 0.235101389077075 
1879	 0.233972593753572 
1880	 0.232751717850076 
1881	 0.231430910891336 
1882	 0.230060908434692 
1883	 0.228621695090547 
1884	 0.22708033726945 
1885	 0.225506234002224 
1886	 0.223836602466151 
1887	 0.222023942729524 
1888	 0.220155179737519 
1889	 0.218204251936617 
1890	 0.216205381006597 
1891	 0.214185293455884 
1892	 0.212116965752613 
1893	 0.210023789295914 
1894	 0.207896477066526 
1895	 0.205744449087451 
1896	 0.203537219929303 
1897	 0.201379094456351 
1898	 0.199209548635175 
1899	 0.197022168803683 
1900	 0.194907815899824 
1901	 0.192825388292718 
1902	 0.190824498431625 
1903	 0.18890278679221 
1904	 0.187036924319012 
1905	 0.185221791672071 
1906	 0.183497713502429 
1907	 0.181843365823864 
1908	 0.180266172441795 
1909	 0.178814466355588 
1910	 0.177437912036796 
1911	 0.176135373522555 
1912	 0.174923993499239 
1913	 0.173773785889771 
1914	 0.172685943251404 
1915	 0.171678015514629 
1916	 0.17075381572488 
1917	 0.169878839277995 
1918	 0.169081618089429 
1919	 0.16833397997659 
1920	 0.167657297385464 
1921	 0.167055635812548 
1922	 0.166489975625108 
1923	 0.165981161087598 
1924	 0.16552052830011 
1925	 0.165095052261237 
1926	 0.164737644723017 
1927	 0.164442198587518 
1928	 0.164204096586625 
1929	 0.16399227813566 
1930	 0.163824989855971 
1931	 0.163687865940666 
1932	 0.163561706850163 
1933	 0.163487451644782 
1934	 0.1634595298154 
1935	 0.1634480448602 
1936	 0.163464175808954 
1937	 0.163506960111489 
1938	 0.163581820679645 
1939	 0.163668454880969 
1940	 0.163766538711033 
1941	 0.163914880203519 
1942	 0.164070897354528 
1943	 0.164245008879304 
1944	 0.164449361916067 
1945	 0.164660264489714 
1946	 0.164896720489691 
1947	 0.165155626530881 
1948	 0.165427639322568 
1949	 0.165717901733932 
1950	 0.166024507642969 
1951	 0.166347436193837 
1952	 0.166688336164381 
1953	 0.167025983158027 
1954	 0.167400775380998 
1955	 0.167782779887765 
1956	 0.168162023140123 
1957	 0.168564128452637 
1958	 0.168998137315897 
1959	 0.169416560358962 
1960	 0.169832409731765 
1961	 0.170264752455495 
1962	 0.170712392944351 
1963	 0.171148866141902 
1964	 0.171578540034159 
1965	 0.172032652352849 
1966	 0.172489418345429 
1967	 0.172949956064852 
1968	 0.173437141958803 
1969	 0.173981046073265 
1970	 0.174466016211322 
1971	 0.174924830640951 
1972	 0.175412047347783 
1973	 0.175874648869468 
1974	 0.176367727381184 
1975	 0.176896742869311 
1976	 0.177428193597157 
1977	 0.177941154896449 
1978	 0.178472482372085 
1979	 0.179002750391579 
1980	 0.179520096619444 
1981	 0.180021318486562 
1982	 0.180499065486324 
1983	 0.180999939409774 
1984	 0.181485764404971 
1985	 0.181990919562063 
1986	 0.182531169335261 
1987	 0.183051675133707 
1988	 0.183562952118226 
1989	 0.184082993754664 
1990	 0.184589922220259 
1991	 0.185100675867327 
1992	 0.185620019840051 
1993	 0.186140600039863 
1994	 0.186665016013456 
1995	 0.187205393226335 
1996	 0.187728727972661 
1997	 0.188254740295763 
1998	 0.188769678639352 
1999	 0.189273412494418 
2000	 0.189774500544185 
2001	 0.190278558359714 
2002	 0.190749271673547 
2003	 0.19123138878086 
2004	 0.19172151238188 
2005	 0.192204411110021 
2006	 0.192690162524537 
2007	 0.193164949453287 
2008	 0.193620714090402 
2009	 0.194098412204268 
2010	 0.194580907998881 
2011	 0.19506359602503 
2012	 0.195578692612228 
2013	 0.19605922656374 
2014	 0.196518445334484 
2015	 0.196969284563281 
2016	 0.197425100780578 
2017	 0.197878912953966 
2018	 0.198337333904115 
2019	 0.198816795468627 
2020	 0.19927004977809 
2021	 0.199704715231892 
2022	 0.200148836528386 
2023	 0.200587846242618 
2024	 0.201029144390896 
2025	 0.201476687390229 
2026	 0.201917259647713 
2027	 0.20236013487336 
2028	 0.202782316948265 
2029	 0.203221417667416 
2030	 0.203674742465167 
2031	 0.204099551761774 
2032	 0.20452032696301 
2033	 0.204930158128552 
2034	 0.205312985779111 
2035	 0.205701974050805 
2036	 0.206104529724741 
2037	 0.206481002478936 
2038	 0.206844368667874 
2039	 0.207195811676573 
2040	 0.207540138182598 
2041	 0.207845039913951 
2042	 0.208161143010948 
2043	 0.208479767796407 
2044	 0.208811820199833 
2045	 0.20915387721749 
2046	 0.20949691044333 
2047	 0.209863660749651 
2048	 0.210196558165623 
2049	 0.210516446398787 
2050	 0.210833221569934 
2051	 0.211132507955792 
2052	 0.211430050295981 
2053	 0.211725857090646 
2054	 0.212015762592902 
2055	 0.212291928916041 
2056	 0.212570327427587 
2057	 0.212850820893468 
2058	 0.213129185244144 
2059	 0.213419785726756 
2060	 0.21371337607533 
2061	 0.214013316354535 
2062	 0.214330495048678 
2063	 0.214631163439238 
2064	 0.214933718040921 
2065	 0.21522694488309 
2066	 0.215521343532923 
2067	 0.215794757559624 
2068	 0.216057044694705 
2069	 0.21630178024226 
2070	 0.216547424007457 
2071	 0.216762713517364 
2072	 0.217021593494031 
2073	 0.217301441751367 
2074	 0.217571589500504 
2075	 0.217862310306253 
2076	 0.218134000360776 
2077	 0.218390280845773 
2078	 0.218651726602992 
2079	 0.218912169249381 
2080	 0.219173139172425 
2081	 0.219429749477181 
2082	 0.219691144202044 
2083	 0.219952386281461 
2084	 0.220222183572523 
2085	 0.220486028427198 
2086	 0.220758289517041 
2087	 0.221012462596777 
2088	 0.22125286294402 
2089	 0.221503413314938 
2090	 0.22175128218605 
2091	 0.221993783126319 
2092	 0.222238234861412 
2093	 0.22248086401463 
2094	 0.222711046611687 
2095	 0.222950135152436 
2096	 0.223200326284667 
2097	 0.223444963719528 
2098	 0.223692526401921 
2099	 0.223935178322696 
2100	 0.224162507094259 
2101	 0.224383078788482 
2102	 0.224596712545416 
2103	 0.224777220742769 
2104	 0.225002375530588 
2105	 0.225242109317643 
2106	 0.225484801576933 
2107	 0.22576223776185 
2108	 0.226013910457484 
2109	 0.226243960404284 
2110	 0.226495297810747 
2111	 0.226753872533964 
2112	 0.227009345385039 
2113	 0.227301063393172 
2114	 0.22754560325803 
2115	 0.227786354991866 
2116	 0.228010597557162 
2117	 0.228236208633328 
2118	 0.228443778511345 
2119	 0.228664495802355 
2120	 0.228889351910772 
2121	 0.22910902299848 
2122	 0.229329466322844 
2123	 0.229546077150879 
2124	 0.229765165947166 
2125	 0.229970887700282 
2126	 0.23017637972302 
2127	 0.230365422219344 
2128	 0.230555797445982 
2129	 0.230711316677836 
2130	 0.230841808885637 
2131	 0.230946340193975 
2132	 0.231063873092116 
2133	 0.231161033842709 
2134	 0.231263022185341 
2135	 0.231383347860885 
2136	 0.231472027667595 
2137	 0.231529749827713 
2138	 0.231598617106374 
2139	 0.231653499860913 
2140	 0.231724630191456 
2141	 0.231825950373436 
2142	 0.231884628658775 
2143	 0.231937115698989 
2144	 0.231970791759421 
2145	 0.231968966118048 
2146	 0.231960666271167 
2147	 0.231946736744013 
2148	 0.231910587526385 
2149	 0.231883613920562 
2150	 0.231844086236367 
2151	 0.231805857853124 
2152	 0.231775598303059 
2153	 0.231733188020574 
2154	 0.231679275471094 
2155	 0.231621031651518 
2156	 0.231562325976454 
2157	 0.231492638852826 
2158	 0.231425364600987 
2159	 0.231328886272491 
2160	 0.231207338508004 
2161	 0.231086513487317 
2162	 0.230941895729985 
2163	 0.230798955237369 
2164	 0.230634841791669 
2165	 0.230511456302057 
2166	 0.230377622118194 
2167	 0.23024159345168 
2168	 0.230103864369027 
2169	 0.229973557971794 
2170	 0.229843389184731 
2171	 0.229711538410387 
2172	 0.22957331611753 
2173	 0.229440467444352 
2174	 0.229302383224034 
2175	 0.229158051406799 
2176	 0.229003362590839 
2177	 0.228839014512869 
2178	 0.228683328443198 
2179	 0.228518045697837 
2180	 0.228354582353037 
2181	 0.228197889158765 
2182	 0.228048521285519 
2183	 0.227898464950235 
2184	 0.227744223467446 
2185	 0.227609134127306 
2186	 0.227495002932054 
2187	 0.227364733568922 
2188	 0.227230488769336 
2189	 0.227110692024041 
2190	 0.226991931309161 
2191	 0.226878744472239 
2192	 0.226779314258679 
2193	 0.226678202433157 
2194	 0.226573629382315 
2195	 0.226476354971571 
2196	 0.226396542174618 
2197	 0.226302518944024 
2198	 0.226189370425867 
2199	 0.226099960103135 
2200	 0.226021557972583 
2201	 0.225938061085674 
2202	 0.225847548509462 
2203	 0.22578836452597 
2204	 0.22575016277282 
2205	 0.225713283683711 
2206	 0.225708165639354 
2207	 0.22575665292836 
2208	 0.225772940495586 
2209	 0.225784245181691 
2210	 0.225806556525747 
2211	 0.225842508212808 
2212	 0.225858373750449 
2213	 0.225854972885108 
2214	 0.225885894432233 
2215	 0.22593356585833 
2216	 0.225959378811973 
2217	 0.226011034521303 
2218	 0.226034290637985 
2219	 0.226002866261198 
2220	 0.226005828588653 
2221	 0.22603087637362 
2222	 0.226048083916228 
2223	 0.226041845633866 
2224	 0.226037917125637 
2225	 0.226046199338008 
2226	 0.226038582724703 
2227	 0.226048448852578 
2228	 0.22607834955144 
2229	 0.226110949802792 
2230	 0.226155602924123 
2231	 0.22617955778056 
2232	 0.226227080424852 
2233	 0.226231813145241 
2234	 0.226175795631758 
2235	 0.226159610931155 
2236	 0.226158117779172 
2237	 0.226133154178363 
2238	 0.226110125060089 
2239	 0.226086805805506 
2240	 0.226033033426484 
2241	 0.225999638962578 
2242	 0.225977744639743 
2243	 0.225964015989606 
2244	 0.225962448711813 
2245	 0.225966018079037 
2246	 0.225954201666028 
2247	 0.225933003533179 
2248	 0.225903699518441 
2249	 0.225843051405633 
2250	 0.225815111540596 
2251	 0.225799599866956 
2252	 0.225783067230859 
2253	 0.225782659686459 
2254	 0.225759049068886 
2255	 0.22572392409222 
2256	 0.225696825309836 
2257	 0.225655345568647 
2258	 0.22563375165791 
2259	 0.225641669268748 
2260	 0.225620640330426 
2261	 0.225594917489019 
2262	 0.225554095493943 
2263	 0.225485825745725 
2264	 0.225425636209625 
2265	 0.225352191728187 
2266	 0.225303422812293 
2267	 0.225265195582932 
2268	 0.225231509494717 
2269	 0.225211924759956 
2270	 0.225202061363191 
2271	 0.225188248564173 
2272	 0.225155670697778 
2273	 0.225125811883679 
2274	 0.225076305979941 
2275	 0.225009422040952 
2276	 0.224918719091491 
2277	 0.22484035262209 
2278	 0.224741748266292 
2279	 0.224664577653864 
2280	 0.224616950026788 
2281	 0.224529919901526 
2282	 0.224407890644673 
2283	 0.224330255224838 
2284	 0.22425222988411 
2285	 0.224184123970968 
2286	 0.224164812708114 
2287	 0.224113743810032 
2288	 0.224041515906378 
2289	 0.223971486897812 
2290	 0.22390085261069 
2291	 0.223831140006457 
2292	 0.223752320994787 
2293	 0.223673832461177 
2294	 0.223589205107211 
2295	 0.223510959324588 
2296	 0.223432572902924 
2297	 0.223371824901904 
2298	 0.223291911292063 
2299	 0.223223671685601 
2300	 0.22314434049622 
2301	 0.223053754355891 
2302	 0.222968370147336 
2303	 0.222896693179321 
2304	 0.22282862712251 
2305	 0.222731077174376 
2306	 0.222596497597783 
2307	 0.222430922311873 
2308	 0.222265994940362 
2309	 0.222057163100117 
2310	 0.221878468926954 
2311	 0.22168809570902 
2312	 0.221549385192369 
2313	 0.221445894266302 
2314	 0.221320676526277 
2315	 0.221241528125399 
2316	 0.221111543543498 
2317	 0.22093057165554 
2318	 0.220778683183294 
2319	 0.220635577849762 
2320	 0.220489571985239 
2321	 0.22034375747733 
2322	 0.220188955394878 
2323	 0.220017872297621 
2324	 0.219862422448287 
2325	 0.21970353116567 
2326	 0.219564304634278 
2327	 0.2194595259661 
2328	 0.219329390375601 
2329	 0.21916325127532 
2330	 0.219026870227308 
2331	 0.218878257723278 
2332	 0.218719149014163 
2333	 0.218609520491297 
2334	 0.218513536794434 
2335	 0.218397176047809 
2336	 0.218269615459604 
2337	 0.218081570257546 
2338	 0.217855387174217 
2339	 0.217635676152775 
2340	 0.217409190344902 
2341	 0.217233066269537 
2342	 0.217087199574234 
2343	 0.216927107298964 
2344	 0.216785206759857 
2345	 0.216608158992129 
2346	 0.216407806735285 
2347	 0.216200361690638 
2348	 0.215978763767424 
2349	 0.215736794561334 
2350	 0.215488870213333 
2351	 0.215239491133354 
2352	 0.214940113331591 
2353	 0.214685085237595 
2354	 0.214452600015015 
2355	 0.21420398813435 
2356	 0.213986660399166 
2357	 0.213746684439392 
2358	 0.213474378043901 
2359	 0.213224227607201 
2360	 0.213011053641579 
2361	 0.212731170511028 
2362	 0.212380279779679 
2363	 0.212114185049761 
2364	 0.211847933504514 
2365	 0.211566083580128 
2366	 0.211352713297486 
2367	 0.21113563598095 
2368	 0.210870304800951 
2369	 0.210634633072328 
2370	 0.210468741409832 
2371	 0.21024577659828 
2372	 0.209958753575281 
2373	 0.209672499306449 
2374	 0.209374264064403 
2375	 0.209032817576135 
2376	 0.208682106104171 
2377	 0.208387237103073 
2378	 0.20814099962801 
2379	 0.207880999656278 
2380	 0.20759000888884 
2381	 0.207321388620058 
2382	 0.207021148673411 
2383	 0.206680218641341 
2384	 0.206397719349369 
2385	 0.206111807870048 
2386	 0.205794895892105 
2387	 0.205445790468525 
2388	 0.205056927388596 
2389	 0.204660786261702 
2390	 0.204279803282994 
2391	 0.204028146047066 
2392	 0.203764163999392 
2393	 0.203369881409922 
2394	 0.20302797172424 
2395	 0.202644006193884 
2396	 0.202210027264469 
2397	 0.20190881142985 
2398	 0.201610825112586 
2399	 0.201196774523072 
2400	 0.20081159963393 
2401	 0.200536498908227 
2402	 0.200215650145162 
2403	 0.199879561251805 
2404	 0.199595284421486 
2405	 0.199220602891485 
2406	 0.198801682847815 
2407	 0.198417732832909 
2408	 0.198029549971813 
2409	 0.197698532616859 
2410	 0.19740760391624 
2411	 0.197098291097068 
2412	 0.196771030974369 
2413	 0.196341051509507 
2414	 0.195840551196243 
2415	 0.195440287874624 
2416	 0.195084704644218 
2417	 0.194803737154731 
2418	 0.194427761799139 
2419	 0.194069830183146 
2420	 0.193699328604057 
2421	 0.19326261901091 
2422	 0.192859451881956 
2423	 0.192502386157075 
2424	 0.192109713542358 
2425	 0.191681804899044 
2426	 0.191295895743007 
2427	 0.190922792297834 
2428	 0.190523541413666 
2429	 0.190137707466954 
2430	 0.189691258611974 
2431	 0.189202976925785 
2432	 0.18879279353557 
2433	 0.188356316213213 
2434	 0.187952367661385 
2435	 0.187615861845361 
2436	 0.187256720591747 
2437	 0.186907177285759 
2438	 0.186534061436856 
2439	 0.18620059448482 
2440	 0.185785634561214 
2441	 0.185248609967373 
2442	 0.184860510473792 
2443	 0.184537544536352 
2444	 0.184080621045564 
2445	 0.183628904322322 
2446	 0.183224958332077 
2447	 0.18268306808629 
2448	 0.182316853946746 
2449	 0.182190571940284 
2450	 0.181917411751631 
2451	 0.181622099146163 
2452	 0.181282768570598 
2453	 0.18087284031527 
2454	 0.180439527720678 
2455	 0.179939334219001 
2456	 0.179490545447566 
2457	 0.179071534204159 
2458	 0.178640826255067 
2459	 0.178189739595866 
2460	 0.177790673778359 
2461	 0.177417985542569 
2462	 0.177097215706051 
2463	 0.176897921517961 
2464	 0.176566642400755 
2465	 0.176138508690793 
2466	 0.175767042654761 
2467	 0.175328968980594 
2468	 0.174977369870438 
2469	 0.174811711799715 
2470	 0.174448734171662 
2471	 0.173991425695412 
2472	 0.173507501588613 
2473	 0.172978242373608 
2474	 0.172681114486007 
2475	 0.172480324516181 
2476	 0.172246760487169 
2477	 0.172029287771716 
2478	 0.171523379691366 
2479	 0.170968439410062 
2480	 0.170626426257053 
2481	 0.170223384328625 
2482	 0.169890903855703 
2483	 0.16956750585973 
2484	 0.169015123550677 
2485	 0.168615072598939 
2486	 0.168353313056321 
2487	 0.168102334147307 
2488	 0.168073615166182 
2489	 0.167920279700569 
2490	 0.167512012348697 
2491	 0.167245719622607 
2492	 0.166825114627022 
2493	 0.166367495699962 
2494	 0.166331173409856 
2495	 0.166233311102884 
2496	 0.166140604519855 
2497	 0.166025955256381 
2498	 0.165802957910972 
2499	 0.165879216801402 
2500	 0.165839459661493 
