Wavelength	mm2200000.asd
350	 3.30312107524948E-02 
351	 3.27951126828159E-02 
352	 3.13880074152469E-02 
353	 2.94433504994762E-02 
354	 0.027402379942373 
355	 2.38455627689324E-02 
356	 2.43782683574432E-02 
357	 3.21820793717794E-02 
358	 3.69483345853051E-02 
359	 3.56262876006971E-02 
360	 3.21608207049242E-02 
361	 3.35812830878167E-02 
362	 3.03598570821224E-02 
363	 3.01617883287453E-02 
364	 0.034078595612499 
365	 2.97542963471182E-02 
366	 2.88814089631548E-02 
367	 2.99623197112563E-02 
368	 0.029333229213734 
369	 3.03337896595566E-02 
370	 0.028952924063744 
371	 2.77562836147624E-02 
372	 3.27375016803286E-02 
373	 3.43598648605281E-02 
374	 3.40538135588129E-02 
375	 3.35034707474194E-02 
376	 3.21269439774573E-02 
377	 3.07238564312238E-02 
378	 3.10238855957381E-02 
379	 3.38254586421013E-02 
380	 0.035518474759819 
381	 3.49275107508534E-02 
382	 3.44997844041287E-02 
383	 3.83853147460004E-02 
384	 3.75906781307736E-02 
385	 3.50919847879183E-02 
386	 0.034491766536156 
387	 3.72967789156177E-02 
388	 3.97431061635838E-02 
389	 3.98344526673118E-02 
390	 3.69815313021834E-02 
391	 3.28796567402698E-02 
392	 3.39686215986032E-02 
393	 3.84551344171158E-02 
394	 0.038125223186052 
395	 3.86327614612174E-02 
396	 3.91519951995618E-02 
397	 3.89142848680543E-02 
398	 3.94885858711636E-02 
399	 4.00293989066864E-02 
400	 4.08531255666905E-02 
401	 4.20517923227861E-02 
402	 4.01215537525421E-02 
403	 3.84231165685976E-02 
404	 3.85295103365113E-02 
405	 3.97128912872278E-02 
406	 4.07879411874541E-02 
407	 4.09447865657679E-02 
408	 4.01019413504632E-02 
409	 3.94338880718913E-02 
410	 3.94326254971359E-02 
411	 3.98048960916667E-02 
412	 4.00183917735168E-02 
413	 4.10804803383415E-02 
414	 4.17195451713477E-02 
415	 4.15048957864401E-02 
416	 0.041290572286231 
417	 4.08851721601031E-02 
418	 4.05764611172373E-02 
419	 4.06214097127646E-02 
420	 4.09811990438991E-02 
421	 4.05770784374017E-02 
422	 4.02227579930919E-02 
423	 4.15583142419196E-02 
424	 4.10486158209589E-02 
425	 0.04005406897795 
426	 0.039793528620095 
427	 4.01270268938015E-02 
428	 0.040292848108066 
429	 4.02953425149081E-02 
430	 4.03699124409683E-02 
431	 4.04515182726187E-02 
432	 4.04886510194012E-02 
433	 4.04582740225084E-02 
434	 4.03723849017906E-02 
435	 4.05684799565103E-02 
436	 4.07047872893094E-02 
437	 4.04979563206375E-02 
438	 4.00900827906853E-02 
439	 4.00910107793188E-02 
440	 4.03288747634256E-02 
441	 4.02835067821398E-02 
442	 4.01830172181366E-02 
443	 4.01706779155798E-02 
444	 4.02208485689917E-02 
445	 4.00591999078492E-02 
446	 4.01161500080939E-02 
447	 4.03188381749251E-02 
448	 0.040432155202152 
449	 4.01826297276565E-02 
450	 4.01444256898431E-02 
451	 4.03849864065792E-02 
452	 4.05137495437114E-02 
453	 4.02925717672939E-02 
454	 4.00188445721331E-02 
455	 3.99490015495455E-02 
456	 4.00191645603286E-02 
457	 3.99129222174429E-02 
458	 3.98625746339232E-02 
459	 4.01883525546566E-02 
460	 3.98003740828593E-02 
461	 3.94872970295974E-02 
462	 3.95682395918769E-02 
463	 0.039466580170694 
464	 3.97658231518001E-02 
465	 3.99939918984467E-02 
466	 3.96759273665703E-02 
467	 3.94800383938521E-02 
468	 0.039408338758416 
469	 3.94198889499107E-02 
470	 3.94495556385495E-02 
471	 3.95127154016373E-02 
472	 3.95256049827671E-02 
473	 3.94332721309201E-02 
474	 3.92607171893414E-02 
475	 3.91457002623343E-02 
476	 3.90689848970241E-02 
477	 3.89798665295027E-02 
478	 3.91993377228089E-02 
479	 3.92901825151598E-02 
480	 3.91117689972045E-02 
481	 3.90067296924927E-02 
482	 3.91930379109805E-02 
483	 0.039289485353732 
484	 3.89870653161374E-02 
485	 3.89922406251691E-02 
486	 3.90664618497127E-02 
487	 3.90846057258185E-02 
488	 3.90434402014989E-02 
489	 3.90448294005072E-02 
490	 3.90282751600238E-02 
491	 3.89528091017496E-02 
492	 3.88914180031815E-02 
493	 3.88607516606687E-02 
494	 3.88464165400903E-02 
495	 3.88084203621991E-02 
496	 3.86434513046359E-02 
497	 3.85854324311077E-02 
498	 3.86785820522337E-02 
499	 3.86411623871955E-02 
500	 3.87123524443988E-02 
501	 3.87953097845225E-02 
502	 3.87421305743743E-02 
503	 3.86135426649681E-02 
504	 3.85427429101917E-02 
505	 3.85092691697563E-02 
506	 3.83700878077192E-02 
507	 3.85644062358695E-02 
508	 3.87144625208906E-02 
509	 3.85379630675369E-02 
510	 3.83990682680916E-02 
511	 3.84449154252967E-02 
512	 3.85720327360115E-02 
513	 3.85604092004932E-02 
514	 3.85599913711538E-02 
515	 3.85644778894007E-02 
516	 3.85880864977762E-02 
517	 3.87270571941257E-02 
518	 3.86763400303998E-02 
519	 3.85847710985743E-02 
520	 3.86848051915396E-02 
521	 3.88105307080481E-02 
522	 3.87753295286106E-02 
523	 3.86513066404627E-02 
524	 3.87689292750981E-02 
525	 3.87389824784819E-02 
526	 3.86937910106902E-02 
527	 3.87737234479979E-02 
528	 3.87616393180889E-02 
529	 3.87905680182871E-02 
530	 3.88555518057836E-02 
531	 3.88673213792728E-02 
532	 3.88804818002702E-02 
533	 3.89518444678854E-02 
534	 3.90640857954701E-02 
535	 3.90404450922987E-02 
536	 3.90248439884007E-02 
537	 3.90669485327414E-02 
538	 3.91615329890566E-02 
539	 3.91953509281785E-02 
540	 3.92412780313417E-02 
541	 3.93313590110957E-02 
542	 0.039425781677426 
543	 3.94446773658858E-02 
544	 3.94762876727761E-02 
545	 3.96076788636118E-02 
546	 3.97268075798895E-02 
547	 3.98170610232604E-02 
548	 3.98798275311823E-02 
549	 3.99344344424163E-02 
550	 4.00857286790982E-02 
551	 4.02420006908479E-02 
552	 4.03531732440789E-02 
553	 4.05917924791832E-02 
554	 0.040732673042149 
555	 0.040835942957027 
556	 4.10859585973497E-02 
557	 4.13111961427734E-02 
558	 4.15351705047762E-02 
559	 4.17994228322233E-02 
560	 4.21505524326839E-02 
561	 4.23783374398247E-02 
562	 4.26153512525279E-02 
563	 4.30463712838183E-02 
564	 4.34293025264059E-02 
565	 4.37947083479252E-02 
566	 4.41818614025093E-02 
567	 4.46206820622972E-02 
568	 4.50626828025055E-02 
569	 4.55619536200013E-02 
570	 4.61528548790225E-02 
571	 4.67236918935221E-02 
572	 4.73325359020035E-02 
573	 4.79907267104585E-02 
574	 4.86714406216366E-02 
575	 4.93191817878154E-02 
576	 4.99896362995153E-02 
577	 5.07224675609032E-02 
578	 5.14846184470474E-02 
579	 5.22598685160652E-02 
580	 5.30709626173681E-02 
581	 5.39490429068376E-02 
582	 5.48406212768903E-02 
583	 5.57292183692604E-02 
584	 5.66379789404424E-02 
585	 0.057645179620015 
586	 5.87227276936629E-02 
587	 5.97440068646919E-02 
588	 6.06446278409795E-02 
589	 6.17641985876136E-02 
590	 6.28452808369205E-02 
591	 6.38568369459307E-02 
592	 6.49846937047984E-02 
593	 0.066040163894778 
594	 6.70598216919161E-02 
595	 0.068087835739617 
596	 6.90659545385734E-02 
597	 7.00646775910264E-02 
598	 7.10580327309308E-02 
599	 7.19836523529246E-02 
600	 7.29252817992575E-02 
601	 0.073880064210796 
602	 7.48237550306427E-02 
603	 7.57231578235751E-02 
604	 7.65244313673397E-02 
605	 7.73136447536809E-02 
606	 7.81803762107941E-02 
607	 7.89238716939601E-02 
608	 0.079650149461536 
609	 8.03915521547514E-02 
610	 8.10787104966899E-02 
611	 8.17857032649337E-02 
612	 8.24310586947284E-02 
613	 0.082948572679544 
614	 8.34539959035023E-02 
615	 8.39262001786838E-02 
616	 8.43572537061563E-02 
617	 8.47524068876011E-02 
618	 8.52003425293822E-02 
619	 8.56172630792815E-02 
620	 8.59627384702864E-02 
621	 8.63484794003149E-02 
622	 8.66862786882994E-02 
623	 8.69729289374607E-02 
624	 8.72457667764217E-02 
625	 8.75680695130058E-02 
626	 8.78462404961019E-02 
627	 8.80745985655694E-02 
628	 8.83783915199269E-02 
629	 0.088654347231335 
630	 8.89112594179781E-02 
631	 8.91691698522341E-02 
632	 8.93634496774166E-02 
633	 8.95642379074395E-02 
634	 8.98004663036562E-02 
635	 9.00612020859553E-02 
636	 9.03039952769723E-02 
637	 0.09054141069716 
638	 9.07839514477865E-02 
639	 0.091015314339353 
640	 9.11967180627538E-02 
641	 9.14001913115297E-02 
642	 9.17159336013313E-02 
643	 9.19382186499113E-02 
644	 9.21843482197597E-02 
645	 0.092487586674191 
646	 9.27138483486961E-02 
647	 9.29645763063836E-02 
648	 9.32329134701431E-02 
649	 9.34940832660859E-02 
650	 9.37825276403947E-02 
651	 9.40868683847145E-02 
652	 9.43921070549036E-02 
653	 9.46857479148979E-02 
654	 9.50309221764094E-02 
655	 9.53683564604736E-02 
656	 9.56668147527175E-02 
657	 9.60233883508805E-02 
658	 9.63563858451293E-02 
659	 9.66804430117857E-02 
660	 9.70472414750386E-02 
661	 9.74160563090924E-02 
662	 9.78098621677323E-02 
663	 9.82287140668981E-02 
664	 9.86324329281073E-02 
665	 9.89989432443082E-02 
666	 9.93719707400346E-02 
667	 0.099794805031993 
668	 0.100216949944425 
669	 0.100675766761345 
670	 0.10116869966791 
671	 0.101658262269222 
672	 0.102144440455592 
673	 0.10263352550159 
674	 0.103132837143999 
675	 0.103651230888731 
676	 0.104139771145215 
677	 0.10463967610118 
678	 0.105210024929512 
679	 0.105720977362651 
680	 0.106292044319379 
681	 0.106933888323297 
682	 0.107490381980205 
683	 0.108066545167007 
684	 0.108680788857819 
685	 0.109320278691675 
686	 0.109944568004736 
687	 0.110593609441937 
688	 0.111232685306179 
689	 0.111792615852304 
690	 0.112481871428389 
691	 0.113160816073244 
692	 0.113775736467655 
693	 0.114563457314344 
694	 0.115244440557036 
695	 0.115880561480716 
696	 0.116616674224256 
697	 0.117310196069386 
698	 0.118007497421343 
699	 0.118734642247182 
700	 0.119482821867713 
701	 0.120209974683559 
702	 0.120941687195037 
703	 0.121694921544491 
704	 0.122417981928383 
705	 0.123144057701845 
706	 0.12389066269196 
707	 0.124658678215377 
708	 0.125396785262397 
709	 0.126135423131873 
710	 0.126891995042577 
711	 0.127656237052174 
712	 0.128344777544226 
713	 0.129026999604538 
714	 0.129778674067942 
715	 0.130523191624248 
716	 0.131240667428619 
717	 0.131930182822237 
718	 0.132604376414344 
719	 0.133245579283695 
720	 0.133895329886828 
721	 0.134561012535637 
722	 0.135169683517959 
723	 0.135812193553483 
724	 0.136417680161172 
725	 0.136911161882672 
726	 0.13748648728882 
727	 0.138020518451492 
728	 0.138488461756967 
729	 0.138968279179232 
730	 0.139437079881099 
731	 0.139877597613649 
732	 0.140279929520789 
733	 0.140646700331658 
734	 0.141027563638113 
735	 0.141370263884036 
736	 0.141611869111633 
737	 0.141912148864562 
738	 0.142164736200241 
739	 0.142351478062946 
740	 0.142567287682944 
741	 0.142702944306968 
742	 0.142799071154637 
743	 0.142899111859227 
744	 0.14297081718099 
745	 0.142965635627783 
746	 0.142930063506071 
747	 0.142938068719501 
748	 0.142896254783727 
749	 0.142826722439548 
750	 0.142746787889836 
751	 0.142654821312362 
752	 0.142489118722633 
753	 0.142268575511415 
754	 0.142035558316169 
755	 0.141838307770413 
756	 0.141643593669755 
757	 0.141396487175604 
758	 0.141058907158998 
759	 0.140792540805339 
760	 0.140506063048805 
761	 0.140156222646939 
762	 0.139790560855225 
763	 0.139400471776188 
764	 0.139009444523028 
765	 0.138632450423368 
766	 0.138241441956368 
767	 0.137833155597113 
768	 0.137401319839371 
769	 0.136946786533564 
770	 0.136523210277847 
771	 0.13608690345329 
772	 0.135622838737535 
773	 0.135160693556553 
774	 0.134675910040065 
775	 0.134193421270959 
776	 0.133730426895242 
777	 0.13325214023307 
778	 0.132791454931595 
779	 0.13232978494056 
780	 0.131832324904892 
781	 0.131319673539502 
782	 0.130837668827803 
783	 0.130363182310826 
784	 0.12980979686032 
785	 0.129358587295773 
786	 0.128927423082048 
787	 0.128436825889311 
788	 0.127932233083587 
789	 0.127503403276186 
790	 0.127053285621073 
791	 0.126476576491757 
792	 0.126027395096092 
793	 0.125601467139395 
794	 0.125147917389862 
795	 0.124680346809466 
796	 0.124205411928907 
797	 0.123744305245761 
798	 0.123308326851164 
799	 0.12289101600077 
800	 0.122441017012461 
801	 0.122010006442511 
802	 0.121640635078674 
803	 0.121208916225913 
804	 0.120805779121356 
805	 0.120436177246037 
806	 0.120050308573874 
807	 0.119650997087049 
808	 0.119269724280399 
809	 0.118899487389791 
810	 0.118481619819361 
811	 0.118178985841937 
812	 0.117891917026592 
813	 0.117528927675107 
814	 0.117185701689965 
815	 0.11687543460895 
816	 0.116557329220228 
817	 0.116194451806644 
818	 0.115911470243569 
819	 0.115621884576319 
820	 0.115316506578959 
821	 0.115057784988072 
822	 0.114813019607628 
823	 0.114544164835402 
824	 0.114250891662806 
825	 0.113993297849043 
826	 0.113748765191774 
827	 0.113518122274237 
828	 0.11329769762264 
829	 0.113051159588894 
830	 0.112811102937344 
831	 0.112593936975114 
832	 0.112404175914025 
833	 0.112238405998731 
834	 0.112064140941048 
835	 0.111874214169663 
836	 0.111690534958495 
837	 0.111566928325465 
838	 0.111433088130303 
839	 0.111251506895387 
840	 0.111074573136636 
841	 0.110933855107615 
842	 0.110826189446757 
843	 0.110730224682873 
844	 0.110607338739463 
845	 0.110527008589631 
846	 0.110471662882953 
847	 0.110392793167018 
848	 0.110327690970681 
849	 0.110244750255457 
850	 0.110146919705381 
851	 0.110069964450987 
852	 0.110038178266602 
853	 0.110004055000193 
854	 0.109951486640591 
855	 0.109924968762052 
856	 0.109952115445261 
857	 0.109981107319339 
858	 0.10997907984328 
859	 0.110015779107089 
860	 0.110033408671392 
861	 0.110020126302675 
862	 0.109993574031476 
863	 0.110010508562622 
864	 0.110063364474714 
865	 0.110151100697767 
866	 0.110263101910207 
867	 0.110299478407556 
868	 0.110319047747333 
869	 0.110372933950522 
870	 0.110481312334519 
871	 0.110594574722082 
872	 0.110730349768284 
873	 0.110887558717091 
874	 0.111018568756811 
875	 0.111167181279773 
876	 0.111281704083582 
877	 0.111345685639403 
878	 0.111489617360739 
879	 0.111679870363743 
880	 0.111856962506175 
881	 0.111990410327646 
882	 0.112218335525107 
883	 0.11240863045952 
884	 0.11259459466821 
885	 0.112862203716981 
886	 0.112988468824409 
887	 0.113186964676955 
888	 0.113463181317252 
889	 0.113641462033733 
890	 0.113868090408924 
891	 0.114125109022903 
892	 0.11439691557978 
893	 0.114694299126219 
894	 0.114973972666637 
895	 0.115258258556474 
896	 0.115556560485868 
897	 0.115830877343362 
898	 0.116173826742563 
899	 0.11651756647779 
900	 0.116804448332666 
901	 0.117119347033827 
902	 0.117438424516736 
903	 0.117790825468761 
904	 0.118186493348266 
905	 0.118505279516369 
906	 0.118877235276549 
907	 0.11927906321669 
908	 0.119640766852943 
909	 0.120073949009464 
910	 0.120513885993088 
911	 0.12091670622419 
912	 0.121277419478658 
913	 0.121693888267837 
914	 0.122148550095897 
915	 0.122622950369561 
916	 0.123108624085099 
917	 0.123609591157057 
918	 0.124046170271242 
919	 0.124468538818624 
920	 0.125058209850143 
921	 0.125603158707247 
922	 0.126137061300695 
923	 0.126679655873366 
924	 0.127175867330198 
925	 0.127719772858937 
926	 0.128321718562461 
927	 0.128937043295693 
928	 0.129462015072901 
929	 0.130057750598017 
930	 0.130701208119029 
931	 0.131332291552094 
932	 0.131927531898262 
933	 0.132539376509506 
934	 0.13317286822554 
935	 0.133830851660591 
936	 0.134563339084434 
937	 0.135202870725156 
938	 0.135840897549924 
939	 0.136597585153541 
940	 0.137373822211212 
941	 0.138060468705856 
942	 0.138773529007317 
943	 0.139619788819989 
944	 0.140281108330843 
945	 0.141016610869126 
946	 0.141815216931163 
947	 0.142569647064419 
948	 0.143383599083085 
949	 0.144113351109058 
950	 0.144810906894033 
951	 0.145619858860234 
952	 0.146576460653172 
953	 0.147417197594857 
954	 0.148173963881486 
955	 0.149041253264329 
956	 0.15003895213437 
957	 0.150931515726476 
958	 0.151739653257914 
959	 0.152626320579658 
960	 0.153504495186433 
961	 0.15447996197328 
962	 0.155466709751456 
963	 0.156297828895393 
964	 0.157133272691853 
965	 0.158118195827673 
966	 0.159151916717836 
967	 0.160041783880404 
968	 0.161105009716583 
969	 0.162044897612246 
970	 0.162907859685939 
971	 0.163933255091517 
972	 0.164864289640451 
973	 0.165829571999374 
974	 0.166847884907931 
975	 0.167853295044619 
976	 0.168865559400363 
977	 0.169917159696012 
978	 0.170902195905582 
979	 0.171723662723219 
980	 0.172825573369774 
981	 0.173986948815149 
982	 0.175047302968663 
983	 0.175981568784962 
984	 0.177066669402331 
985	 0.178009552035444 
986	 0.178974172126095 
987	 0.180243607431418 
988	 0.181282708187202 
989	 0.182209594839458 
990	 0.18309245464295 
991	 0.184014705964108 
992	 0.185307213652819 
993	 0.186234565569059 
994	 0.18709342092939 
995	 0.188353157968924 
996	 0.189057279371445 
997	 0.190006915052891 
998	 0.191165870613006 
999	 0.192204491445213 
1000	 0.193105285078974 
1001	 0.193068510204177 
1002	 0.194030652391408 
1003	 0.195049605621968 
1004	 0.195985531739847 
1005	 0.196853878834926 
1006	 0.197733920552456 
1007	 0.198604902573986 
1008	 0.199423520064226 
1009	 0.200174022491786 
1010	 0.200973170832374 
1011	 0.201812523878958 
1012	 0.202625773602219 
1013	 0.203474844519448 
1014	 0.204309333895299 
1015	 0.205098669472737 
1016	 0.205847219548998 
1017	 0.206619027837301 
1018	 0.207397619608987 
1019	 0.208207663066815 
1020	 0.208952797326541 
1021	 0.209673862488027 
1022	 0.210395175406559 
1023	 0.211125335677537 
1024	 0.211834711670779 
1025	 0.212521273188274 
1026	 0.213212671033597 
1027	 0.213840079923128 
1028	 0.214471735911919 
1029	 0.215145314530317 
1030	 0.215787177009797 
1031	 0.216422058333289 
1032	 0.217055289219839 
1033	 0.217682070298466 
1034	 0.218287047072002 
1035	 0.218843054002928 
1036	 0.219397690587946 
1037	 0.220014639735976 
1038	 0.22058334988185 
1039	 0.22114940899717 
1040	 0.221774695393102 
1041	 0.222312339736704 
1042	 0.222842702864932 
1043	 0.2234471630528 
1044	 0.224005755269131 
1045	 0.224528115611837 
1046	 0.225071395437063 
1047	 0.225651593152369 
1048	 0.226154353625857 
1049	 0.226651661179115 
1050	 0.227189267886522 
1051	 0.22769184084014 
1052	 0.228186201490785 
1053	 0.228727134464272 
1054	 0.229257873339483 
1055	 0.229791256166114 
1056	 0.230370830586937 
1057	 0.230903304502778 
1058	 0.23142491077666 
1059	 0.231923993080012 
1060	 0.232375172580059 
1061	 0.232848505098684 
1062	 0.233374840062472 
1063	 0.233858475265134 
1064	 0.234389985481806 
1065	 0.23489597943485 
1066	 0.235287664257967 
1067	 0.235751132193903 
1068	 0.236246482230147 
1069	 0.236688540715627 
1070	 0.237164465844346 
1071	 0.237719849825795 
1072	 0.238200458608096 
1073	 0.238615686142635 
1074	 0.239080568790479 
1075	 0.239564601266001 
1076	 0.239993368880091 
1077	 0.240444084549835 
1078	 0.240899190740077 
1079	 0.241356079430524 
1080	 0.241800313118559 
1081	 0.242230402111909 
1082	 0.242685356948423 
1083	 0.24309797890015 
1084	 0.243434978430182 
1085	 0.243855093423081 
1086	 0.244301139759271 
1087	 0.244735648928216 
1088	 0.245198048872479 
1089	 0.245667854306165 
1090	 0.246069018126501 
1091	 0.246444509451357 
1092	 0.246817014846417 
1093	 0.247154797975969 
1094	 0.247490950868861 
1095	 0.247865916616479 
1096	 0.2482464549086 
1097	 0.248598573848651 
1098	 0.248965762541282 
1099	 0.24935197611784 
1100	 0.249713689558467 
1101	 0.250058317642649 
1102	 0.250423559262856 
1103	 0.250807354027809 
1104	 0.251153196926228 
1105	 0.25149262304287 
1106	 0.251849899803109 
1107	 0.25216346641236 
1108	 0.252454021818477 
1109	 0.252793013829573 
1110	 0.253133342930865 
1111	 0.253465146135574 
1112	 0.25383524650004 
1113	 0.254142040396827 
1114	 0.254384667888208 
1115	 0.254677788111175 
1116	 0.254966914870383 
1117	 0.255266200701892 
1118	 0.255597689708369 
1119	 0.25591337852947 
1120	 0.256223642624021 
1121	 0.256518766079335 
1122	 0.25681487611419 
1123	 0.25714172518055 
1124	 0.257447673195592 
1125	 0.257758643408318 
1126	 0.258029762360966 
1127	 0.258269863033291 
1128	 0.258534561680042 
1129	 0.258772309912729 
1130	 0.259040635001585 
1131	 0.259356575421916 
1132	 0.259633510635993 
1133	 0.259902170751141 
1134	 0.260164468872968 
1135	 0.260400621109925 
1136	 0.260649210478992 
1137	 0.260921322377403 
1138	 0.261158385694154 
1139	 0.261405286566906 
1140	 0.261653170459766 
1141	 0.261904149155829 
1142	 0.26216546953438 
1143	 0.262398224501578 
1144	 0.262643344201097 
1145	 0.262847535145599 
1146	 0.262979243735514 
1147	 0.263167563103147 
1148	 0.2633722256338 
1149	 0.263562661455867 
1150	 0.263761792850317 
1151	 0.263985220483849 
1152	 0.264154533277675 
1153	 0.264332236786478 
1154	 0.264534649728369 
1155	 0.264755423138108 
1156	 0.264957310695903 
1157	 0.265176147753763 
1158	 0.26537468656971 
1159	 0.26555131444809 
1160	 0.26574176989359 
1161	 0.265935322407944 
1162	 0.266124145756529 
1163	 0.266322218861327 
1164	 0.266499422821794 
1165	 0.266659313871317 
1166	 0.266829908348053 
1167	 0.266972046639941 
1168	 0.267125294938576 
1169	 0.267288535896504 
1170	 0.267457713409967 
1171	 0.267626140362044 
1172	 0.267816591815692 
1173	 0.267975101257765 
1174	 0.268106854608839 
1175	 0.268265358522758 
1176	 0.268425732881907 
1177	 0.26858024824565 
1178	 0.268756740866733 
1179	 0.268914468354993 
1180	 0.269046362585846 
1181	 0.269188542645331 
1182	 0.269330371337934 
1183	 0.269473553697369 
1184	 0.26962394466655 
1185	 0.269782951204293 
1186	 0.269928028815122 
1187	 0.270079467214252 
1188	 0.270213036815081 
1189	 0.270324236110199 
1190	 0.270452230489498 
1191	 0.27058016052586 
1192	 0.270708925008429 
1193	 0.270848403430924 
1194	 0.270978146931895 
1195	 0.271108223092466 
1196	 0.271225950634059 
1197	 0.271328481249639 
1198	 0.271437760840941 
1199	 0.271545613698081 
1200	 0.271642449694231 
1201	 0.271756000021949 
1202	 0.271887101244143 
1203	 0.271996021539203 
1204	 0.272101599746211 
1205	 0.272204259359829 
1206	 0.27229327023164 
1207	 0.272389162607952 
1208	 0.272490393244764 
1209	 0.272585880271093 
1210	 0.27267608623242 
1211	 0.272768886172378 
1212	 0.272862173566089 
1213	 0.27295403429834 
1214	 0.273043924977895 
1215	 0.273136608688806 
1216	 0.273230034346735 
1217	 0.273334226867517 
1218	 0.273403877641428 
1219	 0.273450525408337 
1220	 0.273525366534017 
1221	 0.273585039104879 
1222	 0.273663259006698 
1223	 0.273779233685751 
1224	 0.273869230416534 
1225	 0.273939521605806 
1226	 0.274024375142915 
1227	 0.274120949066734 
1228	 0.274205143311964 
1229	 0.274291460758262 
1230	 0.274370079061909 
1231	 0.274433136727095 
1232	 0.274500867813684 
1233	 0.274568406325318 
1234	 0.27463499684704 
1235	 0.274702836424024 
1236	 0.274773397644859 
1237	 0.274838363651721 
1238	 0.274902716939021 
1239	 0.274963713392938 
1240	 0.27502103817978 
1241	 0.275076423886605 
1242	 0.275127911034839 
1243	 0.275181084486134 
1244	 0.275226076191212 
1245	 0.275282711125827 
1246	 0.275346582639205 
1247	 0.275411679650121 
1248	 0.275484839191412 
1249	 0.2755586302983 
1250	 0.275635131179331 
1251	 0.275694663864443 
1252	 0.275745565637369 
1253	 0.275791367533497 
1254	 0.275822022548719 
1255	 0.275824123423044 
1256	 0.275852027153355 
1257	 0.275876273170447 
1258	 0.275911041139343 
1259	 0.275963206747962 
1260	 0.276012546592307 
1261	 0.276068107425946 
1262	 0.2761154034416 
1263	 0.276163056336703 
1264	 0.276209746673085 
1265	 0.276244284183765 
1266	 0.276287797165488 
1267	 0.276339506854617 
1268	 0.27639383038951 
1269	 0.276435072717734 
1270	 0.276471299873451 
1271	 0.276512545865974 
1272	 0.276544323997535 
1273	 0.276583734875824 
1274	 0.276627327846203 
1275	 0.276677380030795 
1276	 0.276723672520822 
1277	 0.276788904010019 
1278	 0.276867007742667 
1279	 0.276952326756085 
1280	 0.277067487495562 
1281	 0.27715393521841 
1282	 0.277238406362124 
1283	 0.277315942860385 
1284	 0.277385840935686 
1285	 0.277426912018958 
1286	 0.277472805643251 
1287	 0.277531377547052 
1288	 0.277598361111889 
1289	 0.277667886158532 
1290	 0.277739594067361 
1291	 0.277829954009241 
1292	 0.277900388382363 
1293	 0.277961960971598 
1294	 0.278021461710779 
1295	 0.278076627000842 
1296	 0.278129205464065 
1297	 0.278183998620687 
1298	 0.278219732058859 
1299	 0.278237333139636 
1300	 0.278264329728348 
1301	 0.278278282026492 
1302	 0.2783026894296 
1303	 0.278345953527976 
1304	 0.278373063241517 
1305	 0.278400789423792 
1306	 0.278426261746523 
1307	 0.278438154472777 
1308	 0.278459793364454 
1309	 0.278471886026319 
1310	 0.278481398273331 
1311	 0.2784718264877 
1312	 0.278453643217984 
1313	 0.278432713116862 
1314	 0.278387968345275 
1315	 0.278365587883355 
1316	 0.278365582241824 
1317	 0.278334455696222 
1318	 0.278300295332012 
1319	 0.278254799536367 
1320	 0.278181720115171 
1321	 0.278116288779112 
1322	 0.278048590753324 
1323	 0.277983595461385 
1324	 0.277918720427295 
1325	 0.277849978640707 
1326	 0.277786724553318 
1327	 0.277711679425811 
1328	 0.277621613034703 
1329	 0.277541717461441 
1330	 0.277451589362771 
1331	 0.277355953175879 
1332	 0.27725281478326 
1333	 0.277135868084679 
1334	 0.277034274971035 
1335	 0.276934295528513 
1336	 0.276837079534182 
1337	 0.276751537871446 
1338	 0.276660266850929 
1339	 0.276574774548338 
1340	 0.276468644582657 
1341	 0.276352149863288 
1342	 0.276237333935194 
1343	 0.276105033161886 
1344	 0.275973996647163 
1345	 0.275869863176038 
1346	 0.275779320796833 
1347	 0.275700018911013 
1348	 0.275619260608943 
1349	 0.275520490437495 
1350	 0.275402824134694 
1351	 0.27529049416007 
1352	 0.275158916306267 
1353	 0.275056860590863 
1354	 0.274978120765726 
1355	 0.27486860324371 
1356	 0.274756027269763 
1357	 0.274640687433193 
1358	 0.27449665187635 
1359	 0.27438165083135 
1360	 0.274282451516593 
1361	 0.274183624106822 
1362	 0.274101478636065 
1363	 0.274007258440136 
1364	 0.273911689784258 
1365	 0.273815480418677 
1366	 0.273715759798626 
1367	 0.273607850119465 
1368	 0.273505191907916 
1369	 0.27340823985382 
1370	 0.273298449370059 
1371	 0.273169345319993 
1372	 0.2730256088426 
1373	 0.272879044801866 
1374	 0.272728135093531 
1375	 0.272571952443489 
1376	 0.272400009704437 
1377	 0.272244462482809 
1378	 0.27202121636566 
1379	 0.271749149639125 
1380	 0.271484770156132 
1381	 0.271183969065348 
1382	 0.270881545235218 
1383	 0.27059999845306 
1384	 0.27026872280161 
1385	 0.269918412073787 
1386	 0.269529904548962 
1387	 0.269095118338737 
1388	 0.268653017318046 
1389	 0.268196095777988 
1390	 0.267696690339974 
1391	 0.267182340204858 
1392	 0.26664896577922 
1393	 0.266057459441887 
1394	 0.265432058797729 
1395	 0.264755556049888 
1396	 0.264049064634176 
1397	 0.263342503915715 
1398	 0.262601015818914 
1399	 0.261868733277041 
1400	 0.261150351665714 
1401	 0.260391284092638 
1402	 0.259606667109647 
1403	 0.258827808055823 
1404	 0.258002850559963 
1405	 0.25723652596392 
1406	 0.256497237187464 
1407	 0.255753386079558 
1408	 0.255031882704622 
1409	 0.254315926716801 
1410	 0.253569618140201 
1411	 0.252892091402945 
1412	 0.252249954852787 
1413	 0.251637925216611 
1414	 0.25108735280385 
1415	 0.250543290302532 
1416	 0.250000401309458 
1417	 0.249493258448016 
1418	 0.248999921117589 
1419	 0.248536335643086 
1420	 0.248123695781796 
1421	 0.247739729350307 
1422	 0.247373464942009 
1423	 0.247025336239382 
1424	 0.246677889304642 
1425	 0.246327808352399 
1426	 0.246015812946691 
1427	 0.245719094535929 
1428	 0.24544386623067 
1429	 0.245198274870111 
1430	 0.244970017269246 
1431	 0.24476117941604 
1432	 0.244558988446886 
1433	 0.244384828210339 
1434	 0.244206685260053 
1435	 0.244007041742877 
1436	 0.243858684306181 
1437	 0.243739827815883 
1438	 0.243631955970499 
1439	 0.243555661651726 
1440	 0.243499978645497 
1441	 0.243418971694841 
1442	 0.243335425630577 
1443	 0.243258720758565 
1444	 0.243187137299546 
1445	 0.243137445869613 
1446	 0.243112331652681 
1447	 0.243100937666028 
1448	 0.243079423240837 
1449	 0.243064508971048 
1450	 0.243053653628367 
1451	 0.243035876786741 
1452	 0.243008634208219 
1453	 0.243004705996028 
1454	 0.243004292494634 
1455	 0.24300980029969 
1456	 0.243036673567408 
1457	 0.243049220526178 
1458	 0.243054200314837 
1459	 0.243068091186958 
1460	 0.24308310512906 
1461	 0.243104974907937 
1462	 0.243124661100371 
1463	 0.243161465104091 
1464	 0.243202110903643 
1465	 0.243257662891557 
1466	 0.243341068211717 
1467	 0.243419905016406 
1468	 0.243488087615088 
1469	 0.243587817913921 
1470	 0.243708718114438 
1471	 0.243824683243313 
1472	 0.243967900586156 
1473	 0.24412974623276 
1474	 0.244269663608437 
1475	 0.244408208617369 
1476	 0.244553584206979 
1477	 0.244711699059159 
1478	 0.244890611635278 
1479	 0.245072146079547 
1480	 0.245254051266695 
1481	 0.245444835841129 
1482	 0.245633577086875 
1483	 0.245823359692936 
1484	 0.246011164293681 
1485	 0.246199035323262 
1486	 0.246388410930782 
1487	 0.24657116515535 
1488	 0.246772597569021 
1489	 0.246985027518154 
1490	 0.247194922203781 
1491	 0.247431334912011 
1492	 0.247626948783038 
1493	 0.24779387670568 
1494	 0.247981726360848 
1495	 0.248157549633781 
1496	 0.248334597060354 
1497	 0.248523079056027 
1498	 0.248712273553626 
1499	 0.248906189947545 
1500	 0.249080196598908 
1501	 0.249243829977402 
1502	 0.249416592980016 
1503	 0.249571598443825 
1504	 0.249734653121329 
1505	 0.249932123906633 
1506	 0.250130837538025 
1507	 0.250320903560885 
1508	 0.250505058796367 
1509	 0.250683907323249 
1510	 0.250849893415883 
1511	 0.250993214905239 
1512	 0.251133317221353 
1513	 0.251269503659772 
1514	 0.251416558991737 
1515	 0.251583623510885 
1516	 0.251762644572924 
1517	 0.251922328123065 
1518	 0.252077885678755 
1519	 0.252227269932025 
1520	 0.252359471780314 
1521	 0.252502416064232 
1522	 0.252653544679434 
1523	 0.252796419901851 
1524	 0.252940980484362 
1525	 0.253073215863318 
1526	 0.253189580125547 
1527	 0.253317005949669 
1528	 0.253445745533719 
1529	 0.253569481787337 
1530	 0.253703537138958 
1531	 0.253819574150226 
1532	 0.253917270129383 
1533	 0.254021444335104 
1534	 0.254125355872159 
1535	 0.25422046313229 
1536	 0.254298604069515 
1537	 0.254397056379913 
1538	 0.254504938570553 
1539	 0.254604097739447 
1540	 0.25471692181879 
1541	 0.254822409932222 
1542	 0.254908688044783 
1543	 0.255004339139039 
1544	 0.255114020954548 
1545	 0.255210261760965 
1546	 0.255302085626378 
1547	 0.255391324225264 
1548	 0.255459947686737 
1549	 0.255530497308281 
1550	 0.25561006148339 
1551	 0.255685136480903 
1552	 0.25576703106986 
1553	 0.255860990539337 
1554	 0.2559433266019 
1555	 0.256012848398829 
1556	 0.25607849862404 
1557	 0.256138047153994 
1558	 0.25621041493843 
1559	 0.256286903416454 
1560	 0.256359963258801 
1561	 0.256445582204743 
1562	 0.256511858750508 
1563	 0.256563781721801 
1564	 0.256622444622654 
1565	 0.256679915899097 
1566	 0.256733351121042 
1567	 0.256777054041683 
1568	 0.256841783626933 
1569	 0.25691191497641 
1570	 0.256980403745726 
1571	 0.257069835475457 
1572	 0.257138696837448 
1573	 0.257202206038347 
1574	 0.257250857010278 
1575	 0.257284121956327 
1576	 0.257318968972188 
1577	 0.257338358693262 
1578	 0.257364198531216 
1579	 0.257388967512087 
1580	 0.25742511188392 
1581	 0.257464642794177 
1582	 0.257506408060829 
1583	 0.257560314779808 
1584	 0.257611471197402 
1585	 0.257672285628452 
1586	 0.257705702251997 
1587	 0.257725984103163 
1588	 0.25774830921454 
1589	 0.257743398066961 
1590	 0.257760726306562 
1591	 0.257801375532651 
1592	 0.257826364870993 
1593	 0.257838983526541 
1594	 0.257867055335416 
1595	 0.257902544508879 
1596	 0.257930711525036 
1597	 0.257975909111263 
1598	 0.258000125853725 
1599	 0.258001934047593 
1600	 0.258009084235321 
1601	 0.258004061952502 
1602	 0.258011225087126 
1603	 0.258020536963408 
1604	 0.258037092009349 
1605	 0.258066842493786 
1606	 0.258093269728435 
1607	 0.258129753690735 
1608	 0.258153768833285 
1609	 0.258171620732955 
1610	 0.258194820128474 
1611	 0.258217835299768 
1612	 0.258242800916005 
1613	 0.258260002761635 
1614	 0.258273375024859 
1615	 0.258277575873437 
1616	 0.258274947837311 
1617	 0.258285231119326 
1618	 0.258306504755663 
1619	 0.258323492493135 
1620	 0.258337725402912 
1621	 0.258335957738342 
1622	 0.258325771250616 
1623	 0.258303706014846 
1624	 0.258260554799453 
1625	 0.258237897856558 
1626	 0.258210058387213 
1627	 0.25819724528861 
1628	 0.258199418427869 
1629	 0.258198700176137 
1630	 0.258201898625281 
1631	 0.258208633040681 
1632	 0.258220183699039 
1633	 0.258230973400886 
1634	 0.258244311630286 
1635	 0.258256887072805 
1636	 0.2582827519515 
1637	 0.258272354648865 
1638	 0.258243665409593 
1639	 0.258221491239162 
1640	 0.258171020852536 
1641	 0.258148479663004 
1642	 0.258140438107391 
1643	 0.25814000261771 
1644	 0.258147833129932 
1645	 0.258157983905849 
1646	 0.258190718549941 
1647	 0.258195425543746 
1648	 0.258195770983268 
1649	 0.258176064685862 
1650	 0.258128572572153 
1651	 0.258099345198814 
1652	 0.258055266091312 
1653	 0.258037303787638 
1654	 0.258046007290117 
1655	 0.258034032621642 
1656	 0.258035135017104 
1657	 0.258005513252563 
1658	 0.257945144134345 
1659	 0.257904874824549 
1660	 0.257858627506895 
1661	 0.257814301250825 
1662	 0.257775875260315 
1663	 0.257741380639048 
1664	 0.257702310570355 
1665	 0.257669900863739 
1666	 0.257647853702655 
1667	 0.257627260665761 
1668	 0.25760906188132 
1669	 0.25758763016919 
1670	 0.25757414482892 
1671	 0.25755253827552 
1672	 0.257521349101477 
1673	 0.257493796703134 
1674	 0.257471628760731 
1675	 0.257438079003834 
1676	 0.257400951180424 
1677	 0.25735605790583 
1678	 0.257299101329177 
1679	 0.257246242646327 
1680	 0.257183208762385 
1681	 0.257135925543751 
1682	 0.257090589728919 
1683	 0.257059202847771 
1684	 0.257051682516706 
1685	 0.257024141458117 
1686	 0.257001706892643 
1687	 0.256964285160868 
1688	 0.256908742452721 
1689	 0.256856612085898 
1690	 0.256793969690062 
1691	 0.256745162677974 
1692	 0.25669671461948 
1693	 0.256658153450538 
1694	 0.256642764547703 
1695	 0.256601580448978 
1696	 0.256542623674874 
1697	 0.256506359149826 
1698	 0.25647317158853 
1699	 0.256435465099093 
1700	 0.256419016688594 
1701	 0.256376715525381 
1702	 0.256312749787407 
1703	 0.256248164893079 
1704	 0.25617544738833 
1705	 0.256108802477663 
1706	 0.256043129961843 
1707	 0.255962596171271 
1708	 0.255873486847977 
1709	 0.255794941766645 
1710	 0.255697275576898 
1711	 0.255627734849546 
1712	 0.255588202375741 
1713	 0.25553024315712 
1714	 0.255482936661602 
1715	 0.255414193341311 
1716	 0.255315459171727 
1717	 0.255253772773339 
1718	 0.255206238258427 
1719	 0.255143009817667 
1720	 0.255104998276725 
1721	 0.255033577126776 
1722	 0.254924652326693 
1723	 0.254833503350641 
1724	 0.254746885508522 
1725	 0.254645583193653 
1726	 0.254538462049603 
1727	 0.254426418462227 
1728	 0.254293251064998 
1729	 0.254191960873745 
1730	 0.25410203498801 
1731	 0.25401684413683 
1732	 0.253941737183059 
1733	 0.253878193813682 
1734	 0.253836389294874 
1735	 0.25375299068635 
1736	 0.253680707378825 
1737	 0.253570786909006 
1738	 0.25339902551377 
1739	 0.253279378457822 
1740	 0.253174503364221 
1741	 0.253050352110497 
1742	 0.252933793509781 
1743	 0.25281676807319 
1744	 0.252684596337795 
1745	 0.252553484515338 
1746	 0.252430666311586 
1747	 0.252281312174203 
1748	 0.252163879975806 
1749	 0.252051860160395 
1750	 0.251959577219131 
1751	 0.251895903889013 
1752	 0.251791254162067 
1753	 0.25167559505314 
1754	 0.251557811855301 
1755	 0.25142898228207 
1756	 0.251320260643967 
1757	 0.251214725993505 
1758	 0.251106218441652 
1759	 0.250985380552187 
1760	 0.250854735156245 
1761	 0.250732331460733 
1762	 0.250618370573786 
1763	 0.25050925606825 
1764	 0.250391249446078 
1765	 0.250272859486131 
1766	 0.250149848130141 
1767	 0.250012075879851 
1768	 0.249905650861232 
1769	 0.249832890863669 
1770	 0.249762717417906 
1771	 0.249716529050762 
1772	 0.249637584811199 
1773	 0.249506498933995 
1774	 0.249412305105648 
1775	 0.249320902799233 
1776	 0.24920373954678 
1777	 0.249120898272459 
1778	 0.249025994357395 
1779	 0.24890359353318 
1780	 0.248817803871372 
1781	 0.248729330838696 
1782	 0.248644130259683 
1783	 0.248597644430835 
1784	 0.248552979802955 
1785	 0.248544892966346 
1786	 0.24850888807573 
1787	 0.248462227274383 
1788	 0.248414916784725 
1789	 0.24836382007022 
1790	 0.248302773820822 
1791	 0.248215387482898 
1792	 0.24815673086482 
1793	 0.248094194956372 
1794	 0.248059626994313 
1795	 0.248074944450265 
1796	 0.248059559702904 
1797	 0.248041774023138 
1798	 0.248024064349307 
1799	 0.247995301628799 
1800	 0.247964986056606 
1801	 0.246116025592951 
1802	 0.246280499271921 
1803	 0.246453246166685 
1804	 0.24668203162541 
1805	 0.24693311526521 
1806	 0.247148121212406 
1807	 0.24734401569707 
1808	 0.247504183933625 
1809	 0.247615860649516 
1810	 0.247740794983561 
1811	 0.247856143969032 
1812	 0.247958161389924 
1813	 0.248048177875705 
1814	 0.248090061216821 
1815	 0.248118756152368 
1816	 0.248144814715353 
1817	 0.248182136019083 
1818	 0.248236427654775 
1819	 0.248274841444578 
1820	 0.248309767458324 
1821	 0.2483422136068 
1822	 0.248363853356772 
1823	 0.24835798980806 
1824	 0.248376166886149 
1825	 0.248378468070931 
1826	 0.24837442296683 
1827	 0.248397773616627 
1828	 0.248395685668076 
1829	 0.248374090083642 
1830	 0.248358360198768 
1831	 0.248342563944895 
1832	 0.248313391739821 
1833	 0.248270300927815 
1834	 0.24823806836503 
1835	 0.248226659496192 
1836	 0.248207895462351 
1837	 0.248159758758055 
1838	 0.248126347886131 
1839	 0.248100910579925 
1840	 0.248075209190674 
1841	 0.248019356071078 
1842	 0.247976573043172 
1843	 0.247948786007886 
1844	 0.247890798758144 
1845	 0.24780529317837 
1846	 0.247735758282312 
1847	 0.247660204183281 
1848	 0.247543702159323 
1849	 0.247435231737826 
1850	 0.247316543183403 
1851	 0.247202388583868 
1852	 0.247046510392152 
1853	 0.246873724444727 
1854	 0.246682062056375 
1855	 0.24648094544002 
1856	 0.246241779622502 
1857	 0.245973206910878 
1858	 0.245719074826271 
1859	 0.245424137499672 
1860	 0.245111011815201 
1861	 0.244784810177434 
1862	 0.244465656680553 
1863	 0.244082431820879 
1864	 0.243667449061552 
1865	 0.243246693206004 
1866	 0.242776960279567 
1867	 0.242267183907272 
1868	 0.241713661680551 
1869	 0.241110005465256 
1870	 0.240471517718408 
1871	 0.239790075117119 
1872	 0.239065698717687 
1873	 0.238329408929581 
1874	 0.23755474664249 
1875	 0.236713574556163 
1876	 0.235831104431451 
1877	 0.234865640470729 
1878	 0.233805961238337 
1879	 0.232676584436788 
1880	 0.231466389265325 
1881	 0.230163205584061 
1882	 0.228807331598958 
1883	 0.227390965815017 
1884	 0.225861111977296 
1885	 0.224299935162742 
1886	 0.222677848326796 
1887	 0.220912035789444 
1888	 0.219104799878837 
1889	 0.217195407020496 
1890	 0.215184576875615 
1891	 0.21317212596613 
1892	 0.211096534609438 
1893	 0.209011359351197 
1894	 0.206893326915715 
1895	 0.204772919184268 
1896	 0.202615168239286 
1897	 0.200467035807385 
1898	 0.198300155624719 
1899	 0.196161364183244 
1900	 0.194081086481391 
1901	 0.192022918008826 
1902	 0.190045799354752 
1903	 0.188148727680704 
1904	 0.186298030283573 
1905	 0.184481161711126 
1906	 0.182779431901312 
1907	 0.181143572932514 
1908	 0.179587266475004 
1909	 0.178130538627264 
1910	 0.17672838262976 
1911	 0.175413371572047 
1912	 0.174192726139109 
1913	 0.173037802661384 
1914	 0.171965332028005 
1915	 0.170961271734362 
1916	 0.170033584334285 
1917	 0.169159494496358 
1918	 0.168364769466342 
1919	 0.167612188911867 
1920	 0.166929731747846 
1921	 0.166303913723885 
1922	 0.165745335279677 
1923	 0.165255018422544 
1924	 0.164798098970128 
1925	 0.164407929996055 
1926	 0.164043228714356 
1927	 0.163700082279957 
1928	 0.163409625257817 
1929	 0.163207286077882 
1930	 0.163024056629737 
1931	 0.162909182539118 
1932	 0.162827197022663 
1933	 0.162741416400098 
1934	 0.162712926540531 
1935	 0.162704914315276 
1936	 0.162727115656026 
1937	 0.162777355584971 
1938	 0.162873395122134 
1939	 0.162953238077329 
1940	 0.163035439481756 
1941	 0.163154180346028 
1942	 0.163261169292432 
1943	 0.16343749163146 
1944	 0.163656274329854 
1945	 0.163883932651202 
1946	 0.164122245586023 
1947	 0.164382018403859 
1948	 0.164644040353073 
1949	 0.164911291700706 
1950	 0.16519574327411 
1951	 0.165488952059514 
1952	 0.165807643581611 
1953	 0.166127666760128 
1954	 0.166457309732365 
1955	 0.166829205942626 
1956	 0.167221909253404 
1957	 0.167625681997981 
1958	 0.16807236203358 
1959	 0.168501758064519 
1960	 0.168934195476774 
1961	 0.169360899423439 
1962	 0.169777749815265 
1963	 0.170214529631567 
1964	 0.170657913138476 
1965	 0.17110742838757 
1966	 0.171558693200173 
1967	 0.172038147305211 
1968	 0.17250221682156 
1969	 0.172955372226739 
1970	 0.173423198277296 
1971	 0.173882784546784 
1972	 0.174379149187514 
1973	 0.174903853993991 
1974	 0.175416215766681 
1975	 0.175954638448453 
1976	 0.176484769683759 
1977	 0.176987711852741 
1978	 0.17749285462623 
1979	 0.178001839196245 
1980	 0.178522514171538 
1981	 0.179028883644703 
1982	 0.179527083641475 
1983	 0.180029249646668 
1984	 0.180522633850228 
1985	 0.181025043721148 
1986	 0.181540621176079 
1987	 0.182047345244257 
1988	 0.18255623967925 
1989	 0.183052939230961 
1990	 0.183556675741162 
1991	 0.184070330006349 
1992	 0.184580293326914 
1993	 0.185099129047244 
1994	 0.185616444674218 
1995	 0.186129038188887 
1996	 0.186644103997874 
1997	 0.187172944503903 
1998	 0.187685641566136 
1999	 0.188185136192357 
2000	 0.188690595877316 
2001	 0.189198263289447 
2002	 0.189696377049666 
2003	 0.190199626293808 
2004	 0.190692704188371 
2005	 0.191171277069742 
2006	 0.191629991467022 
2007	 0.192099395704802 
2008	 0.192558054082796 
2009	 0.193025144057103 
2010	 0.193506553532791 
2011	 0.193972416076516 
2012	 0.194429661545457 
2013	 0.194888305964976 
2014	 0.19533172645913 
2015	 0.195792614545887 
2016	 0.196257539159726 
2017	 0.19671112195053 
2018	 0.19716926780441 
2019	 0.197638066568856 
2020	 0.19808019190106 
2021	 0.198509597807085 
2022	 0.198942506787136 
2023	 0.199353467710258 
2024	 0.199781110075049 
2025	 0.200221024432506 
2026	 0.200653953529098 
2027	 0.201095303074752 
2028	 0.201523116462667 
2029	 0.201946654662303 
2030	 0.202364878335445 
2031	 0.202784563879731 
2032	 0.203201331273724 
2033	 0.203610510949023 
2034	 0.20402034093213 
2035	 0.204416204915099 
2036	 0.204815728160187 
2037	 0.205184629446588 
2038	 0.205522745073125 
2039	 0.205868610765376 
2040	 0.206202330580499 
2041	 0.206516381055648 
2042	 0.20683735862636 
2043	 0.207180628558135 
2044	 0.207529686295071 
2045	 0.207883608727583 
2046	 0.208237160189439 
2047	 0.208628608276273 
2048	 0.20896852374209 
2049	 0.209287640104515 
2050	 0.209594252516741 
2051	 0.209848490109999 
2052	 0.210139218596339 
2053	 0.210442726091958 
2054	 0.210738175192348 
2055	 0.211054029220481 
2056	 0.211356279551782 
2057	 0.211642552903843 
2058	 0.211904510877218 
2059	 0.212185144566221 
2060	 0.212456497626037 
2061	 0.212744245900754 
2062	 0.213052844170321 
2063	 0.213343365658105 
2064	 0.213628886714068 
2065	 0.213919215335447 
2066	 0.214219192366234 
2067	 0.214495359979386 
2068	 0.214759704168455 
2069	 0.215020739152298 
2070	 0.215293806164966 
2071	 0.215553437281461 
2072	 0.215822720875696 
2073	 0.216130504021007 
2074	 0.216382381379548 
2075	 0.216593052122372 
2076	 0.216825302083186 
2077	 0.217025476500355 
2078	 0.217265762981099 
2079	 0.217540640740215 
2080	 0.217801579785957 
2081	 0.218083832829985 
2082	 0.218347240136312 
2083	 0.218599732621539 
2084	 0.218844677785846 
2085	 0.219086375691007 
2086	 0.219314860796652 
2087	 0.219558509452494 
2088	 0.219805818120057 
2089	 0.220048613906088 
2090	 0.220298620693437 
2091	 0.220539162157831 
2092	 0.220772424564766 
2093	 0.221003914421477 
2094	 0.221235334977883 
2095	 0.221461443970453 
2096	 0.221669037186983 
2097	 0.221893980208768 
2098	 0.222127574743405 
2099	 0.222359269959526 
2100	 0.222592211691814 
2101	 0.222843484719822 
2102	 0.223064117763533 
2103	 0.223256867396119 
2104	 0.223481233313939 
2105	 0.223693131770871 
2106	 0.223939068761418 
2107	 0.224227100774648 
2108	 0.224494314545891 
2109	 0.224774695732506 
2110	 0.225041882816083 
2111	 0.225297665934608 
2112	 0.225555504031764 
2113	 0.22582753472369 
2114	 0.226070975832129 
2115	 0.226297231429067 
2116	 0.226504906882585 
2117	 0.226721908801255 
2118	 0.226908980303768 
2119	 0.227131347032916 
2120	 0.22739678807901 
2121	 0.227610876177424 
2122	 0.22780288150927 
2123	 0.228008548507979 
2124	 0.22820166215693 
2125	 0.228387852290336 
2126	 0.228600278002495 
2127	 0.228774949718987 
2128	 0.228906549654751 
2129	 0.229044402877082 
2130	 0.229171014418984 
2131	 0.229288549749534 
2132	 0.229415971832169 
2133	 0.229549857083734 
2134	 0.229670828095148 
2135	 0.229797947757165 
2136	 0.229900810302726 
2137	 0.229981201969795 
2138	 0.23006749838211 
2139	 0.230148543398397 
2140	 0.230218990729373 
2141	 0.23029154122007 
2142	 0.2303460787774 
2143	 0.230391523266079 
2144	 0.230415690610013 
2145	 0.230416811086634 
2146	 0.23041485559524 
2147	 0.230395662400761 
2148	 0.230361500037687 
2149	 0.230342439420419 
2150	 0.230326362649545 
2151	 0.230310051560141 
2152	 0.230307600435389 
2153	 0.230276436757423 
2154	 0.230247891848982 
2155	 0.230183192354977 
2156	 0.2300883707098 
2157	 0.22998689212446 
2158	 0.229854812391134 
2159	 0.229727552478561 
2160	 0.229583037097985 
2161	 0.229450234222764 
2162	 0.229310961687829 
2163	 0.22918737185309 
2164	 0.229065949020799 
2165	 0.228977477546886 
2166	 0.228865707823223 
2167	 0.228758434193755 
2168	 0.228642169548764 
2169	 0.228515071016385 
2170	 0.228389718446902 
2171	 0.228263106587315 
2172	 0.228140545356381 
2173	 0.228025321193901 
2174	 0.227891559302595 
2175	 0.227751045966914 
2176	 0.227608266071133 
2177	 0.227458002477772 
2178	 0.227295776144744 
2179	 0.227112563141029 
2180	 0.226951938475921 
2181	 0.226793852058415 
2182	 0.226631656435311 
2183	 0.226469841332707 
2184	 0.226337448508831 
2185	 0.226193896837876 
2186	 0.226030813819364 
2187	 0.225898765996994 
2188	 0.225789991923242 
2189	 0.225679366074011 
2190	 0.225581579829945 
2191	 0.225477097721887 
2192	 0.225372447264608 
2193	 0.22527446308438 
2194	 0.225185263123898 
2195	 0.22508509860053 
2196	 0.224976621779331 
2197	 0.224881813031135 
2198	 0.224783833229698 
2199	 0.224690557869963 
2200	 0.224594905346661 
2201	 0.224530766017444 
2202	 0.224481031871089 
2203	 0.224435499571099 
2204	 0.224419372866382 
2205	 0.224447321508217 
2206	 0.224452985866553 
2207	 0.224471658191089 
2208	 0.224466421307491 
2209	 0.224443137837269 
2210	 0.224441744985228 
2211	 0.224428374158936 
2212	 0.224440564892574 
2213	 0.224487219792411 
2214	 0.224517963393896 
2215	 0.224558255747646 
2216	 0.22458135468926 
2217	 0.224589776813378 
2218	 0.224603045668663 
2219	 0.224603404201789 
2220	 0.224615979557929 
2221	 0.224646716783703 
2222	 0.224666518209666 
2223	 0.22466181520159 
2224	 0.224669649631912 
2225	 0.224691250536912 
2226	 0.224717076130962 
2227	 0.224730718006131 
2228	 0.22476421855363 
2229	 0.224772935896682 
2230	 0.224737431303197 
2231	 0.224745431813573 
2232	 0.224786802447439 
2233	 0.224792830244918 
2234	 0.224807715438315 
2235	 0.224798411697456 
2236	 0.224749420389712 
2237	 0.224715712610556 
2238	 0.224662018015077 
2239	 0.224639673705457 
2240	 0.2246576464508 
2241	 0.224640065215047 
2242	 0.224626874045463 
2243	 0.224600846959765 
2244	 0.224545751592367 
2245	 0.224477550219362 
2246	 0.224427036268435 
2247	 0.224397765036142 
2248	 0.224372695592812 
2249	 0.224359601041264 
2250	 0.224340073387124 
2251	 0.224332922582637 
2252	 0.224304007732714 
2253	 0.224268273333847 
2254	 0.224220975717207 
2255	 0.224156753102763 
2256	 0.224110044079206 
2257	 0.224042463014804 
2258	 0.224008004019971 
2259	 0.223994732222825 
2260	 0.223986961734447 
2261	 0.224025723564639 
2262	 0.22401685203309 
2263	 0.223994221490149 
2264	 0.22396364359872 
2265	 0.22387906346425 
2266	 0.223837408312024 
2267	 0.223826706807934 
2268	 0.223803741402734 
2269	 0.223791879062483 
2270	 0.223783982016599 
2271	 0.223752152019965 
2272	 0.223694433507881 
2273	 0.223622374514088 
2274	 0.223504760273001 
2275	 0.223396027995404 
2276	 0.223250299599356 
2277	 0.223158518298934 
2278	 0.223073295205859 
2279	 0.22302231242856 
2280	 0.223035770097152 
2281	 0.222979382758792 
2282	 0.222915838858108 
2283	 0.222842920767469 
2284	 0.222706518708767 
2285	 0.222631841456752 
2286	 0.222595006839973 
2287	 0.222541626029291 
2288	 0.222505723835977 
2289	 0.222470859432998 
2290	 0.222444304388544 
2291	 0.222392038094372 
2292	 0.222336042540186 
2293	 0.222266134015579 
2294	 0.22216539824766 
2295	 0.222073870912962 
2296	 0.221987493160059 
2297	 0.221884176852086 
2298	 0.221808592393668 
2299	 0.221726870183374 
2300	 0.221653096014579 
2301	 0.221598300398517 
2302	 0.221496616987284 
2303	 0.221370576755438 
2304	 0.22121672307785 
2305	 0.22104467580607 
2306	 0.220886081238816 
2307	 0.220709943548196 
2308	 0.220564401052126 
2309	 0.220455735976504 
2310	 0.22031212199763 
2311	 0.220169145866502 
2312	 0.220000539728632 
2313	 0.21978731271606 
2314	 0.219613372252406 
2315	 0.219441497734461 
2316	 0.219291108269182 
2317	 0.219186317670167 
2318	 0.219028192230952 
2319	 0.218828653257101 
2320	 0.218684206181746 
2321	 0.218559979613833 
2322	 0.218413232004978 
2323	 0.218282547782798 
2324	 0.218157222418262 
2325	 0.218003289265724 
2326	 0.217866863932356 
2327	 0.217765121076969 
2328	 0.21767260876807 
2329	 0.217484755342051 
2330	 0.217281482636791 
2331	 0.217134441516415 
2332	 0.216986099635606 
2333	 0.216860353055621 
2334	 0.216792673285346 
2335	 0.216691049877904 
2336	 0.21651997655507 
2337	 0.216371417903303 
2338	 0.21620010060905 
2339	 0.215978599371993 
2340	 0.215766727471032 
2341	 0.215583275973792 
2342	 0.215411558305119 
2343	 0.215290887190098 
2344	 0.215216881442037 
2345	 0.215107150969837 
2346	 0.21505454787717 
2347	 0.214875868113243 
2348	 0.214618210374243 
2349	 0.214367951699979 
2350	 0.214031837261785 
2351	 0.213754148140469 
2352	 0.213470916036317 
2353	 0.213237750222587 
2354	 0.213066707371899 
2355	 0.212832059868965 
2356	 0.212648241784804 
2357	 0.212381499726433 
2358	 0.211981191841721 
2359	 0.211684877112345 
2360	 0.211396446304057 
2361	 0.211113596404618 
2362	 0.210892232114161 
2363	 0.210653291221152 
2364	 0.210391350328018 
2365	 0.210159408792947 
2366	 0.209972178177591 
2367	 0.209733473442017 
2368	 0.209494500156165 
2369	 0.209224784389895 
2370	 0.20889909865204 
2371	 0.208598256870009 
2372	 0.208282719453236 
2373	 0.207987425322709 
2374	 0.207730298496001 
2375	 0.20747397010253 
2376	 0.207228291077569 
2377	 0.206942984106039 
2378	 0.206652789837145 
2379	 0.20631894322213 
2380	 0.205987539954488 
2381	 0.205699491824435 
2382	 0.205375758319478 
2383	 0.205057915003158 
2384	 0.2047362872887 
2385	 0.204411564705378 
2386	 0.20407295263744 
2387	 0.203726739553923 
2388	 0.203441768240345 
2389	 0.203207386262038 
2390	 0.202928726297631 
2391	 0.202633534579925 
2392	 0.202374307593449 
2393	 0.20201467211995 
2394	 0.201709161403648 
2395	 0.201440965986509 
2396	 0.201048110419527 
2397	 0.200663739204475 
2398	 0.200181536182238 
2399	 0.199708268680773 
2400	 0.199345509827195 
2401	 0.198939202674068 
2402	 0.198594771562034 
2403	 0.198286145834674 
2404	 0.197949868162314 
2405	 0.197633656139795 
2406	 0.19728529008435 
2407	 0.196941996159994 
2408	 0.196544563730148 
2409	 0.196153376688823 
2410	 0.195796545243077 
2411	 0.195366283743874 
2412	 0.195015126842319 
2413	 0.194670968956716 
2414	 0.194259736923025 
2415	 0.193860477312008 
2416	 0.193430590995918 
2417	 0.192873742601485 
2418	 0.192460815811145 
2419	 0.192164763103097 
2420	 0.191798184582091 
2421	 0.191469983384128 
2422	 0.191133225544968 
2423	 0.190701354447989 
2424	 0.190366546105654 
2425	 0.190127185618616 
2426	 0.189796831039466 
2427	 0.189497968483872 
2428	 0.189115647207373 
2429	 0.188652139639139 
2430	 0.188231028129136 
2431	 0.187708651482272 
2432	 0.187292768344424 
2433	 0.187022420832199 
2434	 0.186615423917523 
2435	 0.186202988451747 
2436	 0.185800118286046 
2437	 0.185223251983475 
2438	 0.184803215765932 
2439	 0.184569144044513 
2440	 0.184196081650553 
2441	 0.183835765917191 
2442	 0.183450505835066 
2443	 0.182889153159407 
2444	 0.182501565913478 
2445	 0.182226318085086 
2446	 0.181893345593936 
2447	 0.181683275698692 
2448	 0.181378266862047 
2449	 0.181009413514738 
2450	 0.180633336714265 
2451	 0.180137315619934 
2452	 0.179697084825271 
2453	 0.17931106310452 
2454	 0.178839833655775 
2455	 0.178339635857664 
2456	 0.1779493009177 
2457	 0.177527543336547 
2458	 0.177165402591577 
2459	 0.176946736299112 
2460	 0.176641383024876 
2461	 0.176294770362229 
2462	 0.175990011798472 
2463	 0.175711041494332 
2464	 0.175394731897604 
2465	 0.175049906929142 
2466	 0.174677360522446 
2467	 0.174287518392678 
2468	 0.173892699159923 
2469	 0.173435431195785 
2470	 0.173085789866354 
2471	 0.172828687176451 
2472	 0.172372618964844 
2473	 0.17203356856573 
2474	 0.171754991073715 
2475	 0.17132793864082 
2476	 0.171019116535238 
2477	 0.170774611033283 
2478	 0.170433463930939 
2479	 0.170056721875705 
2480	 0.169716619617805 
2481	 0.169367360814382 
2482	 0.169005696670306 
2483	 0.168664803302658 
2484	 0.168414658405809 
2485	 0.168247145177371 
2486	 0.168060111760797 
2487	 0.16794250293536 
2488	 0.167794006489275 
2489	 0.167474772289356 
2490	 0.167242006215813 
2491	 0.167083922213492 
2492	 0.166695378829146 
2493	 0.166322840167016 
2494	 0.166051502742653 
2495	 0.165560725110508 
2496	 0.165181205089487 
2497	 0.165047059508208 
2498	 0.164713829241206 
2499	 0.164420238134194 
2500	 0.164395601984498 
