Wavelength	mm23-200007.asd
350	 6.15272839248663E-02 
351	 5.86759338087851E-02 
352	 5.15872329398903E-02 
353	 0.043748168017707 
354	 4.74145423079972E-02 
355	 5.15902920234966E-02 
356	 5.10969620872604E-02 
357	 4.57887132002071E-02 
358	 0.046177215207824 
359	 4.53745581906951E-02 
360	 4.49903888289177E-02 
361	 5.09435556637268E-02 
362	 5.11472438168376E-02 
363	 4.89971536952689E-02 
364	 4.77861063021936E-02 
365	 4.74201994315747E-02 
366	 4.82816986625607E-02 
367	 4.81653254423972E-02 
368	 4.65176578119766E-02 
369	 5.24450076435008E-02 
370	 5.33316687693529E-02 
371	 4.98830759291329E-02 
372	 5.16344507080697E-02 
373	 5.40992381340173E-02 
374	 5.51228254552562E-02 
375	 5.46648214287445E-02 
376	 5.58624438250528E-02 
377	 5.45461847364453E-02 
378	 5.45473747554732E-02 
379	 5.94833678441599E-02 
380	 6.25320510276992E-02 
381	 6.01777821305898E-02 
382	 5.77283947089035E-02 
383	 6.51308843333058E-02 
384	 6.56803512394256E-02 
385	 6.43594782575871E-02 
386	 6.56350549946062E-02 
387	 6.66915350124336E-02 
388	 6.95265850701994E-02 
389	 7.25628981226213E-02 
390	 7.36334540494228E-02 
391	 7.30911115351304E-02 
392	 7.46723268364262E-02 
393	 0.078434351212324 
394	 8.13248044205596E-02 
395	 8.45752232512322E-02 
396	 8.66315068537885E-02 
397	 8.73680674934482E-02 
398	 9.06645483354862E-02 
399	 9.35347819068453E-02 
400	 9.59059924075157E-02 
401	 9.85779899560956E-02 
402	 0.101035759143611 
403	 0.10238206250727 
404	 0.103158337136476 
405	 0.105263870328049 
406	 0.107349905060547 
407	 0.109022227727904 
408	 0.1101025305225 
409	 0.110370257847978 
410	 0.110275524008803 
411	 0.11029727082459 
412	 0.110785834540774 
413	 0.111391426711509 
414	 0.110998831254385 
415	 0.109651207524711 
416	 0.108877617192441 
417	 0.107640678394334 
418	 0.106902524084959 
419	 0.107121651384758 
420	 0.105584766122663 
421	 0.103588975545549 
422	 0.102312128740598 
423	 0.102435349938681 
424	 0.100625533268624 
425	 9.82591512451515E-02 
426	 9.64733666698479E-02 
427	 9.47757048570773E-02 
428	 9.38460327974036E-02 
429	 9.30236434276807E-02 
430	 0.091679723649781 
431	 9.15924554743155E-02 
432	 9.16410045447683E-02 
433	 9.18679317352685E-02 
434	 9.34693406829031E-02 
435	 9.45733974340808E-02 
436	 9.58358616463205E-02 
437	 9.78888059297263E-02 
438	 9.98956138870096E-02 
439	 0.102665247525339 
440	 0.105820522996173 
441	 0.108500747472829 
442	 0.111164389723534 
443	 0.114199956655678 
444	 0.117638686995544 
445	 0.121018819775361 
446	 0.124233535239382 
447	 0.127311488303736 
448	 0.130364693170447 
449	 0.133560335417332 
450	 0.137001002810105 
451	 0.140518061225672 
452	 0.143750316295774 
453	 0.146746149313487 
454	 0.149789763198268 
455	 0.153041395456645 
456	 0.156274894543124 
457	 0.159359562245738 
458	 0.162502062003534 
459	 0.165926310367353 
460	 0.168719638926852 
461	 0.17162657467886 
462	 0.174902930183542 
463	 0.177912834825561 
464	 0.180956465659115 
465	 0.183992160723282 
466	 0.186958029369017 
467	 0.190066025653087 
468	 0.193117959806599 
469	 0.19596444663936 
470	 0.19855204084842 
471	 0.201566938159033 
472	 0.204577631919503 
473	 0.207246310768768 
474	 0.209876757635071 
475	 0.212613687203968 
476	 0.215314003625253 
477	 0.217747229895941 
478	 0.220117306393093 
479	 0.22255480106907 
480	 0.225015936815369 
481	 0.227235554840151 
482	 0.229624823283491 
483	 0.231961915097977 
484	 0.233977943212346 
485	 0.235965675464279 
486	 0.237938396746659 
487	 0.239799814073846 
488	 0.241394286867467 
489	 0.243002171692332 
490	 0.244616655711479 
491	 0.246181146582313 
492	 0.247656415672921 
493	 0.249032369839179 
494	 0.250280157468817 
495	 0.251385963159455 
496	 0.252467827981597 
497	 0.253551836346216 
498	 0.25459428443518 
499	 0.255468830116223 
500	 0.256288724554225 
501	 0.257079338284664 
502	 0.257836221739046 
503	 0.258540801352767 
504	 0.259257891210744 
505	 0.259914519873688 
506	 0.260330551528921 
507	 0.260822259960392 
508	 0.261342605686097 
509	 0.261799611803706 
510	 0.262187934975323 
511	 0.262491750439729 
512	 0.2627752411636 
513	 0.263128486880587 
514	 0.263445913621829 
515	 0.263809222963116 
516	 0.264184485125896 
517	 0.264287422311864 
518	 0.264567114503768 
519	 0.264892346300237 
520	 0.265025994984891 
521	 0.265248127019326 
522	 0.265502946237001 
523	 0.265763813422035 
524	 0.266051950920105 
525	 0.266167802826495 
526	 0.266264482619033 
527	 0.266492590959357 
528	 0.26673354054757 
529	 0.26699582301769 
530	 0.267247290747068 
531	 0.267437327036861 
532	 0.267605200046249 
533	 0.267840272531186 
534	 0.2681437381388 
535	 0.268317067261287 
536	 0.268514550584798 
537	 0.268774276185401 
538	 0.269078963068732 
539	 0.269356103199588 
540	 0.269662753767282 
541	 0.269997694135453 
542	 0.270267821832985 
543	 0.270551901589312 
544	 0.270842483378938 
545	 0.271137328725125 
546	 0.271560792691831 
547	 0.271954377284559 
548	 0.272296476990739 
549	 0.272686517812149 
550	 0.273111967945674 
551	 0.273565153917255 
552	 0.274028118686951 
553	 0.274456563895933 
554	 0.274892164708312 
555	 0.27536632987931 
556	 0.275899778592415 
557	 0.276475158731597 
558	 0.27702582597914 
559	 0.277561232135592 
560	 0.278242293307386 
561	 0.278818014034326 
562	 0.279371348226433 
563	 0.280060930203847 
564	 0.280773129781502 
565	 0.281456035873434 
566	 0.282149769621775 
567	 0.282989168489253 
568	 0.28385747568665 
569	 0.284680448541378 
570	 0.2854399809281 
571	 0.286261004588244 
572	 0.287103101675328 
573	 0.287984271758892 
574	 0.288948997348606 
575	 0.289841404638946 
576	 0.290654395916985 
577	 0.291433228801667 
578	 0.292273124267499 
579	 0.293153366738633 
580	 0.294118851716904 
581	 0.295229403222002 
582	 0.29646916437336 
583	 0.297715718310938 
584	 0.298886046316409 
585	 0.299971736378805 
586	 0.300957623408702 
587	 0.301906191478953 
588	 0.302894404817977 
589	 0.303956895977862 
590	 0.304999864216974 
591	 0.306013429339426 
592	 0.307072127930882 
593	 0.308220857429017 
594	 0.30931813547 
595	 0.31028972676169 
596	 0.311324233452531 
597	 0.312476946624649 
598	 0.313698580816492 
599	 0.314886359293096 
600	 0.316051191786732 
601	 0.317146892748764 
602	 0.318152482162509 
603	 0.319099069885248 
604	 0.320044266560543 
605	 0.320985678798288 
606	 0.321917181021558 
607	 0.322967267078461 
608	 0.323900785726922 
609	 0.32472261793321 
610	 0.325728823359698 
611	 0.326714547716369 
612	 0.327681701170297 
613	 0.328618162261675 
614	 0.329298817540349 
615	 0.330008779500313 
616	 0.330775535252213 
617	 0.331451101973399 
618	 0.332192905348788 
619	 0.332882879473282 
620	 0.333468302131257 
621	 0.334120571084077 
622	 0.334745620283009 
623	 0.335321514206559 
624	 0.335866385118408 
625	 0.336472851988158 
626	 0.337040426949366 
627	 0.337555741286585 
628	 0.33813888596594 
629	 0.338678981482972 
630	 0.339181993461206 
631	 0.339684659687517 
632	 0.34020777313434 
633	 0.340715334648648 
634	 0.341197343975196 
635	 0.341669901126003 
636	 0.342185710857732 
637	 0.342687414114378 
638	 0.343118966008865 
639	 0.343455567150128 
640	 0.343920539380244 
641	 0.344445433859309 
642	 0.344850469624414 
643	 0.345287684512612 
644	 0.345759819241499 
645	 0.346233364934366 
646	 0.34664173752339 
647	 0.347048738857611 
648	 0.347447053182113 
649	 0.347834926850874 
650	 0.34833464510226 
651	 0.348738375427308 
652	 0.349069609349375 
653	 0.349548077469018 
654	 0.35003801456104 
655	 0.350446053528083 
656	 0.350785470141073 
657	 0.351330429856872 
658	 0.351756988757918 
659	 0.352102570587184 
660	 0.352547399853009 
661	 0.352919665485553 
662	 0.353359072334441 
663	 0.353858918647599 
664	 0.354155561709188 
665	 0.354621794217584 
666	 0.355130006876315 
667	 0.355492180376183 
668	 0.35589884438042 
669	 0.35636633755688 
670	 0.35683501865062 
671	 0.357197779984925 
672	 0.357613715182743 
673	 0.358019130939055 
674	 0.358378561814642 
675	 0.358813435279878 
676	 0.359293210362995 
677	 0.359763869548476 
678	 0.360168947527077 
679	 0.360531281875003 
680	 0.360930018457175 
681	 0.361365495473432 
682	 0.361730408852463 
683	 0.362167663751363 
684	 0.362591755923917 
685	 0.362932187066072 
686	 0.363399288935296 
687	 0.363844757318129 
688	 0.364236238091045 
689	 0.364631154241781 
690	 0.365080008957593 
691	 0.365494119971387 
692	 0.365851722815906 
693	 0.366314008499651 
694	 0.366711697666588 
695	 0.367111730740536 
696	 0.367602476070838 
697	 0.367893620116155 
698	 0.368175350555377 
699	 0.368543721044877 
700	 0.368960366630023 
701	 0.36929827027553 
702	 0.369619912549934 
703	 0.369992779332845 
704	 0.370381396463185 
705	 0.370708495835136 
706	 0.371016139509242 
707	 0.371391262945322 
708	 0.371715479192547 
709	 0.372031166511521 
710	 0.37236044038974 
711	 0.372674905961189 
712	 0.372915263117626 
713	 0.373077626189279 
714	 0.373220936216722 
715	 0.37356555962515 
716	 0.373885269403031 
717	 0.374094247501401 
718	 0.374231854929714 
719	 0.374429210239431 
720	 0.374585375518899 
721	 0.374653428557783 
722	 0.374752300691758 
723	 0.374925779444865 
724	 0.375081543299823 
725	 0.375111797001472 
726	 0.375107563279457 
727	 0.375077162791217 
728	 0.375061015220346 
729	 0.375117817418529 
730	 0.375024031418013 
731	 0.374892535758289 
732	 0.37480990105227 
733	 0.37463638763613 
734	 0.374524867983709 
735	 0.374409951229126 
736	 0.374168266411156 
737	 0.373917255011079 
738	 0.373665514033456 
739	 0.373397949725484 
740	 0.373083586475948 
741	 0.372763558832515 
742	 0.372386036686773 
743	 0.371939809859972 
744	 0.371580648106095 
745	 0.371174920754645 
746	 0.370703158027742 
747	 0.370205308038586 
748	 0.369719321820757 
749	 0.369199237309691 
750	 0.368656803555991 
751	 0.368178197611838 
752	 0.367566314426535 
753	 0.366885457961843 
754	 0.366239034941612 
755	 0.365662606446811 
756	 0.365021918094929 
757	 0.364335402380922 
758	 0.363684651715419 
759	 0.362964321293982 
760	 0.362205075035878 
761	 0.361440333869697 
762	 0.360689855788328 
763	 0.360017529669705 
764	 0.359307768662777 
765	 0.358482957765026 
766	 0.357691450264799 
767	 0.356962905750763 
768	 0.356206419478109 
769	 0.355310298771941 
770	 0.354500526438166 
771	 0.353730143882451 
772	 0.352939844429658 
773	 0.352090758391919 
774	 0.351295139671797 
775	 0.350485156210093 
776	 0.349613129761571 
777	 0.348797426121095 
778	 0.34801627519726 
779	 0.347234347834386 
780	 0.346414303505867 
781	 0.345562744935736 
782	 0.34475575765167 
783	 0.343986708233317 
784	 0.343164171259562 
785	 0.34236930799461 
786	 0.341595955760992 
787	 0.340828550062619 
788	 0.340068754583144 
789	 0.339341581689121 
790	 0.338593259067545 
791	 0.337774846681456 
792	 0.337018626520634 
793	 0.336269979706271 
794	 0.335521950289194 
795	 0.334807136917812 
796	 0.333987585774872 
797	 0.333230810809952 
798	 0.332607367993561 
799	 0.331927589274939 
800	 0.33126328480659 
801	 0.330566240688999 
802	 0.329814877688148 
803	 0.329212365538297 
804	 0.328643400145282 
805	 0.328023476254907 
806	 0.327314713042068 
807	 0.326621946449668 
808	 0.326013789199947 
809	 0.325473655207984 
810	 0.324884484397909 
811	 0.324315128352853 
812	 0.323709638719923 
813	 0.323065954901387 
814	 0.322601917508322 
815	 0.322131360639422 
816	 0.321618016047591 
817	 0.32108775336098 
818	 0.320522987654254 
819	 0.320046300064111 
820	 0.319596975625062 
821	 0.318991711729589 
822	 0.318621201583346 
823	 0.318157220674564 
824	 0.317515167568602 
825	 0.317178098632734 
826	 0.31682251633261 
827	 0.316434576204597 
828	 0.316045444101499 
829	 0.315547383742348 
830	 0.31511309039526 
831	 0.314764145544978 
832	 0.314441356839645 
833	 0.314134004382344 
834	 0.313804889053561 
835	 0.313455607339077 
836	 0.313125142448734 
837	 0.312827370580114 
838	 0.3125602112279 
839	 0.312298536171694 
840	 0.311986237127529 
841	 0.311656978560534 
842	 0.311388645684886 
843	 0.311218503250882 
844	 0.311036588009282 
845	 0.310788807831702 
846	 0.310506099324586 
847	 0.310275818086901 
848	 0.310220882694701 
849	 0.310144787268587 
850	 0.309978635655775 
851	 0.309782262986129 
852	 0.309515052407194 
853	 0.309386722824213 
854	 0.309403020679569 
855	 0.309240259497716 
856	 0.309122157503963 
857	 0.309045211219727 
858	 0.308974795446139 
859	 0.30892677707314 
860	 0.308960989150089 
861	 0.308959283277559 
862	 0.308814438935775 
863	 0.308739769286894 
864	 0.308794784857676 
865	 0.308859801761071 
866	 0.308762489192567 
867	 0.308778207777752 
868	 0.308847357194634 
869	 0.308922305062147 
870	 0.308999357830359 
871	 0.309057106615829 
872	 0.309167919909271 
873	 0.309343208694535 
874	 0.309475849265983 
875	 0.309577176915964 
876	 0.309651770070212 
877	 0.30974637172281 
878	 0.310021904800461 
879	 0.310251766777449 
880	 0.310446838000205 
881	 0.310679719763016 
882	 0.310896053975867 
883	 0.311094242621034 
884	 0.311299283174403 
885	 0.311545127615867 
886	 0.311826100407836 
887	 0.312127412573423 
888	 0.312380748451576 
889	 0.312515833476075 
890	 0.312848637432223 
891	 0.31327446681084 
892	 0.313682004688995 
893	 0.314035249891121 
894	 0.314429877460147 
895	 0.31480769069904 
896	 0.315141213670252 
897	 0.31550931930397 
898	 0.315986503022247 
899	 0.316478491826311 
900	 0.316903993942445 
901	 0.317344915859968 
902	 0.317789780840533 
903	 0.318276157182702 
904	 0.318810747504416 
905	 0.319231218326174 
906	 0.319752907380775 
907	 0.320327502765612 
908	 0.320832799566783 
909	 0.321497708321854 
910	 0.322112808024365 
911	 0.322659927154122 
912	 0.323247230258381 
913	 0.323794950982535 
914	 0.324434637975405 
915	 0.325139085774546 
916	 0.325753207944583 
917	 0.326440718283672 
918	 0.327122451138904 
919	 0.327771966202598 
920	 0.328455379586216 
921	 0.329205706284309 
922	 0.329968417695548 
923	 0.330715926276838 
924	 0.331485697489575 
925	 0.332228192982238 
926	 0.333023974482213 
927	 0.333862462691016 
928	 0.33452379392192 
929	 0.335340410865446 
930	 0.336251427385049 
931	 0.337149257675282 
932	 0.338082989602633 
933	 0.338853279890103 
934	 0.33962002846176 
935	 0.340557530298425 
936	 0.341572943987639 
937	 0.34241609387381 
938	 0.343221294497172 
939	 0.34419063184481 
940	 0.345256601512721 
941	 0.346231844707664 
942	 0.347200724252342 
943	 0.34828317317769 
944	 0.349266763683427 
945	 0.350150211523621 
946	 0.351066891160838 
947	 0.352153744263289 
948	 0.353303298257891 
949	 0.35434050366739 
950	 0.355307925420062 
951	 0.356358784349973 
952	 0.357545979826186 
953	 0.358625384123828 
954	 0.359697673176182 
955	 0.360975567035599 
956	 0.362113295157923 
957	 0.363215109860553 
958	 0.364319375120938 
959	 0.365427382003336 
960	 0.36664510953378 
961	 0.367926120671544 
962	 0.369145113329288 
963	 0.370192518548645 
964	 0.371291596995259 
965	 0.372464420098814 
966	 0.373724192923834 
967	 0.375052257558945 
968	 0.376267767809825 
969	 0.377443659561677 
970	 0.37865121782062 
971	 0.379907438053699 
972	 0.381030010852943 
973	 0.382301930542995 
974	 0.383668189049834 
975	 0.384894850564489 
976	 0.386271755237441 
977	 0.387685319888956 
978	 0.389031219985401 
979	 0.390284057475641 
980	 0.391691603413983 
981	 0.393040397244486 
982	 0.394328517906375 
983	 0.395673005288006 
984	 0.396944904779401 
985	 0.398334242697541 
986	 0.399769861368094 
987	 0.401090938764124 
988	 0.402545481392114 
989	 0.403958444236393 
990	 0.405262403110895 
991	 0.40651908512189 
992	 0.407985140166419 
993	 0.409473894956123 
994	 0.410894668431875 
995	 0.412249573128448 
996	 0.413664961589984 
997	 0.415170701533011 
998	 0.416537741702698 
999	 0.417650409832228 
1000	 0.41909451669711 
1001	 0.420726029573416 
1002	 0.421949550498499 
1003	 0.423208079465383 
1004	 0.424454833962038 
1005	 0.425684648052307 
1006	 0.426940258617794 
1007	 0.428219229988871 
1008	 0.429463182768636 
1009	 0.430671394601331 
1010	 0.43197754165878 
1011	 0.433242406481952 
1012	 0.434423129931357 
1013	 0.435717743803688 
1014	 0.437003534596102 
1015	 0.438217618443567 
1016	 0.439500402240591 
1017	 0.440722289890351 
1018	 0.441892727736046 
1019	 0.443001255767888 
1020	 0.444207736721526 
1021	 0.445401840605596 
1022	 0.446553015147538 
1023	 0.447649781414788 
1024	 0.448724552215262 
1025	 0.449797037965142 
1026	 0.450804597780293 
1027	 0.451862501063344 
1028	 0.452950045428833 
1029	 0.454011708826638 
1030	 0.455069916576708 
1031	 0.456083926475973 
1032	 0.457089055020996 
1033	 0.458061214840178 
1034	 0.45902755691323 
1035	 0.46002858389423 
1036	 0.461063133965422 
1037	 0.462094409654119 
1038	 0.463061179566682 
1039	 0.464002131951 
1040	 0.464988652717514 
1041	 0.465955510617632 
1042	 0.466919169597914 
1043	 0.467844963430885 
1044	 0.468767436534784 
1045	 0.469664414600139 
1046	 0.47058086876974 
1047	 0.471459167412928 
1048	 0.472371887315 
1049	 0.473309660202406 
1050	 0.474222947409202 
1051	 0.475107726522351 
1052	 0.475955370268389 
1053	 0.476806242386656 
1054	 0.477691968068175 
1055	 0.478637229799132 
1056	 0.479578392198162 
1057	 0.480482844588323 
1058	 0.481368408382595 
1059	 0.482226715102784 
1060	 0.48303629547371 
1061	 0.483869425027322 
1062	 0.484684392962992 
1063	 0.485515754379068 
1064	 0.486377908240079 
1065	 0.487236362572966 
1066	 0.488106129292551 
1067	 0.488953239713889 
1068	 0.489730111917116 
1069	 0.49052056190532 
1070	 0.491351783915101 
1071	 0.492194827077252 
1072	 0.493052631289835 
1073	 0.494010744899955 
1074	 0.494844634470905 
1075	 0.495629266383943 
1076	 0.49637768519061 
1077	 0.497103817739847 
1078	 0.49773267897863 
1079	 0.498417217462938 
1080	 0.499170744927636 
1081	 0.499856359635615 
1082	 0.500581452614294 
1083	 0.501312374950688 
1084	 0.50204196268365 
1085	 0.502754579254883 
1086	 0.503502598839774 
1087	 0.50420580671384 
1088	 0.504879407911356 
1089	 0.505541748384452 
1090	 0.506193506655305 
1091	 0.506806787907802 
1092	 0.50741998297816 
1093	 0.508052225779831 
1094	 0.508662346855548 
1095	 0.509259366776146 
1096	 0.509852353471668 
1097	 0.510408082954928 
1098	 0.511008880013495 
1099	 0.511654428989095 
1100	 0.512253525112986 
1101	 0.512867629369418 
1102	 0.513452419134461 
1103	 0.514021387569433 
1104	 0.514533165218126 
1105	 0.515044245705149 
1106	 0.515548248485409 
1107	 0.516044679025991 
1108	 0.516566355952504 
1109	 0.51711502652043 
1110	 0.517635159429651 
1111	 0.518135858074329 
1112	 0.518617498587771 
1113	 0.519097839803153 
1114	 0.519549183814219 
1115	 0.520031482623481 
1116	 0.520524036674022 
1117	 0.521016589975497 
1118	 0.521514785801275 
1119	 0.522017036909076 
1120	 0.522540823242903 
1121	 0.523046566661731 
1122	 0.523494205732308 
1123	 0.523952703854054 
1124	 0.524438796061091 
1125	 0.524922077624714 
1126	 0.525384068897407 
1127	 0.525884960095556 
1128	 0.526335077053268 
1129	 0.526726239932258 
1130	 0.527134002849614 
1131	 0.527563230506153 
1132	 0.527958038915631 
1133	 0.528302600008551 
1134	 0.528676640107658 
1135	 0.529068935837101 
1136	 0.529421805984852 
1137	 0.529776538062504 
1138	 0.530152846113826 
1139	 0.530516884338601 
1140	 0.530890028810643 
1141	 0.53120845070746 
1142	 0.531523397235618 
1143	 0.531796572211888 
1144	 0.532009129934352 
1145	 0.53222063308528 
1146	 0.532423020963305 
1147	 0.532609680769989 
1148	 0.532772288966053 
1149	 0.532925537636586 
1150	 0.533065538992802 
1151	 0.533191157232309 
1152	 0.533309356253457 
1153	 0.533464833062162 
1154	 0.533623567848647 
1155	 0.533797759625078 
1156	 0.533977193272349 
1157	 0.534180055687069 
1158	 0.534348370211171 
1159	 0.534507323623775 
1160	 0.534678461256086 
1161	 0.534833588087349 
1162	 0.534999957700998 
1163	 0.535184726447477 
1164	 0.535361566890253 
1165	 0.535522821778739 
1166	 0.535696174303844 
1167	 0.535889977927393 
1168	 0.536108013252918 
1169	 0.536337496747737 
1170	 0.53660175970285 
1171	 0.536836914672677 
1172	 0.53708022228353 
1173	 0.537305092427762 
1174	 0.537495943660434 
1175	 0.537724882588292 
1176	 0.537958897621587 
1177	 0.538204597310873 
1178	 0.53847378637203 
1179	 0.538744251853516 
1180	 0.539023944162705 
1181	 0.539301324483111 
1182	 0.539586239513452 
1183	 0.539871648312589 
1184	 0.5401541393181 
1185	 0.540434115859736 
1186	 0.540713340673328 
1187	 0.54100465598502 
1188	 0.541265933883705 
1189	 0.541502288963948 
1190	 0.541758069792611 
1191	 0.54202605106789 
1192	 0.542256451433585 
1193	 0.542462087615384 
1194	 0.542694169410258 
1195	 0.542909416962994 
1196	 0.543128277416684 
1197	 0.543369598244714 
1198	 0.543616291835988 
1199	 0.543862640401489 
1200	 0.544095793744598 
1201	 0.544330601597322 
1202	 0.544589231189379 
1203	 0.544814934025586 
1204	 0.545018826875834 
1205	 0.545216420348253 
1206	 0.545381722698064 
1207	 0.545592401299552 
1208	 0.545828283818068 
1209	 0.54603348659815 
1210	 0.546269411994683 
1211	 0.546467555540826 
1212	 0.546601152743624 
1213	 0.546766207910735 
1214	 0.546934643359304 
1215	 0.547109874166104 
1216	 0.547291969748274 
1217	 0.547494144702321 
1218	 0.547664750926062 
1219	 0.547825089985914 
1220	 0.547992378355011 
1221	 0.548138374089258 
1222	 0.548309573130796 
1223	 0.548515896320853 
1224	 0.548684228079823 
1225	 0.548842694540515 
1226	 0.548996527097366 
1227	 0.549125606915878 
1228	 0.549264947621387 
1229	 0.549402650683643 
1230	 0.549548747822613 
1231	 0.549699186828717 
1232	 0.549849119166267 
1233	 0.550002531496388 
1234	 0.550165882589432 
1235	 0.550324067683617 
1236	 0.550487133563982 
1237	 0.550632501944267 
1238	 0.55077254598667 
1239	 0.550909410382606 
1240	 0.551020911952439 
1241	 0.551159308632877 
1242	 0.551328133366276 
1243	 0.551460836211982 
1244	 0.551587684106953 
1245	 0.551709075409843 
1246	 0.551793291535031 
1247	 0.551901000540273 
1248	 0.552013336768634 
1249	 0.552144292933441 
1250	 0.552285771493671 
1251	 0.552411719241039 
1252	 0.552532040171263 
1253	 0.552649866238097 
1254	 0.552762132751103 
1255	 0.552862562195563 
1256	 0.552968847374053 
1257	 0.553080094992582 
1258	 0.553180551682215 
1259	 0.553275826828975 
1260	 0.553365304295611 
1261	 0.553441321724295 
1262	 0.553527011294862 
1263	 0.553625090173628 
1264	 0.553702855616408 
1265	 0.55377976409576 
1266	 0.553844774364627 
1267	 0.55389092904157 
1268	 0.553922080691272 
1269	 0.553973053173024 
1270	 0.554019583554169 
1271	 0.554089993808144 
1272	 0.55417970754609 
1273	 0.554263221782572 
1274	 0.55436112511521 
1275	 0.554446680021088 
1276	 0.554519909435673 
1277	 0.55460851315099 
1278	 0.55469667219787 
1279	 0.554797654454253 
1280	 0.554907315986992 
1281	 0.55503157195234 
1282	 0.555183658090716 
1283	 0.555313440317622 
1284	 0.555455768505845 
1285	 0.555568855072889 
1286	 0.555670035535079 
1287	 0.555790160906886 
1288	 0.555908488125259 
1289	 0.556037692491922 
1290	 0.556156669240573 
1291	 0.556265598893296 
1292	 0.556387748497635 
1293	 0.556519930211317 
1294	 0.556636463774284 
1295	 0.556765950990044 
1296	 0.556864746551039 
1297	 0.556941714440785 
1298	 0.55701402001048 
1299	 0.557069056086482 
1300	 0.557123150587722 
1301	 0.557166684604097 
1302	 0.557207216336353 
1303	 0.557250333857987 
1304	 0.557273524126543 
1305	 0.55729512912231 
1306	 0.557304099002112 
1307	 0.557303360495583 
1308	 0.557293224456562 
1309	 0.557267999709619 
1310	 0.557240169007474 
1311	 0.557177093069558 
1312	 0.557087774553647 
1313	 0.556995603682141 
1314	 0.556873802417227 
1315	 0.556761064698984 
1316	 0.5566611872609 
1317	 0.556527669049961 
1318	 0.556375093874149 
1319	 0.556219677103846 
1320	 0.556050661767541 
1321	 0.555864147505448 
1322	 0.555670258668895 
1323	 0.555468015153293 
1324	 0.555230779646497 
1325	 0.554992447336569 
1326	 0.55475155050566 
1327	 0.554475986747212 
1328	 0.554185889942127 
1329	 0.553902768291681 
1330	 0.553593422053448 
1331	 0.553274731118283 
1332	 0.552921550524902 
1333	 0.552540929519389 
1334	 0.552152323269847 
1335	 0.551726650056068 
1336	 0.551329305183993 
1337	 0.550930173932166 
1338	 0.55054086496892 
1339	 0.550182605712373 
1340	 0.549783095549301 
1341	 0.549367648300315 
1342	 0.548955576699198 
1343	 0.548519332885331 
1344	 0.5480814910122 
1345	 0.547677753546785 
1346	 0.547285851006579 
1347	 0.546931325975339 
1348	 0.546585994744464 
1349	 0.546206324674451 
1350	 0.545833978610509 
1351	 0.545466471462144 
1352	 0.545068272518773 
1353	 0.544711786208668 
1354	 0.544398419705161 
1355	 0.544056021997852 
1356	 0.54370732137765 
1357	 0.543369645617324 
1358	 0.543022436999136 
1359	 0.542692381677316 
1360	 0.542379701034847 
1361	 0.542062706994058 
1362	 0.541756917160064 
1363	 0.541444205594646 
1364	 0.541119552323726 
1365	 0.540811257624087 
1366	 0.540509558613124 
1367	 0.540208735076627 
1368	 0.539934518395907 
1369	 0.539663046361609 
1370	 0.53932703843593 
1371	 0.538969493119523 
1372	 0.538572650120551 
1373	 0.538113829230747 
1374	 0.537634830110376 
1375	 0.53715038822688 
1376	 0.536575626432579 
1377	 0.535960700954042 
1378	 0.535254925535163 
1379	 0.534448194943428 
1380	 0.533643833580819 
1381	 0.532785711921106 
1382	 0.531885170511094 
1383	 0.530991998770508 
1384	 0.529996975462155 
1385	 0.528973614722083 
1386	 0.52781946557651 
1387	 0.526572403711117 
1388	 0.525245987864007 
1389	 0.523832844533239 
1390	 0.52229242053352 
1391	 0.520700724847885 
1392	 0.519012140743292 
1393	 0.517162990968299 
1394	 0.515206938948276 
1395	 0.513086945105378 
1396	 0.510863124513081 
1397	 0.508593751893267 
1398	 0.506242653106788 
1399	 0.503785861189059 
1400	 0.501264001532863 
1401	 0.498637799881976 
1402	 0.495874752918176 
1403	 0.493092713187735 
1404	 0.490211341560268 
1405	 0.487367048357297 
1406	 0.484481619941611 
1407	 0.481589095442498 
1408	 0.478665842225045 
1409	 0.475799436516309 
1410	 0.472887843453191 
1411	 0.470094218004206 
1412	 0.467347137303178 
1413	 0.464710319808305 
1414	 0.46221088655535 
1415	 0.459757755480283 
1416	 0.457421968276682 
1417	 0.455163198296868 
1418	 0.452921071662562 
1419	 0.450767673088998 
1420	 0.448713435275579 
1421	 0.446726248078371 
1422	 0.444811164594874 
1423	 0.442937894154583 
1424	 0.441081198394373 
1425	 0.439240538550491 
1426	 0.437472362592649 
1427	 0.435729998594702 
1428	 0.434072873477977 
1429	 0.432508869057479 
1430	 0.430953935843128 
1431	 0.429484736188686 
1432	 0.427959650917359 
1433	 0.426422649981112 
1434	 0.42490781216733 
1435	 0.423381685017989 
1436	 0.421877498660961 
1437	 0.420406448909946 
1438	 0.41893166868052 
1439	 0.417472207704893 
1440	 0.415982985983601 
1441	 0.414485721701506 
1442	 0.413001982537049 
1443	 0.411507904079403 
1444	 0.410082270604146 
1445	 0.408744469908459 
1446	 0.407525187263167 
1447	 0.406442814901725 
1448	 0.405483638492957 
1449	 0.404672879298693 
1450	 0.404039862385845 
1451	 0.403652974686107 
1452	 0.403454520375181 
1453	 0.403494276005903 
1454	 0.403815720547888 
1455	 0.404227642522984 
1456	 0.40487871049293 
1457	 0.405542224483028 
1458	 0.406378233172423 
1459	 0.407156836001614 
1460	 0.408022447288392 
1461	 0.408794386359071 
1462	 0.409573539945887 
1463	 0.410257203166446 
1464	 0.410904815070867 
1465	 0.41144614714146 
1466	 0.411883067269766 
1467	 0.412276655686131 
1468	 0.412546614771428 
1469	 0.412842565291451 
1470	 0.413118924538122 
1471	 0.413364957474679 
1472	 0.413613469921875 
1473	 0.413844366795456 
1474	 0.414020175455369 
1475	 0.41420324975469 
1476	 0.414353996987962 
1477	 0.414476224383345 
1478	 0.41462305706594 
1479	 0.414767971210092 
1480	 0.414939337392739 
1481	 0.415127781855827 
1482	 0.415307538830916 
1483	 0.415492117577614 
1484	 0.415673684700586 
1485	 0.415847633156273 
1486	 0.416041795056424 
1487	 0.416237661001773 
1488	 0.416458823553153 
1489	 0.416713427278432 
1490	 0.416939213211863 
1491	 0.417178313308545 
1492	 0.417391283198911 
1493	 0.417567592984402 
1494	 0.417767598043881 
1495	 0.417976801026408 
1496	 0.418173159403027 
1497	 0.418384579589412 
1498	 0.418564808542025 
1499	 0.418732003354795 
1500	 0.418872982093153 
1501	 0.418981629287026 
1502	 0.419088071788196 
1503	 0.419176186082986 
1504	 0.419246735755775 
1505	 0.419335972712393 
1506	 0.419428186682333 
1507	 0.419526103246251 
1508	 0.41962423971455 
1509	 0.41971415546264 
1510	 0.419807994779533 
1511	 0.419858065690466 
1512	 0.419904135602148 
1513	 0.419952165903502 
1514	 0.419995223599474 
1515	 0.42009156637905 
1516	 0.420193962620698 
1517	 0.420285983097315 
1518	 0.42039272343842 
1519	 0.420476693504316 
1520	 0.420540513275824 
1521	 0.420620455275346 
1522	 0.420704958129915 
1523	 0.420775310217743 
1524	 0.42084411889862 
1525	 0.420906738017344 
1526	 0.420945809416754 
1527	 0.421011581428448 
1528	 0.421097014701343 
1529	 0.421166894864133 
1530	 0.421251946422668 
1531	 0.42130915434412 
1532	 0.421340063526316 
1533	 0.421374250430446 
1534	 0.421396730332941 
1535	 0.421423397904212 
1536	 0.421441612522396 
1537	 0.421475039512052 
1538	 0.421514893504454 
1539	 0.421554676463869 
1540	 0.421596332035311 
1541	 0.42165145396986 
1542	 0.421717956254724 
1543	 0.421780314021072 
1544	 0.421866059299114 
1545	 0.42193078339551 
1546	 0.421986106638775 
1547	 0.422022849767007 
1548	 0.422049274397348 
1549	 0.42207884595744 
1550	 0.422118243330036 
1551	 0.422155042661506 
1552	 0.422202617703902 
1553	 0.422269922733547 
1554	 0.422345765745431 
1555	 0.422402720197868 
1556	 0.422424770273319 
1557	 0.422430263054242 
1558	 0.422417023313271 
1559	 0.422382398386512 
1560	 0.422367953827765 
1561	 0.422371401221913 
1562	 0.422352750792409 
1563	 0.422318877064902 
1564	 0.422308988243686 
1565	 0.422301906510681 
1566	 0.422294967175698 
1567	 0.422309900514196 
1568	 0.422297362732733 
1569	 0.42225575513041 
1570	 0.422246339267819 
1571	 0.422245841471325 
1572	 0.422240069533721 
1573	 0.422251098784616 
1574	 0.422255649524066 
1575	 0.422260304271187 
1576	 0.422242021812435 
1577	 0.422211917455283 
1578	 0.422188306110538 
1579	 0.422141032745718 
1580	 0.422112143850628 
1581	 0.422104476458211 
1582	 0.422088104795604 
1583	 0.422085414396862 
1584	 0.422046327523249 
1585	 0.421993144743555 
1586	 0.421932995955944 
1587	 0.421837175139455 
1588	 0.421753723057833 
1589	 0.421677306911061 
1590	 0.421592391475297 
1591	 0.421508523260756 
1592	 0.421407516760208 
1593	 0.421305341044115 
1594	 0.421182804486081 
1595	 0.421036847116352 
1596	 0.420884017716586 
1597	 0.420702689354824 
1598	 0.420537127131341 
1599	 0.420391870662681 
1600	 0.420214121141628 
1601	 0.420012726518826 
1602	 0.419830410506936 
1603	 0.419640005310857 
1604	 0.419437464000906 
1605	 0.419239868510607 
1606	 0.41904929055928 
1607	 0.418849934113705 
1608	 0.418642090398608 
1609	 0.418458784614122 
1610	 0.418274649574728 
1611	 0.418044548657423 
1612	 0.41781318318517 
1613	 0.417546266397661 
1614	 0.417233535619341 
1615	 0.416933500330437 
1616	 0.416622446439094 
1617	 0.416301260557997 
1618	 0.416009215901496 
1619	 0.41570476073637 
1620	 0.41538113287099 
1621	 0.415093700432254 
1622	 0.414833223316713 
1623	 0.41454548015181 
1624	 0.414270366975093 
1625	 0.413962363767265 
1626	 0.413628067731173 
1627	 0.413297710195707 
1628	 0.412950498544311 
1629	 0.412620880506392 
1630	 0.412290089184565 
1631	 0.411965051509008 
1632	 0.411656723936993 
1633	 0.41132889737473 
1634	 0.411003231671654 
1635	 0.410646879207706 
1636	 0.410275880937033 
1637	 0.409886442562301 
1638	 0.409446844134675 
1639	 0.409071572636893 
1640	 0.408703689594557 
1641	 0.408360352394471 
1642	 0.408067967480852 
1643	 0.407746090421421 
1644	 0.40741177415507 
1645	 0.407101611849258 
1646	 0.406812160247616 
1647	 0.406494744410006 
1648	 0.406192644303972 
1649	 0.405850855080597 
1650	 0.405465773663127 
1651	 0.405100521621126 
1652	 0.404726425592528 
1653	 0.404355157707326 
1654	 0.403985363777321 
1655	 0.403615713407809 
1656	 0.403249853956141 
1657	 0.40286858243538 
1658	 0.402481601601633 
1659	 0.402093361090203 
1660	 0.401689093804566 
1661	 0.40129489498764 
1662	 0.40089521499532 
1663	 0.40052163023362 
1664	 0.400152731903294 
1665	 0.39980471605431 
1666	 0.399492725470637 
1667	 0.399163820729693 
1668	 0.398844779680901 
1669	 0.39851109480585 
1670	 0.398179291799233 
1671	 0.397824606043827 
1672	 0.397442296191779 
1673	 0.397083081262337 
1674	 0.396705919923653 
1675	 0.396365976429723 
1676	 0.396054703687366 
1677	 0.395748331017485 
1678	 0.3954837011399 
1679	 0.395165383805593 
1680	 0.394832873055621 
1681	 0.394493405599393 
1682	 0.394104864967461 
1683	 0.393758801007375 
1684	 0.393426887435531 
1685	 0.393107886061054 
1686	 0.392806603389262 
1687	 0.392508096649242 
1688	 0.392221167561141 
1689	 0.391940390903214 
1690	 0.391674374486588 
1691	 0.39139591860858 
1692	 0.391121477597133 
1693	 0.390842925050731 
1694	 0.390546246572244 
1695	 0.390270005725382 
1696	 0.390006790349161 
1697	 0.389741923312501 
1698	 0.389499289206294 
1699	 0.389219485756671 
1700	 0.388922053898951 
1701	 0.388625170191527 
1702	 0.388291144703842 
1703	 0.388002929149823 
1704	 0.387748998047104 
1705	 0.38746616814259 
1706	 0.387203377017573 
1707	 0.386898228839731 
1708	 0.386539517427099 
1709	 0.386229194964795 
1710	 0.385914859797456 
1711	 0.385627618940692 
1712	 0.385378970029631 
1713	 0.385112047870836 
1714	 0.384848793365748 
1715	 0.384582707670804 
1716	 0.384322084440053 
1717	 0.384046505263282 
1718	 0.383761038458895 
1719	 0.383478428300032 
1720	 0.383176901295688 
1721	 0.382907302542074 
1722	 0.382651420849987 
1723	 0.382407413484538 
1724	 0.382187442527423 
1725	 0.381951895006141 
1726	 0.381719946047233 
1727	 0.381481097963211 
1728	 0.381236279008583 
1729	 0.380995367442054 
1730	 0.380754629388818 
1731	 0.380512369567732 
1732	 0.380266104398668 
1733	 0.380032799575994 
1734	 0.37979783848722 
1735	 0.379580565606447 
1736	 0.379377331416944 
1737	 0.379176275628226 
1738	 0.378990365950762 
1739	 0.37879641751284 
1740	 0.378609073849011 
1741	 0.378407420760804 
1742	 0.378195096392913 
1743	 0.377992453530749 
1744	 0.377795985144322 
1745	 0.377568976441358 
1746	 0.377331204972453 
1747	 0.377086653194292 
1748	 0.376820949817081 
1749	 0.376596646862567 
1750	 0.376420120272893 
1751	 0.376213363617349 
1752	 0.376016262952315 
1753	 0.375838468709992 
1754	 0.375622694014435 
1755	 0.375421480922319 
1756	 0.375247165817785 
1757	 0.375047484702039 
1758	 0.374851321739159 
1759	 0.374680262553678 
1760	 0.374527875067246 
1761	 0.374386948840357 
1762	 0.374249092087002 
1763	 0.374106849531335 
1764	 0.373941054557131 
1765	 0.373785708735507 
1766	 0.373617712288567 
1767	 0.373434629532021 
1768	 0.37329618788724 
1769	 0.373159020754376 
1770	 0.37304834961295 
1771	 0.372984623582719 
1772	 0.3728998643125 
1773	 0.372808622880713 
1774	 0.372729783074495 
1775	 0.372623010981072 
1776	 0.372491773427717 
1777	 0.372371122225959 
1778	 0.37224215176042 
1779	 0.372118885038895 
1780	 0.372038660601097 
1781	 0.371983006198272 
1782	 0.371929030685877 
1783	 0.371864594353881 
1784	 0.37180692357381 
1785	 0.371733858815945 
1786	 0.371660320254462 
1787	 0.371612775124926 
1788	 0.371539556347346 
1789	 0.371434363631027 
1790	 0.371359995969698 
1791	 0.37130296278572 
1792	 0.371216450465665 
1793	 0.371099496167241 
1794	 0.371050784301059 
1795	 0.371011715109079 
1796	 0.370998576683322 
1797	 0.371056672282064 
1798	 0.371084342451598 
1799	 0.371095483071681 
1800	 0.371118298108374 
1801	 0.363505817862705 
1802	 0.36379553930184 
1803	 0.364122884733245 
1804	 0.364504534853711 
1805	 0.364919874733906 
1806	 0.365308734294598 
1807	 0.365657715836166 
1808	 0.365975206856163 
1809	 0.366268661365895 
1810	 0.366531802267652 
1811	 0.366753991262967 
1812	 0.366985541306641 
1813	 0.367174564893914 
1814	 0.367321510991675 
1815	 0.367453594365423 
1816	 0.367526924417694 
1817	 0.367603213387201 
1818	 0.367644089320279 
1819	 0.367718519254938 
1820	 0.367790964859552 
1821	 0.367871101118893 
1822	 0.367956647050736 
1823	 0.368056293181303 
1824	 0.368136065350215 
1825	 0.368171465428555 
1826	 0.368232661137454 
1827	 0.368281485515302 
1828	 0.368299511890003 
1829	 0.368313290501586 
1830	 0.368297960349777 
1831	 0.3682527463884 
1832	 0.368175705903276 
1833	 0.36809449693844 
1834	 0.368030492236207 
1835	 0.367973720750234 
1836	 0.367909932010534 
1837	 0.367860114281883 
1838	 0.367823864880397 
1839	 0.367804432377815 
1840	 0.367806390387097 
1841	 0.367811878546539 
1842	 0.367809227957842 
1843	 0.367796206574014 
1844	 0.367745803113003 
1845	 0.367680238466397 
1846	 0.367617235305086 
1847	 0.367547232541649 
1848	 0.367472964031438 
1849	 0.367368705706246 
1850	 0.367262754699168 
1851	 0.367149938860639 
1852	 0.367019851189714 
1853	 0.366885458766823 
1854	 0.366753582397418 
1855	 0.366541244800705 
1856	 0.366288223097593 
1857	 0.365972759719652 
1858	 0.365601029605162 
1859	 0.365246544450425 
1860	 0.364836621270067 
1861	 0.364388279044965 
1862	 0.36390465291788 
1863	 0.363391156217192 
1864	 0.362799703457579 
1865	 0.362181066730036 
1866	 0.361500539111386 
1867	 0.360763701599031 
1868	 0.359965628571891 
1869	 0.359087672431688 
1870	 0.358182499910385 
1871	 0.357221519984223 
1872	 0.356203434377952 
1873	 0.355161922785624 
1874	 0.354063209435907 
1875	 0.352865574994165 
1876	 0.351622354104643 
1877	 0.35028231376297 
1878	 0.348818552884161 
1879	 0.347247235869634 
1880	 0.345532594820631 
1881	 0.343672319152379 
1882	 0.341691362287052 
1883	 0.339589066073831 
1884	 0.337329192645127 
1885	 0.334970176417169 
1886	 0.332470896015247 
1887	 0.329801823233866 
1888	 0.327027784990208 
1889	 0.324079867155918 
1890	 0.320991389738227 
1891	 0.317820698640586 
1892	 0.314503211754338 
1893	 0.311117375179036 
1894	 0.307641626007131 
1895	 0.304083195717621 
1896	 0.300387898201906 
1897	 0.296681335333831 
1898	 0.292883601844601 
1899	 0.28902822797742 
1900	 0.285245245483956 
1901	 0.281453315050589 
1902	 0.277784927235171 
1903	 0.274206199355588 
1904	 0.270725386366329 
1905	 0.267311128963882 
1906	 0.264047123378164 
1907	 0.260872212387286 
1908	 0.257797233204313 
1909	 0.254877665323535 
1910	 0.252033117596598 
1911	 0.249324209480675 
1912	 0.246732835771694 
1913	 0.244227523831329 
1914	 0.241814626774563 
1915	 0.239513054668893 
1916	 0.237296901143125 
1917	 0.23520464728152 
1918	 0.233256569226506 
1919	 0.231380975163401 
1920	 0.229658512648032 
1921	 0.22804447363962 
1922	 0.226472960088701 
1923	 0.225038123428383 
1924	 0.223661851694069 
1925	 0.222353560345113 
1926	 0.221134053816363 
1927	 0.220015845996854 
1928	 0.21893922083202 
1929	 0.217939406594393 
1930	 0.217026588953356 
1931	 0.216144879972167 
1932	 0.215322880729236 
1933	 0.214564829717145 
1934	 0.21385945916763 
1935	 0.213243323645502 
1936	 0.212684269793173 
1937	 0.21222772823433 
1938	 0.211853782429756 
1939	 0.211580721572982 
1940	 0.211388429881098 
1941	 0.211303734280342 
1942	 0.211340192118281 
1943	 0.211459209501999 
1944	 0.211688668978333 
1945	 0.212038370779086 
1946	 0.212448669735615 
1947	 0.212954983364748 
1948	 0.213524300821924 
1949	 0.214201768461918 
1950	 0.21488302478531 
1951	 0.215637461107399 
1952	 0.216410499790329 
1953	 0.217156607514615 
1954	 0.217916395122617 
1955	 0.21867164117689 
1956	 0.21940150557405 
1957	 0.220119712522191 
1958	 0.220863654599481 
1959	 0.221519739080458 
1960	 0.222137080554463 
1961	 0.22270815910393 
1962	 0.223200916924474 
1963	 0.223695258287349 
1964	 0.224158753402645 
1965	 0.224610986164225 
1966	 0.225041393115343 
1967	 0.225456939925793 
1968	 0.225869564069487 
1969	 0.226259407373354 
1970	 0.226664566352324 
1971	 0.227069679207608 
1972	 0.22747613853 
1973	 0.227889519414452 
1974	 0.228293156707351 
1975	 0.228673371927419 
1976	 0.229086069508496 
1977	 0.229538843771414 
1978	 0.229978345177827 
1979	 0.230438589630769 
1980	 0.230929451253732 
1981	 0.231402716597392 
1982	 0.231847517918173 
1983	 0.232337520103106 
1984	 0.232854980461183 
1985	 0.233366825416257 
1986	 0.233895029109232 
1987	 0.23442046567433 
1988	 0.234945978055775 
1989	 0.235484363691082 
1990	 0.236009531767928 
1991	 0.236541346132498 
1992	 0.237058789990469 
1993	 0.237562675406162 
1994	 0.238065896790802 
1995	 0.238573213655833 
1996	 0.239059650648234 
1997	 0.239540238009302 
1998	 0.240007383679551 
1999	 0.240437736376573 
2000	 0.240891505541748 
2001	 0.241350944624391 
2002	 0.241801234428892 
2003	 0.242265679854896 
2004	 0.242750756732285 
2005	 0.243215662437175 
2006	 0.243672972167712 
2007	 0.244134496211236 
2008	 0.24457845105562 
2009	 0.245047147247716 
2010	 0.245536135231541 
2011	 0.246017804918916 
2012	 0.246529672577695 
2013	 0.247005094284373 
2014	 0.247447856318609 
2015	 0.247889802539262 
2016	 0.248356339014122 
2017	 0.248855724291299 
2018	 0.249355357954271 
2019	 0.249896862452965 
2020	 0.250421648444066 
2021	 0.250931459880347 
2022	 0.251456858482993 
2023	 0.251999388710205 
2024	 0.252544562055358 
2025	 0.253096760447532 
2026	 0.253646490142736 
2027	 0.254198850912802 
2028	 0.254761718239476 
2029	 0.255319451480182 
2030	 0.255876626354853 
2031	 0.256424399454368 
2032	 0.256973245433548 
2033	 0.2575155622539 
2034	 0.258041863922825 
2035	 0.258575947634775 
2036	 0.259116587597598 
2037	 0.259650006850271 
2038	 0.260191648421185 
2039	 0.260711280358044 
2040	 0.261210411061502 
2041	 0.261711408697549 
2042	 0.262216893643452 
2043	 0.262718399086073 
2044	 0.263239828761695 
2045	 0.263793773873874 
2046	 0.264317524857926 
2047	 0.264839320440002 
2048	 0.265352581961968 
2049	 0.265863696771661 
2050	 0.266355726208615 
2051	 0.26683292891623 
2052	 0.267304139337525 
2053	 0.267743027150585 
2054	 0.268200413942926 
2055	 0.268656318014205 
2056	 0.269132657163162 
2057	 0.269596909775271 
2058	 0.270072240291675 
2059	 0.270530396210158 
2060	 0.270977974709637 
2061	 0.271424519530378 
2062	 0.271863168020742 
2063	 0.272303183175934 
2064	 0.272742336016491 
2065	 0.273177491976569 
2066	 0.273619039981212 
2067	 0.274044436514967 
2068	 0.274460759190119 
2069	 0.274867047201258 
2070	 0.275269061404155 
2071	 0.275661779161647 
2072	 0.276047940791902 
2073	 0.276422580617986 
2074	 0.276804753681142 
2075	 0.277179354154485 
2076	 0.277559683206578 
2077	 0.277952904808646 
2078	 0.278332531591619 
2079	 0.278713433825578 
2080	 0.279078186430446 
2081	 0.279411329607065 
2082	 0.279771294962478 
2083	 0.280129141468952 
2084	 0.280496161333811 
2085	 0.280881393428123 
2086	 0.281301584986686 
2087	 0.281694633633869 
2088	 0.282096877675403 
2089	 0.28246994542699 
2090	 0.282839070130754 
2091	 0.283172542455343 
2092	 0.283452667424147 
2093	 0.283771186916723 
2094	 0.284073122821452 
2095	 0.284394525189592 
2096	 0.284757987530688 
2097	 0.285099012036469 
2098	 0.285420204930449 
2099	 0.285758145990729 
2100	 0.286099331530585 
2101	 0.286440093561009 
2102	 0.286788168763663 
2103	 0.287146749627998 
2104	 0.287504258288384 
2105	 0.287874508490574 
2106	 0.288220183730346 
2107	 0.288554575414812 
2108	 0.288898064632586 
2109	 0.289217681373713 
2110	 0.289560744309508 
2111	 0.289919206646344 
2112	 0.290286880322476 
2113	 0.290671927736262 
2114	 0.291056591185297 
2115	 0.291428197921815 
2116	 0.291801314074068 
2117	 0.292177566248049 
2118	 0.292534504133761 
2119	 0.292920404395022 
2120	 0.293348775757813 
2121	 0.293726735700236 
2122	 0.294089232023263 
2123	 0.294451542377177 
2124	 0.294785416496311 
2125	 0.295129231599545 
2126	 0.295501329688115 
2127	 0.295833363706537 
2128	 0.296123533786297 
2129	 0.296434088344136 
2130	 0.296739848692759 
2131	 0.297046378487297 
2132	 0.297323769908355 
2133	 0.297608879309869 
2134	 0.297863775819115 
2135	 0.298080897137994 
2136	 0.298293313114688 
2137	 0.298505083334798 
2138	 0.298689220104494 
2139	 0.298827431581047 
2140	 0.2989901984274 
2141	 0.299164970489141 
2142	 0.299310544874857 
2143	 0.299459701888095 
2144	 0.299580524470014 
2145	 0.299677497133169 
2146	 0.299749537882485 
2147	 0.299792573517744 
2148	 0.299828882315467 
2149	 0.299845500345493 
2150	 0.299824215496129 
2151	 0.299820609923394 
2152	 0.299812694931517 
2153	 0.299806636589968 
2154	 0.299800169547326 
2155	 0.299791603172038 
2156	 0.299799145999287 
2157	 0.299769483048907 
2158	 0.299715082782478 
2159	 0.299666296480055 
2160	 0.299582679317764 
2161	 0.299525139014239 
2162	 0.29947255560945 
2163	 0.299439013284466 
2164	 0.299430986834494 
2165	 0.299429457596465 
2166	 0.299391634418244 
2167	 0.299365524332245 
2168	 0.299292173058525 
2169	 0.299165800644042 
2170	 0.299058120079311 
2171	 0.29893064608411 
2172	 0.298823124691017 
2173	 0.298728411130146 
2174	 0.298615098779882 
2175	 0.298526925520506 
2176	 0.298384608227771 
2177	 0.298193069189202 
2178	 0.298012779539321 
2179	 0.297794807551702 
2180	 0.297597418188779 
2181	 0.297441672702823 
2182	 0.297240298961971 
2183	 0.296996059437746 
2184	 0.296773655206645 
2185	 0.296563879900462 
2186	 0.296331845886959 
2187	 0.296128063637746 
2188	 0.295975164129813 
2189	 0.295780388338625 
2190	 0.29555820833133 
2191	 0.295358274397517 
2192	 0.295156341220341 
2193	 0.294967089387625 
2194	 0.294791723610106 
2195	 0.294614059004015 
2196	 0.294447019602645 
2197	 0.294272983129749 
2198	 0.294098196646696 
2199	 0.293922881027805 
2200	 0.293737841838573 
2201	 0.293563336680216 
2202	 0.29340456921152 
2203	 0.293218113373407 
2204	 0.29306709433176 
2205	 0.292924809491212 
2206	 0.292810119854809 
2207	 0.29270881031173 
2208	 0.292642714977636 
2209	 0.29260781084309 
2210	 0.292585883559203 
2211	 0.292584863442205 
2212	 0.292609960455048 
2213	 0.29266214116556 
2214	 0.292726003135983 
2215	 0.292845873794353 
2216	 0.292923351737687 
2217	 0.292996078709567 
2218	 0.293053193609881 
2219	 0.293077681761595 
2220	 0.293115554740766 
2221	 0.293161682241049 
2222	 0.293194785165315 
2223	 0.293212644379013 
2224	 0.293230398101815 
2225	 0.293246147641581 
2226	 0.293247334179976 
2227	 0.293255354029657 
2228	 0.293274382021933 
2229	 0.293273763347875 
2230	 0.29326154378779 
2231	 0.293248361562296 
2232	 0.293229334839761 
2233	 0.293207503729287 
2234	 0.293178688716918 
2235	 0.293148904972573 
2236	 0.293141711857723 
2237	 0.293080595680004 
2238	 0.292967333258078 
2239	 0.29289079924341 
2240	 0.292814786009674 
2241	 0.292710202645255 
2242	 0.292642485170916 
2243	 0.292521990594729 
2244	 0.29232994355537 
2245	 0.292141857139636 
2246	 0.291961120055227 
2247	 0.291769275398592 
2248	 0.291589971504421 
2249	 0.29143229283193 
2250	 0.291230811511324 
2251	 0.291015553474918 
2252	 0.290786115125332 
2253	 0.29051340306616 
2254	 0.290275821787471 
2255	 0.290045805196986 
2256	 0.289819533091077 
2257	 0.289595167349457 
2258	 0.289391815915717 
2259	 0.289199164524057 
2260	 0.289012197919085 
2261	 0.288851061726616 
2262	 0.288681438350859 
2263	 0.288517340529962 
2264	 0.288337887658668 
2265	 0.288155039356871 
2266	 0.287967728602075 
2267	 0.287762037355257 
2268	 0.287564525434153 
2269	 0.287368817922234 
2270	 0.287179075108106 
2271	 0.286990643683243 
2272	 0.286770704969924 
2273	 0.286558649451716 
2274	 0.286322954531343 
2275	 0.286069052311438 
2276	 0.285783012341663 
2277	 0.285534511348315 
2278	 0.28527102755612 
2279	 0.285037073296332 
2280	 0.28484572268977 
2281	 0.284631652226938 
2282	 0.284409841505983 
2283	 0.284200032498126 
2284	 0.284009604429611 
2285	 0.283785294388109 
2286	 0.283554579934749 
2287	 0.283315473209998 
2288	 0.283077884632301 
2289	 0.282790742162222 
2290	 0.282476761868477 
2291	 0.282147764000332 
2292	 0.281755666007238 
2293	 0.281377018784865 
2294	 0.281001963499938 
2295	 0.280623065423607 
2296	 0.280226735669903 
2297	 0.279845177974311 
2298	 0.279476323756002 
2299	 0.279105312902089 
2300	 0.278725139293185 
2301	 0.278327885902047 
2302	 0.277924933994548 
2303	 0.277489220242641 
2304	 0.277088490082807 
2305	 0.276676206577359 
2306	 0.276230819978556 
2307	 0.275769730531394 
2308	 0.275308546218162 
2309	 0.274815069088576 
2310	 0.274332038268349 
2311	 0.273862317332694 
2312	 0.273370348696543 
2313	 0.272866831163968 
2314	 0.272348902001328 
2315	 0.271825639722134 
2316	 0.271261970378281 
2317	 0.270648763637867 
2318	 0.270061159012341 
2319	 0.269457532020189 
2320	 0.268864431499966 
2321	 0.268285098399089 
2322	 0.267710546223418 
2323	 0.267127327055819 
2324	 0.266573570368038 
2325	 0.266041435194811 
2326	 0.265516637397318 
2327	 0.265068269314051 
2328	 0.264490214503964 
2329	 0.263872027333029 
2330	 0.263278581689105 
2331	 0.262631856593541 
2332	 0.262038844222589 
2333	 0.261515285732498 
2334	 0.260923926139171 
2335	 0.260322121542603 
2336	 0.259704428352766 
2337	 0.259036441637582 
2338	 0.25843135144869 
2339	 0.257773309072699 
2340	 0.257108315482587 
2341	 0.256464243232526 
2342	 0.255753197143627 
2343	 0.255106247268409 
2344	 0.254456975303204 
2345	 0.253749959394856 
2346	 0.253047644020422 
2347	 0.252270546412341 
2348	 0.251397821670113 
2349	 0.250564171765877 
2350	 0.24972127616418 
2351	 0.248852226749673 
2352	 0.247940600793942 
2353	 0.247083052078065 
2354	 0.246239820370751 
2355	 0.245382197538762 
2356	 0.244576129879026 
2357	 0.243705332382133 
2358	 0.24275042987341 
2359	 0.241852085485656 
2360	 0.240961549525834 
2361	 0.240094588421078 
2362	 0.239274003129097 
2363	 0.238424211052834 
2364	 0.237558196956128 
2365	 0.236695056219094 
2366	 0.235816091962156 
2367	 0.234960276211213 
2368	 0.234161803485505 
2369	 0.233290939630566 
2370	 0.232393203593911 
2371	 0.231494962819643 
2372	 0.230497474977753 
2373	 0.229534130060805 
2374	 0.228632100877563 
2375	 0.227700010456323 
2376	 0.226834449509661 
2377	 0.225955093171199 
2378	 0.225104826007329 
2379	 0.22425329751872 
2380	 0.223345296182225 
2381	 0.222498377916298 
2382	 0.221608013086943 
2383	 0.220761752085839 
2384	 0.219920095407954 
2385	 0.219111667404009 
2386	 0.218393070131682 
2387	 0.217516107117892 
2388	 0.216654781144231 
2389	 0.215810401081162 
2390	 0.21494029750246 
2391	 0.214167919514897 
2392	 0.213344158689821 
2393	 0.212508814259498 
2394	 0.211741010867214 
2395	 0.211017781400041 
2396	 0.210373293099867 
2397	 0.209844223123621 
2398	 0.209260375545232 
2399	 0.208580634968285 
2400	 0.207976540711586 
2401	 0.207286111299554 
2402	 0.206563150089905 
2403	 0.206010910970176 
2404	 0.205463611982781 
2405	 0.204900019160755 
2406	 0.204389933666278 
2407	 0.20376905628455 
2408	 0.203123285282979 
2409	 0.202619943181926 
2410	 0.202083296703491 
2411	 0.2015684976794 
2412	 0.201150000748671 
2413	 0.200643135566009 
2414	 0.200202843675705 
2415	 0.199810553405199 
2416	 0.19934173431903 
2417	 0.198798611984876 
2418	 0.198344808159239 
2419	 0.197885583484381 
2420	 0.197453593806321 
2421	 0.197077981057565 
2422	 0.196646517593526 
2423	 0.196241349253957 
2424	 0.195776546761578 
2425	 0.195254126148019 
2426	 0.194772560811397 
2427	 0.194242414620139 
2428	 0.193751964554992 
2429	 0.193310700253869 
2430	 0.192838622952366 
2431	 0.192331572206117 
2432	 0.191909531608644 
2433	 0.19156773361605 
2434	 0.191154967160908 
2435	 0.190809183551323 
2436	 0.190283521732672 
2437	 0.189575640777556 
2438	 0.189016230676724 
2439	 0.188395755344881 
2440	 0.187856992814888 
2441	 0.187452516732843 
2442	 0.18702030056383 
2443	 0.186652566957519 
2444	 0.186210674963373 
2445	 0.18574603149128 
2446	 0.185198364925598 
2447	 0.184510702639392 
2448	 0.183895351682351 
2449	 0.18326963790841 
2450	 0.182732718900101 
2451	 0.182253080363414 
2452	 0.181764230191517 
2453	 0.181390580409635 
2454	 0.18089184508085 
2455	 0.180279683007564 
2456	 0.17973880301082 
2457	 0.179171688787971 
2458	 0.178644208543042 
2459	 0.178147124160404 
2460	 0.177775917881962 
2461	 0.177486278123791 
2462	 0.177138553050679 
2463	 0.176859540088907 
2464	 0.176569223435845 
2465	 0.176189577495469 
2466	 0.175930634349916 
2467	 0.175801438125242 
2468	 0.175580172054694 
2469	 0.175400070866826 
2470	 0.175166290712748 
2471	 0.174876056502941 
2472	 0.174614417633068 
2473	 0.174332006990384 
2474	 0.174034615947706 
2475	 0.17370401467679 
2476	 0.173525017840155 
2477	 0.173268527741009 
2478	 0.173010964610716 
2479	 0.172923878100912 
2480	 0.172647502310518 
2481	 0.172362097416342 
2482	 0.172090282137869 
2483	 0.171716276517704 
2484	 0.171357471791136 
2485	 0.17099952130952 
2486	 0.170657909449566 
2487	 0.170206698772759 
2488	 0.169880331522245 
2489	 0.169598811438601 
2490	 0.169212231534985 
2491	 0.16909584746911 
2492	 0.168872920607111 
2493	 0.168510409396068 
2494	 0.168188862527214 
2495	 0.167744644023758 
2496	 0.167317521707236 
2497	 0.166794095770171 
2498	 0.166444016305579 
2499	 0.166229408327569 
2500	 0.165788145200001 
