Wavelength	mm23-200009.asd
350	 4.72281998407472E-02 
351	 5.76900990011006E-02 
352	 5.72046528699859E-02 
353	 4.54653872397356E-02 
354	 4.67413749745025E-02 
355	 4.83113691751934E-02 
356	 4.69038389841767E-02 
357	 4.42978476071612E-02 
358	 5.25754969483036E-02 
359	 5.21459984075373E-02 
360	 4.53619606649782E-02 
361	 4.75427163284617E-02 
362	 0.046981530992937 
363	 4.57781955009554E-02 
364	 4.61294418262541E-02 
365	 4.81844148669361E-02 
366	 4.38685515315526E-02 
367	 4.27964362742698E-02 
368	 5.23809170311281E-02 
369	 5.28945038715422E-02 
370	 5.15695451721892E-02 
371	 5.12632936304539E-02 
372	 5.13057026592242E-02 
373	 5.23813050553357E-02 
374	 5.42249910780504E-02 
375	 5.57525621750995E-02 
376	 5.44917405730774E-02 
377	 5.52894133537815E-02 
378	 5.67306439198609E-02 
379	 5.68662320686887E-02 
380	 0.060877569474771 
381	 5.95421086566622E-02 
382	 0.055889104175718 
383	 6.10351977304584E-02 
384	 6.30235649272052E-02 
385	 6.27309236945181E-02 
386	 6.31514782244082E-02 
387	 6.79749961269772E-02 
388	 7.01042738390174E-02 
389	 7.01524337925396E-02 
390	 7.07543639883557E-02 
391	 7.09706956088727E-02 
392	 7.18377344083199E-02 
393	 7.46269216013931E-02 
394	 8.02841027184268E-02 
395	 8.27344728046414E-02 
396	 0.084453390257249 
397	 8.74437671534229E-02 
398	 8.94750398923911E-02 
399	 9.20996060135649E-02 
400	 9.56662172154145E-02 
401	 9.94793103847096E-02 
402	 9.97825008292318E-02 
403	 0.1003121806721 
404	 0.102513179057821 
405	 0.105064598100959 
406	 0.107617478618988 
407	 0.10912864136972 
408	 0.109242277433412 
409	 0.109326922281315 
410	 0.109456663437391 
411	 0.110046384624861 
412	 0.11129757908114 
413	 0.11120940244623 
414	 0.110123112596587 
415	 0.108873532247363 
416	 0.108597181196364 
417	 0.107753386156544 
418	 0.106875000113532 
419	 0.106411262041149 
420	 0.104730088800489 
421	 0.10307540651423 
422	 0.101956454752538 
423	 0.101239827450175 
424	 9.95624254972952E-02 
425	 9.77046115409731E-02 
426	 9.62739621705289E-02 
427	 9.50502945694567E-02 
428	 9.41057089247726E-02 
429	 9.29994936669741E-02 
430	 9.15045602179428E-02 
431	 9.11571160698351E-02 
432	 9.12606717794212E-02 
433	 0.091700339206639 
434	 9.29957579083402E-02 
435	 0.094627312378293 
436	 9.62648749725497E-02 
437	 9.78901103054043E-02 
438	 0.100105812152921 
439	 0.102829509979494 
440	 0.105610260513743 
441	 0.107976420141782 
442	 0.111054814508648 
443	 0.114010940345865 
444	 0.116727682115155 
445	 0.120469525871471 
446	 0.123709458096153 
447	 0.126793745780656 
448	 0.130339743135545 
449	 0.133707984430279 
450	 0.13703268627124 
451	 0.140348858137046 
452	 0.143606849452137 
453	 0.146853014135485 
454	 0.149997343472308 
455	 0.153036305643085 
456	 0.156231472246108 
457	 0.159370403635221 
458	 0.162349262605012 
459	 0.165177253268512 
460	 0.168326086217412 
461	 0.171424928527986 
462	 0.174412747811317 
463	 0.177769719585898 
464	 0.180771038583895 
465	 0.183669101147653 
466	 0.186816632308265 
467	 0.189791889092387 
468	 0.192844245673415 
469	 0.195856783194648 
470	 0.198453190694198 
471	 0.201171421938787 
472	 0.203996811011548 
473	 0.206805592864744 
474	 0.209416405983802 
475	 0.212208690077764 
476	 0.21495318384371 
477	 0.217292408183039 
478	 0.220047137952858 
479	 0.222667657418956 
480	 0.224877239765241 
481	 0.226932658309435 
482	 0.229315350397319 
483	 0.231711144243659 
484	 0.233744993384276 
485	 0.235863000787722 
486	 0.237648713382823 
487	 0.239218511469446 
488	 0.241107948286619 
489	 0.242891481616642 
490	 0.244391383062289 
491	 0.245691606292959 
492	 0.247451722902362 
493	 0.248725213922828 
494	 0.249733815698585 
495	 0.251138803376583 
496	 0.252342541235136 
497	 0.253449449718947 
498	 0.254511225117656 
499	 0.255410154381711 
500	 0.256100630394809 
501	 0.256758543635345 
502	 0.257525626345201 
503	 0.258068054764959 
504	 0.258696405531837 
505	 0.259446488802554 
506	 0.260087586895932 
507	 0.260519825338733 
508	 0.260998149087107 
509	 0.261621092786104 
510	 0.261864097924628 
511	 0.262116549187588 
512	 0.262464442997893 
513	 0.262835311219432 
514	 0.263310695897156 
515	 0.263627180584003 
516	 0.263752904831893 
517	 0.264099899801856 
518	 0.264540854551742 
519	 0.264792796671366 
520	 0.264689261999563 
521	 0.264939103703271 
522	 0.265279482884635 
523	 0.265536402433668 
524	 0.265692814848799 
525	 0.265926856112121 
526	 0.266158127240836 
527	 0.266300857893129 
528	 0.2664344557459 
529	 0.266643922429254 
530	 0.266933761182756 
531	 0.267241950598359 
532	 0.267410050060878 
533	 0.26759576616871 
534	 0.26788984257904 
535	 0.268157701394178 
536	 0.268372434260029 
537	 0.268572108948991 
538	 0.268811852345548 
539	 0.269015566697265 
540	 0.269300044568416 
541	 0.26968543914161 
542	 0.270049635532555 
543	 0.270341386650971 
544	 0.270620323970909 
545	 0.270961993193119 
546	 0.271366906143998 
547	 0.27172085834392 
548	 0.272050894769972 
549	 0.272496520342744 
550	 0.272926806717866 
551	 0.273317383471135 
552	 0.273690778181393 
553	 0.274136916111899 
554	 0.274579255090758 
555	 0.275067844942711 
556	 0.275690003693521 
557	 0.27624752575777 
558	 0.276740296992094 
559	 0.277246416949839 
560	 0.277952874705904 
561	 0.278520195703422 
562	 0.279034157266682 
563	 0.279691144083695 
564	 0.280402211645711 
565	 0.281117974237049 
566	 0.281848529074945 
567	 0.282666790176295 
568	 0.283497976755668 
569	 0.284298476267688 
570	 0.285063426789909 
571	 0.285887668513991 
572	 0.286700077256176 
573	 0.28754577466103 
574	 0.288528777001161 
575	 0.289397962222822 
576	 0.290176008212799 
577	 0.290941925338469 
578	 0.291787644923858 
579	 0.292721569920466 
580	 0.293704247586305 
581	 0.294706672912246 
582	 0.295956086641654 
583	 0.29727643715815 
584	 0.298484099726696 
585	 0.29943651738252 
586	 0.300455359625122 
587	 0.301467371024348 
588	 0.3023651370234 
589	 0.303449334011459 
590	 0.304473842622366 
591	 0.30542033753937 
592	 0.306491183941045 
593	 0.3076406525609 
594	 0.308722269366251 
595	 0.30968079877932 
596	 0.310751361860861 
597	 0.311887934063798 
598	 0.313055333959778 
599	 0.314223521265314 
600	 0.315378141566741 
601	 0.316475281707034 
602	 0.317492179033732 
603	 0.318451609988032 
604	 0.319334908645758 
605	 0.320232079993511 
606	 0.321238678659152 
607	 0.32227144134787 
608	 0.323209494738586 
609	 0.324072643664236 
610	 0.325040466889997 
611	 0.326062035036906 
612	 0.327062643806159 
613	 0.327953814442596 
614	 0.328628790963485 
615	 0.329331378608108 
616	 0.330083725140469 
617	 0.330756069283902 
618	 0.331486525676823 
619	 0.332172106558955 
620	 0.332772804150665 
621	 0.333470608343787 
622	 0.334033462206969 
623	 0.334525963068844 
624	 0.335116170323435 
625	 0.335789563442894 
626	 0.336333236311092 
627	 0.336759634345377 
628	 0.33739401945291 
629	 0.337962002218757 
630	 0.338451939638529 
631	 0.33893128653293 
632	 0.339484986754077 
633	 0.339975550934563 
634	 0.340402605132616 
635	 0.340878915862075 
636	 0.341373995768868 
637	 0.3418521884539 
638	 0.342292063342583 
639	 0.342703865888386 
640	 0.343173064731362 
641	 0.343663230515804 
642	 0.344091231018086 
643	 0.344518627630096 
644	 0.344959214494327 
645	 0.345402942915472 
646	 0.345810703407256 
647	 0.346220155050043 
648	 0.346639555625354 
649	 0.347065264534756 
650	 0.347487827977885 
651	 0.347863165580759 
652	 0.348235558984304 
653	 0.348716684044935 
654	 0.349192912573021 
655	 0.349610466649158 
656	 0.349982395292804 
657	 0.350461583164637 
658	 0.350888886335089 
659	 0.351269088645885 
660	 0.351678810188476 
661	 0.352095505887725 
662	 0.352530576396118 
663	 0.352959343244596 
664	 0.353296516175654 
665	 0.353788154618712 
666	 0.354286934644749 
667	 0.354620079060289 
668	 0.355002847917885 
669	 0.355462630715881 
670	 0.355953929066424 
671	 0.356377445077429 
672	 0.35675063487365 
673	 0.357130495969614 
674	 0.357547510546728 
675	 0.357950174024699 
676	 0.358372895200044 
677	 0.3587982932007 
678	 0.359192966964372 
679	 0.359570399207618 
680	 0.359977772216613 
681	 0.360423916589815 
682	 0.360864979438456 
683	 0.361324572585902 
684	 0.361728074026786 
685	 0.362048462332236 
686	 0.362516505870561 
687	 0.362980322181875 
688	 0.363371120490807 
689	 0.36369876296121 
690	 0.364112696946574 
691	 0.364549635830768 
692	 0.364955531167443 
693	 0.365361800516742 
694	 0.365770543712239 
695	 0.366197837426785 
696	 0.366632334680895 
697	 0.366887121933778 
698	 0.367186761255653 
699	 0.367590475574811 
700	 0.36795905101082 
701	 0.368278042691706 
702	 0.368616240680887 
703	 0.369019550652849 
704	 0.369424519996799 
705	 0.369746425019788 
706	 0.370032315134742 
707	 0.370387073417137 
708	 0.370750303246756 
709	 0.371062174496176 
710	 0.371329981667813 
711	 0.371659454195497 
712	 0.371908671724116 
713	 0.372085783297479 
714	 0.372259612668493 
715	 0.372554354508489 
716	 0.372817062688129 
717	 0.373025432297302 
718	 0.373250774503869 
719	 0.37341208813601 
720	 0.373546361557363 
721	 0.373678570077855 
722	 0.373774624017212 
723	 0.373902234154067 
724	 0.37400460253969 
725	 0.374015287071249 
726	 0.374046673468978 
727	 0.374068865000573 
728	 0.37407566462017 
729	 0.374084262102489 
730	 0.374004438868179 
731	 0.373901828129371 
732	 0.373818180496893 
733	 0.37366255188321 
734	 0.373530504967025 
735	 0.373387159948712 
736	 0.37316031221809 
737	 0.372901153534116 
738	 0.372654371327199 
739	 0.372404559312043 
740	 0.372074619947594 
741	 0.371722064046788 
742	 0.371337547627521 
743	 0.370921463065049 
744	 0.370542382821996 
745	 0.370117852002781 
746	 0.369664801142664 
747	 0.369229695003574 
748	 0.368705596087527 
749	 0.36815955938996 
750	 0.367643573821628 
751	 0.367168703522378 
752	 0.366578608029052 
753	 0.365911154835514 
754	 0.365248965217784 
755	 0.364659283033304 
756	 0.364062838702944 
757	 0.363401892867832 
758	 0.362657416964138 
759	 0.361981875568201 
760	 0.36128622583812 
761	 0.360531863196075 
762	 0.359773042331348 
763	 0.359122048119735 
764	 0.35841939425091 
765	 0.357559022309865 
766	 0.3567770052696 
767	 0.356041271677684 
768	 0.355279014061727 
769	 0.354422869160085 
770	 0.353627802614286 
771	 0.35284795067976 
772	 0.352035810649752 
773	 0.351169052564426 
774	 0.350410673428203 
775	 0.349639250638506 
776	 0.348760735681044 
777	 0.347933062972535 
778	 0.347143583596582 
779	 0.346365173357065 
780	 0.345563097843276 
781	 0.344726388903779 
782	 0.343941436708258 
783	 0.343182394236527 
784	 0.342311733977057 
785	 0.341526975495219 
786	 0.340770953534344 
787	 0.339981818342807 
788	 0.339204638782424 
789	 0.338483335115333 
790	 0.337751997322531 
791	 0.336939196518114 
792	 0.336178824082989 
793	 0.335444243046683 
794	 0.334730138213393 
795	 0.334043911408152 
796	 0.333202389706115 
797	 0.332421039190569 
798	 0.331814923325659 
799	 0.331209477571494 
800	 0.330529671412366 
801	 0.329778118448622 
802	 0.329022153302904 
803	 0.328433838048438 
804	 0.327880256026345 
805	 0.327273876923737 
806	 0.326583072520666 
807	 0.325908617141163 
808	 0.325303291838423 
809	 0.324756776789464 
810	 0.324186517231111 
811	 0.323608694809719 
812	 0.322986412914154 
813	 0.322337329363778 
814	 0.321851956326436 
815	 0.321385002655434 
816	 0.320878401727618 
817	 0.320327084335219 
818	 0.319782405748873 
819	 0.31934460433693 
820	 0.318935472927694 
821	 0.31835784974679 
822	 0.317919517419372 
823	 0.31741523243904 
824	 0.316813929464348 
825	 0.316487664734763 
826	 0.316163422134 
827	 0.315791304639595 
828	 0.315379535617182 
829	 0.314914725104506 
830	 0.314448781040222 
831	 0.314050973591656 
832	 0.313766339070801 
833	 0.31348187881082 
834	 0.31316468073972 
835	 0.312821626125297 
836	 0.312492331961991 
837	 0.312201003885535 
838	 0.311931493713365 
839	 0.311654657820665 
840	 0.311334122837911 
841	 0.31098842307191 
842	 0.310707492778233 
843	 0.31053670226269 
844	 0.31033417185824 
845	 0.310113083416589 
846	 0.309861775821113 
847	 0.309599780316082 
848	 0.309555754202273 
849	 0.309504511777017 
850	 0.309344228349505 
851	 0.309118476896794 
852	 0.308918019946043 
853	 0.308796341887243 
854	 0.308714083838943 
855	 0.308518766299646 
856	 0.308466014406084 
857	 0.308412175330976 
858	 0.308259611550548 
859	 0.308275754534825 
860	 0.308317586105134 
861	 0.308287878768335 
862	 0.308160974933921 
863	 0.308134711877378 
864	 0.308153554299378 
865	 0.308162151044014 
866	 0.308126578828163 
867	 0.308122777275452 
868	 0.308177538525099 
869	 0.308265167638886 
870	 0.308319874635568 
871	 0.308400301978925 
872	 0.308533311321187 
873	 0.308698012159335 
874	 0.308809978812011 
875	 0.308899932203154 
876	 0.308997855840574 
877	 0.309133007177982 
878	 0.30932989854262 
879	 0.309567915191289 
880	 0.309787741043224 
881	 0.309952171232736 
882	 0.31016828729561 
883	 0.310361012759277 
884	 0.310549131778841 
885	 0.310796719495325 
886	 0.31108826015919 
887	 0.311393473231763 
888	 0.311669020954156 
889	 0.311883607504374 
890	 0.312187915474436 
891	 0.312547249641924 
892	 0.312942728032982 
893	 0.313397738068794 
894	 0.313702139255928 
895	 0.313981924653469 
896	 0.314360276477285 
897	 0.314826403882432 
898	 0.315283661100291 
899	 0.315714436619227 
900	 0.316128888767313 
901	 0.316532774111496 
902	 0.317034815549922 
903	 0.317579343444817 
904	 0.318071853219782 
905	 0.318515795218998 
906	 0.319006946151896 
907	 0.319548257381624 
908	 0.32010518281925 
909	 0.320727448379886 
910	 0.321337796304849 
911	 0.321909610798363 
912	 0.322463157874859 
913	 0.323038926079624 
914	 0.323688253531862 
915	 0.32436535224296 
916	 0.324967109630468 
917	 0.325681804576978 
918	 0.326381621884638 
919	 0.327016550988793 
920	 0.327675009956115 
921	 0.328470751536656 
922	 0.329231796735405 
923	 0.329896659306989 
924	 0.330636466024917 
925	 0.331408686537902 
926	 0.332210703156129 
927	 0.332980619760738 
928	 0.333543546986169 
929	 0.334486645641127 
930	 0.335530015538177 
931	 0.33637501958558 
932	 0.33723831669433 
933	 0.338015558548192 
934	 0.338771207805726 
935	 0.339623690226019 
936	 0.340733741457901 
937	 0.341512936739853 
938	 0.342219502502794 
939	 0.343242484928346 
940	 0.344346066836232 
941	 0.345348102902356 
942	 0.346328673703386 
943	 0.34740526230812 
944	 0.348358944241029 
945	 0.349292895143907 
946	 0.35028292326265 
947	 0.351347379426707 
948	 0.352351738551377 
949	 0.353320654924122 
950	 0.354335564785518 
951	 0.355470255445474 
952	 0.356653437997904 
953	 0.357594511340837 
954	 0.358596739284019 
955	 0.360073921099085 
956	 0.361148465283603 
957	 0.362142933250888 
958	 0.36326708868331 
959	 0.364543787903971 
960	 0.365643731524564 
961	 0.366819752128821 
962	 0.36806257385893 
963	 0.369185669682914 
964	 0.370186192530634 
965	 0.371390015880199 
966	 0.37273434872035 
967	 0.373933543054406 
968	 0.375165921929629 
969	 0.376435304650834 
970	 0.377660421414054 
971	 0.378753625421592 
972	 0.379904198076246 
973	 0.381142740005756 
974	 0.382419345776806 
975	 0.383676224377815 
976	 0.385122909613599 
977	 0.386466412050257 
978	 0.387735432756933 
979	 0.389148529774875 
980	 0.390602977878361 
981	 0.391856697830386 
982	 0.393082564806697 
983	 0.394574085235455 
984	 0.395777072029866 
985	 0.397127449309223 
986	 0.398509979048921 
987	 0.399625117913267 
988	 0.401063049075282 
989	 0.402519272281983 
990	 0.403891954276707 
991	 0.405240618368042 
992	 0.406702353348969 
993	 0.408039258603335 
994	 0.409395268794029 
995	 0.41093567674014 
996	 0.412157240391169 
997	 0.413599873841947 
998	 0.415061976848725 
999	 0.416247841680072 
1000	 0.417643872350323 
1001	 0.419011008906815 
1002	 0.420374606594163 
1003	 0.421739300428167 
1004	 0.423034471904807 
1005	 0.42441338073212 
1006	 0.425720996818814 
1007	 0.426925527652005 
1008	 0.428101254528512 
1009	 0.429369775854753 
1010	 0.430601079828918 
1011	 0.431776737921664 
1012	 0.432965956755607 
1013	 0.434137693467679 
1014	 0.435364624175918 
1015	 0.436667527175621 
1016	 0.437933463950293 
1017	 0.439160220110575 
1018	 0.440383793430952 
1019	 0.44154045759981 
1020	 0.442676261216274 
1021	 0.443806735703581 
1022	 0.444880535071476 
1023	 0.446002715307473 
1024	 0.44712776464761 
1025	 0.448188099996488 
1026	 0.449285763256127 
1027	 0.450399451805457 
1028	 0.451434044913113 
1029	 0.452479652740327 
1030	 0.453558130587033 
1031	 0.454584807357829 
1032	 0.455568264980789 
1033	 0.456554999695667 
1034	 0.457544246530871 
1035	 0.458463689895075 
1036	 0.45937571696675 
1037	 0.460356922505905 
1038	 0.461348950327513 
1039	 0.462324301106596 
1040	 0.463330872586638 
1041	 0.464278756907433 
1042	 0.465159713961369 
1043	 0.466089227814979 
1044	 0.467008814665672 
1045	 0.467944972638778 
1046	 0.468819139694249 
1047	 0.469681564534012 
1048	 0.470576369532912 
1049	 0.471457724199842 
1050	 0.472381468890849 
1051	 0.473344040124571 
1052	 0.474190899425762 
1053	 0.474988433409795 
1054	 0.475818187186874 
1055	 0.476681673240841 
1056	 0.477609342442375 
1057	 0.478519602351633 
1058	 0.479489590782479 
1059	 0.480393753071612 
1060	 0.481266448421871 
1061	 0.482119316652316 
1062	 0.482928371150971 
1063	 0.483734751336454 
1064	 0.484579242324102 
1065	 0.485371096262339 
1066	 0.48618605460116 
1067	 0.487051722601833 
1068	 0.487889662350879 
1069	 0.488699046394168 
1070	 0.489536241660682 
1071	 0.490426813491691 
1072	 0.491260413055507 
1073	 0.492078157078819 
1074	 0.492877691154219 
1075	 0.493672695558176 
1076	 0.494352813460869 
1077	 0.495082535878676 
1078	 0.495830386627215 
1079	 0.496549798574676 
1080	 0.497271474532191 
1081	 0.497962231181766 
1082	 0.49869786386854 
1083	 0.499414911580092 
1084	 0.500124786970016 
1085	 0.500841927203242 
1086	 0.501565111713203 
1087	 0.502245165792894 
1088	 0.502891389172861 
1089	 0.503596769392783 
1090	 0.504259403179895 
1091	 0.504925222050286 
1092	 0.505557842375505 
1093	 0.506129701016253 
1094	 0.506704592741259 
1095	 0.507281955333962 
1096	 0.507899436497173 
1097	 0.508550182426671 
1098	 0.509158086527775 
1099	 0.50976152940844 
1100	 0.510338649508231 
1101	 0.510899907810682 
1102	 0.51143141364818 
1103	 0.511935909688199 
1104	 0.51242108618454 
1105	 0.512951114388792 
1106	 0.51348868229106 
1107	 0.514015207291656 
1108	 0.514567882942965 
1109	 0.515107726378905 
1110	 0.515610222300836 
1111	 0.516116883629198 
1112	 0.516648097707456 
1113	 0.517153249031964 
1114	 0.517614041524152 
1115	 0.518101963238314 
1116	 0.518611325569265 
1117	 0.519102563573601 
1118	 0.519583887083743 
1119	 0.520068519052209 
1120	 0.520567192055637 
1121	 0.521035101862 
1122	 0.521510451436123 
1123	 0.521994564314215 
1124	 0.522472401225637 
1125	 0.52296868957727 
1126	 0.523409378068569 
1127	 0.523805809104704 
1128	 0.524241757431536 
1129	 0.524665632167248 
1130	 0.525082917830713 
1131	 0.525548241916483 
1132	 0.525960334966136 
1133	 0.52633271864672 
1134	 0.526692647307216 
1135	 0.527024991086837 
1136	 0.527350729729693 
1137	 0.527700870013488 
1138	 0.528031250466796 
1139	 0.528360532871903 
1140	 0.52871902822286 
1141	 0.529030784801323 
1142	 0.529308416533259 
1143	 0.529585322718727 
1144	 0.529868829445618 
1145	 0.530095647428765 
1146	 0.530277133511886 
1147	 0.530474276349556 
1148	 0.530654174879841 
1149	 0.53081574104264 
1150	 0.530962920778983 
1151	 0.531126731158012 
1152	 0.531268435373555 
1153	 0.53140360196447 
1154	 0.53155676811047 
1155	 0.531725939635272 
1156	 0.531899769254325 
1157	 0.53207973876916 
1158	 0.532256193868319 
1159	 0.532457103904324 
1160	 0.532636287176356 
1161	 0.532783676339633 
1162	 0.532956332305953 
1163	 0.533125600741538 
1164	 0.533311819384176 
1165	 0.533510201122346 
1166	 0.533737725251824 
1167	 0.533935606550374 
1168	 0.534149119944496 
1169	 0.534343301169724 
1170	 0.534514808333055 
1171	 0.534711771829314 
1172	 0.534908429541233 
1173	 0.535120542645205 
1174	 0.535338962354491 
1175	 0.535576369455241 
1176	 0.535834035746263 
1177	 0.536090363955424 
1178	 0.53634846107768 
1179	 0.536630746264415 
1180	 0.536951478897252 
1181	 0.537238245204429 
1182	 0.537525636005621 
1183	 0.537809669378893 
1184	 0.538090366329181 
1185	 0.538338663919161 
1186	 0.53861384328058 
1187	 0.538921901675005 
1188	 0.539191389643131 
1189	 0.539445177309364 
1190	 0.539696202670271 
1191	 0.539946661420755 
1192	 0.540171214921443 
1193	 0.540361859403814 
1194	 0.540578971351583 
1195	 0.540778758985436 
1196	 0.540996471401966 
1197	 0.541251878253321 
1198	 0.541492027070136 
1199	 0.54172862742382 
1200	 0.541964358021707 
1201	 0.542187323685209 
1202	 0.54239476478282 
1203	 0.542622462055189 
1204	 0.542855310217305 
1205	 0.543077269986421 
1206	 0.543306571916869 
1207	 0.543530344856754 
1208	 0.543745835644869 
1209	 0.543953777374864 
1210	 0.544179021979961 
1211	 0.544371107084943 
1212	 0.544511932974911 
1213	 0.544686985693347 
1214	 0.544876573008621 
1215	 0.545048038592378 
1216	 0.545218390164137 
1217	 0.545405750185589 
1218	 0.545572172428728 
1219	 0.545701106552445 
1220	 0.545874390305882 
1221	 0.546075844097255 
1222	 0.546254932574295 
1223	 0.546447251048117 
1224	 0.54661978491315 
1225	 0.546776938338872 
1226	 0.546927888829004 
1227	 0.547068612976452 
1228	 0.547209848892101 
1229	 0.547334085880957 
1230	 0.547469416029725 
1231	 0.54762740017773 
1232	 0.547760393222945 
1233	 0.54788384737409 
1234	 0.547990105668274 
1235	 0.548131222858209 
1236	 0.548262650240179 
1237	 0.54842125920879 
1238	 0.548633456803592 
1239	 0.54879608637118 
1240	 0.548942742529625 
1241	 0.549091399460299 
1242	 0.549243607667671 
1243	 0.549363170625579 
1244	 0.549441631846523 
1245	 0.549560005738981 
1246	 0.549666506871134 
1247	 0.549787204949252 
1248	 0.549945771135248 
1249	 0.550108173007451 
1250	 0.55024924780102 
1251	 0.550369942384283 
1252	 0.550490675776045 
1253	 0.550608491669152 
1254	 0.550715632128727 
1255	 0.550815774655174 
1256	 0.55090199016802 
1257	 0.550970693541588 
1258	 0.551048789238156 
1259	 0.551111334965431 
1260	 0.551187926829247 
1261	 0.551288706670568 
1262	 0.551363827516354 
1263	 0.551416311256269 
1264	 0.551490936159289 
1265	 0.55157576197307 
1266	 0.551644306914881 
1267	 0.551713542363934 
1268	 0.551794189218185 
1269	 0.55185346509235 
1270	 0.55187586822786 
1271	 0.551943072383629 
1272	 0.55202614558516 
1273	 0.552106257254232 
1274	 0.552211910942061 
1275	 0.552292260222068 
1276	 0.552353572087377 
1277	 0.552432310595684 
1278	 0.552482880741067 
1279	 0.552587295314946 
1280	 0.552743215407683 
1281	 0.552875488277226 
1282	 0.553032484186282 
1283	 0.553178794518628 
1284	 0.55331823567883 
1285	 0.55343703888824 
1286	 0.553557851860328 
1287	 0.553695607365595 
1288	 0.553823110154292 
1289	 0.5539420350327 
1290	 0.55406187180608 
1291	 0.554177906290807 
1292	 0.554305536425639 
1293	 0.554435521343932 
1294	 0.554558739153319 
1295	 0.554706427894867 
1296	 0.554818778342286 
1297	 0.554917518144378 
1298	 0.554991796346186 
1299	 0.55502875561821 
1300	 0.555079084371271 
1301	 0.555119667586377 
1302	 0.555152378082865 
1303	 0.555186439036692 
1304	 0.555215293293842 
1305	 0.555241117618166 
1306	 0.5552438414804 
1307	 0.555229938266508 
1308	 0.555216465015176 
1309	 0.555189413295067 
1310	 0.555141984250911 
1311	 0.555083699854874 
1312	 0.55503167321627 
1313	 0.554944052038376 
1314	 0.554818597366676 
1315	 0.554700710249153 
1316	 0.554574129138982 
1317	 0.554435979285844 
1318	 0.554284142609793 
1319	 0.554136055899748 
1320	 0.553995732872627 
1321	 0.553823645335309 
1322	 0.553647338213448 
1323	 0.553453346508139 
1324	 0.55321056529196 
1325	 0.552945083418175 
1326	 0.552672499523981 
1327	 0.552395337563145 
1328	 0.552101160931105 
1329	 0.551807285464983 
1330	 0.551491522408975 
1331	 0.551164198901344 
1332	 0.550804965214586 
1333	 0.550422189312016 
1334	 0.55003464778109 
1335	 0.549602462972159 
1336	 0.549215635626574 
1337	 0.548852912325623 
1338	 0.548471775467863 
1339	 0.548115470140583 
1340	 0.547722378373846 
1341	 0.54729456668303 
1342	 0.546879178576417 
1343	 0.546436949906109 
1344	 0.546020665112114 
1345	 0.545653889369542 
1346	 0.545284435513118 
1347	 0.544940345301186 
1348	 0.544598563457087 
1349	 0.54420316713131 
1350	 0.543804073793239 
1351	 0.543429189553285 
1352	 0.543046589442438 
1353	 0.542689403402685 
1354	 0.542370472561214 
1355	 0.542021194062436 
1356	 0.541661012630758 
1357	 0.541312048981363 
1358	 0.540944364383205 
1359	 0.540610783819456 
1360	 0.540307554227431 
1361	 0.539993930596667 
1362	 0.539695256021323 
1363	 0.539391386030606 
1364	 0.53908329863287 
1365	 0.538776957650955 
1366	 0.538472610978776 
1367	 0.538168099785306 
1368	 0.537889213760818 
1369	 0.537575560098942 
1370	 0.53721673357272 
1371	 0.536854439622698 
1372	 0.53645805846593 
1373	 0.536017433498345 
1374	 0.535548881024307 
1375	 0.535089755337616 
1376	 0.534520325769752 
1377	 0.533894464343076 
1378	 0.53318994482204 
1379	 0.532386163193081 
1380	 0.531574860016157 
1381	 0.530698585473075 
1382	 0.529802255517932 
1383	 0.528919325846539 
1384	 0.527933384682563 
1385	 0.526930407003065 
1386	 0.525804431180945 
1387	 0.524592583588913 
1388	 0.523284355512838 
1389	 0.521892188027409 
1390	 0.520377836905049 
1391	 0.518786806920947 
1392	 0.517084224743088 
1393	 0.515232890428602 
1394	 0.513284046434785 
1395	 0.511187445347891 
1396	 0.508995430058174 
1397	 0.506759461610063 
1398	 0.504459313685321 
1399	 0.502041359809762 
1400	 0.499561186449171 
1401	 0.496960523835562 
1402	 0.494213102194732 
1403	 0.491453581536011 
1404	 0.488585624946222 
1405	 0.485757371806861 
1406	 0.482890116223525 
1407	 0.480021843802548 
1408	 0.477126092919236 
1409	 0.474274153052971 
1410	 0.471369070882378 
1411	 0.468601339038632 
1412	 0.465881102979867 
1413	 0.463272609296096 
1414	 0.460815262647907 
1415	 0.45840128819917 
1416	 0.456087221203482 
1417	 0.453829243024645 
1418	 0.451574421042047 
1419	 0.449427367509554 
1420	 0.447369148536351 
1421	 0.445386290818619 
1422	 0.443488527681937 
1423	 0.441618304993549 
1424	 0.439781753101855 
1425	 0.437969707344922 
1426	 0.436222833459913 
1427	 0.434520544436545 
1428	 0.432870787001929 
1429	 0.431279647950888 
1430	 0.42972735640992 
1431	 0.428263248932395 
1432	 0.42674476897105 
1433	 0.425230445787931 
1434	 0.423729507481573 
1435	 0.422203753772498 
1436	 0.420708941336352 
1437	 0.419262599151431 
1438	 0.417797218208614 
1439	 0.416337989615113 
1440	 0.414858490819684 
1441	 0.413343663043211 
1442	 0.411847265533104 
1443	 0.410351911256008 
1444	 0.408916397690961 
1445	 0.407577208041238 
1446	 0.406359842484203 
1447	 0.405291718807163 
1448	 0.40433915570994 
1449	 0.403550649767713 
1450	 0.402957807017186 
1451	 0.402578001139628 
1452	 0.402367850668407 
1453	 0.40241172932258 
1454	 0.402717153536613 
1455	 0.403135890358745 
1456	 0.403824718979723 
1457	 0.404498298130657 
1458	 0.405339338423867 
1459	 0.406121419212951 
1460	 0.40697283075788 
1461	 0.407744566469836 
1462	 0.408533610056407 
1463	 0.409214860504213 
1464	 0.409855777310183 
1465	 0.41039938332036 
1466	 0.410844411561925 
1467	 0.411235022675082 
1468	 0.411497144415956 
1469	 0.411787220141333 
1470	 0.412049099973155 
1471	 0.412278211106489 
1472	 0.412530540311162 
1473	 0.412779859991627 
1474	 0.412952454026332 
1475	 0.413124368836497 
1476	 0.413264350107896 
1477	 0.413382967272232 
1478	 0.413537276886424 
1479	 0.413690465865765 
1480	 0.413871417586994 
1481	 0.414063483982292 
1482	 0.414247961744543 
1483	 0.414449002678501 
1484	 0.414623601277803 
1485	 0.414768737329751 
1486	 0.414950988702285 
1487	 0.415126639913781 
1488	 0.415338758245057 
1489	 0.415603199712661 
1490	 0.415829376126212 
1491	 0.416066554088779 
1492	 0.416275541793686 
1493	 0.41645032156379 
1494	 0.416640938087994 
1495	 0.416827425010663 
1496	 0.417011202008955 
1497	 0.417209413246215 
1498	 0.417382482789942 
1499	 0.417552712801991 
1500	 0.417694479092396 
1501	 0.417805931349372 
1502	 0.417912486724045 
1503	 0.417995689531484 
1504	 0.418071761589534 
1505	 0.418166747431455 
1506	 0.418258235415544 
1507	 0.418352160010928 
1508	 0.418446601578561 
1509	 0.418526245871187 
1510	 0.418573202591527 
1511	 0.418603470957611 
1512	 0.418651096042941 
1513	 0.418703356743865 
1514	 0.418781561858813 
1515	 0.41888161897777 
1516	 0.418965195669257 
1517	 0.419060498421607 
1518	 0.419171056852818 
1519	 0.419252736398518 
1520	 0.419329399024464 
1521	 0.41940173099471 
1522	 0.419442825337491 
1523	 0.419511927887197 
1524	 0.419592176179157 
1525	 0.419678174518093 
1526	 0.419782590412278 
1527	 0.419866511622829 
1528	 0.419955284016007 
1529	 0.420028305977648 
1530	 0.42008384031711 
1531	 0.420139193039295 
1532	 0.42018452005749 
1533	 0.420226769189789 
1534	 0.420275230066317 
1535	 0.420300359271368 
1536	 0.420296073942015 
1537	 0.420320758769942 
1538	 0.420333053541749 
1539	 0.420365356384979 
1540	 0.420439688077021 
1541	 0.420489919113057 
1542	 0.420528833496301 
1543	 0.420572897538732 
1544	 0.42060663340597 
1545	 0.420653290850081 
1546	 0.420714739932596 
1547	 0.420770997354009 
1548	 0.420826392100714 
1549	 0.420890181515602 
1550	 0.420929066835364 
1551	 0.420978131603097 
1552	 0.421045963430171 
1553	 0.421101332473869 
1554	 0.421161313847262 
1555	 0.421210333674423 
1556	 0.421211218915553 
1557	 0.421193711600299 
1558	 0.421194816974751 
1559	 0.421191263708501 
1560	 0.421180487587585 
1561	 0.421182715621233 
1562	 0.421165634441051 
1563	 0.421114301259899 
1564	 0.421104337330735 
1565	 0.421117853120521 
1566	 0.42110564333972 
1567	 0.42110405459737 
1568	 0.421079370790544 
1569	 0.421014698521809 
1570	 0.420996121341722 
1571	 0.420993760439217 
1572	 0.42098722560179 
1573	 0.421001843396418 
1574	 0.421007160197856 
1575	 0.421007105481819 
1576	 0.421000992589197 
1577	 0.421004923199232 
1578	 0.420985030609576 
1579	 0.420933233263204 
1580	 0.42090687609677 
1581	 0.420881011575539 
1582	 0.420858984470939 
1583	 0.420875096906504 
1584	 0.42083791095049 
1585	 0.420776908975235 
1586	 0.42070385862883 
1587	 0.420585813511911 
1588	 0.420487920168001 
1589	 0.420395348546366 
1590	 0.420294697751543 
1591	 0.42019077142508 
1592	 0.42008330448971 
1593	 0.419968047438768 
1594	 0.41985377008183 
1595	 0.419755398523245 
1596	 0.419628896566268 
1597	 0.419481154757939 
1598	 0.419336637432618 
1599	 0.419190640275544 
1600	 0.419016977772859 
1601	 0.418824180264657 
1602	 0.418637138484248 
1603	 0.418417675709947 
1604	 0.418211926174235 
1605	 0.41801938568591 
1606	 0.417831875680143 
1607	 0.417646508210762 
1608	 0.417471445881107 
1609	 0.417285768497055 
1610	 0.417090898240095 
1611	 0.416866567993975 
1612	 0.416628938447734 
1613	 0.41637525513221 
1614	 0.416085889967961 
1615	 0.415794906140715 
1616	 0.415495797028125 
1617	 0.415183405518995 
1618	 0.414897587677947 
1619	 0.414602667915861 
1620	 0.414284627587521 
1621	 0.413986477416022 
1622	 0.413696593314541 
1623	 0.413395620185758 
1624	 0.413108560937881 
1625	 0.412778749408899 
1626	 0.412418593357513 
1627	 0.412082970792348 
1628	 0.411725025111048 
1629	 0.411392970325288 
1630	 0.411087891560912 
1631	 0.41077064092437 
1632	 0.410454810944704 
1633	 0.410131234291544 
1634	 0.409822082724388 
1635	 0.409466841215159 
1636	 0.409087787511248 
1637	 0.408697455670683 
1638	 0.408256364803801 
1639	 0.407876145997332 
1640	 0.40750337651571 
1641	 0.407158589939916 
1642	 0.406856310805302 
1643	 0.40654035925624 
1644	 0.406236593529286 
1645	 0.405921208522608 
1646	 0.405615576536793 
1647	 0.405283887578976 
1648	 0.404942148685892 
1649	 0.404582876812011 
1650	 0.404186178232161 
1651	 0.40382888345911 
1652	 0.403492982429991 
1653	 0.403115523387688 
1654	 0.402731346997164 
1655	 0.402356858979928 
1656	 0.401949566241806 
1657	 0.401563828366389 
1658	 0.40121589465788 
1659	 0.400837513068592 
1660	 0.400430033112181 
1661	 0.400044331252366 
1662	 0.399653857951317 
1663	 0.399292355937496 
1664	 0.398949809935577 
1665	 0.3986076163955 
1666	 0.398281776254286 
1667	 0.397963578340088 
1668	 0.397658923378731 
1669	 0.397337115708827 
1670	 0.397041844067604 
1671	 0.396695110072678 
1672	 0.396286333223869 
1673	 0.395934777052858 
1674	 0.395571921581536 
1675	 0.395250031209288 
1676	 0.394993464695058 
1677	 0.39469360733893 
1678	 0.39440083927196 
1679	 0.394080010311601 
1680	 0.393733995855719 
1681	 0.393386750506416 
1682	 0.393005394422822 
1683	 0.392666784191397 
1684	 0.392335891187728 
1685	 0.392021247413726 
1686	 0.391753525585165 
1687	 0.391447405411388 
1688	 0.391114602581376 
1689	 0.390816612278348 
1690	 0.390515237208381 
1691	 0.390236315670699 
1692	 0.390006283328667 
1693	 0.389738532534163 
1694	 0.389454619732353 
1695	 0.38918233839747 
1696	 0.3889048234318 
1697	 0.388628679857765 
1698	 0.388366546601024 
1699	 0.388086774926892 
1700	 0.387787124595163 
1701	 0.387501572523543 
1702	 0.387216871527047 
1703	 0.386938315649644 
1704	 0.386676779671428 
1705	 0.386393377872979 
1706	 0.386106218792453 
1707	 0.385804134956099 
1708	 0.385479392525195 
1709	 0.38516712885451 
1710	 0.384839653036397 
1711	 0.384546973287613 
1712	 0.384273626922492 
1713	 0.383996061757251 
1714	 0.383731034198837 
1715	 0.383476211000296 
1716	 0.383232197065903 
1717	 0.382972823592702 
1718	 0.382734238630655 
1719	 0.382466110096777 
1720	 0.382150139087716 
1721	 0.38188220837591 
1722	 0.381617966779048 
1723	 0.381377495676799 
1724	 0.381181000861672 
1725	 0.380957993351902 
1726	 0.380745278482402 
1727	 0.380504494792857 
1728	 0.380239437542781 
1729	 0.379979766294935 
1730	 0.379697483792826 
1731	 0.379454109526905 
1732	 0.379223564253402 
1733	 0.379006554270418 
1734	 0.378826229664402 
1735	 0.378608469503735 
1736	 0.378373396964124 
1737	 0.378166338087008 
1738	 0.377955153925959 
1739	 0.377747626202476 
1740	 0.377570327682843 
1741	 0.377366272955571 
1742	 0.377142920240714 
1743	 0.376938151066381 
1744	 0.376746840761397 
1745	 0.376513160158379 
1746	 0.376253688330484 
1747	 0.375984847358895 
1748	 0.375756572134897 
1749	 0.375535879759537 
1750	 0.375346460835475 
1751	 0.375185648489734 
1752	 0.374976383380929 
1753	 0.374766976287271 
1754	 0.374595819016353 
1755	 0.374411995423176 
1756	 0.374233752828873 
1757	 0.374076918449524 
1758	 0.37388231096587 
1759	 0.373681765186718 
1760	 0.373533457131529 
1761	 0.373386660641043 
1762	 0.373250606977541 
1763	 0.373108051500141 
1764	 0.372922049032095 
1765	 0.372754713679913 
1766	 0.372576859261267 
1767	 0.372392060247643 
1768	 0.372280696696059 
1769	 0.37218806677819 
1770	 0.372096305944288 
1771	 0.372039659724265 
1772	 0.371958921463601 
1773	 0.371840541503477 
1774	 0.371739580744342 
1775	 0.371644091069482 
1776	 0.371505946411533 
1777	 0.371368810808737 
1778	 0.371263291235722 
1779	 0.371141938369602 
1780	 0.371037726099468 
1781	 0.37097621936823 
1782	 0.370912895085977 
1783	 0.370877695338553 
1784	 0.370816434751683 
1785	 0.370722551352065 
1786	 0.370640862710469 
1787	 0.370558346611216 
1788	 0.37048730827796 
1789	 0.37042822411181 
1790	 0.370364877726559 
1791	 0.370296638851412 
1792	 0.370231934244165 
1793	 0.37016512572956 
1794	 0.37012247467842 
1795	 0.370093397810392 
1796	 0.370060285041919 
1797	 0.370028886493093 
1798	 0.370025994922263 
1799	 0.370045288760347 
1800	 0.370068950657785 
1801	 0.362457457838093 
1802	 0.362702992507447 
1803	 0.362994427859021 
1804	 0.36337912143469 
1805	 0.36375417345452 
1806	 0.364144916972003 
1807	 0.364553023047044 
1808	 0.36491001668949 
1809	 0.365290283948841 
1810	 0.365575470155435 
1811	 0.365804952795445 
1812	 0.365997072170314 
1813	 0.366143119820644 
1814	 0.366231630425314 
1815	 0.366315194432147 
1816	 0.366409561037575 
1817	 0.366494680097586 
1818	 0.366559140676804 
1819	 0.366639074054711 
1820	 0.366738678146599 
1821	 0.366792766993271 
1822	 0.366857765517045 
1823	 0.366947282602097 
1824	 0.367041549913057 
1825	 0.367117118717572 
1826	 0.367182288532238 
1827	 0.36725917333738 
1828	 0.367293768407585 
1829	 0.367308948252371 
1830	 0.367297848316303 
1831	 0.367267061179211 
1832	 0.367184886677288 
1833	 0.367097959691888 
1834	 0.367003814624324 
1835	 0.366924633334324 
1836	 0.366873843944882 
1837	 0.366848680413918 
1838	 0.366849608516858 
1839	 0.366841955039056 
1840	 0.366856455249348 
1841	 0.366848287347744 
1842	 0.36682521647201 
1843	 0.366797984065019 
1844	 0.366750167917812 
1845	 0.366688745237871 
1846	 0.366612083624482 
1847	 0.366524674469957 
1848	 0.36646372548378 
1849	 0.366401084725701 
1850	 0.366309694512005 
1851	 0.36621633318933 
1852	 0.366095383567754 
1853	 0.365939917580671 
1854	 0.3657485038294 
1855	 0.365508477808866 
1856	 0.365245143385213 
1857	 0.364951074400697 
1858	 0.364631484793933 
1859	 0.364290727982552 
1860	 0.363904395652439 
1861	 0.363491075346354 
1862	 0.363021024226886 
1863	 0.362495816278507 
1864	 0.361952415776599 
1865	 0.361362547763223 
1866	 0.360698517054324 
1867	 0.359978095380355 
1868	 0.359175522212825 
1869	 0.358303363869444 
1870	 0.357388611505523 
1871	 0.356424424679811 
1872	 0.355415177799947 
1873	 0.354370363792199 
1874	 0.353252345013096 
1875	 0.352057629899419 
1876	 0.350823487860131 
1877	 0.349498596324569 
1878	 0.348026235689575 
1879	 0.346461911788928 
1880	 0.3447533645388 
1881	 0.34287844743732 
1882	 0.34089808264669 
1883	 0.338821303775533 
1884	 0.336564230484517 
1885	 0.334200344440756 
1886	 0.331725148503599 
1887	 0.329058667563253 
1888	 0.32628286157436 
1889	 0.323335814440982 
1890	 0.320260496176944 
1891	 0.317115694838852 
1892	 0.313857564327259 
1893	 0.310501775988521 
1894	 0.307062170052717 
1895	 0.30351134237591 
1896	 0.299814568514446 
1897	 0.296097563992941 
1898	 0.292299097044698 
1899	 0.28847903304632 
1900	 0.284732090532917 
1901	 0.28097129154513 
1902	 0.277331366548148 
1903	 0.273795896354769 
1904	 0.270329655001159 
1905	 0.266904379438428 
1906	 0.263639105332879 
1907	 0.260477575045796 
1908	 0.257393124363959 
1909	 0.254477855540213 
1910	 0.251645999541448 
1911	 0.248937054108388 
1912	 0.2463429412276 
1913	 0.243834266301269 
1914	 0.241413561782188 
1915	 0.239118122977117 
1916	 0.236923506935927 
1917	 0.234824193118334 
1918	 0.23287468627244 
1919	 0.230999809813883 
1920	 0.229244760495213 
1921	 0.227607083788001 
1922	 0.226055905158547 
1923	 0.224643013429288 
1924	 0.223283068223864 
1925	 0.222026297246253 
1926	 0.22081933088238 
1927	 0.219685030039171 
1928	 0.218584443394499 
1929	 0.217590334733757 
1930	 0.216681961128527 
1931	 0.215814553546854 
1932	 0.214993377407476 
1933	 0.214222529295584 
1934	 0.213500946918096 
1935	 0.212872664441052 
1936	 0.212307599550278 
1937	 0.211845726267814 
1938	 0.211462654058076 
1939	 0.211178742750533 
1940	 0.210962575089298 
1941	 0.210894880456175 
1942	 0.210933685651995 
1943	 0.211052699064119 
1944	 0.211288061027097 
1945	 0.211624091825929 
1946	 0.212030967301179 
1947	 0.212530993999725 
1948	 0.213097796220278 
1949	 0.213779787851408 
1950	 0.214467869309247 
1951	 0.215236485573791 
1952	 0.216001075571044 
1953	 0.216767679008567 
1954	 0.217531633191802 
1955	 0.218266034149618 
1956	 0.218997712061354 
1957	 0.219704525757395 
1958	 0.220407467997846 
1959	 0.221060594515671 
1960	 0.221696860378344 
1961	 0.222280487092239 
1962	 0.22282103261376 
1963	 0.223331554566541 
1964	 0.223794003289028 
1965	 0.22422527518713 
1966	 0.224656210345505 
1967	 0.225076457134748 
1968	 0.225490147779185 
1969	 0.225901418068674 
1970	 0.226299262466369 
1971	 0.226664013394196 
1972	 0.227058687610908 
1973	 0.227456002301939 
1974	 0.227866543947828 
1975	 0.228293828889829 
1976	 0.228726330357417 
1977	 0.229168677908419 
1978	 0.229599015725622 
1979	 0.23002634010088 
1980	 0.230483607275364 
1981	 0.230946002056688 
1982	 0.231406950927495 
1983	 0.231894318612564 
1984	 0.232402412068742 
1985	 0.232920397876619 
1986	 0.233473479794755 
1987	 0.23400311371606 
1988	 0.234527401251182 
1989	 0.235077988186411 
1990	 0.235583480521536 
1991	 0.236077386573829 
1992	 0.236587761262008 
1993	 0.237098216223015 
1994	 0.237601902308299 
1995	 0.238124592959863 
1996	 0.238617844887767 
1997	 0.239091895212304 
1998	 0.239566665562751 
1999	 0.240009154876901 
2000	 0.240478200695585 
2001	 0.240975319862722 
2002	 0.241448352402306 
2003	 0.241894174013196 
2004	 0.242363731278143 
2005	 0.242808069202043 
2006	 0.243201418025609 
2007	 0.243651022999792 
2008	 0.244124955314937 
2009	 0.24459061174265 
2010	 0.24508036290464 
2011	 0.245554346450192 
2012	 0.246019739799965 
2013	 0.24648829915665 
2014	 0.246952489045635 
2015	 0.247420806229467 
2016	 0.247877596723497 
2017	 0.248357199909662 
2018	 0.248853067591377 
2019	 0.249361303660811 
2020	 0.249876271769427 
2021	 0.250418911096956 
2022	 0.250953589653814 
2023	 0.251482384398131 
2024	 0.252030657179464 
2025	 0.252595043495274 
2026	 0.253153013091421 
2027	 0.253714431515184 
2028	 0.25429391954641 
2029	 0.254852648371091 
2030	 0.255405512061113 
2031	 0.255949489652804 
2032	 0.256472900397073 
2033	 0.257021880807234 
2034	 0.25757790008174 
2035	 0.258131607571349 
2036	 0.258715291655163 
2037	 0.259264654299516 
2038	 0.259804535757543 
2039	 0.260319162518001 
2040	 0.260811243562521 
2041	 0.261284787965093 
2042	 0.261741047907955 
2043	 0.262198757952924 
2044	 0.262691625085918 
2045	 0.263203496008808 
2046	 0.263715397324758 
2047	 0.264260382911302 
2048	 0.264782892491132 
2049	 0.265311120747778 
2050	 0.265813307886531 
2051	 0.266301850679755 
2052	 0.266782015426034 
2053	 0.267223008716015 
2054	 0.267687078002006 
2055	 0.268172459379668 
2056	 0.268643174902084 
2057	 0.269090252161685 
2058	 0.269526326740331 
2059	 0.269970210701908 
2060	 0.270387253557305 
2061	 0.270824428180691 
2062	 0.271293647528447 
2063	 0.271732063630143 
2064	 0.272149227621347 
2065	 0.272573249023182 
2066	 0.273001336774576 
2067	 0.273412843193749 
2068	 0.273805617234359 
2069	 0.274214687363595 
2070	 0.27461440816351 
2071	 0.274992302636372 
2072	 0.275401500610277 
2073	 0.275831094343226 
2074	 0.276248695920112 
2075	 0.276687099077866 
2076	 0.27709277181598 
2077	 0.277480572534219 
2078	 0.277864298847503 
2079	 0.278216067563489 
2080	 0.278591114283588 
2081	 0.278984968140868 
2082	 0.279362520908564 
2083	 0.279738430831023 
2084	 0.28011861265676 
2085	 0.280482713815295 
2086	 0.280831213226729 
2087	 0.28117523522922 
2088	 0.281505055870951 
2089	 0.281852860826138 
2090	 0.282200120280223 
2091	 0.282544896118426 
2092	 0.282924909716615 
2093	 0.283252647638646 
2094	 0.283526294389928 
2095	 0.283834782476806 
2096	 0.284119292685136 
2097	 0.284432811604232 
2098	 0.284778688712356 
2099	 0.285134783715375 
2100	 0.285483361837359 
2101	 0.285836066292933 
2102	 0.28619263256204 
2103	 0.286559782033066 
2104	 0.286909124894283 
2105	 0.287254744397987 
2106	 0.287597005478659 
2107	 0.287920281786525 
2108	 0.288258022211631 
2109	 0.288593099882823 
2110	 0.288948692006752 
2111	 0.289315728763877 
2112	 0.289687848363134 
2113	 0.290081496186885 
2114	 0.290470621555667 
2115	 0.290864285209098 
2116	 0.291263114554556 
2117	 0.291656619247056 
2118	 0.292058193685204 
2119	 0.29244261308107 
2120	 0.292817952867398 
2121	 0.293190049423448 
2122	 0.293552107294035 
2123	 0.293914975830829 
2124	 0.29429813954911 
2125	 0.294632409872649 
2126	 0.294938450176341 
2127	 0.295240834535799 
2128	 0.295479688458622 
2129	 0.295764718420783 
2130	 0.296080240152545 
2131	 0.296396369648785 
2132	 0.296689095449691 
2133	 0.297007897223417 
2134	 0.297259165714082 
2135	 0.297464680882139 
2136	 0.297663433618487 
2137	 0.29782652497179 
2138	 0.297993180459321 
2139	 0.298141595346745 
2140	 0.298290946043763 
2141	 0.298440491179762 
2142	 0.298572807011846 
2143	 0.298696361829453 
2144	 0.298809983763518 
2145	 0.298923254331654 
2146	 0.299006400934623 
2147	 0.299072234553531 
2148	 0.299120887857055 
2149	 0.299144972684083 
2150	 0.299119967057301 
2151	 0.299130542175186 
2152	 0.299140845682526 
2153	 0.299146065629555 
2154	 0.299168767755997 
2155	 0.299165643148503 
2156	 0.299154129754787 
2157	 0.299119831691528 
2158	 0.299056825269158 
2159	 0.299002214748819 
2160	 0.298914760840462 
2161	 0.298855606025363 
2162	 0.298818557164916 
2163	 0.298779139243227 
2164	 0.298748790584862 
2165	 0.298733688553988 
2166	 0.298679625971568 
2167	 0.298613037688593 
2168	 0.298538405161589 
2169	 0.298436759331085 
2170	 0.298342897202009 
2171	 0.298253696709375 
2172	 0.298148534303258 
2173	 0.298035337763503 
2174	 0.297909986447809 
2175	 0.297771369804458 
2176	 0.297628184749198 
2177	 0.297482006899427 
2178	 0.297316610825659 
2179	 0.297142212894213 
2180	 0.296950494866834 
2181	 0.296726839480463 
2182	 0.296509299361005 
2183	 0.296253949571596 
2184	 0.296045919709901 
2185	 0.295851429993695 
2186	 0.295685235877114 
2187	 0.295486881862031 
2188	 0.295301717527364 
2189	 0.295104632074862 
2190	 0.29485824041718 
2191	 0.294673116206956 
2192	 0.294549623373785 
2193	 0.294368396016497 
2194	 0.294183161143499 
2195	 0.293991943126857 
2196	 0.293747134353584 
2197	 0.293543767546579 
2198	 0.293374197297178 
2199	 0.293194705815465 
2200	 0.29301875467753 
2201	 0.292849242601703 
2202	 0.292690040085433 
2203	 0.292509992615295 
2204	 0.292359504960059 
2205	 0.292212795192634 
2206	 0.292107098673367 
2207	 0.292026572515707 
2208	 0.29195414250155 
2209	 0.291899590424233 
2210	 0.291879574635731 
2211	 0.29188123084821 
2212	 0.291899622045706 
2213	 0.291959153392466 
2214	 0.292021596482748 
2215	 0.292092481616226 
2216	 0.292172433921686 
2217	 0.292300187802113 
2218	 0.292384239550935 
2219	 0.292464525363699 
2220	 0.292517131405758 
2221	 0.292539521321541 
2222	 0.292542411821245 
2223	 0.292541388222674 
2224	 0.292537347141077 
2225	 0.292547428726309 
2226	 0.292564808755246 
2227	 0.292580482234797 
2228	 0.292610187256264 
2229	 0.292611119785167 
2230	 0.292605283589801 
2231	 0.29258250241189 
2232	 0.292540784506074 
2233	 0.292495705104103 
2234	 0.292432074990729 
2235	 0.292378995304905 
2236	 0.292318184168379 
2237	 0.292262847603363 
2238	 0.292240362837633 
2239	 0.292166590393938 
2240	 0.292069333221658 
2241	 0.291964068274913 
2242	 0.291820443776019 
2243	 0.291677170859757 
2244	 0.291526553028669 
2245	 0.291377588482185 
2246	 0.291227459636632 
2247	 0.291060909548894 
2248	 0.290880650422998 
2249	 0.290702527825411 
2250	 0.290497190747226 
2251	 0.290254536214443 
2252	 0.290037556737827 
2253	 0.289815347981508 
2254	 0.289590763184129 
2255	 0.289375903058765 
2256	 0.289149771076294 
2257	 0.288902103857599 
2258	 0.288683875645336 
2259	 0.288456680497394 
2260	 0.288267221013291 
2261	 0.288141255852354 
2262	 0.287960845890216 
2263	 0.287771005128119 
2264	 0.287586369634571 
2265	 0.287362803622769 
2266	 0.287169329165746 
2267	 0.287005181554909 
2268	 0.286842645146218 
2269	 0.286709747922023 
2270	 0.286526510922215 
2271	 0.286374666246044 
2272	 0.286192160601113 
2273	 0.285972364653219 
2274	 0.285733782600202 
2275	 0.2854829034508 
2276	 0.285192674893606 
2277	 0.284947535194449 
2278	 0.284705690117534 
2279	 0.284466452393384 
2280	 0.28425086994093 
2281	 0.284016425210001 
2282	 0.283762352753658 
2283	 0.283537110774261 
2284	 0.283334035806115 
2285	 0.283109309463326 
2286	 0.282907342385969 
2287	 0.282656585250962 
2288	 0.282363549322725 
2289	 0.282079067909193 
2290	 0.281789743612073 
2291	 0.281471881712803 
2292	 0.281138079214111 
2293	 0.280789528865033 
2294	 0.280394276933099 
2295	 0.28001466643222 
2296	 0.27962701451668 
2297	 0.279271731931471 
2298	 0.278901000504091 
2299	 0.278502892432489 
2300	 0.278060084565295 
2301	 0.277650485196517 
2302	 0.277241577030179 
2303	 0.276770625163046 
2304	 0.2763611234014 
2305	 0.275946704286244 
2306	 0.275520221909607 
2307	 0.275094507525849 
2308	 0.274671506757329 
2309	 0.274256500001743 
2310	 0.273793942196229 
2311	 0.273304564228897 
2312	 0.272819112017009 
2313	 0.27231279870896 
2314	 0.271789392820116 
2315	 0.27127250354695 
2316	 0.270719462768719 
2317	 0.270132964266339 
2318	 0.269529763460534 
2319	 0.268876848408525 
2320	 0.268271852246419 
2321	 0.267656236472844 
2322	 0.267046954745856 
2323	 0.266483130569573 
2324	 0.265904423611332 
2325	 0.265302284038168 
2326	 0.264732907268994 
2327	 0.264197585017661 
2328	 0.263630528418274 
2329	 0.26306445701744 
2330	 0.262458101445815 
2331	 0.261836108209095 
2332	 0.261239748735205 
2333	 0.260677506061919 
2334	 0.260094293612017 
2335	 0.25951607541898 
2336	 0.258928014596822 
2337	 0.258293028530829 
2338	 0.257677424569688 
2339	 0.257051034881564 
2340	 0.256395936301409 
2341	 0.255725812889425 
2342	 0.255061718725284 
2343	 0.254344064571818 
2344	 0.253572929254297 
2345	 0.252848781199274 
2346	 0.25214269779457 
2347	 0.251373536001954 
2348	 0.250623924382492 
2349	 0.24981806893693 
2350	 0.248915114615859 
2351	 0.2480800613796 
2352	 0.247245021058539 
2353	 0.246429976575121 
2354	 0.245652475865808 
2355	 0.244820423152733 
2356	 0.244008837765676 
2357	 0.243126701516515 
2358	 0.242129808697721 
2359	 0.24125890530284 
2360	 0.240431346992137 
2361	 0.239546991866692 
2362	 0.238732659483353 
2363	 0.237845464426542 
2364	 0.236838523490414 
2365	 0.235908135864449 
2366	 0.23499043762772 
2367	 0.234101237194736 
2368	 0.233236245253668 
2369	 0.232373242007891 
2370	 0.231564797941589 
2371	 0.230712587844403 
2372	 0.229770584464808 
2373	 0.228868803691374 
2374	 0.227942989999097 
2375	 0.227016110748248 
2376	 0.226193414374786 
2377	 0.225338504136077 
2378	 0.224460397760631 
2379	 0.223602948203138 
2380	 0.222678551943387 
2381	 0.221823867435716 
2382	 0.220978110807364 
2383	 0.220084821687994 
2384	 0.219252633334076 
2385	 0.218394948826886 
2386	 0.217535499290408 
2387	 0.21669825646956 
2388	 0.215816379125619 
2389	 0.215048777257652 
2390	 0.214324285293896 
2391	 0.213537295022943 
2392	 0.212798264777687 
2393	 0.211952853555434 
2394	 0.211068704932178 
2395	 0.210329643010633 
2396	 0.209595029830591 
2397	 0.208879835670963 
2398	 0.208246312084896 
2399	 0.207556316678729 
2400	 0.206882228849199 
2401	 0.206265057190097 
2402	 0.205617823759009 
2403	 0.205006258382005 
2404	 0.204423096628191 
2405	 0.203863526388749 
2406	 0.203354069309326 
2407	 0.202861588082173 
2408	 0.202329852390347 
2409	 0.201718357990254 
2410	 0.201170430360685 
2411	 0.200720461510514 
2412	 0.200248611259472 
2413	 0.199818673763065 
2414	 0.199374074290727 
2415	 0.198817988926934 
2416	 0.198325516295786 
2417	 0.197863732253946 
2418	 0.197432031553359 
2419	 0.197012164873698 
2420	 0.196602278172455 
2421	 0.196282285398185 
2422	 0.195871645205599 
2423	 0.195389795855833 
2424	 0.19497547857926 
2425	 0.194494841702447 
2426	 0.194082528657311 
2427	 0.193837816939019 
2428	 0.193481396044904 
2429	 0.193093301812673 
2430	 0.192644889944799 
2431	 0.192102391371065 
2432	 0.191539066329995 
2433	 0.190941563129223 
2434	 0.19040440376813 
2435	 0.189830740119839 
2436	 0.189348005851043 
2437	 0.188943405419458 
2438	 0.18852243339535 
2439	 0.188159767274852 
2440	 0.187663826198298 
2441	 0.187118782454825 
2442	 0.186548289067849 
2443	 0.185919142343976 
2444	 0.185409364750377 
2445	 0.184888722996909 
2446	 0.184373612635534 
2447	 0.183900499812906 
2448	 0.183298019740172 
2449	 0.182721304979587 
2450	 0.18216699816486 
2451	 0.181469675142875 
2452	 0.180951468493834 
2453	 0.180531036938296 
2454	 0.180014713869693 
2455	 0.179597190680291 
2456	 0.17916032549316 
2457	 0.178628467560495 
2458	 0.178170523735691 
2459	 0.177763273182519 
2460	 0.177294127487353 
2461	 0.176787333834002 
2462	 0.176389772400359 
2463	 0.176037856696335 
2464	 0.175707710176415 
2465	 0.175442027015089 
2466	 0.175203024635802 
2467	 0.17495688132704 
2468	 0.174781364677858 
2469	 0.174741730147716 
2470	 0.174544214644764 
2471	 0.174314489625423 
2472	 0.17404420991922 
2473	 0.173791822954668 
2474	 0.173570713210609 
2475	 0.173368373150466 
2476	 0.1731338254853 
2477	 0.172905476634015 
2478	 0.172631590205295 
2479	 0.172270672987613 
2480	 0.171893751610739 
2481	 0.1714180284859 
2482	 0.170881235837414 
2483	 0.170507925795829 
2484	 0.170257771277203 
2485	 0.170033659324031 
2486	 0.169805705099408 
2487	 0.169387973547894 
2488	 0.168905622342867 
2489	 0.168504914174058 
2490	 0.168092963359728 
2491	 0.167800403839238 
2492	 0.167441410760634 
2493	 0.167008149346532 
2494	 0.166838185444738 
2495	 0.166730185535248 
2496	 0.166522755597126 
2497	 0.166206061681414 
2498	 0.165824862749918 
2499	 0.165475324292654 
2500	 0.16515173237492 
