Wavelength	mm23-100007.asd
350	 4.97501236143395E-02 
351	 6.15422444474982E-02 
352	 6.37742936053488E-02 
353	 0.050840810157192 
354	 5.69350683752363E-02 
355	 6.32111732897117E-02 
356	 6.22358332243203E-02 
357	 0.054878134736582 
358	 0.059974867309151 
359	 6.04464476883785E-02 
360	 5.63667232435957E-02 
361	 0.058272324113859 
362	 5.62635529084542E-02 
363	 5.58906755975199E-02 
364	 0.058593749683768 
365	 5.65393621590533E-02 
366	 0.057121019859746 
367	 5.82821577738683E-02 
368	 0.056934626676231 
369	 5.61323859718934E-02 
370	 5.77720183684658E-02 
371	 6.04052886773249E-02 
372	 6.08274123178142E-02 
373	 6.39466725045288E-02 
374	 6.47797832704107E-02 
375	 6.17366828629873E-02 
376	 6.10022210263095E-02 
377	 6.03385593395714E-02 
378	 6.12011846053066E-02 
379	 6.45912711350396E-02 
380	 6.58694224066347E-02 
381	 6.55344948799312E-02 
382	 6.58198987342122E-02 
383	 6.94380384246862E-02 
384	 7.04011029507781E-02 
385	 6.87647577268058E-02 
386	 0.067185550458398 
387	 7.18047014219356E-02 
388	 0.073085783988987 
389	 0.072437718116432 
390	 7.38034568644489E-02 
391	 7.50160463250068E-02 
392	 7.63348996176571E-02 
393	 7.76833631718433E-02 
394	 7.86668475896251E-02 
395	 7.99567258773443E-02 
396	 8.15798219517671E-02 
397	 8.34754459248352E-02 
398	 8.57870933500447E-02 
399	 8.76730638109864E-02 
400	 8.91135382981706E-02 
401	 0.090458465494277 
402	 9.21710561987988E-02 
403	 9.29366136496895E-02 
404	 9.30242090098663E-02 
405	 9.42942809662874E-02 
406	 9.51090162528276E-02 
407	 9.63308021812149E-02 
408	 9.82800410450869E-02 
409	 9.86025472962706E-02 
410	 9.92545427234634E-02 
411	 0.100556425236743 
412	 0.101989283897569 
413	 0.103237333702061 
414	 0.103687321519479 
415	 0.103614540675792 
416	 0.104409869107679 
417	 0.104492764602554 
418	 0.104345950093633 
419	 0.104668797197208 
420	 0.105198319971588 
421	 0.105304238739713 
422	 0.105071529760533 
423	 0.105019263909025 
424	 0.105000083558962 
425	 0.10465659502799 
426	 0.103996037191801 
427	 0.103750876881093 
428	 0.103110257585886 
429	 0.102201744470706 
430	 0.101476670857264 
431	 0.101406783020625 
432	 0.101044195412423 
433	 0.100413618501543 
434	 0.100471886990683 
435	 0.10019085034815 
436	 0.100022459793417 
437	 0.100366176579159 
438	 0.100729644499219 
439	 0.101382648695764 
440	 0.102169434327663 
441	 0.102773621647607 
442	 0.10339990085395 
443	 0.104203117509071 
444	 0.105135957759173 
445	 0.105863754835533 
446	 0.106612022595251 
447	 0.1073053035581 
448	 0.107913140172447 
449	 0.10894896419169 
450	 0.110013363364883 
451	 0.110970523763924 
452	 0.111926804252336 
453	 0.112633564859703 
454	 0.113228248735428 
455	 0.113920373827182 
456	 0.114979059282168 
457	 0.115735318625234 
458	 0.116159903902295 
459	 0.116529580547667 
460	 0.116911012272194 
461	 0.117305990580749 
462	 0.117724650897105 
463	 0.118206537181536 
464	 0.118579042378727 
465	 0.119048570121549 
466	 0.11973808777794 
467	 0.120020648136679 
468	 0.120203883606289 
469	 0.120444641809858 
470	 0.120750894492202 
471	 0.121096719374545 
472	 0.121349029242969 
473	 0.121462870357759 
474	 0.121623307738831 
475	 0.12182276155061 
476	 0.121954105515941 
477	 0.121930827579562 
478	 0.122175303635155 
479	 0.122455433928944 
480	 0.122667453628234 
481	 0.12296593108529 
482	 0.123303512801006 
483	 0.12368686141386 
484	 0.124073369442921 
485	 0.124184741781473 
486	 0.12424402821716 
487	 0.124345928534801 
488	 0.12446658498182 
489	 0.124643532079421 
490	 0.124844322832766 
491	 0.125046470757812 
492	 0.125292604262116 
493	 0.125475302532672 
494	 0.125617236558427 
495	 0.125806344340159 
496	 0.126118562190452 
497	 0.126287115463424 
498	 0.126310552114942 
499	 0.126629552301959 
500	 0.126800184497536 
501	 0.126885911258236 
502	 0.127052474616026 
503	 0.127220222844029 
504	 0.127377330891495 
505	 0.12756814998708 
506	 0.12787359303699 
507	 0.128063153684358 
508	 0.128143302337381 
509	 0.128187258876159 
510	 0.12830779710413 
511	 0.12839223520277 
512	 0.128471952933336 
513	 0.128638622750745 
514	 0.128783461116935 
515	 0.128953454685831 
516	 0.129165041811097 
517	 0.129357190735388 
518	 0.129533410621397 
519	 0.12960592142204 
520	 0.129551736038499 
521	 0.12981022672695 
522	 0.130048518773702 
523	 0.13017784783779 
524	 0.130405287713011 
525	 0.130507148270705 
526	 0.130559907618515 
527	 0.130659541683834 
528	 0.130728128043636 
529	 0.130914019733453 
530	 0.131156711407093 
531	 0.131274469553572 
532	 0.131388807939675 
533	 0.131595039244412 
534	 0.13187296762436 
535	 0.131965871854287 
536	 0.132070891529244 
537	 0.132245263288096 
538	 0.132471724873639 
539	 0.132615954835528 
540	 0.132763749012589 
541	 0.132943507420286 
542	 0.133079883645389 
543	 0.133357244818391 
544	 0.133641076088467 
545	 0.133783732066314 
546	 0.133946871539057 
547	 0.13417590754995 
548	 0.134458101090941 
549	 0.134734001355317 
550	 0.134978994233329 
551	 0.135256642282908 
552	 0.135594572928284 
553	 0.135882668280273 
554	 0.136186606398085 
555	 0.136477725821487 
556	 0.136706477363208 
557	 0.137100531504397 
558	 0.137485871936618 
559	 0.137806423723587 
560	 0.138302547709578 
561	 0.138686843936395 
562	 0.13911112927751 
563	 0.139814286277107 
564	 0.14063813916994 
565	 0.141440272090921 
566	 0.14216465127819 
567	 0.142851552531411 
568	 0.143437490717269 
569	 0.143920198884255 
570	 0.144357386284404 
571	 0.14493491583221 
572	 0.145619179981377 
573	 0.146354658706229 
574	 0.147082261553115 
575	 0.147900128562271 
576	 0.148935148157271 
577	 0.150173639915793 
578	 0.151305283602368 
579	 0.152378661919096 
580	 0.153369345910857 
581	 0.154253650978486 
582	 0.155126874903418 
583	 0.155991818522722 
584	 0.156899412226336 
585	 0.157980418240853 
586	 0.159352103106513 
587	 0.160876015442994 
588	 0.162355917204918 
589	 0.163763552352357 
590	 0.165087743965904 
591	 0.166342683514851 
592	 0.167561303183544 
593	 0.168597163119336 
594	 0.169448722201559 
595	 0.170220139728115 
596	 0.171196166120448 
597	 0.172289144784554 
598	 0.173453068680467 
599	 0.174668623486521 
600	 0.175978171642228 
601	 0.177284148974013 
602	 0.178501751242109 
603	 0.179592686351288 
604	 0.180678630834381 
605	 0.181810265195216 
606	 0.18297381903382 
607	 0.183987534431519 
608	 0.184870705193527 
609	 0.185725654359878 
610	 0.186728220209785 
611	 0.187622182460913 
612	 0.18843668090011 
613	 0.189218446036988 
614	 0.189817997149767 
615	 0.190455985159228 
616	 0.191172292026741 
617	 0.191868189049967 
618	 0.192499236598567 
619	 0.193046409817118 
620	 0.193548086698263 
621	 0.194162093517025 
622	 0.19466993516879 
623	 0.195111847034632 
624	 0.195607801678797 
625	 0.19603932589676 
626	 0.196448098451836 
627	 0.196873142657698 
628	 0.197332532521619 
629	 0.197799200185532 
630	 0.19821059061143 
631	 0.198543672713037 
632	 0.198952688543409 
633	 0.199362656732238 
634	 0.199749958636196 
635	 0.200136212153696 
636	 0.200499585258594 
637	 0.200876466693076 
638	 0.201270005219295 
639	 0.201570348311411 
640	 0.201921026345542 
641	 0.202322514053644 
642	 0.202714111290056 
643	 0.203137781888313 
644	 0.20352808942396 
645	 0.203873192337103 
646	 0.204250018738508 
647	 0.204638152106056 
648	 0.205039503909627 
649	 0.205454675761395 
650	 0.205855114172842 
651	 0.206302627779585 
652	 0.206768568665571 
653	 0.207155996997609 
654	 0.20762747379538 
655	 0.20807148123276 
656	 0.208429675106225 
657	 0.208892808198908 
658	 0.209426637008927 
659	 0.209981599357553 
660	 0.21049925967508 
661	 0.210967057636663 
662	 0.211474938421478 
663	 0.21204112786131 
664	 0.212565145682507 
665	 0.213136649572791 
666	 0.21371430597317 
667	 0.214254093475564 
668	 0.214859714197148 
669	 0.215467876201255 
670	 0.216082785331223 
671	 0.216760154007556 
672	 0.217416279884927 
673	 0.218034123629364 
674	 0.218632616473538 
675	 0.219279849136343 
676	 0.219965104156766 
677	 0.220682202027229 
678	 0.221419534812735 
679	 0.222136176819018 
680	 0.222845870273181 
681	 0.223576127755451 
682	 0.224364713854099 
683	 0.225158327774523 
684	 0.225926689826812 
685	 0.226675264057345 
686	 0.227509853113167 
687	 0.228376899172484 
688	 0.229220119177064 
689	 0.229998705524152 
690	 0.23086874942079 
691	 0.231765314040603 
692	 0.232635494588561 
693	 0.233517698840943 
694	 0.234428650258074 
695	 0.235343957523877 
696	 0.236230538258185 
697	 0.237096640508127 
698	 0.237994155435985 
699	 0.23894808218169 
700	 0.239947588668039 
701	 0.240885670662543 
702	 0.241785375868033 
703	 0.242701269390159 
704	 0.243692432234116 
705	 0.24465882727442 
706	 0.245602874147398 
707	 0.246574473472965 
708	 0.247537077761922 
709	 0.248497587509575 
710	 0.249449153550842 
711	 0.250360566339404 
712	 0.251293759289268 
713	 0.252233295045757 
714	 0.253154428260142 
715	 0.254086433941627 
716	 0.254984088301795 
717	 0.255862481187923 
718	 0.25677838314887 
719	 0.257721961923134 
720	 0.258587271549249 
721	 0.259347257720686 
722	 0.260152375521794 
723	 0.26096691558881 
724	 0.261699586994612 
725	 0.26230520822679 
726	 0.263074594241677 
727	 0.263806548893711 
728	 0.26445445522912 
729	 0.265129518553599 
730	 0.265698813665373 
731	 0.266205082206748 
732	 0.266707819891502 
733	 0.2672303405938 
734	 0.267739242740317 
735	 0.268175832238324 
736	 0.268497948070617 
737	 0.268820835284675 
738	 0.269145968900206 
739	 0.269453195810104 
740	 0.269709107420875 
741	 0.269900803779411 
742	 0.270022791651204 
743	 0.270101953361863 
744	 0.270253728857401 
745	 0.270303809718535 
746	 0.270284676456228 
747	 0.270305707943938 
748	 0.270250045364446 
749	 0.270134815630359 
750	 0.269998369657857 
751	 0.269887478776861 
752	 0.269709894034683 
753	 0.269461117922124 
754	 0.269175644037721 
755	 0.268935931973432 
756	 0.268677152634032 
757	 0.26832835579883 
758	 0.267853120730239 
759	 0.267466175855644 
760	 0.267080468218881 
761	 0.266641805110039 
762	 0.266175710897006 
763	 0.265749655001803 
764	 0.26529233693662 
765	 0.264749728994538 
766	 0.26421028510289 
767	 0.263710012180433 
768	 0.263204660217708 
769	 0.26261985581012 
770	 0.261997424206707 
771	 0.261419457301926 
772	 0.260866207643643 
773	 0.260198899227917 
774	 0.259563442305066 
775	 0.258953017517288 
776	 0.258329039574154 
777	 0.25766258101054 
778	 0.256988414984291 
779	 0.25635913507764 
780	 0.255804601541669 
781	 0.255178084503016 
782	 0.254514336600643 
783	 0.25385072892334 
784	 0.253210559713099 
785	 0.252541015512973 
786	 0.251894864680663 
787	 0.251299671731567 
788	 0.250670174183453 
789	 0.250099468107866 
790	 0.249519047517508 
791	 0.248837812570973 
792	 0.248177023685459 
793	 0.247526549945795 
794	 0.246905760470479 
795	 0.246350221083803 
796	 0.245692756908789 
797	 0.245060746574516 
798	 0.244522906576026 
799	 0.243955424316488 
800	 0.243423357780287 
801	 0.242861246012315 
802	 0.242223544882933 
803	 0.241684947336023 
804	 0.241166797913824 
805	 0.240640428896749 
806	 0.240113175930782 
807	 0.239577581306148 
808	 0.239072380562354 
809	 0.2385885143346 
810	 0.238050983899327 
811	 0.237545651221568 
812	 0.237025567479623 
813	 0.236485438254621 
814	 0.236117911516542 
815	 0.235765950458798 
816	 0.235358941450354 
817	 0.234879721674426 
818	 0.234370756910586 
819	 0.233927009269212 
820	 0.233554999347056 
821	 0.233183849143011 
822	 0.232819986858305 
823	 0.232389614860824 
824	 0.231923417158139 
825	 0.231632441044197 
826	 0.231340817644331 
827	 0.231017514480793 
828	 0.230678380128238 
829	 0.230358070285442 
830	 0.229992214773958 
831	 0.229613721243512 
832	 0.229306150308282 
833	 0.22915142000616 
834	 0.228919208957115 
835	 0.228575530562191 
836	 0.228290365840513 
837	 0.228065351778397 
838	 0.227881418541591 
839	 0.227694845138721 
840	 0.227434970116796 
841	 0.227145880465508 
842	 0.226896710474227 
843	 0.226725232346451 
844	 0.226558911014559 
845	 0.226373436081208 
846	 0.226196606574391 
847	 0.226079268865337 
848	 0.226045667298007 
849	 0.225946998513502 
850	 0.225764354311263 
851	 0.225600295060768 
852	 0.225485028678512 
853	 0.225385418441447 
854	 0.22528737531826 
855	 0.225220690464727 
856	 0.22520990074343 
857	 0.225171969107298 
858	 0.225074045715435 
859	 0.225075148959194 
860	 0.225090255624039 
861	 0.225076656742536 
862	 0.225021269859168 
863	 0.224965420697657 
864	 0.224968942073633 
865	 0.225009698668841 
866	 0.225023010987847 
867	 0.225047528135537 
868	 0.225070605280844 
869	 0.225090556741775 
870	 0.225122948304181 
871	 0.225201410701906 
872	 0.225343091941312 
873	 0.225515274640356 
874	 0.225617714886789 
875	 0.225695142934032 
876	 0.225757824330183 
877	 0.22584326153633 
878	 0.226082863306297 
879	 0.226323847464944 
880	 0.226499183312662 
881	 0.22660953016075 
882	 0.226780213497431 
883	 0.226921964120036 
884	 0.227085432573887 
885	 0.227365804757044 
886	 0.22762370967507 
887	 0.227842163663947 
888	 0.228038746374724 
889	 0.228254435637996 
890	 0.228522624084948 
891	 0.228796694521556 
892	 0.229072060319055 
893	 0.229405460946673 
894	 0.229738424461066 
895	 0.230048898872197 
896	 0.23034213239974 
897	 0.230655070952333 
898	 0.231083254627346 
899	 0.231500221267418 
900	 0.23180791428851 
901	 0.232140386117776 
902	 0.232530734802648 
903	 0.232919064435793 
904	 0.233260026540375 
905	 0.233701128397711 
906	 0.234196603563744 
907	 0.234718012614138 
908	 0.235236409782463 
909	 0.235687007792257 
910	 0.236091531989208 
911	 0.236502290512977 
912	 0.236981419398762 
913	 0.237544867977556 
914	 0.238129946825591 
915	 0.238699498238287 
916	 0.239252057809378 
917	 0.239802931737182 
918	 0.240328077097047 
919	 0.240853370886004 
920	 0.241457464424075 
921	 0.242117250803229 
922	 0.242772678451966 
923	 0.243399167653016 
924	 0.244037265432382 
925	 0.244735319310075 
926	 0.245399658310421 
927	 0.246001058583598 
928	 0.24667831260027 
929	 0.247429226104868 
930	 0.248248195158062 
931	 0.249086083138249 
932	 0.249815478353317 
933	 0.250600928933851 
934	 0.251400335364881 
935	 0.252168136714112 
936	 0.253040464789637 
937	 0.253804466939257 
938	 0.25455855147305 
939	 0.255443314949609 
940	 0.256345487069947 
941	 0.257366425952392 
942	 0.258411193708636 
943	 0.259337489658887 
944	 0.260135080535345 
945	 0.260965381451421 
946	 0.261888325278206 
947	 0.262884603296712 
948	 0.263866456398622 
949	 0.264901277337732 
950	 0.265888894850677 
951	 0.266748906203592 
952	 0.267923167607955 
953	 0.268977750845763 
954	 0.269958101944116 
955	 0.271134575422769 
956	 0.272279342358148 
957	 0.273398758974783 
958	 0.274524027337392 
959	 0.275681117676944 
960	 0.276804576036226 
961	 0.277967817993794 
962	 0.279165419156298 
963	 0.28032305642597 
964	 0.2813329928277 
965	 0.282501542575868 
966	 0.283772224956876 
967	 0.284914865601389 
968	 0.28635574000158 
969	 0.287719883172293 
970	 0.288934476251437 
971	 0.290159404553708 
972	 0.291362153665501 
973	 0.292620847070456 
974	 0.293921015108805 
975	 0.295212380684966 
976	 0.296675156100531 
977	 0.298030354081496 
978	 0.299296984821495 
979	 0.300664732479201 
980	 0.301962251383458 
981	 0.303369439550593 
982	 0.304767236410973 
983	 0.305953360857871 
984	 0.30736728415793 
985	 0.30872639941348 
986	 0.310013452338288 
987	 0.311359023114149 
988	 0.312699713125317 
989	 0.313985044765515 
990	 0.315306533391706 
991	 0.316773899197783 
992	 0.318222230443974 
993	 0.319730632675627 
994	 0.321204459257076 
995	 0.322519355024183 
996	 0.323763095606388 
997	 0.325175816100763 
998	 0.326507630640184 
999	 0.327598553554644 
1000	 0.329313984335109 
1001	 0.329735582858056 
1002	 0.331074348256602 
1003	 0.332348713517579 
1004	 0.333612970986286 
1005	 0.33492462040455 
1006	 0.336198618866448 
1007	 0.337426390328944 
1008	 0.338629890576637 
1009	 0.339859819562863 
1010	 0.341133263310979 
1011	 0.342301146786737 
1012	 0.343451055684053 
1013	 0.344610356789542 
1014	 0.345684993027655 
1015	 0.346774693823808 
1016	 0.347937824165774 
1017	 0.349082391173647 
1018	 0.350249839272475 
1019	 0.351343764674784 
1020	 0.352447048031882 
1021	 0.353488928776292 
1022	 0.354438418347294 
1023	 0.355447567612346 
1024	 0.35639890538861 
1025	 0.357371852597877 
1026	 0.358461553594113 
1027	 0.359477259696477 
1028	 0.360459492082111 
1029	 0.361448339943772 
1030	 0.362372435686619 
1031	 0.363311124474908 
1032	 0.364236060845058 
1033	 0.365250222654857 
1034	 0.36623646802384 
1035	 0.367163153525163 
1036	 0.368130324466075 
1037	 0.369043675522027 
1038	 0.369921644911883 
1039	 0.370830026576802 
1040	 0.3716972681345 
1041	 0.372584280145013 
1042	 0.373486147320682 
1043	 0.374346607982611 
1044	 0.375245468637609 
1045	 0.376168709445133 
1046	 0.377100997686079 
1047	 0.378017963479784 
1048	 0.378947927004761 
1049	 0.379825247617654 
1050	 0.380698055963375 
1051	 0.381558740202848 
1052	 0.382395935340867 
1053	 0.383265144604919 
1054	 0.384131962956002 
1055	 0.385025478770439 
1056	 0.385918104090733 
1057	 0.386784068709422 
1058	 0.38766541563469 
1059	 0.388492424402993 
1060	 0.389260413995876 
1061	 0.39001990636532 
1062	 0.390847230848038 
1063	 0.391707101574051 
1064	 0.392537030338381 
1065	 0.393377248984126 
1066	 0.394200384261985 
1067	 0.394960009374351 
1068	 0.39573461247959 
1069	 0.396534006075523 
1070	 0.397318686794187 
1071	 0.398066424420169 
1072	 0.398855059535745 
1073	 0.399706681043981 
1074	 0.400462784828923 
1075	 0.401177620888519 
1076	 0.401896104139484 
1077	 0.402597488806551 
1078	 0.40324578983161 
1079	 0.403937940566375 
1080	 0.404638385373466 
1081	 0.405274075500533 
1082	 0.405987622243685 
1083	 0.406692426950022 
1084	 0.407422593096374 
1085	 0.4081136113479 
1086	 0.408799536716567 
1087	 0.409457275649769 
1088	 0.410065740933525 
1089	 0.410745223169763 
1090	 0.411405172376789 
1091	 0.412042184814361 
1092	 0.412692646242992 
1093	 0.413267406267818 
1094	 0.41384817936095 
1095	 0.414466863618532 
1096	 0.415069963087795 
1097	 0.415739796834292 
1098	 0.416371471872404 
1099	 0.416998250872892 
1100	 0.417597026193045 
1101	 0.418181588024556 
1102	 0.418760330216372 
1103	 0.419321854706879 
1104	 0.419882398887564 
1105	 0.420451046154629 
1106	 0.421009625376632 
1107	 0.421557683357558 
1108	 0.422159419273158 
1109	 0.422781184887029 
1110	 0.423380302021825 
1111	 0.423961888830624 
1112	 0.424556669146735 
1113	 0.425096315612855 
1114	 0.425566510319131 
1115	 0.426094632374834 
1116	 0.426629211438833 
1117	 0.427160392243307 
1118	 0.427717126050236 
1119	 0.428257609062598 
1120	 0.428789924607605 
1121	 0.429288628157812 
1122	 0.429808979813092 
1123	 0.430358924702075 
1124	 0.43088719040885 
1125	 0.431421690047094 
1126	 0.431934472823412 
1127	 0.43242233518182 
1128	 0.432928507841057 
1129	 0.433440317129598 
1130	 0.43393854027057 
1131	 0.434443507219038 
1132	 0.434932759928589 
1133	 0.43537414109604 
1134	 0.435858101266757 
1135	 0.436355949552124 
1136	 0.436874787772585 
1137	 0.437392475037411 
1138	 0.437920630156817 
1139	 0.438404562157693 
1140	 0.438860895685463 
1141	 0.439308574082067 
1142	 0.439718491476203 
1143	 0.44016419626066 
1144	 0.440622583521407 
1145	 0.44105996404116 
1146	 0.441512061281293 
1147	 0.441938742575124 
1148	 0.442324701243513 
1149	 0.442732638028743 
1150	 0.443139089696363 
1151	 0.44356323592843 
1152	 0.443970848415311 
1153	 0.444377748437905 
1154	 0.444795075122762 
1155	 0.445212712299638 
1156	 0.445621619096755 
1157	 0.446049108784813 
1158	 0.446454417613071 
1159	 0.446852073089741 
1160	 0.447227645445489 
1161	 0.447576360214092 
1162	 0.44793586064748 
1163	 0.448288367295067 
1164	 0.44863233012676 
1165	 0.448961053409846 
1166	 0.449324634907376 
1167	 0.449679544278262 
1168	 0.450030335652504 
1169	 0.450371184726487 
1170	 0.450727427520498 
1171	 0.451059424533065 
1172	 0.451361865974394 
1173	 0.451679037380339 
1174	 0.451995697529938 
1175	 0.452319226569253 
1176	 0.45264891721318 
1177	 0.452968153113121 
1178	 0.453294968004916 
1179	 0.453611817953101 
1180	 0.453907418287313 
1181	 0.454214804392089 
1182	 0.45452641850327 
1183	 0.454846895084982 
1184	 0.455141280728065 
1185	 0.455420812567633 
1186	 0.455721884047595 
1187	 0.456017673670435 
1188	 0.456312648592468 
1189	 0.456629177444248 
1190	 0.456927059116661 
1191	 0.457214555945269 
1192	 0.457490986802152 
1193	 0.457773839790252 
1194	 0.45803065254087 
1195	 0.458241811283005 
1196	 0.458479642927419 
1197	 0.458714996173618 
1198	 0.458958452125429 
1199	 0.459210185549764 
1200	 0.459488989500184 
1201	 0.45972837447009 
1202	 0.45994478420052 
1203	 0.460188949324693 
1204	 0.460415314715064 
1205	 0.460679472080541 
1206	 0.46098905375748 
1207	 0.461269683105755 
1208	 0.461571535260069 
1209	 0.461834259504515 
1210	 0.462077336553017 
1211	 0.462306108586102 
1212	 0.462481967980392 
1213	 0.462696429319351 
1214	 0.462922378145832 
1215	 0.463145945259265 
1216	 0.46337706316669 
1217	 0.463638312969182 
1218	 0.463862784162726 
1219	 0.464067878830189 
1220	 0.464281465043807 
1221	 0.464482943511982 
1222	 0.464699365899126 
1223	 0.464935013493901 
1224	 0.465144786050551 
1225	 0.465346338580863 
1226	 0.465548975582917 
1227	 0.465738691841772 
1228	 0.465928435894809 
1229	 0.466119754001268 
1230	 0.466312104311879 
1231	 0.466493988019235 
1232	 0.466682333377303 
1233	 0.466875323559755 
1234	 0.467081646430466 
1235	 0.467273850380256 
1236	 0.467467285775019 
1237	 0.467647824354102 
1238	 0.467820964120789 
1239	 0.467987497073194 
1240	 0.468136730418497 
1241	 0.468300178790679 
1242	 0.468474439619454 
1243	 0.468629143508427 
1244	 0.468769667559134 
1245	 0.468927980379483 
1246	 0.469073605182242 
1247	 0.469234508593909 
1248	 0.469426172922976 
1249	 0.469607805911018 
1250	 0.469775845837248 
1251	 0.469955991617751 
1252	 0.470123596071042 
1253	 0.470289039622319 
1254	 0.470444087198621 
1255	 0.470602904582896 
1256	 0.470728218212975 
1257	 0.470822537771481 
1258	 0.470934464876399 
1259	 0.471020329967626 
1260	 0.471133425728081 
1261	 0.471280619445871 
1262	 0.471401098353057 
1263	 0.471508705104368 
1264	 0.471627679939113 
1265	 0.471735696143318 
1266	 0.471857934041437 
1267	 0.472003502688113 
1268	 0.472138912350114 
1269	 0.472274478038455 
1270	 0.4723992433927 
1271	 0.472559395997576 
1272	 0.472730639781643 
1273	 0.472911483027082 
1274	 0.47312350849237 
1275	 0.473320488586263 
1276	 0.473509123716243 
1277	 0.473713733825318 
1278	 0.473930392798404 
1279	 0.474144644880929 
1280	 0.474358030459494 
1281	 0.474582449418151 
1282	 0.474817435012006 
1283	 0.475049539937165 
1284	 0.475297522867226 
1285	 0.47553081736128 
1286	 0.475755842304261 
1287	 0.475968325722592 
1288	 0.476185484929579 
1289	 0.476402017048505 
1290	 0.476605543083552 
1291	 0.476803500036327 
1292	 0.477002380999787 
1293	 0.477208222485123 
1294	 0.477373648382165 
1295	 0.477524548782241 
1296	 0.477662373152281 
1297	 0.477762306462314 
1298	 0.477865330951796 
1299	 0.477954385357041 
1300	 0.47805930227624 
1301	 0.478179013300723 
1302	 0.478268341179934 
1303	 0.478348810190137 
1304	 0.478434759879241 
1305	 0.478510093785911 
1306	 0.478541219654439 
1307	 0.478564906029855 
1308	 0.478604888253257 
1309	 0.478619440546471 
1310	 0.478597974205085 
1311	 0.478586698242035 
1312	 0.478576976053197 
1313	 0.47856339725101 
1314	 0.478544712737262 
1315	 0.47851980706723 
1316	 0.478497698559787 
1317	 0.478461139550341 
1318	 0.478405860444433 
1319	 0.478349905815293 
1320	 0.478287954093326 
1321	 0.478233445400241 
1322	 0.478181354992898 
1323	 0.478119773558571 
1324	 0.478072962636612 
1325	 0.477991125165263 
1326	 0.477906959563879 
1327	 0.477852433481377 
1328	 0.477791082530591 
1329	 0.477739543802206 
1330	 0.477646647011732 
1331	 0.477528795989017 
1332	 0.477415136154281 
1333	 0.477267061526056 
1334	 0.477144781796094 
1335	 0.477033031254276 
1336	 0.476927558445875 
1337	 0.476825035583343 
1338	 0.476735053535617 
1339	 0.476669203542485 
1340	 0.476582408099373 
1341	 0.476506837077558 
1342	 0.476404434887141 
1343	 0.476270008907568 
1344	 0.47614384386777 
1345	 0.476044071532023 
1346	 0.475931091542855 
1347	 0.475846450522552 
1348	 0.475785693685575 
1349	 0.475674166100845 
1350	 0.475565528862033 
1351	 0.475465239436009 
1352	 0.475362566892439 
1353	 0.475250822067758 
1354	 0.475143556818533 
1355	 0.47503352002573 
1356	 0.474902647375986 
1357	 0.474799114815822 
1358	 0.4747073320681 
1359	 0.474622253078246 
1360	 0.474549449860765 
1361	 0.474474084272576 
1362	 0.474423107628507 
1363	 0.474345490836833 
1364	 0.474245640283022 
1365	 0.474164971832325 
1366	 0.474080513351461 
1367	 0.473987310611194 
1368	 0.473941322375114 
1369	 0.473879015779148 
1370	 0.473782367038825 
1371	 0.473671885863909 
1372	 0.473514446787614 
1373	 0.473334639925648 
1374	 0.473165723568236 
1375	 0.472997007947143 
1376	 0.472797499076281 
1377	 0.472609367101336 
1378	 0.472359893403197 
1379	 0.472045118029186 
1380	 0.471755901669758 
1381	 0.471444697724961 
1382	 0.471133329451652 
1383	 0.47086628505036 
1384	 0.470518099886998 
1385	 0.470130889960206 
1386	 0.469715275562943 
1387	 0.46925746869802 
1388	 0.46876441053555 
1389	 0.468259277513873 
1390	 0.467699438234892 
1391	 0.467069225250214 
1392	 0.466385425059059 
1393	 0.465635479016654 
1394	 0.464830444958925 
1395	 0.463964424793351 
1396	 0.463080344343031 
1397	 0.462207901242985 
1398	 0.461307012666072 
1399	 0.460425237842223 
1400	 0.459570881515387 
1401	 0.458674349691429 
1402	 0.457744118547912 
1403	 0.456845840465339 
1404	 0.455912995193956 
1405	 0.455054564528208 
1406	 0.454255773670914 
1407	 0.453439029166887 
1408	 0.452623005727739 
1409	 0.45186402822058 
1410	 0.451077231723771 
1411	 0.450400967576536 
1412	 0.449787291082449 
1413	 0.449265036109655 
1414	 0.448857284262728 
1415	 0.448477788564473 
1416	 0.448151688711748 
1417	 0.447838322349118 
1418	 0.447480671071799 
1419	 0.447160814855948 
1420	 0.4468879516343 
1421	 0.446647298650694 
1422	 0.446445690102264 
1423	 0.446247455641906 
1424	 0.446004780341016 
1425	 0.445731263967138 
1426	 0.445479886947308 
1427	 0.445183338044328 
1428	 0.444960109094385 
1429	 0.444790085822029 
1430	 0.444602910528919 
1431	 0.4444456151667 
1432	 0.444271099998633 
1433	 0.444081914111582 
1434	 0.443911283366903 
1435	 0.443721155099715 
1436	 0.443587051995901 
1437	 0.44347749480508 
1438	 0.443391374219602 
1439	 0.443351879778675 
1440	 0.443331262900591 
1441	 0.44328814779029 
1442	 0.443222652599645 
1443	 0.443116822710093 
1444	 0.443023000546042 
1445	 0.44295097294032 
1446	 0.442907332055678 
1447	 0.442914092479237 
1448	 0.442887422748904 
1449	 0.442800128219288 
1450	 0.442702181597786 
1451	 0.442609229606533 
1452	 0.442475877180746 
1453	 0.442388376452454 
1454	 0.442334613796094 
1455	 0.442260352615733 
1456	 0.442196231984203 
1457	 0.442105880397212 
1458	 0.44199678483699 
1459	 0.441898303979406 
1460	 0.44177389530637 
1461	 0.441688738348116 
1462	 0.441625007889841 
1463	 0.441565236716145 
1464	 0.441528419823738 
1465	 0.44148614779966 
1466	 0.44144080363638 
1467	 0.441412373668661 
1468	 0.441352695959014 
1469	 0.441369097157867 
1470	 0.441425004540579 
1471	 0.441514543793554 
1472	 0.441667919396777 
1473	 0.441857674115493 
1474	 0.442017025605784 
1475	 0.442188437348715 
1476	 0.442349041008632 
1477	 0.442525152053693 
1478	 0.442736730552454 
1479	 0.442948309482784 
1480	 0.443205221661315 
1481	 0.443469551853408 
1482	 0.443734473491675 
1483	 0.44403381109408 
1484	 0.444286910145182 
1485	 0.444507508587479 
1486	 0.444758193664531 
1487	 0.444988446229138 
1488	 0.445250614788162 
1489	 0.44556715160301 
1490	 0.445834326779679 
1491	 0.446094165044147 
1492	 0.446338605376269 
1493	 0.44655429821127 
1494	 0.446771656816255 
1495	 0.446975567853902 
1496	 0.447189147439365 
1497	 0.447408178222032 
1498	 0.447612071811551 
1499	 0.447836535744268 
1500	 0.448015932244707 
1501	 0.44813674355287 
1502	 0.44829478636268 
1503	 0.448455327374485 
1504	 0.448595858022612 
1505	 0.448770263995816 
1506	 0.44894716456388 
1507	 0.449106189569803 
1508	 0.449269666684344 
1509	 0.449421826147288 
1510	 0.449565973318335 
1511	 0.449688312567698 
1512	 0.449806061588263 
1513	 0.449954905895509 
1514	 0.450121914707472 
1515	 0.450288538186122 
1516	 0.450459970609483 
1517	 0.450618376742048 
1518	 0.450766064298622 
1519	 0.450902106881468 
1520	 0.451034926271284 
1521	 0.451159323314711 
1522	 0.451261145220974 
1523	 0.451380061046608 
1524	 0.451500903660234 
1525	 0.451624174678722 
1526	 0.451755084109346 
1527	 0.451880733552378 
1528	 0.452010291800233 
1529	 0.452128060637589 
1530	 0.452246918996354 
1531	 0.452346796916717 
1532	 0.452428489101503 
1533	 0.45250956462503 
1534	 0.452572504841386 
1535	 0.452648911998588 
1536	 0.452723884622285 
1537	 0.452811983817238 
1538	 0.452906829014264 
1539	 0.453006925997604 
1540	 0.453125298720658 
1541	 0.453230325084516 
1542	 0.453329430549488 
1543	 0.453434203915039 
1544	 0.453547020032451 
1545	 0.453644367681475 
1546	 0.453740207848496 
1547	 0.453837041417781 
1548	 0.453890372662524 
1549	 0.453914571247237 
1550	 0.4539559752346 
1551	 0.454001349361883 
1552	 0.454077170162357 
1553	 0.45418276974992 
1554	 0.454261954650337 
1555	 0.454318273878404 
1556	 0.45435781839262 
1557	 0.454396828904074 
1558	 0.454441156799522 
1559	 0.454492010854124 
1560	 0.454551667281779 
1561	 0.454617837639745 
1562	 0.454678459229792 
1563	 0.45474360674846 
1564	 0.454817668562845 
1565	 0.454894629980646 
1566	 0.454971788111683 
1567	 0.455068270175021 
1568	 0.455134048966749 
1569	 0.455174020601825 
1570	 0.455232816650648 
1571	 0.455298463647886 
1572	 0.455342628864747 
1573	 0.455387179914361 
1574	 0.45542352207961 
1575	 0.455433961164413 
1576	 0.455451823360199 
1577	 0.455477282031372 
1578	 0.455496504994402 
1579	 0.455489173035468 
1580	 0.455521596144107 
1581	 0.45558256142531 
1582	 0.455622582138824 
1583	 0.455679691867695 
1584	 0.455722980420914 
1585	 0.455746049051373 
1586	 0.455775739677398 
1587	 0.455813725745649 
1588	 0.455838567290633 
1589	 0.455848019057427 
1590	 0.455862526043435 
1591	 0.455870636611709 
1592	 0.455888646747254 
1593	 0.455912992692804 
1594	 0.455939475778617 
1595	 0.455979959399103 
1596	 0.456003411198372 
1597	 0.456022203776436 
1598	 0.456033376346634 
1599	 0.456035667612097 
1600	 0.456030673318364 
1601	 0.45600517753512 
1602	 0.456000451780817 
1603	 0.455987632937386 
1604	 0.455993120588295 
1605	 0.456033407916605 
1606	 0.456058442055309 
1607	 0.456083663947422 
1608	 0.456110446215564 
1609	 0.456141073892316 
1610	 0.45615322361776 
1611	 0.456153811582631 
1612	 0.456158581078731 
1613	 0.456132258076565 
1614	 0.456103274147736 
1615	 0.456088264741246 
1616	 0.456065718855702 
1617	 0.456053094274267 
1618	 0.456049556744208 
1619	 0.456035217465477 
1620	 0.456037832246141 
1621	 0.456037193524153 
1622	 0.456049398042767 
1623	 0.456028057101255 
1624	 0.455995901726747 
1625	 0.455958365589173 
1626	 0.45589441124343 
1627	 0.455849900749657 
1628	 0.455806697286285 
1629	 0.455783100874075 
1630	 0.455763996524599 
1631	 0.455763871252139 
1632	 0.455801355075904 
1633	 0.455790158525451 
1634	 0.455772644303191 
1635	 0.455737213990726 
1636	 0.455669603578738 
1637	 0.455614319264967 
1638	 0.455549368860052 
1639	 0.455506233274388 
1640	 0.455461286981364 
1641	 0.455437791777775 
1642	 0.45544102528479 
1643	 0.455432280461442 
1644	 0.45543467860557 
1645	 0.455419383510935 
1646	 0.455401854260479 
1647	 0.455370713416587 
1648	 0.455321445740609 
1649	 0.455280845472172 
1650	 0.455227775297623 
1651	 0.455195347461109 
1652	 0.455172513466606 
1653	 0.455153235804578 
1654	 0.455151271777965 
1655	 0.455134093900554 
1656	 0.455113688143487 
1657	 0.455092736184272 
1658	 0.455077594320164 
1659	 0.455034417276438 
1660	 0.454982612818546 
1661	 0.454917177194046 
1662	 0.45481597810218 
1663	 0.454737452534625 
1664	 0.454657451189753 
1665	 0.454590000946469 
1666	 0.454518362177512 
1667	 0.454481436337835 
1668	 0.454483939090416 
1669	 0.454453890496461 
1670	 0.454443489982456 
1671	 0.454401157604965 
1672	 0.454321375616045 
1673	 0.454253408830622 
1674	 0.4541768460977 
1675	 0.454111043490915 
1676	 0.454053018205089 
1677	 0.453980587620442 
1678	 0.453903163762885 
1679	 0.45383298246719 
1680	 0.453747530514657 
1681	 0.453682702807129 
1682	 0.453649809267853 
1683	 0.453584531491728 
1684	 0.453509173773453 
1685	 0.453432865615447 
1686	 0.453335197709219 
1687	 0.453256086198113 
1688	 0.453172923762384 
1689	 0.453119633020042 
1690	 0.453085711677283 
1691	 0.45305507679715 
1692	 0.453058866818682 
1693	 0.453035591327715 
1694	 0.453003498070563 
1695	 0.452966259738909 
1696	 0.452902211489325 
1697	 0.452878555168261 
1698	 0.45289334222167 
1699	 0.452858187183383 
1700	 0.452842938578695 
1701	 0.452766740031051 
1702	 0.452613213331338 
1703	 0.452491962643999 
1704	 0.452358389802112 
1705	 0.452232469328199 
1706	 0.452108713949913 
1707	 0.451991688328055 
1708	 0.451868979221237 
1709	 0.451765682866736 
1710	 0.451685165949676 
1711	 0.451590060225317 
1712	 0.451502302954301 
1713	 0.451401149768258 
1714	 0.451288074798013 
1715	 0.451174555338195 
1716	 0.451046263077733 
1717	 0.450945964824293 
1718	 0.450846775176946 
1719	 0.450771174943232 
1720	 0.450735983348775 
1721	 0.450661947450194 
1722	 0.450584040502823 
1723	 0.450506086491803 
1724	 0.450423840726879 
1725	 0.450316789563516 
1726	 0.450205464842651 
1727	 0.45007210632049 
1728	 0.449890170712166 
1729	 0.449746947065077 
1730	 0.449614735284361 
1731	 0.44947947756335 
1732	 0.449350637064557 
1733	 0.449235762918999 
1734	 0.449139040677416 
1735	 0.449010870601155 
1736	 0.448886330413212 
1737	 0.448729743928703 
1738	 0.44852732768615 
1739	 0.448367046560532 
1740	 0.448205501961357 
1741	 0.448068691231562 
1742	 0.447960826729535 
1743	 0.447829464215307 
1744	 0.447714321079307 
1745	 0.447565082102562 
1746	 0.447389241316663 
1747	 0.447223074352418 
1748	 0.447031890433808 
1749	 0.446876359652393 
1750	 0.446758974158113 
1751	 0.446636267880593 
1752	 0.446511774968742 
1753	 0.446370232194099 
1754	 0.446185568664791 
1755	 0.445970006996589 
1756	 0.445793462725302 
1757	 0.445637567090137 
1758	 0.445488571111771 
1759	 0.445361421904418 
1760	 0.445248995200518 
1761	 0.44514063621992 
1762	 0.445001828333416 
1763	 0.444872756725274 
1764	 0.444723587610586 
1765	 0.4445442571936 
1766	 0.444374052735044 
1767	 0.444196650933868 
1768	 0.444038899896089 
1769	 0.443896958064282 
1770	 0.443772345003303 
1771	 0.443688161532422 
1772	 0.443627302024315 
1773	 0.4435584857848 
1774	 0.443479963965453 
1775	 0.443372997141536 
1776	 0.443188228104155 
1777	 0.44299760749378 
1778	 0.44284054706552 
1779	 0.442675098985139 
1780	 0.442565493615552 
1781	 0.442475843894078 
1782	 0.442382483602822 
1783	 0.442357848306798 
1784	 0.442322941021367 
1785	 0.442331276705288 
1786	 0.442300884791969 
1787	 0.442251116252154 
1788	 0.442196097985535 
1789	 0.442121857360868 
1790	 0.442054758854315 
1791	 0.441995167543132 
1792	 0.441892244251191 
1793	 0.441738542920392 
1794	 0.441641299643486 
1795	 0.441542541243247 
1796	 0.441465113409164 
1797	 0.44145547226922 
1798	 0.441397852426098 
1799	 0.441322597516618 
1800	 0.441242651353845 
1801	 0.445865468403652 
1802	 0.446127445883469 
1803	 0.446408247264472 
1804	 0.446746110679238 
1805	 0.44714705487114 
1806	 0.447559920819056 
1807	 0.447928623419052 
1808	 0.448254683417649 
1809	 0.448607426638565 
1810	 0.448855552656467 
1811	 0.449021240133535 
1812	 0.449174284266885 
1813	 0.449279980442255 
1814	 0.449273295920802 
1815	 0.44925659573911 
1816	 0.44926843712091 
1817	 0.449249318346748 
1818	 0.449196454523313 
1819	 0.449170387507979 
1820	 0.449164730635781 
1821	 0.449088414033743 
1822	 0.449046345621121 
1823	 0.449014465661009 
1824	 0.448958424288968 
1825	 0.448915954306369 
1826	 0.448844150287573 
1827	 0.448744555788425 
1828	 0.448614817901596 
1829	 0.448458253225519 
1830	 0.448265358081142 
1831	 0.448017579803739 
1832	 0.447797063783206 
1833	 0.4475675158079 
1834	 0.447324110791177 
1835	 0.447148198844159 
1836	 0.446965125991316 
1837	 0.446782653086939 
1838	 0.446613694677295 
1839	 0.446443823520335 
1840	 0.446273334576369 
1841	 0.446111586511929 
1842	 0.445943636603147 
1843	 0.445783870260282 
1844	 0.445625867497999 
1845	 0.445486732313271 
1846	 0.445377574340194 
1847	 0.445303469254482 
1848	 0.445264499119281 
1849	 0.445183902550438 
1850	 0.44510957540456 
1851	 0.445030578367689 
1852	 0.444967475016782 
1853	 0.444900073652777 
1854	 0.444823305489264 
1855	 0.444717229523559 
1856	 0.444560628441555 
1857	 0.444334884699406 
1858	 0.444122266683153 
1859	 0.443910570963265 
1860	 0.443652186631048 
1861	 0.44336235343142 
1862	 0.443051489532162 
1863	 0.442726585874603 
1864	 0.442397000416936 
1865	 0.442050794005946 
1866	 0.441680938869553 
1867	 0.441271631535035 
1868	 0.44077070875921 
1869	 0.440236920472053 
1870	 0.43973126582569 
1871	 0.439144654150759 
1872	 0.438509216172963 
1873	 0.437837027661205 
1874	 0.437127479931533 
1875	 0.436310452872538 
1876	 0.435441641615098 
1877	 0.434511532174693 
1878	 0.433482057443004 
1879	 0.432343516750141 
1880	 0.43108199188526 
1881	 0.429712138890378 
1882	 0.42823340404824 
1883	 0.42663870545374 
1884	 0.424901811995945 
1885	 0.423124563162951 
1886	 0.421203222998486 
1887	 0.419105029833437 
1888	 0.416944618830496 
1889	 0.414626058858656 
1890	 0.412199656514927 
1891	 0.409757359373234 
1892	 0.407241220874515 
1893	 0.404677194333412 
1894	 0.402047243071299 
1895	 0.39940929269416 
1896	 0.396706158733058 
1897	 0.394053505038029 
1898	 0.39139403295491 
1899	 0.388722690964788 
1900	 0.386156445883888 
1901	 0.383631135511446 
1902	 0.381189045649395 
1903	 0.378856391289235 
1904	 0.376577265386897 
1905	 0.374339949741174 
1906	 0.372203076420066 
1907	 0.370167169973079 
1908	 0.368224419725711 
1909	 0.366391467605064 
1910	 0.364607226473825 
1911	 0.36292140740762 
1912	 0.361327721970095 
1913	 0.35979966102164 
1914	 0.358345596645819 
1915	 0.356985039177045 
1916	 0.355694334900713 
1917	 0.354487296707692 
1918	 0.353414348285184 
1919	 0.3524041126192 
1920	 0.351484027182479 
1921	 0.350650711110094 
1922	 0.349885900351238 
1923	 0.349219509216865 
1924	 0.348612688821487 
1925	 0.348097643759197 
1926	 0.347634222611346 
1927	 0.34723309975649 
1928	 0.346886632107318 
1929	 0.346607285347111 
1930	 0.346374033351214 
1931	 0.346191743337658 
1932	 0.346049871087119 
1933	 0.345961083709911 
1934	 0.345921051770971 
1935	 0.34591751244282 
1936	 0.345948614577979 
1937	 0.34603545965243 
1938	 0.346184634317278 
1939	 0.346348706899226 
1940	 0.346555708129926 
1941	 0.346789711117554 
1942	 0.347038620083123 
1943	 0.347310656004326 
1944	 0.347607539329855 
1945	 0.347938959800589 
1946	 0.348285195589702 
1947	 0.348654614469754 
1948	 0.349037284779968 
1949	 0.349438707620101 
1950	 0.34985241863296 
1951	 0.350279251762887 
1952	 0.350732319590236 
1953	 0.351184365899912 
1954	 0.351669781275248 
1955	 0.352146871070238 
1956	 0.352637700686362 
1957	 0.353152601244854 
1958	 0.353686884988487 
1959	 0.354228544490964 
1960	 0.354799927773403 
1961	 0.35536193785363 
1962	 0.355924665222192 
1963	 0.356496483927513 
1964	 0.357065820366951 
1965	 0.357653455056384 
1966	 0.358266012164045 
1967	 0.358889309624 
1968	 0.35951243082665 
1969	 0.36015911579407 
1970	 0.360783274491381 
1971	 0.361396845932311 
1972	 0.362018469487569 
1973	 0.362643882400537 
1974	 0.363264954593651 
1975	 0.363885572869142 
1976	 0.364499766634127 
1977	 0.365135887026402 
1978	 0.365743789686434 
1979	 0.366349274160371 
1980	 0.366995871563066 
1981	 0.3676346160901 
1982	 0.368273498402381 
1983	 0.368914153803513 
1984	 0.369575125960204 
1985	 0.370214346981152 
1986	 0.370847964430416 
1987	 0.371469480190404 
1988	 0.372077100861124 
1989	 0.372689624970814 
1990	 0.373281807430648 
1991	 0.37387235616468 
1992	 0.37446818393305 
1993	 0.375066802233942 
1994	 0.375657795580502 
1995	 0.376257507179605 
1996	 0.37683531220521 
1997	 0.377386691722223 
1998	 0.377963982221161 
1999	 0.378526069538726 
2000	 0.379111839505693 
2001	 0.379732018539843 
2002	 0.380348597195042 
2003	 0.380945348083408 
2004	 0.381561524617185 
2005	 0.382144074127613 
2006	 0.382693847259581 
2007	 0.383265276228163 
2008	 0.383825902683615 
2009	 0.384401190365646 
2010	 0.385001139496825 
2011	 0.385584953831077 
2012	 0.38617393843036 
2013	 0.386743418471573 
2014	 0.387304001954554 
2015	 0.387850248071148 
2016	 0.388376585610677 
2017	 0.388886741354009 
2018	 0.389421954669243 
2019	 0.389945817382651 
2020	 0.390499357392678 
2021	 0.391111273553359 
2022	 0.391662507343423 
2023	 0.392194615286858 
2024	 0.392729360906515 
2025	 0.393231298343595 
2026	 0.393739459881314 
2027	 0.394252262485069 
2028	 0.39478332938677 
2029	 0.395273236867577 
2030	 0.395745989220676 
2031	 0.396202418304657 
2032	 0.396634224734769 
2033	 0.397059702099156 
2034	 0.3974590517382 
2035	 0.397874850309046 
2036	 0.398286509641099 
2037	 0.398702861523405 
2038	 0.399139937324248 
2039	 0.399549884920613 
2040	 0.39994358713823 
2041	 0.400334444138745 
2042	 0.400717860209357 
2043	 0.401103372105204 
2044	 0.40149224740664 
2045	 0.401883233317209 
2046	 0.402285515038819 
2047	 0.402707472778996 
2048	 0.403096415168416 
2049	 0.403507370941616 
2050	 0.403862983339769 
2051	 0.404157515616854 
2052	 0.404471086914665 
2053	 0.404754012285852 
2054	 0.405052020858745 
2055	 0.405360752372859 
2056	 0.405677331598083 
2057	 0.405967418060847 
2058	 0.406249842247022 
2059	 0.406528613351154 
2060	 0.406779658383401 
2061	 0.407053518117483 
2062	 0.407344305228767 
2063	 0.407618580349301 
2064	 0.407892668958337 
2065	 0.408162593618908 
2066	 0.408427009215909 
2067	 0.408682125396201 
2068	 0.40891722329983 
2069	 0.409181319329598 
2070	 0.40942578004081 
2071	 0.409657199668829 
2072	 0.409894991382342 
2073	 0.410130331354132 
2074	 0.41037151505712 
2075	 0.410615885522315 
2076	 0.410856511082257 
2077	 0.411092147022777 
2078	 0.411343931029562 
2079	 0.411611858775232 
2080	 0.411860281104871 
2081	 0.412108062157263 
2082	 0.412359803039968 
2083	 0.41260224834355 
2084	 0.412836136016259 
2085	 0.413079991857351 
2086	 0.413340842115689 
2087	 0.413584695173583 
2088	 0.413817401816526 
2089	 0.414055906482772 
2090	 0.414311386434835 
2091	 0.414528371739201 
2092	 0.414713840926512 
2093	 0.414921397878837 
2094	 0.415103413560667 
2095	 0.415310723837861 
2096	 0.415546549059634 
2097	 0.415781045747717 
2098	 0.416027521216861 
2099	 0.416272672835361 
2100	 0.416491501835113 
2101	 0.416700910512077 
2102	 0.416918562805775 
2103	 0.417107970660279 
2104	 0.417327354969537 
2105	 0.417580427316079 
2106	 0.417807918133119 
2107	 0.418023751246419 
2108	 0.418250930147941 
2109	 0.418466683869609 
2110	 0.418701777769298 
2111	 0.41895566598426 
2112	 0.419206212539227 
2113	 0.419453718688166 
2114	 0.419731739844999 
2115	 0.419984198939151 
2116	 0.420221640750695 
2117	 0.420490830312538 
2118	 0.420770639790172 
2119	 0.42104292665386 
2120	 0.421333576362421 
2121	 0.421615716132962 
2122	 0.421880541745744 
2123	 0.422159876068671 
2124	 0.422495366103122 
2125	 0.422746829572176 
2126	 0.42296517416738 
2127	 0.423163206210933 
2128	 0.423284021021464 
2129	 0.42342681085768 
2130	 0.423600007605748 
2131	 0.423721279555276 
2132	 0.423821849200306 
2133	 0.423908723802783 
2134	 0.423968936882199 
2135	 0.423983304593086 
2136	 0.424007511819085 
2137	 0.424031368694613 
2138	 0.424023333128216 
2139	 0.424004602197167 
2140	 0.42395268505736 
2141	 0.423862009554508 
2142	 0.423767653518276 
2143	 0.42364660877591 
2144	 0.423521014970654 
2145	 0.423386982211707 
2146	 0.423244188875619 
2147	 0.423072833992054 
2148	 0.422919550429966 
2149	 0.422769369780505 
2150	 0.422635824878722 
2151	 0.422451472496769 
2152	 0.422255765939954 
2153	 0.422052249995914 
2154	 0.421827633306599 
2155	 0.421571695791896 
2156	 0.421331731652031 
2157	 0.421022715919786 
2158	 0.420633980797934 
2159	 0.420254605216853 
2160	 0.419846185536609 
2161	 0.419430111528672 
2162	 0.418969761111387 
2163	 0.418549798220687 
2164	 0.418141107821607 
2165	 0.417737006651515 
2166	 0.417330949879336 
2167	 0.41695511579661 
2168	 0.416549744764661 
2169	 0.41611755460482 
2170	 0.415703598062951 
2171	 0.415288767376438 
2172	 0.414888655418372 
2173	 0.414507625774649 
2174	 0.414103853649144 
2175	 0.413712535695642 
2176	 0.413296035031239 
2177	 0.412864125385946 
2178	 0.412406126361735 
2179	 0.411924686879926 
2180	 0.411436668664829 
2181	 0.410901882169076 
2182	 0.410392837819032 
2183	 0.409888497528501 
2184	 0.409404206840003 
2185	 0.408893757495368 
2186	 0.408367482522306 
2187	 0.407883860473908 
2188	 0.407391376557316 
2189	 0.406933899361592 
2190	 0.40653335530596 
2191	 0.406106359156797 
2192	 0.405657499859658 
2193	 0.405257564280165 
2194	 0.404878646035877 
2195	 0.404512557706875 
2196	 0.404189791218703 
2197	 0.403855987816221 
2198	 0.403500382678866 
2199	 0.403193583783348 
2200	 0.402900104127937 
2201	 0.40264110067163 
2202	 0.40241843891233 
2203	 0.402234157166876 
2204	 0.402068389265565 
2205	 0.4019295940198 
2206	 0.401820097583005 
2207	 0.401743442829108 
2208	 0.401677010617461 
2209	 0.401641376579474 
2210	 0.401612009434641 
2211	 0.401598068422786 
2212	 0.401596701912002 
2213	 0.401603052977607 
2214	 0.401636341678803 
2215	 0.401726455750662 
2216	 0.401761025610188 
2217	 0.401803764251461 
2218	 0.401814992540396 
2219	 0.401769097708916 
2220	 0.401734729736352 
2221	 0.401711634927895 
2222	 0.401653396318493 
2223	 0.401592687565707 
2224	 0.401527894022912 
2225	 0.401460003947089 
2226	 0.401395229403251 
2227	 0.401298061323018 
2228	 0.401184667416859 
2229	 0.401065725424057 
2230	 0.400917280598229 
2231	 0.400780152735615 
2232	 0.400649457770168 
2233	 0.40050790293969 
2234	 0.400376766341841 
2235	 0.400203322497773 
2236	 0.400029146950828 
2237	 0.399797835449995 
2238	 0.399491144496746 
2239	 0.399206970956594 
2240	 0.398883894896922 
2241	 0.398586614115287 
2242	 0.398329114186749 
2243	 0.398032895758646 
2244	 0.397717359767363 
2245	 0.39740200732212 
2246	 0.397078729454142 
2247	 0.396739140995773 
2248	 0.396391284828893 
2249	 0.396058319738059 
2250	 0.395672462196207 
2251	 0.395227223384381 
2252	 0.394834119693921 
2253	 0.394423290961858 
2254	 0.394051763668958 
2255	 0.39370745614834 
2256	 0.393391722060388 
2257	 0.393072310148966 
2258	 0.392828171336498 
2259	 0.392656033753037 
2260	 0.392481910628959 
2261	 0.392363117606424 
2262	 0.392232690497757 
2263	 0.392096045415291 
2264	 0.391983750942141 
2265	 0.391838805158474 
2266	 0.391798276336224 
2267	 0.39183084235006 
2268	 0.391884344572492 
2269	 0.39201844173148 
2270	 0.392178091966442 
2271	 0.392330418059007 
2272	 0.392447167688463 
2273	 0.39256735350063 
2274	 0.392684974058115 
2275	 0.392792831673626 
2276	 0.392860259127157 
2277	 0.393009527759554 
2278	 0.39319140777278 
2279	 0.393363488828413 
2280	 0.393580500320191 
2281	 0.39378077792169 
2282	 0.393953234482019 
2283	 0.394172220951325 
2284	 0.394445351932529 
2285	 0.394668559594898 
2286	 0.394905199281921 
2287	 0.39509348370356 
2288	 0.395239551969649 
2289	 0.395380107831649 
2290	 0.395484823174369 
2291	 0.395599191338612 
2292	 0.395704362357578 
2293	 0.395803889007214 
2294	 0.395913667871737 
2295	 0.39599784970565 
2296	 0.39604962967383 
2297	 0.396121471371578 
2298	 0.396188945857292 
2299	 0.396236865797484 
2300	 0.396295764047384 
2301	 0.396315391935982 
2302	 0.396291383212349 
2303	 0.396268027679929 
2304	 0.396292635365065 
2305	 0.396339032720198 
2306	 0.396345754142577 
2307	 0.396359431035423 
2308	 0.396380203223031 
2309	 0.396369465493505 
2310	 0.396363318722547 
2311	 0.39642669141478 
2312	 0.396383558197156 
2313	 0.396233176931664 
2314	 0.396164733480354 
2315	 0.396096999519872 
2316	 0.396004895211555 
2317	 0.395956418372592 
2318	 0.395857365019044 
2319	 0.395681339353505 
2320	 0.395550911299804 
2321	 0.395417420064577 
2322	 0.395308980287177 
2323	 0.395212238238657 
2324	 0.395148416948211 
2325	 0.395121012897883 
2326	 0.395099175838677 
2327	 0.395112953717136 
2328	 0.395115964160471 
2329	 0.395075385687665 
2330	 0.395018808123029 
2331	 0.394962291345471 
2332	 0.394834116455632 
2333	 0.394740391751694 
2334	 0.394638187132362 
2335	 0.394524520981538 
2336	 0.394483365275138 
2337	 0.394368714588756 
2338	 0.394244920331941 
2339	 0.394082328102798 
2340	 0.393797054439181 
2341	 0.393534894245637 
2342	 0.393243567317541 
2343	 0.39298306267978 
2344	 0.392810404437026 
2345	 0.392595188077881 
2346	 0.392460843580651 
2347	 0.392182318716783 
2348	 0.391792967596824 
2349	 0.391443134931842 
2350	 0.391015212463745 
2351	 0.390680548200009 
2352	 0.390419055270333 
2353	 0.390101637265071 
2354	 0.389814081523222 
2355	 0.389463833999225 
2356	 0.389044386247201 
2357	 0.388664106837853 
2358	 0.388251984970483 
2359	 0.38787573977051 
2360	 0.387562186701452 
2361	 0.387195779818068 
2362	 0.38681115419205 
2363	 0.386439462311745 
2364	 0.386059475372606 
2365	 0.385639816043677 
2366	 0.38520994282333 
2367	 0.384762783470046 
2368	 0.384232893990592 
2369	 0.383779654422493 
2370	 0.383336773650985 
2371	 0.383004060310189 
2372	 0.382632333128279 
2373	 0.382189622418598 
2374	 0.381759280764202 
2375	 0.381249672104475 
2376	 0.380714058349637 
2377	 0.380239025211193 
2378	 0.379830010985209 
2379	 0.37938705103654 
2380	 0.378860925243188 
2381	 0.378426542803549 
2382	 0.377920244534974 
2383	 0.377364864379991 
2384	 0.376922715148989 
2385	 0.376320021380149 
2386	 0.375587029556049 
2387	 0.374843736705278 
2388	 0.374123800675938 
2389	 0.373523879846538 
2390	 0.372959851081571 
2391	 0.372345295851005 
2392	 0.371718290989636 
2393	 0.371058625342738 
2394	 0.370427467421189 
2395	 0.369854952751505 
2396	 0.369280874078571 
2397	 0.36876853567562 
2398	 0.36819083833552 
2399	 0.367643088477724 
2400	 0.36718259832332 
2401	 0.366610426541197 
2402	 0.366071647737086 
2403	 0.365561523428338 
2404	 0.364998368301896 
2405	 0.364409040518387 
2406	 0.363715104141852 
2407	 0.363062481540656 
2408	 0.362466690076842 
2409	 0.36171837652481 
2410	 0.361024835896929 
2411	 0.360409491787263 
2412	 0.359736860707522 
2413	 0.359226380415384 
2414	 0.358746155945679 
2415	 0.358198865909629 
2416	 0.357686230241759 
2417	 0.357133209890969 
2418	 0.356621030244809 
2419	 0.356219712967275 
2420	 0.355652008458264 
2421	 0.354996077478374 
2422	 0.354397986502379 
2423	 0.353710038363984 
2424	 0.353074524105197 
2425	 0.352518397777815 
2426	 0.351911706444164 
2427	 0.351267056624068 
2428	 0.350712064285285 
2429	 0.350220038546305 
2430	 0.349616035640867 
2431	 0.348952027498147 
2432	 0.34839164104764 
2433	 0.34786313258526 
2434	 0.347269171394854 
2435	 0.346726737779328 
2436	 0.346129578049127 
2437	 0.34539125818978 
2438	 0.344781791293316 
2439	 0.344284667743228 
2440	 0.34369057836404 
2441	 0.343074014813894 
2442	 0.342514316454452 
2443	 0.341976181446641 
2444	 0.341396672768848 
2445	 0.340758493585565 
2446	 0.340182096494426 
2447	 0.339679604016179 
2448	 0.339054068693468 
2449	 0.338407436558041 
2450	 0.337809296838334 
2451	 0.33707784377618 
2452	 0.336412020339499 
2453	 0.335880989183797 
2454	 0.335313424295945 
2455	 0.334743369179522 
2456	 0.334164043494585 
2457	 0.333568974015441 
2458	 0.333011340832588 
2459	 0.332400236849874 
2460	 0.331825748589323 
2461	 0.331383509340725 
2462	 0.330895526246726 
2463	 0.330381330967583 
2464	 0.329897975837359 
2465	 0.329407763361658 
2466	 0.328884267067982 
2467	 0.328365315358919 
2468	 0.327781766593151 
2469	 0.327103303657594 
2470	 0.32657160100556 
2471	 0.326083450964303 
2472	 0.325613682856523 
2473	 0.325224592514096 
2474	 0.324787208888057 
2475	 0.324397991736967 
2476	 0.324113457282785 
2477	 0.323739008510168 
2478	 0.323260934755926 
2479	 0.322707252818943 
2480	 0.322012704573942 
2481	 0.321296282804775 
2482	 0.320831683393194 
2483	 0.320463242809248 
2484	 0.319857194381376 
2485	 0.319232059554862 
2486	 0.318675812228032 
2487	 0.317958216656271 
2488	 0.317477697134825 
2489	 0.317303448267783 
2490	 0.316858846129266 
2491	 0.316374143274211 
2492	 0.315896547196922 
2493	 0.315317806159616 
2494	 0.314898152255948 
2495	 0.314410726399143 
2496	 0.313907937596935 
2497	 0.313535959801932 
2498	 0.313175981322832 
2499	 0.312731891894411 
2500	 0.312353865256647 
